Data from White_paper_FLMS001491_062.txt Node
Date: Tue Feb 07 10:35:24 GMT 2017
User: dcchb
Spectrometer: FLMS00149
Trigger mode: 0
Integration Time (sec): 2.000000E-2
Scans to average: 10
Electric dark correction enabled: true
Nonlinearity correction enabled: false
Boxcar width: 0
XAxis mode: Wavelengths
Number of Pixels in Spectrum: 2048
>>>>>Begin Spectral Data<<<<<
341.393	-14.19
341.776	-14.19
342.16	-14.19
342.543	-43.12
342.927	-46.74
343.31	-69.79
343.693	-42.89
344.077	-68.66
344.46	-60.52
344.843	-60.3
345.226	-72.5
345.61	-21.88
345.993	10.44
346.376	-4.7
346.759	11.57
347.142	9.53
347.525	44.56
347.908	60.61
348.291	88.18
348.674	85.69
349.057	90.66
349.44	122.53
349.823	144.45
350.206	147.16
350.588	214.73
350.971	247.72
351.354	257.66
351.737	288.62
352.119	281.84
352.502	277.78
352.884	323.88
353.267	311.67
353.65	314.84
354.032	332.91
354.414	339.24
354.797	350.32
355.179	341.73
355.562	370.2
355.944	355.74
356.326	374.95
356.709	372.01
357.091	366.13
357.473	377.21
357.855	400.48
358.238	376.98
358.62	363.87
359.002	369.75
359.384	380.82
359.766	405.68
360.148	383.99
360.53	375.85
360.912	368.17
361.294	362.97
361.676	381.95
362.057	349.41
362.439	366.59
362.821	372.01
363.203	369.52
363.584	356.42
363.966	365.46
364.348	369.3
364.729	360.48
365.111	374.72
365.493	363.87
365.874	370.65
366.256	375.17
366.637	354.38
367.019	370.88
367.4	365.23
367.781	358.23
368.163	366.36
368.544	371.78
368.925	347.6
369.306	375.17
369.688	363.65
370.069	357.77
370.45	385.79
370.831	358.45
371.212	352.12
371.593	385.79
371.974	379.02
372.355	358.23
372.736	397.55
373.117	377.43
373.498	380.37
373.879	389.64
374.26	374.5
374.641	374.72
375.021	372.91
375.402	393.03
375.783	374.27
376.163	418.34
376.544	406.81
376.925	388.96
377.305	398.9
377.686	403.42
378.066	388.73
378.447	399.81
378.827	412.91
379.208	398
379.588	402.97
379.968	422.18
380.349	410.65
380.729	420.6
381.109	406.81
381.489	421.95
381.87	426.25
382.25	435.51
382.63	444.55
383.01	416.98
383.39	434.83
383.77	422.63
384.15	445.68
384.53	444.1
384.91	439.13
385.29	469.41
385.67	470.99
386.049	481.16
386.429	459.01
386.809	445.23
387.189	470.54
387.568	472.57
387.948	487.71
388.328	468.5
388.707	483.65
389.087	482.29
389.466	499.01
389.846	498.56
390.225	506.02
390.605	504.66
390.984	512.57
391.363	499.69
391.743	511.44
392.122	525.45
392.501	538.56
392.881	539.92
393.26	553.47
393.639	541.72
394.018	547.6
394.397	552.8
394.776	565
395.155	577.2
395.534	549.86
395.913	571.33
396.292	593.02
396.671	608.61
397.05	597.31
397.429	598.44
397.808	592.8
398.186	589.86
398.565	607.26
398.944	608.16
399.323	609.74
399.701	622.85
400.08	618.78
400.458	657.43
400.837	656.75
401.215	664.88
401.594	669.4
401.972	678.44
402.351	690.65
402.729	690.42
403.107	709.85
403.486	728.84
403.864	704.43
404.242	738.55
404.62	753.92
404.999	771.1
405.377	765.45
405.755	814.03
406.133	804.99
406.511	840.47
406.889	844.54
407.267	847.03
407.645	884.54
408.023	913.69
408.401	912.79
408.779	922.28
409.156	960.02
409.534	970.86
409.912	1002.28
410.29	1027.36
410.667	1060.81
411.045	1059.22
411.422	1073.23
411.8	1136.51
412.178	1149.39
412.555	1183.97
412.933	1186.23
413.31	1217.41
413.687	1301.03
414.065	1286.34
414.442	1321.59
414.819	1355.49
415.197	1378.76
415.574	1409.72
415.951	1446.56
416.328	1470.74
416.705	1483.17
417.082	1513
417.46	1557.29
417.837	1574.92
418.214	1600.45
418.591	1601.81
418.967	1643.39
419.344	1661.92
419.721	1695.14
420.098	1663.5
420.475	1729.04
420.852	1776.27
421.228	1773.56
421.605	1813.1
421.982	1835.47
422.358	1841.58
422.735	1898.07
423.111	1905.75
423.488	1946.88
423.864	1985.53
424.241	1992.08
424.617	2017.39
424.994	2068.91
425.37	2062.81
425.746	2090.16
426.123	2146.43
426.499	2160.21
426.875	2165.18
427.251	2191.85
427.627	2267.55
428.003	2303.48
428.379	2321.56
428.756	2328.34
429.132	2419.64
429.507	2425.97
429.883	2503.48
430.259	2514.78
430.635	2531.73
431.011	2546.87
431.387	2611.73
431.763	2641.78
432.138	2667.77
432.514	2715
432.89	2718.61
433.265	2823.24
433.641	2820.08
434.016	2851.49
434.392	2934.43
434.767	2980.98
435.143	2974.88
435.518	3000.87
435.894	3030.7
436.269	3103.69
436.644	3171.03
437.02	3164.03
437.395	3211.71
437.77	3279.05
438.145	3310.46
438.52	3312.27
438.895	3372.16
439.271	3372.16
439.646	3453.74
440.021	3439.73
440.395	3492.61
440.77	3509.33
441.145	3564.24
441.52	3620.74
441.895	3605.15
442.27	3594.07
442.645	3653.28
443.019	3689.89
443.394	3681.3
443.769	3735.99
444.143	3684.92
444.518	3793.39
444.892	3782.32
445.267	3819.15
445.641	3847.62
446.016	3882.88
446.39	3896.44
446.764	3976.21
447.139	3943.44
447.513	4006.49
447.887	4020.28
448.262	3967.17
448.636	4012.82
449.01	4051.01
449.384	4118.13
449.758	4107.73
450.132	4235.41
450.506	4248.97
450.88	4286.48
451.254	4247.39
451.628	4275.18
452.002	4429.76
452.376	4349.31
452.75	4449.64
453.123	4447.61
453.497	4549.98
453.871	4624.1
454.244	4671.78
454.618	4670.2
454.992	4766.24
455.365	4734.38
455.739	4893.7
456.112	4940.25
456.486	5007.14
456.859	4985.67
457.232	5109.51
457.606	5115.39
457.979	5175.95
458.352	5272.67
458.725	5367.81
459.099	5353.8
459.472	5530.07
459.845	5552.44
460.218	5614.36
460.591	5601.93
460.964	5626.11
461.337	5746.56
461.71	5909.49
462.083	5956.95
462.456	5914.01
462.829	5937.06
463.201	6131.18
463.574	6095.02
463.947	6240.1
464.32	6339.76
464.692	6360.33
465.065	6387.45
465.438	6526.2
465.81	6658.17
466.183	6715.8
466.555	6875.79
466.928	6899.07
467.3	6858.85
467.672	7012.51
468.045	7190.14
468.417	7247.99
468.789	7304.26
469.161	7381.09
469.534	7519.17
469.906	7662.44
470.278	7683.91
470.65	7812.49
471.022	7896.78
471.394	8112.6
471.766	8186.27
472.138	8306.04
472.51	8465.58
472.882	8473.04
473.253	8600.04
473.625	8799.59
473.997	8973.37
474.369	9002.07
474.74	9097.88
475.112	9261.27
475.484	9464.43
475.855	9651.99
476.227	9654.93
476.598	9914.81
476.97	10033.9
477.341	10265.31
477.713	10441.35
478.084	10490.84
478.455	10760.89
478.827	10941.22
479.198	11138.96
479.569	11157.94
479.94	11507.08
480.311	11591.38
480.682	11820.3
481.053	12112.49
481.424	12204.69
481.795	12401.98
482.166	12627.05
482.537	12789.08
482.908	12955.63
483.279	13082.64
483.65	13331.22
484.021	13585.22
484.391	13777.31
484.762	13843.52
485.133	14100.91
485.503	14166.68
485.874	14511.75
486.244	14683.5
486.615	14979.31
486.985	15066.76
487.356	15342.01
487.726	15485.96
488.097	15719.86
488.467	15753.75
488.837	16108.32
489.207	16306.28
489.578	16499.5
489.948	16789.66
490.318	16991.91
490.688	17007.5
491.058	17297.67
491.428	17496.98
491.798	17583.08
492.168	18019
492.538	18062.84
492.908	18294.93
493.278	18447.47
493.648	18504.19
494.017	18819.21
494.387	18964.06
494.757	19041.35
495.126	19228.92
495.496	19331.51
495.866	19487.44
496.235	19742.8
496.605	19905.96
496.974	19911.38
497.344	20203.58
497.713	20213.75
498.082	20471.14
498.452	20627.75
498.821	20888.08
499.19	20765.6
499.559	20924.92
499.928	21175.3
500.298	21266.38
500.667	21448.07
501.036	21450.33
501.405	21742.75
501.774	21790.43
502.143	21995.4
502.512	21983.19
502.88	22316.07
503.249	22310.19
503.618	22403.97
503.987	22478.1
504.356	22693.23
504.724	22866.79
505.093	22867.69
505.462	22972.77
505.83	23208.02
506.199	23352.87
506.567	23655.69
506.936	23729.59
507.304	23938.17
507.672	24085.06
508.041	24137.94
508.409	24283.7
508.777	24542.9
509.145	24643.24
509.514	24848.2
509.882	24952.38
510.25	25019.95
510.618	25242.77
510.986	25178.14
511.354	25573.38
511.722	25707.39
512.09	25904.22
512.458	25978.34
512.826	26162.52
513.193	26372.68
513.561	26471.44
513.929	26642.05
514.297	26852.9
514.664	27019.44
515.032	27145.54
515.4	27428.47
515.767	27499.43
516.135	27697.17
516.502	27505.53
516.869	28106.87
517.237	28252.41
517.604	28018.74
517.972	28378.05
518.339	28632.74
518.706	28609.46
519.073	28955.44
519.44	29034.53
519.808	29306.39
520.175	29463
520.542	29677
520.909	29849.2
521.276	29892.36
521.643	30306.59
522.009	30470.2
522.376	30647.6
522.743	30986.57
523.11	31126
523.477	31355.83
523.843	31557.18
524.21	31914.46
524.577	32001.69
524.943	32141.12
525.31	32306.31
525.676	32758.73
526.043	32804.15
526.409	32896.58
526.776	33365.04
527.142	33367.07
527.508	33665.15
527.874	33954.86
528.241	34098.13
528.607	34097.9
528.973	34406.82
529.339	34496.31
529.705	34842.06
530.071	35199.57
530.437	35195.05
530.803	35430.75
531.169	35695.83
531.535	35625.77
531.901	35790.51
532.267	36049.94
532.632	36367
532.998	36303.72
533.364	36597.95
533.73	36581.68
534.095	36946.87
534.461	37124.49
534.826	37305.95
535.192	37276.58
535.557	37621.43
535.923	37646.96
536.288	37907.52
536.653	38049.89
537.019	38008.99
537.384	38163.56
537.749	38312.48
538.114	38477.22
538.479	38394.51
538.845	38720.15
539.21	38672.47
539.575	39028.17
539.94	39074.72
540.305	39317.2
540.67	39268.61
541.034	39415.28
541.399	39683.74
541.764	39827.24
542.129	40017.97
542.494	40046.45
542.858	40172.77
543.223	40292.09
543.587	40445.31
543.952	40521.24
544.316	40713.1
544.681	40663.38
545.045	40999.64
545.41	41180.65
545.774	41176.36
546.138	41247.32
546.503	41326.87
546.867	41410.93
547.231	41866.96
547.595	41879.17
547.959	42038.49
548.324	42005.49
548.688	42154.87
549.052	42296.56
549.416	42400.74
549.779	42603.22
550.143	42559.6
550.507	42902.19
550.871	42982.64
551.235	43045.01
551.599	43445.91
551.962	43490.88
552.326	43586.92
552.689	43829.62
553.053	43703.53
553.417	43750.53
553.78	44345.09
554.143	44099.67
554.507	44412.66
554.87	44512.77
555.234	44804.74
555.597	44712.54
555.96	44856.04
556.323	45019.65
556.686	45171.74
557.05	45467.32
557.413	45376.7
557.776	45611.5
558.139	45786.41
558.502	45925.84
558.865	45901.89
559.228	46400.18
559.59	46296.23
559.953	46567.18
560.316	46890.56
560.679	46877.91
561.041	47019.6
561.404	47286.03
561.767	47536.65
562.129	47272.25
562.492	47728.05
562.854	47733.48
563.217	47894.38
563.579	47993.58
563.941	48321.26
564.304	48497.07
564.666	48582.27
565.028	48735.71
565.39	48905.88
565.753	48997.17
566.115	49239.43
566.477	49339.31
566.839	49565.52
567.201	49683.71
567.563	49694.33
567.925	49982.91
568.287	49878.5
568.648	50080.99
569.01	50144.26
569.372	50457.02
569.734	50408.43
570.095	50659.5
570.457	50836.67
570.819	50945.82
571.18	50881.19
571.542	51067.4
571.903	51174.06
572.265	51259.03
572.626	51340.39
572.987	51460.38
573.349	51564.11
573.71	51751.9
574.071	51817.21
574.432	51897.43
574.794	52082.06
575.155	52005.45
575.516	52017.88
575.877	52177.43
576.238	52346.69
576.599	52377.2
576.96	52443.86
577.32	52444.77
577.681	52600.02
578.042	52688.37
578.403	52677.98
578.763	52745.77
579.124	52851.31
579.485	53016.73
579.845	53088.36
580.206	52940.57
580.566	53120.45
580.927	53094.47
581.287	53179.66
581.648	53094.01
582.008	53239.09
582.368	53277.51
582.728	53351.18
583.089	53387.79
583.449	53320
583.809	53440.9
584.169	53526.32
584.529	53388.47
584.889	53621.91
585.249	53469.82
585.609	53423.72
585.969	53629.37
586.329	53463.95
586.688	53556.37
587.048	53614.68
587.408	53565.87
587.768	53583.72
588.127	53607.9
588.487	53620.55
588.846	53802.7
589.206	53625.3
589.565	53640.89
589.925	53811.06
590.284	53714.56
590.643	53834.11
591.003	53923.6
591.362	53964.27
591.721	53848.8
592.08	53827.55
592.44	53953.65
592.799	54035.46
593.158	53963.82
593.517	53903.71
593.876	53965.86
594.235	53994.55
594.593	54069.81
594.952	54083.82
595.311	53897.16
595.67	54101.44
596.029	54149.13
596.387	54194.78
596.746	54241.1
597.104	54162.46
597.463	54165.4
597.822	54250.59
598.18	54111.39
598.538	54222.57
598.897	54306.86
599.255	54151.16
599.613	54554.77
599.972	54391.61
600.33	54452.17
600.688	54236.36
601.046	54491.49
601.404	54621.21
601.762	54549.57
602.12	54595.67
602.478	54563.81
602.836	54547.76
603.194	54493.3
603.552	54541.89
603.91	54454.43
604.268	54691.26
604.625	54606.97
604.983	54738.72
605.341	54525.16
605.698	54728.09
606.056	54738.04
606.413	54689
606.771	54809.67
607.128	54865.04
607.485	54724.93
607.843	54758.15
608.2	54915.21
608.557	55031.59
608.914	54939.16
609.272	55034.53
609.629	55048.99
609.986	55193.85
610.343	55039.5
610.7	55226.61
611.057	55142.32
611.414	55148.65
611.771	55212.83
612.127	55319.72
612.484	55305.71
612.841	55367.17
613.198	55257.12
613.554	55270.45
613.911	55449.21
614.267	55385.48
614.624	55310.45
614.98	55416.44
615.337	55544.12
615.693	55401.07
616.05	55444.01
616.406	55644.45
616.762	55512.03
617.118	55456.21
617.475	55499.83
617.831	55605.59
618.187	55594.96
618.543	55612.59
618.899	55743.21
619.255	55717.22
619.611	55661.63
619.967	55870.44
620.323	55809.42
620.678	55664.34
621.034	55636.77
621.39	55643.78
621.746	55650.33
622.101	55909.53
622.457	55732.14
622.812	55731.68
623.168	55838.12
623.523	55790.44
623.879	55914.05
624.234	55736.43
624.589	55770.55
624.945	55796.54
625.3	55856.65
625.655	55848.52
626.01	55793.83
626.365	55880.83
626.72	55756.09
627.075	55890.78
627.43	55821.63
627.785	55777.78
628.14	55874.73
628.495	55863.43
628.85	55797.9
629.205	55720.39
629.559	55844
629.914	55742.08
630.269	55749.31
630.623	55733.27
630.978	55762.64
631.332	55854.84
631.687	55843.77
632.041	55781.17
632.396	55796.09
632.75	55669.54
633.104	55665.47
633.459	55587.96
633.813	55660.5
634.167	55665.7
634.521	55616.43
634.875	55691.46
635.229	55600.84
635.583	55555.64
635.937	55569.43
636.291	55535.08
636.645	55541.41
636.999	55468.19
637.352	55545.25
637.706	55390.45
638.06	55484.23
638.413	55434.52
638.767	55411.24
639.121	55471.8
639.474	55295.09
639.828	55329.66
640.181	55411.92
640.534	55353.39
640.888	55273.17
641.241	55209.21
641.594	55246.5
641.947	55263
642.301	55227.97
642.654	55276.1
643.007	55279.72
643.36	55230.45
643.713	55115.43
644.066	55314.97
644.419	55045.15
644.771	54856.91
645.124	54731.03
645.477	54687.87
645.83	54504.6
646.182	54417.14
646.535	54262.57
646.888	54422.34
647.24	54260.99
647.593	54470.7
647.945	54391.61
648.298	54162.23
648.65	54193.42
649.002	54067.1
649.355	54229.8
649.707	54161.56
650.059	54237.94
650.411	54652.84
650.763	54743.46
651.115	54849
651.467	54824.14
651.819	54908.88
652.171	54738.49
652.523	54784.59
652.875	54761.99
653.227	54590.92
653.578	54796.12
653.93	54766.74
654.282	54616.46
654.633	54563.58
654.985	54565.16
655.337	54619.4
655.688	54661.2
656.039	54703.91
656.391	54462.57
656.742	54503.02
657.094	54508.67
657.445	54618.49
657.796	54638.15
658.147	54578.49
658.498	54480.64
658.849	54569
659.2	54472.28
659.551	54393.19
659.902	54544.37
660.253	54481.1
660.604	54492.62
660.955	54336.47
661.306	54427.31
661.656	54370.82
662.007	54405.62
662.358	54410.14
662.708	54380.53
663.059	54361.78
663.409	54191.16
663.76	54395
664.11	54368.33
664.461	54382.79
664.811	54408.56
665.161	54312.29
665.511	54274.32
665.862	54239.75
666.212	54388.67
666.562	54385.96
666.912	54227.32
667.262	54204.94
667.612	54244.72
667.962	54257.82
668.312	54229.58
668.662	54251.72
669.011	54118.39
669.361	54131.73
669.711	54162.23
670.06	54056.02
670.41	54004.72
670.76	53955.69
671.109	54016.93
671.459	54017.15
671.808	53966.31
672.157	53990.94
672.507	53821
672.856	53753.66
673.205	53828.23
673.554	53922.01
673.904	53762.7
674.253	53899.64
674.602	53776.03
674.951	53374.23
675.3	53222.82
675.649	53685.64
675.998	53655.35
676.346	53746.65
676.695	53776.03
677.044	53465.98
677.393	53689.93
677.741	53714.79
678.09	53509.14
678.438	53453.1
678.787	53480.44
679.135	53516.6
679.484	53295.14
679.832	53313.22
680.181	53165.2
680.529	53286.55
680.877	53191.41
681.225	53061.47
681.573	53299.43
681.922	53121.81
682.27	53026.44
682.618	53031.64
682.966	52930.4
683.314	53011.08
683.661	52821.25
684.009	52675.27
684.357	52645.44
684.705	52529.73
685.053	52665.55
685.4	52614.93
685.748	52496.97
686.095	52362.06
686.443	52241.61
686.79	52181.04
687.138	52209.07
687.485	52222.4
687.832	52108.28
688.18	52094.94
688.527	51882.75
688.874	51873.25
689.221	51870.54
689.568	51636.65
689.915	51564.56
690.262	51675.75
690.609	51455.19
690.956	51289.99
691.303	51480.04
691.65	51212.48
691.997	51135.87
692.344	51001.19
692.69	50969.78
693.037	50972.94
693.383	50775.88
693.73	50788.09
694.077	50615.21
694.423	50674.42
694.769	50475.78
695.116	50405.27
695.462	50312.84
695.808	50246.63
696.155	50351.94
696.501	50043.47
696.847	50071.27
697.193	49840.77
697.539	49907.88
697.885	49528.23
698.231	49586.76
698.577	49447.56
698.923	49445.97
699.269	49288.69
699.614	49066.77
699.96	49015.02
700.306	49034.69
700.651	48853.22
700.997	48756.05
701.342	48728.7
701.688	48589.73
702.033	48519.67
702.379	48553.79
702.724	48319.45
703.069	48424.53
703.415	47997.88
703.76	48103.64
704.105	48042.62
704.45	47977.09
704.795	47618.68
705.14	47586.14
705.485	47575.51
705.83	47333.49
706.175	47477.89
706.52	47292.36
706.865	47176.43
707.209	47224.34
707.554	46963.1
707.899	47063.21
708.243	46799.49
708.588	46792.48
708.932	46581.87
709.277	46687.63
709.621	46513.62
709.966	46324.25
710.31	46468.43
710.654	46066.4
710.998	46169.22
711.342	46172.61
711.687	46033.18
712.031	45835.67
712.375	45686.52
712.719	45776.92
713.063	45644.72
713.407	45802.23
713.75	45587.77
714.094	45613.08
714.438	45309.36
714.782	45331.28
715.125	45169.25
715.469	45251.51
715.812	45061.91
716.156	44686.1
716.499	44769.94
716.843	44765.64
717.186	44624.41
717.53	44733.33
717.873	44813.33
718.216	44579.44
718.559	44543.05
718.902	44236.85
719.246	44495.82
719.589	44178.32
719.932	44069.62
720.275	44011.09
720.617	44014.48
720.96	43914.82
721.303	43943.07
721.646	43892.67
721.989	43753.24
722.331	43783.52
722.674	43673.92
723.016	43606.13
723.359	43502.63
723.701	43396.87
724.044	43249.3
724.386	43123.65
724.729	43244.33
725.071	43185.8
725.413	43132.24
725.755	43119.59
726.097	42780.84
726.439	42564.12
726.782	42748.75
727.124	42896.09
727.465	42688.64
727.807	42631.92
728.149	42459.72
728.491	42348.99
728.833	42433.5
729.175	42313.73
729.516	42302.88
729.858	42249.33
730.199	42170.23
730.541	42060.18
730.882	42059.73
731.224	42146.28
731.565	41870.81
731.906	41986.06
732.248	42025.38
732.589	41748.78
732.93	41687.99
733.271	41719.62
733.612	41756.68
733.953	41720.08
734.294	41513.3
734.635	41442.57
734.976	41485.73
735.317	41389.01
735.658	41304.95
735.999	41300.88
736.339	41218.85
736.68	41250.48
737.021	41198.06
737.361	41071.28
737.702	41207.32
738.042	40996.48
738.383	40931.17
738.723	41023.14
739.063	40745.19
739.404	40832.42
739.744	40699.76
740.084	40697.73
740.424	40657.73
740.764	40515.36
741.104	40775.69
741.444	40441.92
741.784	40302.49
742.124	40578.41
742.464	40317.4
742.804	40173.45
743.143	40147.91
743.483	40019.33
743.823	39997.86
744.162	40010.52
744.502	39960.8
744.841	39802.16
745.181	39968.03
745.52	39889.61
745.86	39851.2
746.199	39762.84
746.538	39665.44
746.877	39768.26
747.216	39810.75
747.556	39714.7
747.895	39569.4
748.234	39438.55
748.573	39294.15
748.911	39234.94
749.25	39271.33
749.589	39170.76
749.928	39177.54
750.267	39106.58
750.605	38890.09
750.944	38931.22
751.283	38824.56
751.621	38778.68
751.96	38536.2
752.298	38681.06
752.636	38655.75
752.975	38440.39
753.313	38253.27
753.651	38555.41
753.989	38186.16
754.327	38250.11
754.666	38027.52
755.004	38092.6
755.342	38063.67
755.679	37963.11
756.017	37703.68
756.355	37786.17
756.693	37735.55
757.031	37661.42
757.368	37488.32
757.706	37494.42
758.044	37290.36
758.381	37317.03
758.719	37245.62
759.056	37101.21
759.394	36997.49
759.731	36734.22
760.068	36802.69
760.405	36522.02
760.743	36455.36
761.08	36584.39
761.417	36266.43
761.754	36258.52
762.091	36124.74
762.428	36106.66
762.765	35865.54
763.102	35993.9
763.438	35969.94
763.775	35731.98
764.112	35669.84
764.449	35738.09
764.785	35343.29
765.122	35180.36
765.458	35113.24
765.795	34944.66
766.131	35039.8
766.467	34894.72
766.804	34769.75
767.14	34650.2
767.476	34605.46
767.812	34505.35
768.148	34467.84
768.485	34223.32
768.821	34080.73
769.157	33975.87
769.492	33997.79
769.828	33761.19
770.164	33634.64
770.5	33497.24
770.836	33492.72
771.171	33371.14
771.507	33325.27
771.842	33098.83
772.178	32942
772.513	32913.53
772.849	32845.96
773.184	32664.95
773.519	32632.86
773.855	32483.93
774.19	32426.31
774.525	32203.94
774.86	32198.52
775.195	32002.82
775.53	31941.12
775.865	31796.49
776.2	31681.7
776.535	31385.21
776.87	31313.57
777.205	31496.16
777.539	31108.83
777.874	31205.78
778.209	31000.36
778.543	30946.12
778.878	30591.1
779.212	30793.13
779.547	30457.32
779.881	30618.9
780.215	30347.04
780.55	30328.74
780.884	30106.82
781.218	30082.87
781.552	30221.17
781.886	29876.77
782.22	29820.95
782.554	29598.36
782.888	29411.47
783.222	29361.76
783.556	29191.82
783.889	29195.66
784.223	28959.96
784.557	28887.19
784.89	28977.59
785.224	28890.36
785.557	28613.08
785.891	28630.7
786.224	28500.08
786.558	28495.79
786.891	28249.02
787.224	28126.53
787.557	28140.32
787.891	28098.51
788.224	27967.22
788.557	28014.45
788.89	27806.77
789.223	27846.54
789.556	27478.42
789.888	27467.79
790.221	27404.29
790.554	27179.44
790.887	27180.12
791.219	27166.56
791.552	26967.92
791.884	26882.05
792.217	26885.44
792.549	26731.99
792.882	26426.24
793.214	26503.07
793.546	26594.82
793.879	26322.74
794.211	26216.53
794.543	26298.79
794.875	26118.9
795.207	26138.56
795.539	25989.19
795.871	26019.02
796.203	25759.59
796.535	25626.94
796.867	25630.1
797.198	25532.03
797.53	25613.61
797.862	25304.01
798.193	25385.36
798.525	25146.05
798.856	25165.48
799.188	24982.21
799.519	24770.46
799.85	24821.99
800.182	24867.41
800.513	24739.28
800.844	24590.81
801.175	24668.77
801.506	24553.52
801.837	24407.54
802.168	24390.36
802.499	24280.31
802.83	24177.94
803.161	24111.05
803.491	24066.53
803.822	24119.41
804.153	24007.32
804.483	23733.43
804.814	23667.89
805.145	23647.56
805.475	23646.65
805.805	23600.55
806.136	23569.37
806.466	23498.63
806.796	23320.56
807.126	23246.89
807.457	23227.45
807.787	23227
808.117	23150.39
808.447	23015.26
808.777	23134.8
809.107	22975.03
809.436	22899.78
809.766	22862.04
810.096	22819.78
810.426	22650.29
810.755	22596.96
811.085	22567.81
811.414	22496.85
811.744	22340.25
812.073	22413.46
812.403	22447.81
812.732	22269.74
813.061	22209.18
813.39	21981.39
813.719	22069.29
814.049	22178.67
814.378	21961.72
814.707	21891.44
815.036	21868.85
815.365	21803.99
815.693	21545.46
816.022	21574.62
816.351	21490.1
816.68	21456.88
817.008	21531.45
817.337	21256.21
817.665	21289.88
817.994	21371.01
818.322	21301.4
818.651	21133.72
818.979	21125.81
819.307	21269.31
819.636	21051.01
819.964	20955.42
820.292	21080.62
820.62	20982.54
820.948	20938.93
821.276	21027.51
821.604	20960.17
821.932	20948.87
822.259	21012.6
822.587	20878.14
822.915	20820.06
823.243	20899.38
823.57	20855.77
823.898	20855.54
824.225	20808.31
824.553	20733.28
824.88	20716.56
825.207	20941.86
825.535	20867.74
825.862	20842.21
826.189	20602.66
826.516	20913.84
826.843	20857.35
827.17	20882.66
827.497	20840.85
827.824	20814.64
828.151	20935.31
828.478	20722.89
828.805	20915.42
829.131	20746.62
829.458	20798.14
829.785	20722.44
830.111	20747.07
830.438	20809.66
830.764	20723.34
831.09	20665.49
831.417	20644.7
831.743	20714.07
832.069	20675.88
832.395	20623.91
832.722	20601.76
833.048	20495.32
833.374	20640.18
833.7	20526.96
834.026	20551.59
834.351	20595.43
834.677	20549.78
835.003	20570.12
835.329	20476.57
835.654	20412.61
835.98	20343.01
836.306	20296.68
836.631	20375.33
836.956	20352.05
837.282	20267.08
837.607	20200.87
837.932	20173.07
838.258	20171.04
838.583	20192.96
838.908	20058.5
839.233	20157.7
839.558	20031.15
839.883	19950.48
840.208	19938.28
840.533	19852.63
840.858	19936.92
841.182	19960.42
841.507	19916.35
841.832	19851.5
842.156	19711.16
842.481	19818.28
842.805	19667.1
843.13	19662.58
843.454	19647.44
843.778	19486.76
844.103	19439.08
844.427	19470.04
844.751	19544.39
845.075	19359.99
845.399	19306.43
845.723	19214.23
846.047	19186.66
846.371	19009.49
846.695	18977.17
847.019	18897.62
847.343	18778.53
847.666	18682.04
847.99	18575.37
848.313	18595.71
848.637	18475.04
848.96	18372.89
849.284	18345.55
849.607	18349.39
849.931	18151.43
850.254	18074.37
850.577	18036.18
850.9	17901.04
851.223	17906.24
851.546	17759.8
851.869	17713.7
852.192	17737.43
852.515	17649.3
852.838	17507.15
853.161	17558.22
853.483	17384.9
853.806	17376.99
854.129	17315.97
854.451	17302.64
854.774	17165.24
855.096	17038.24
855.419	17126.6
855.741	17025.58
856.063	16976.32
856.385	16873.95
856.708	16858.36
857.03	16737.68
857.352	16753.5
857.674	16721.41
857.996	16687.97
858.318	16613.84
858.64	16606.84
858.961	16520.06
859.283	16516.44
859.605	16372.27
859.926	16412.27
860.248	16366.39
860.57	16320.97
860.891	16315.09
861.212	16256.79
861.534	16244.14
861.855	16228.99
862.176	16144.02
862.498	16096.12
862.819	16173.18
863.14	16053.86
863.461	16069.22
863.782	15977.48
864.103	15926.4
864.424	15858.38
864.745	15890.7
865.065	15900.19
865.386	15742
865.707	15728.22
866.027	15808.21
866.348	15750.81
866.668	15680.53
866.989	15594.89
867.309	15473.99
867.63	15590.82
867.95	15578.39
868.27	15484.16
868.59	15528.22
868.91	15475.57
869.23	15436.7
869.55	15381.56
869.87	15448.9
870.19	15353.99
870.51	15365.29
870.83	15399.86
871.15	15329.36
871.469	15300.66
871.789	15350.6
872.109	15290.49
872.428	15188.12
872.748	15293.43
873.067	15216.14
873.386	15234.22
873.706	15095.46
874.025	15087.56
874.344	14993.77
874.663	15144.73
874.982	15018.63
875.301	14998.29
875.62	14988.8
875.939	14920.1
876.258	14998.52
876.577	14897.5
876.896	14777.51
877.214	14795.13
877.533	14748.13
877.852	14777.28
878.17	14770.05
878.489	14834.45
878.807	14737.28
879.125	14763.04
879.444	14695.25
879.762	14559.89
880.08	14638.08
880.398	14530.73
880.716	14598.53
881.034	14446.44
881.352	14547.91
881.67	14428.14
881.988	14451.87
882.306	14405.54
882.624	14362.15
882.941	14352.66
883.259	14243.06
883.577	14260.46
883.894	14244.87
884.212	14151.99
884.529	14153.57
884.846	14096.17
885.164	14041.03
885.481	14040.35
885.798	14091.65
886.115	13979.11
886.432	13955.38
886.75	13843.52
887.067	13927.59
887.383	13820.7
887.7	13854.37
888.017	13725.78
888.334	13768.72
888.651	13724.43
888.967	13671.55
889.284	13549.06
889.6	13567.14
889.917	13523.98
890.233	13534.83
890.55	13422.97
890.866	13518.11
891.182	13335.06
891.498	13289.41
891.815	13311.33
892.131	13237.43
892.447	13211.67
892.763	13095.74
893.079	13092.13
893.395	13015.75
893.71	13009.42
894.026	13027.95
894.342	13008.06
894.657	12845.35
894.973	12840.61
895.289	12820.95
895.604	12885.35
895.92	12716.09
896.235	12729.2
896.55	12767.62
896.865	12611.91
897.181	12606.49
897.496	12575.53
897.811	12587.28
898.126	12467.96
898.441	12485.82
898.756	12429.77
899.071	12297.57
899.386	12323.33
899.7	12180.06
900.015	12160.85
900.33	12127.86
900.644	12099.61
900.959	12135.32
901.273	12013.29
901.588	11925.15
901.902	11873.85
902.216	11932.38
902.531	11847.64
902.845	11816.45
903.159	11730.81
903.473	11686.29
903.787	11691.71
904.101	11547.54
904.415	11533.3
904.729	11547.08
905.042	11489.68
905.356	11450.36
905.67	11411.95
905.984	11398.16
906.297	11340.08
906.611	11277.26
906.924	11311.61
907.237	11215.34
907.551	11157.72
907.864	11148.45
908.177	11075.68
908.491	10984.16
908.804	10999.75
909.117	10916.37
909.43	10827.55
909.743	10866.2
910.056	10842.7
910.368	10737.39
910.681	10718.86
910.994	10680.67
911.307	10618.75
911.619	10581.01
911.932	10558.41
912.244	10404.51
912.557	10489.26
912.869	10408.58
913.181	10328.81
913.494	10297.62
913.806	10285.2
914.118	10233.9
914.43	10228.7
914.742	10164.75
915.054	10098.31
915.366	10059.89
915.678	10036.39
915.99	9974.24
916.302	9838.2
916.613	9837.3
916.925	9846.56
917.236	9713.46
917.548	9734.93
917.859	9723.4
918.171	9641.6
918.482	9553.69
918.794	9572.45
919.105	9591.2
919.416	9569.96
919.727	9523.63
920.038	9451.32
920.349	9343.98
920.66	9300.14
920.971	9325.45
921.282	9275.05
921.593	9170.65
921.903	9127.49
922.214	9110.09
922.525	9124.77
922.835	9090.2
923.146	8996.19
923.456	8965
923.767	8960.03
924.077	8967.49
924.387	8901.28
924.697	8879.58
925.008	8862.63
925.318	8787.61
925.628	8763.65
925.938	8702.86
926.248	8644.33
926.558	8593.71
926.867	8539.7
927.177	8550.78
927.487	8509.88
927.796	8352.59
928.106	8406.83
928.416	8363.44
928.725	8300.39
929.034	8272.82
929.344	8325.47
929.653	8260.84
929.962	8158.92
930.271	8154.63
930.581	8123.67
930.89	8064.69
931.199	8052.71
931.508	7998.48
931.817	7990.34
932.125	7898.37
932.434	7917.8
932.743	7861.76
933.051	7823.11
933.36	7781.53
933.669	7769.78
933.977	7763
934.286	7693.63
934.594	7678.94
934.902	7586.06
935.21	7632.38
935.519	7565.27
935.827	7511.03
936.135	7563.69
936.443	7459.06
936.751	7456.12
937.059	7411.37
937.367	7311.26
937.674	7393.97
937.982	7312.62
938.29	7245.5
938.597	7278.27
938.905	7186.52
939.213	7160.76
939.52	7137.71
939.827	7117.37
940.135	7115.56
940.442	7016.58
940.749	7007.77
941.056	6995.79
941.363	6843.7
941.67	6934.78
941.977	6863.36
942.284	6780.66
942.591	6830.6
942.898	6803.93
943.205	6836.47
943.511	6756.25
943.818	6720.32
944.125	6646.65
944.431	6678.06
944.738	6607.55
945.044	6592.64
945.35	6536.82
945.657	6466.76
945.963	6483.71
946.269	6421.57
946.575	6440.55
946.881	6404.85
947.187	6385.41
947.493	6302.93
947.799	6285.07
948.105	6302.93
948.41	6215.25
948.716	6227.68
949.022	6196.72
949.327	6192.65
949.633	6128.02
949.938	6109.03
950.244	6128.92
950.549	6045.08
950.854	6056.83
951.16	6025.65
951.465	5949.94
951.77	5961.69
952.075	5930.51
952.38	5911.98
952.685	5886.89
952.99	5804.18
953.294	5875.14
953.599	5798.08
953.904	5758.54
954.209	5725.32
954.513	5725.09
954.818	5736.61
955.122	5679.89
955.426	5606.22
955.731	5640.12
956.035	5607.13
956.339	5545.43
956.643	5522.61
956.948	5533
957.252	5513.34
957.556	5460.92
957.86	5421.59
958.163	5448.71
958.467	5418.43
958.771	5389.51
959.075	5401.48
959.378	5348.38
959.682	5308.15
959.985	5314.48
960.289	5268.83
960.592	5274.03
960.896	5210.07
961.199	5138.21
961.502	5170.3
961.805	5108.38
962.108	5088.27
962.411	5116.52
962.714	5065.22
963.017	5010.31
963.32	5048.5
963.623	5030.42
963.926	4939.12
964.228	4876.98
964.531	4914.94
964.833	4912.46
965.136	4896.64
965.438	4882.63
965.741	4780.71
966.043	4814.38
966.345	4768.73
966.648	4802.4
966.95	4681.95
967.252	4748.17
967.554	4724.89
967.856	4676.53
968.158	4649.64
968.46	4647.15
968.761	4663.65
969.063	4636.76
969.365	4560.15
969.666	4562.86
969.968	4515.86
970.269	4536.42
970.571	4520.83
970.872	4439.47
971.174	4451.22
971.475	4438.8
971.776	4473.37
972.077	4382.53
972.378	4392.02
972.679	4361.96
972.98	4308.18
973.281	4329.42
973.582	4322.64
973.883	4311.57
974.183	4243.77
974.484	4278.8
974.785	4249.42
975.085	4210.55
975.386	4179.14
975.686	4181.85
975.986	4156.09
976.287	4126.04
976.587	4077.45
976.887	4073.38
977.187	4041.52
977.487	4063.21
977.787	3989.77
978.087	4001.97
978.387	3992.71
978.687	3995.87
978.987	3929.2
979.286	3914.74
979.586	3920.62
979.885	3924.68
980.185	3847.17
980.484	3865.93
980.784	3859.15
981.083	3806.04
981.382	3844.69
981.682	3783.67
981.981	3769.21
982.28	3813.5
982.579	3732.6
982.878	3710.91
983.177	3670.45
983.475	3695.76
983.774	3661.42
984.073	3656.67
984.372	3600.85
984.67	3640.85
984.969	3627.52
985.267	3604.24
985.566	3561.53
985.864	3508.42
986.162	3524.24
986.461	3510.01
986.759	3485.83
987.057	3453.96
987.355	3493.28
987.653	3462.55
987.951	3447.18
988.249	3420.97
988.547	3416.68
988.844	3422.78
989.142	3318.83
989.44	3341.88
989.737	3333.97
990.035	3299.62
990.332	3288.77
990.63	3280.63
990.927	3308.88
991.224	3286.06
991.521	3261.2
991.819	3214.65
992.116	3229.56
992.413	3215.55
992.71	3178.72
993.006	3179.17
993.303	3151.15
993.6	3145.04
993.897	3132.16
994.193	3139.17
994.49	3094.2
994.787	3099.17
995.083	3044.71
995.379	3038.61
995.676	3053.97
995.972	2998.61
996.268	2983.69
996.565	2954.77
996.861	2965.16
997.157	2950.93
997.453	2898.72
997.749	2933.3
998.044	2905.28
998.34	2887.42
998.636	2870.93
998.932	2852.4
999.227	2839.06
999.523	2839.52
999.818	2782.57
1000.114	2791.61
1000.409	2780.53
1000.704	2758.16
1001	2736.92
1001.295	2747.99
1001.59	2733.08
1001.885	2677.94
1002.18	2698.73
1002.475	2728.11
1002.77	2632.06
1003.065	2604.04
1003.359	2636.36
1003.654	2595
1003.949	2581.22
1004.243	2554.33
1004.538	2540.09
1004.832	2573.08
1005.127	2538.73
1005.421	2522.01
1005.715	2476.81
1006.009	2473.88
1006.304	2473.42
1006.598	2431.62
1006.892	2438.62
1007.186	2443.37
1007.48	2436.14
1007.773	2441.56
1008.067	2392.52
1008.361	2356.36
1008.655	2360.21
1008.948	2351.17
1009.242	2338.29
1009.535	2306.65
1009.829	2306.42
1010.122	2277.5
1010.415	2259.19
1010.708	2273.2
1011.001	2266.88
1011.295	2257.61
1011.588	2216.71
1011.881	2179.87
1012.173	2200.21
1012.466	2195.92
1012.759	2161.57
1013.052	2146.88
1013.344	2157.73
1013.637	2095.58
1013.93	2110.27
1014.222	2095.13
1014.514	2082.47
1014.807	2103.72
1015.099	2085.86
1015.391	2066.65
1015.683	2031.63
1015.976	2029.14
1016.268	2027.11
1016.56	1992.53
1016.851	1996.83
1017.143	1959.99
1017.435	1970.84
1017.727	1938.75
1018.018	1915.02
1018.31	1901.69
1018.602	1877.06
1018.893	1882.93
1019.185	1903.5
1019.476	1864.85
1019.767	1843.84
1020.058	1843.16
1020.35	1812.42
1020.641	1822.14
1020.932	1808.81
1021.223	1812.65
1021.514	1792.76
1021.804	1745.08
1022.095	1775.59
1022.386	1717.29
1022.677	1737.17
1022.967	1709.6
1023.258	1704.18
1023.548	1700.56
1023.839	1694.01
1024.129	1696.04
1024.419	1650.39
1024.709	1662.82
1025	1640.9
1025.29	1632.09
1025.58	1634.8
1025.87	1586.44
1026.16	1573.56
1026.449	1558.19
1026.739	1581.47
1027.029	1553.45
1027.319	1551.64
1027.608	1541.92
1027.898	1490.17
1028.187	1510.06
1028.477	1502.38
1028.766	1509.16
1029.055	1489.95
1029.344	1462.6
1029.634	1473
1029.923	1445.43
1030.212	1444.3
1030.501	1445.43
1030.79	1423.28
1031.078	1398.42
1031.367	1375.37
1031.656	1409.04
1031.945	1399.78
1032.233	1345.77
1032.522	1362.49
1032.81	1342.61
1033.099	1344.64
1033.387	1320.46
1033.675	1344.87
1033.963	1303.28
1034.251	1311.65
1034.54	1322.04
1034.828	1311.87
1035.116	1267.35
1035.403	1280.69
1035.691	1244.76
1035.979	1263.29
1036.267	1232.33
1036.554	1241.82
1036.842	1223.51
1037.129	1243.4
1037.417	1208.37
1037.704	1201.37
1037.992	1194.81
1038.279	1200.46
1038.566	1163.18
1038.853	1163.18
1039.14	1163.18
