Data from White_paper_FLMS001491_006.txt Node
Date: Tue Feb 07 10:34:35 GMT 2017
User: dcchb
Spectrometer: FLMS00149
Trigger mode: 0
Integration Time (sec): 2.000000E-2
Scans to average: 10
Electric dark correction enabled: true
Nonlinearity correction enabled: false
Boxcar width: 0
XAxis mode: Wavelengths
Number of Pixels in Spectrum: 2048
>>>>>Begin Spectral Data<<<<<
341.393	-20.31
341.776	-20.31
342.16	-20.31
342.543	-45.62
342.927	-43.36
343.31	-64.15
343.693	-67.09
344.077	-65.73
344.46	-74.32
344.843	-51.72
345.226	-36.81
345.61	-39.07
345.993	0.71
346.376	-2.23
346.759	5.23
347.142	6.81
347.525	59.46
347.908	48.84
348.291	78.22
348.674	97.43
349.057	104.43
349.44	126.8
349.823	139.01
350.206	158.44
350.588	204.99
350.971	239.8
351.354	247.25
351.737	266.01
352.119	298.33
352.502	306.01
352.884	275.28
353.267	288.61
353.65	303.98
354.032	321.6
354.414	338.32
354.797	347.59
355.179	357.31
355.562	348.49
355.944	382.84
356.326	356.63
356.709	362.73
357.091	362.28
357.473	355.95
357.855	364.76
358.238	391.2
358.62	356.18
359.002	369.96
359.384	361.37
359.766	376.97
360.148	369.96
360.53	385.1
360.912	373.13
361.294	380.58
361.676	380.58
362.057	381.49
362.439	367.93
362.821	371.32
363.203	357.98
363.584	367.7
363.966	392.33
364.348	367.7
364.729	373.8
365.111	361.15
365.493	377.87
365.874	393.24
366.256	373.35
366.637	363.63
367.019	356.18
367.4	354.82
367.781	354.6
368.163	374.03
368.544	365.44
368.925	362.96
369.306	365.22
369.688	367.02
370.069	380.36
370.45	364.76
370.831	390.75
371.212	366.12
371.593	378.55
371.974	367.48
372.355	361.15
372.736	377.42
373.117	400.02
373.498	373.58
373.879	365.67
374.26	369.96
374.641	354.6
375.021	390.07
375.402	393.92
375.783	379
376.163	393.01
376.544	379.68
376.925	381.49
377.305	385.1
377.686	418.1
378.066	389.62
378.447	404.09
378.827	383.07
379.208	392.79
379.588	418.55
379.968	402.73
380.349	399.57
380.729	414.25
381.109	413.12
381.489	401.15
381.87	404.54
382.25	422.39
382.63	400.47
383.01	435.5
383.39	409.28
383.77	422.84
384.15	440.47
384.53	474.14
384.91	424.42
385.29	451.54
385.67	459.68
386.049	445.44
386.429	453.12
386.809	454.03
387.189	472.33
387.568	490.18
387.948	447.25
388.328	489.05
388.707	473.91
389.087	476.4
389.466	494.25
389.846	496.29
390.225	484.08
390.605	510.3
390.984	499.45
391.363	522.05
391.743	522.27
392.122	510.3
392.501	522.73
392.881	508.49
393.26	527.47
393.639	544.19
394.018	549.84
394.397	550.07
394.776	522.95
395.155	576.28
395.534	537.87
395.913	578.32
396.292	580.13
396.671	577.87
397.05	575.15
397.429	602.05
397.808	585.78
398.186	586.68
398.565	624.42
398.944	598.43
399.323	637.53
399.701	611.31
400.08	621.93
400.458	644.76
400.837	632.33
401.215	654.02
401.594	675.04
401.972	665.77
402.351	685.66
402.729	689.05
403.107	722.5
403.486	688.37
403.864	702.16
404.242	735.83
404.62	776.05
404.999	770.18
405.377	788.93
405.755	770.18
406.133	791.87
406.511	810.4
406.889	828.48
407.267	851.76
407.645	870.06
408.023	907.8
408.401	925.43
408.779	946.22
409.156	938.31
409.534	968.82
409.912	959.33
410.29	995.03
410.667	1037.06
411.045	1053.79
411.422	1105.54
411.8	1118.87
412.178	1125.2
412.555	1155.25
412.933	1200.67
413.31	1225.31
413.687	1237.06
414.065	1280.67
414.442	1288.81
414.819	1333.78
415.197	1339.88
415.574	1374.91
415.951	1421.69
416.328	1439.09
416.705	1459.65
417.082	1505.98
417.46	1508.24
417.837	1542.36
418.214	1584.39
418.591	1609.93
418.967	1631.85
419.344	1658.97
419.721	1657.84
420.098	1683.37
420.475	1705.07
420.852	1756.59
421.228	1793.65
421.605	1816.03
421.982	1823.48
422.358	1851.96
422.735	1885.63
423.111	1905.74
423.488	1913.42
423.864	1943.03
424.241	2003.59
424.617	2004.5
424.994	2029.81
425.37	2056.47
425.746	2068.9
426.123	2086.08
426.499	2138.28
426.875	2181.44
427.251	2226.64
427.627	2224.38
428.003	2256.01
428.379	2292.62
428.756	2326.07
429.132	2337.59
429.507	2394.32
429.883	2405.39
430.259	2501.88
430.635	2492.39
431.011	2479.29
431.387	2590.47
431.763	2611.71
432.138	2618.49
432.514	2710.92
432.89	2686.06
433.265	2803.8
433.641	2825.49
434.016	2841.99
434.392	2925.6
434.767	2902.78
435.143	2943.91
435.518	2998.59
435.894	3040.85
436.269	3079.04
436.644	3125.6
437.02	3170.79
437.395	3162.43
437.77	3232.26
438.145	3291.69
438.52	3279.94
438.895	3352.03
439.271	3340.96
439.646	3466.38
440.021	3475.87
440.395	3475.42
440.77	3462.54
441.145	3507.28
441.52	3608.29
441.895	3527.62
442.27	3583.89
442.645	3583.21
443.019	3667.95
443.394	3665.02
443.769	3745.47
444.143	3680.84
444.518	3749.76
444.892	3744.79
445.267	3770.78
445.641	3792.47
446.016	3837.44
446.39	3875.63
446.764	3880.83
447.139	3901.62
447.513	3928.74
447.887	3935.29
448.262	3968.06
448.636	3980.94
449.01	4040.6
449.384	4123.76
449.758	4102.29
450.132	4172.8
450.506	4188.39
450.88	4241.27
451.254	4187.04
451.628	4266.58
452.002	4330.54
452.376	4321.27
452.75	4385.9
453.123	4396.75
453.497	4500.93
453.871	4499.34
454.244	4647.36
454.618	4614.82
454.992	4670.19
455.365	4736.85
455.739	4839.22
456.112	4853.23
456.486	4914.48
456.859	4950.86
457.232	5083.96
457.606	5033.57
457.979	5075.6
458.352	5205.77
458.725	5267.01
459.099	5307.01
459.472	5334.13
459.845	5508.81
460.218	5531.18
460.591	5594.68
460.964	5574.34
461.337	5736.83
461.71	5817.73
462.083	5841.46
462.456	5910.38
462.829	5910.61
463.201	6014.11
463.574	6045.74
463.947	6095.69
464.32	6311.95
464.692	6287.55
465.065	6395.57
465.438	6458.62
465.81	6566.18
466.183	6587.65
466.555	6748.78
466.928	6832.84
467.3	6838.94
467.672	6927.08
468.045	7118.26
468.417	7124.59
468.789	7190.8
469.161	7314.41
469.534	7431.92
469.906	7548.3
470.278	7553.05
470.65	7686.38
471.022	7856.09
471.394	8006.82
471.766	8073.94
472.138	8211.79
472.51	8310.09
472.882	8472.35
473.253	8596.86
473.625	8662.85
473.997	8878.89
474.369	8880.92
474.74	9014.71
475.112	9196.4
475.484	9359.1
475.855	9545.09
476.227	9588.93
476.598	9805.19
476.97	10012.42
477.341	10189.82
477.713	10300.55
478.084	10393.65
478.455	10680.2
478.827	10732.18
479.198	11047.65
479.569	10975.33
479.94	11341.65
480.311	11460.74
480.682	11682.66
481.053	11980.28
481.424	12140.95
481.795	12291.68
482.166	12451.68
482.537	12653.71
482.908	12888.28
483.279	13008.05
483.65	13319.23
484.021	13453.69
484.391	13572.55
484.762	13714.24
485.133	13908.59
485.503	14090.05
485.874	14302.7
486.244	14445.75
486.615	14740.21
486.985	14897.94
487.356	15237.37
487.726	15363.47
488.097	15670.58
488.467	15645.04
488.837	15999.83
489.207	16219.04
489.578	16358.24
489.948	16522.53
490.318	16751.45
490.688	16825.35
491.058	17015.85
491.428	17344.88
491.798	17482.51
492.168	17802.27
492.538	17851.54
492.908	17999.33
493.278	18325.87
493.648	18357.29
494.017	18655.58
494.387	18741.68
494.757	18832.53
495.126	19073.65
495.496	19079.3
495.866	19197.94
496.235	19452.17
496.605	19685.61
496.974	19769.23
497.344	19958.83
497.713	20140.29
498.082	20145.04
498.452	20471.58
498.821	20513.84
499.19	20514.29
499.559	20815.53
499.928	20829.54
500.298	20995.41
500.667	21237.21
501.036	21198.11
501.405	21476.53
501.774	21427.94
502.143	21664.77
502.512	21703.19
502.88	21955.16
503.249	22055.27
503.618	22080.13
503.987	22247.58
504.356	22373.23
504.724	22625.42
505.093	22623.84
505.462	22819.54
505.83	22902.7
506.199	23190.38
506.567	23448.9
506.936	23374.33
507.304	23707.2
507.672	23827.88
508.041	23840.76
508.409	24008.89
508.777	24299.28
509.145	24375.43
509.514	24366.85
509.882	24667.18
510.25	24724.35
510.618	24845.48
510.986	24977
511.354	25240.27
511.722	25438.68
512.09	25639.35
512.458	25611.11
512.826	25888.61
513.193	25975.84
513.561	26118.66
513.929	26381.26
514.297	26485.66
514.664	26662.38
515.032	26810.62
515.4	26999.54
515.767	27078.64
516.135	27291.29
516.502	27164.96
516.869	27723.82
517.237	27889.24
517.604	27695.35
517.972	28026.18
518.339	28340.75
518.706	28224.14
519.073	28519.5
519.44	28785.71
519.808	29029.32
520.175	28961.53
520.542	29232.71
520.909	29591.11
521.276	29436.09
521.643	29805.12
522.009	29999.92
522.376	30218.22
522.743	30348.83
523.11	30579.79
523.477	30987.46
523.843	31182.71
524.21	31370.5
524.577	31702.02
524.943	31736.59
525.31	31955.57
525.676	32233.76
526.043	32486.63
526.409	32532.73
526.776	32798.49
527.142	32926.17
527.508	33098.37
527.874	33377.68
528.241	33545.13
528.607	33669.88
528.973	33994.84
529.339	34106.48
529.705	34374.27
530.071	34641.83
530.437	34744.43
530.803	35058.77
531.169	35218.76
531.535	35079.56
531.901	35254.02
532.267	35551.18
532.632	35747.11
532.998	35774
533.364	36055.13
533.73	36140.09
534.095	36576.69
534.461	36668.67
534.826	36717.71
535.192	36806.74
535.557	37178.71
535.923	37220.29
536.288	37401.98
536.653	37524.47
537.019	37425.94
537.384	37608.76
537.749	37780.73
538.114	37932.59
538.479	38091.68
538.845	38191.57
539.21	38334.39
539.575	38467.27
539.94	38459.81
540.305	38838.78
540.67	38857.54
541.034	38930.08
541.399	39092.56
541.764	39194.93
542.129	39360.58
542.494	39576.39
542.858	39657.52
543.223	39770.96
543.587	40055.92
543.952	40067.45
544.316	40102.25
544.681	40220.21
545.045	40448
545.41	40662.46
545.774	40650.48
546.138	40741.33
546.503	40957.6
546.867	40940.65
547.231	41265.16
547.595	41335.21
547.959	41501.76
548.324	41500.63
548.688	41584.47
549.052	41802.32
549.416	41787.4
549.779	42122.76
550.143	42037.79
550.507	42337.9
550.871	42418.35
551.235	42505.8
551.599	42728.62
551.962	42859.24
552.326	43002.97
552.689	43337.19
553.053	43125.9
553.417	43170.87
553.78	43760.01
554.143	43525.44
554.507	43640.69
554.87	43840.01
555.234	44196.61
555.597	44038.64
555.96	44236.15
556.323	44393.66
556.686	44527.67
557.05	44736.71
557.413	44985.96
557.776	45090.14
558.139	45111.84
558.502	45246.07
558.865	45437.7
559.228	45727.19
559.59	45850.12
559.953	45768.32
560.316	46308.64
560.679	46190
561.041	46404.91
561.404	46575.07
561.767	46900.94
562.129	46649.88
562.492	47188.84
562.854	47133.03
563.217	47353.59
563.579	47586.57
563.941	47608.27
564.304	47872.44
564.666	48069.5
565.028	48106.33
565.39	48236.95
565.753	48485.53
566.115	48568.47
566.477	48685.75
566.839	48866.31
567.201	49068.57
567.563	49126.42
567.925	49373.65
568.287	49434.21
568.648	49490.03
569.01	49694.99
569.372	49974.76
569.734	49880.52
570.095	50013.85
570.457	50271.93
570.819	50414.97
571.18	50359.16
571.542	50569.77
571.903	50663.55
572.265	50844.57
572.626	50913.94
572.987	50909.2
573.349	51104.67
573.71	51175.18
574.071	51296.31
574.432	51477.77
574.794	51644.32
575.155	51569.75
575.516	51521.16
575.877	51761.38
576.238	51755.73
576.599	52000.47
576.96	51915.27
577.32	51998.89
577.681	52175.61
578.042	52169.5
578.403	52186.23
578.763	52299.22
579.124	52417.41
579.485	52504.18
579.845	52578.31
580.206	52527.69
580.566	52549.61
580.927	52595.71
581.287	52827.11
581.648	52662.82
582.008	52788.24
582.368	52777.85
582.728	52868.02
583.089	52839.09
583.449	52829.15
583.809	52875.25
584.169	53048.12
584.529	52990.27
584.889	53251.51
585.249	53012.65
585.609	53077.95
585.969	53166.09
586.329	53084.28
586.688	53106.88
587.048	53147.11
587.408	53127.22
587.768	53127.22
588.127	53244.96
588.487	53157.95
588.846	53389.36
589.206	53086.54
589.565	53285.86
589.925	53348
590.284	53381.45
590.643	53358.4
591.003	53517.72
591.362	53469.36
591.721	53438.85
592.08	53453.99
592.44	53517.72
592.799	53520.88
593.158	53528.56
593.517	53510.26
593.876	53597.04
594.235	53463.93
594.593	53553.2
594.952	53673.42
595.311	53603.82
595.67	53620.99
596.029	53803.81
596.387	53833.87
596.746	53886.75
597.104	53846.3
597.463	53742.57
597.822	53934.43
598.18	53750.03
598.538	53768.56
598.897	53880.65
599.255	53761.78
599.613	54136.68
599.972	54032.28
600.33	54051.26
600.688	53896.01
601.046	54058.95
601.404	54169.45
601.762	54068.21
602.12	54177.36
602.478	54156.12
602.836	54236.57
603.194	54082.67
603.552	54144.82
603.91	54107.08
604.268	54311.59
604.625	54231.14
604.983	54383.91
605.341	54238.38
605.698	54253.07
606.056	54355.89
606.413	54406.28
606.771	54484.25
607.128	54518.14
607.485	54360.63
607.843	54380.97
608.2	54585.26
608.557	54716.78
608.914	54494.64
609.272	54676.1
609.629	54686.73
609.986	54778.02
610.343	54626.39
610.7	54886.27
611.057	54846.04
611.414	54777.57
611.771	54771.02
612.127	54900.73
612.484	54898.7
612.841	55011.01
613.198	54816.44
613.554	54931.47
613.911	55058.24
614.267	54986.61
614.624	55004.23
614.98	55065.02
615.337	55171.23
615.693	55161.06
616.05	55080.61
616.406	55256.65
616.762	55106.83
617.118	55148.18
617.475	55170.1
617.831	55252.59
618.187	55267.5
618.543	55295.75
618.899	55469.3
619.255	55434.05
619.611	55261.63
619.967	55432.47
620.323	55539.13
620.678	55329.42
621.034	55315.18
621.39	55357.22
621.746	55221.63
622.101	55612.13
622.457	55372.36
622.812	55427.05
623.168	55485.57
623.523	55512.92
623.879	55528.96
624.234	55392.7
624.589	55461.85
624.945	55513.14
625.3	55534.84
625.655	55474.73
626.01	55518.34
626.365	55557.66
626.72	55519.92
627.075	55489.19
627.43	55583.65
627.785	55366.71
628.14	55459.36
628.495	55502.98
628.85	55454.39
629.205	55472.92
629.559	55568.74
629.914	55380.04
630.269	55458.91
630.623	55383.43
630.978	55324.45
631.332	55516.99
631.687	55524.44
632.041	55378.46
632.396	55485.8
632.75	55348.86
633.104	55388.4
633.459	55251.46
633.813	55301.63
634.167	55336.88
634.521	55271.12
634.875	55330.1
635.229	55313.83
635.583	55134.62
635.937	55168.07
636.291	55127.62
636.645	55149.99
636.999	55124.68
637.352	55231.12
637.706	55059.82
638.06	55202.42
638.413	55067.73
638.767	55108.41
639.121	55089.65
639.474	54971.01
639.828	54990.22
640.181	55084.91
640.534	55002.42
640.888	55009.43
641.241	54814.41
641.594	54941.41
641.947	54938.92
642.301	54879.04
642.654	54967.85
643.007	54916.32
643.36	54907.29
643.713	54863.22
644.066	54961.97
644.419	54735.09
644.771	54608.08
645.124	54385.26
645.477	54343.46
645.83	54196.8
646.182	54013.07
646.535	53935.79
646.888	54010.81
647.24	53926.52
647.593	54037.93
647.945	53960.19
648.298	53769.46
648.65	53771.27
649.002	53665.96
649.355	53905.28
649.707	53799.07
650.059	53962.68
650.411	54366.96
650.763	54352.72
651.115	54593.85
651.467	54490.35
651.819	54562.44
652.171	54426.39
652.523	54465.94
652.875	54434.53
653.227	54291.03
653.578	54491.02
653.93	54366.96
654.282	54278.15
654.633	54224.59
654.985	54313.18
655.337	54239.28
655.688	54358.6
656.039	54383.68
656.391	54134.42
656.742	54180.98
657.094	54202.44
657.445	54246.29
657.796	54192.05
658.147	54147.76
658.498	54218.04
658.849	54329
659.2	54111.37
659.551	54087.87
659.902	54218.72
660.253	54103.24
660.604	54149.34
660.955	54065.95
661.306	54208.32
661.656	54027.08
662.007	54064.6
662.358	54042
662.708	54032.28
663.059	54013.3
663.409	53859.86
663.76	54120.41
664.11	54009.68
664.461	54029.12
664.811	54103.24
665.161	53907.76
665.511	53927.65
665.862	53922.45
666.212	54034.77
666.562	54044.03
666.912	53897.82
667.262	53929.23
667.612	53843.36
667.962	53893.98
668.312	53863.7
668.662	53986.63
669.011	53878.84
669.361	53790.7
669.711	53757.03
670.06	53707.32
670.41	53751.84
670.76	53624.83
671.109	53768.78
671.459	53769.24
671.808	53619.18
672.157	53720.65
672.507	53535.12
672.856	53543.03
673.205	53599.07
673.554	53617.38
673.904	53567.21
674.253	53645.17
674.602	53537.15
674.951	53131.29
675.3	52987.34
675.649	53495.12
675.998	53366.08
676.346	53427.1
676.695	53464.84
677.044	53199.08
677.393	53333.54
677.741	53341.45
678.09	53270.72
678.438	53121.8
678.787	53250.83
679.135	53136.26
679.484	52914.34
679.832	53029.14
680.181	52861.69
680.529	53008.8
680.877	52919.09
681.225	52847.68
681.573	52861.46
681.922	52754.57
682.27	52702.82
682.618	52672.99
682.966	52526.56
683.314	52616.27
683.661	52573.56
684.009	52319.33
684.357	52260.12
684.705	52307.81
685.053	52280.46
685.4	52256.06
685.748	51966.57
686.095	52020.36
686.443	51804.32
686.79	51844.09
687.138	51856.52
687.485	51942.62
687.832	51706.24
688.18	51806.35
688.527	51550.31
688.874	51544.66
689.221	51496.3
689.568	51379.24
689.915	51171.56
690.262	51250.88
690.609	51111
690.956	50990.78
691.303	50969.76
691.65	50843.89
691.997	50733.84
692.344	50569.32
692.69	50548.98
693.037	50548.98
693.383	50233.51
693.73	50416.33
694.077	50226.96
694.423	50116
694.769	50026.28
695.116	50013.85
695.462	49922.11
695.808	49872.84
696.155	49895.44
696.501	49574.77
696.847	49650.93
697.193	49333.42
697.539	49499.29
697.885	49262.24
698.231	49050.04
698.577	49053.88
698.923	48973.88
699.269	48798.97
699.614	48572.31
699.96	48566.21
700.306	48528.92
700.651	48465.42
700.997	48293.22
701.342	48292.09
701.688	48190.4
702.033	48021.14
702.379	48136.84
702.724	47917.86
703.069	47961.93
703.415	47471.32
703.76	47479.68
704.105	47557.65
704.45	47462.06
704.795	47315.39
705.14	47127.15
705.485	47142.97
705.83	46968.06
706.175	47085.34
706.52	46942.75
706.865	46692.13
707.209	46615.3
707.554	46542.31
707.899	46513.61
708.243	46320.17
708.588	46341.63
708.932	46062.32
709.277	46102.77
709.621	46069.1
709.966	45818.03
710.31	45819.61
710.654	45655.1
710.998	45635.89
711.342	45678.83
711.687	45547.76
712.031	45378.27
712.375	45180.31
712.719	45349.34
713.063	45216.69
713.407	45234.55
713.75	45121.55
714.094	45020.99
714.438	44710.27
714.782	44801.79
715.125	44655.35
715.469	44761.11
715.812	44461.01
716.156	44426.2
716.499	44267.79
716.843	44349.37
717.186	44068.7
717.53	44353.21
717.873	44257.85
718.216	44230.5
718.559	43938.53
718.902	43800.01
719.246	43772.44
719.589	43649.28
719.932	43576.51
720.275	43571.09
720.617	43625.55
720.96	43480.24
721.303	43441.82
721.646	43486.12
721.989	43103.75
722.331	43276.63
722.674	43050.87
723.016	43124.77
723.359	43009.29
723.701	43057.2
724.044	42881.16
724.386	42588.51
724.729	42962.29
725.071	42688.85
725.413	42555.75
725.755	42699.24
726.097	42628.51
726.439	42306.49
726.782	42344.68
727.124	42504.45
727.465	42285.47
727.807	42289.09
728.149	42064.01
728.491	41988.3
728.833	41862.66
729.175	41953.28
729.516	41754.18
729.858	41774.75
730.199	41882.99
730.541	41727.74
730.882	41607.97
731.224	41706.73
731.565	41561.65
731.906	41626.28
732.248	41558.94
732.589	41313.29
732.93	41254.99
733.271	41229.9
733.612	41242.33
733.953	41349
734.294	41013.19
734.635	41129.79
734.976	41066.07
735.317	40829.01
735.658	40849.58
735.999	40888.44
736.339	40715.34
736.68	40825.85
737.021	40711.5
737.361	40501.11
737.702	40828.79
738.042	40592.86
738.383	40474.22
738.723	40473.31
739.063	40408.01
739.404	40327.56
739.744	40414.56
740.084	40227.67
740.424	40322.13
740.764	40016.38
741.104	40194.45
741.444	39924.18
741.784	39940.67
742.124	40055.25
742.464	39863.61
742.804	39838.98
743.143	39728.48
743.483	39749.72
743.823	39498.65
744.162	39557.41
744.502	39670.85
744.841	39495.71
745.181	39622.49
745.52	39417.75
745.86	39408.26
746.199	39387.02
746.538	39303.63
746.877	39371.65
747.216	39157.64
747.556	39107.02
747.895	39014.82
748.234	38874.26
748.573	38810.76
748.911	38775.96
749.25	38796.3
749.589	38695.28
749.928	38735.05
750.267	38711.55
750.605	38603.98
750.944	38483.31
751.283	38398.34
751.621	38400.37
751.96	38172.13
752.298	38208.74
752.636	38293.94
752.975	38114.51
753.313	37870.22
753.651	38039.48
753.989	37837.68
754.327	37811.69
754.666	37527.18
755.004	37677
755.342	37733.27
755.679	37559.94
756.017	37354.98
756.355	37402.89
756.693	37321.53
757.031	37288.54
757.368	37042.22
757.706	36991.6
758.044	36806.97
758.381	36948.44
758.719	36777.14
759.056	36771.94
759.394	36550.03
759.731	36401.33
760.068	36392.29
760.405	36254.44
760.743	36105.52
761.08	36182.81
761.417	35983.26
761.754	35839.99
762.091	35820.1
762.428	35815.58
762.765	35519.09
763.102	35551.64
763.438	35400.23
763.775	35279.33
764.112	35297.18
764.449	35344.86
764.785	35131.08
765.122	34841.82
765.458	34765.67
765.795	34716.4
766.131	34760.7
766.467	34611.1
766.804	34413.59
767.14	34229.64
767.476	34190.54
767.812	34192.8
768.148	34248.17
768.485	33841.85
768.821	33809.99
769.157	33659.26
769.492	33668.75
769.828	33441.18
770.164	33245.03
770.5	33242.32
770.836	33140.63
771.171	33005.26
771.507	33122.55
771.842	32682.11
772.178	32638.04
772.513	32606.63
772.849	32512.17
773.184	32319.18
773.519	32362.12
773.855	32258.84
774.19	31998.96
774.525	31911.73
774.86	31871.28
775.195	31816.59
775.53	31739.53
775.865	31541.35
776.2	31403.72
776.535	31088.25
776.87	31204.41
777.205	31014.13
777.539	30870.63
777.874	30947.92
778.209	30659.79
778.543	30580.47
778.878	30519.23
779.212	30372.11
779.547	30331.43
779.881	30279.91
780.215	30074.49
780.55	30056.19
780.884	29983.19
781.218	29872.69
781.552	29973.03
781.886	29552.25
782.22	29535.97
782.554	29348.41
782.888	29267.28
783.222	29077
783.556	28998.59
783.889	29008.31
784.223	28632.5
784.557	28724.92
784.89	28732.38
785.224	28644.25
785.557	28353.86
785.891	28381.88
786.224	28294.43
786.558	28239.74
786.891	28045.17
787.224	27754.33
787.557	27762.46
787.891	27885.62
788.224	27687.89
788.557	27662.58
788.89	27502.81
789.223	27440.21
789.556	27307.11
789.888	27199.99
790.221	27085.87
790.554	26750.96
790.887	26871.86
791.219	26884.97
791.552	26718.42
791.884	26532.21
792.217	26598.65
792.549	26287.02
792.882	26320.01
793.214	26137.65
793.546	26358.88
793.879	26030.53
794.211	26009.97
794.543	26072.79
794.875	25793.02
795.207	25885.22
795.539	25723.42
795.871	25712.57
796.203	25460.38
796.535	25220.83
796.867	25287.05
797.198	25311.68
797.53	25240.27
797.862	25036.21
798.193	25124.57
798.525	24879.83
798.856	24918.47
799.188	24689.1
799.519	24603.22
799.85	24488.42
800.182	24544.92
800.513	24519.38
800.844	24265.38
801.175	24408.88
801.506	24366.85
801.837	24235.1
802.168	24144.03
802.499	24104.48
802.83	23942.22
803.161	23871.72
803.491	23897.48
803.822	23885.28
804.153	23628.79
804.483	23524.61
804.814	23431.95
805.145	23422.92
805.475	23456.81
805.805	23311.96
806.136	23283.94
806.466	23316.03
806.796	23192.41
807.126	22998.75
807.457	23077.61
807.787	22902.93
808.117	22850.5
808.447	22805.53
808.777	22888.01
809.107	22765.76
809.436	22661.81
809.766	22637.17
810.096	22462.49
810.426	22359.21
810.755	22512.2
811.085	22304.3
811.414	22266.11
811.744	22029.96
812.073	22119.9
812.403	22111.54
812.732	22095.94
813.061	21950.19
813.39	21829.51
813.719	21828.15
814.049	21978.66
814.378	21751.55
814.707	21672.23
815.036	21577.77
815.365	21606.92
815.693	21403.53
816.022	21466.81
816.351	21308.39
816.68	21253.03
817.008	21409.41
817.337	21136.87
817.665	21013.71
817.994	21082.41
818.322	21114.73
818.651	20961.96
818.979	20938.46
819.307	21068.17
819.636	20918.57
819.964	20798.35
820.292	20848.75
820.62	20830.44
820.948	20727.17
821.276	20774.85
821.604	20738.47
821.932	20750.44
822.259	20735.98
822.587	20743.21
822.915	20593.39
823.243	20706.83
823.57	20616.44
823.898	20622.54
824.225	20563.33
824.553	20571.69
824.88	20629.09
825.207	20730.33
825.535	20632.03
825.862	20671.58
826.189	20557.23
826.516	20599.49
826.843	20741.86
827.17	20688.52
827.497	20699.15
827.824	20540.73
828.151	20662.54
828.478	20669.32
828.805	20723.55
829.131	20513.84
829.458	20578.7
829.785	20439.26
830.111	20380.51
830.438	20555.42
830.764	20622.76
831.09	20559.94
831.417	20408.08
831.743	20513.16
832.069	20411.69
832.395	20409.89
832.722	20423.45
833.048	20324.69
833.374	20400.62
833.7	20252.38
834.026	20336.67
834.351	20372.37
834.677	20307.29
835.003	20305.26
835.329	20253.96
835.654	20238.37
835.98	20109.33
836.306	20220.29
836.631	20108.88
836.956	20181.87
837.282	20145.71
837.607	20012.61
837.932	20003.34
838.258	20046.28
838.583	19986.17
838.908	19905.49
839.233	19881.77
839.558	19901.2
839.883	19670.47
840.208	19745.5
840.533	19701.21
840.858	19680.87
841.182	19847.64
841.507	19599.06
841.832	19561.55
842.156	19498.72
842.481	19573.98
842.805	19493.3
843.13	19424.15
843.454	19376.69
843.778	19331.05
844.103	19305.74
844.427	19262.12
844.751	19151.84
845.075	19194.33
845.399	19103.03
845.723	18980.77
846.047	19081.11
846.371	18935.8
846.695	18844.96
847.019	18710.27
847.343	18559.09
847.666	18550.05
847.99	18402.93
848.313	18383.05
848.637	18277.74
848.96	18314.35
849.284	18255.59
849.607	18072.77
849.931	18002.49
850.254	17863.74
850.577	17788.04
850.9	17699.22
851.223	17659.9
851.546	17600.47
851.869	17598.21
852.192	17562.05
852.515	17390.08
852.838	17345.11
853.161	17325.22
853.483	17245.9
853.806	17194.15
854.129	17214.49
854.451	17107.38
854.774	17018.79
855.096	17086.36
855.419	16966.81
855.741	16946.48
856.063	16673.71
856.385	16804.78
856.708	16635.07
857.03	16609.08
857.352	16619.93
857.674	16496.54
857.996	16481.18
858.318	16446.83
858.64	16397.11
858.961	16411.35
859.283	16386.94
859.605	16226.95
859.926	16292.26
860.248	16191.92
860.57	16189.66
860.891	16133.16
861.212	16029.21
861.534	16106.27
861.855	16051.81
862.176	16031.7
862.498	15970.91
862.819	15913.96
863.14	15879.16
863.461	15885.71
863.782	15801.42
864.103	15836.67
864.424	15693.4
864.745	15769.11
865.065	15725.04
865.386	15578.6
865.707	15617.47
866.027	15638.94
866.348	15686.4
866.668	15534.99
866.989	15523.24
867.309	15438.27
867.63	15464.03
867.95	15495.89
868.27	15444.82
868.59	15337.03
868.91	15392.39
869.23	15347.42
869.55	15304.94
869.87	15361.21
870.19	15235.33
870.51	15191.49
870.83	15236.46
871.15	15144.71
871.469	15119.63
871.789	15153.53
872.109	15090.03
872.428	15041.67
872.748	15052.74
873.067	15012.51
873.386	15034.66
873.706	14990.37
874.025	14870.37
874.344	14945.4
874.663	14926.87
874.982	14922.57
875.301	14932.97
875.62	14840.54
875.939	14796.7
876.258	14738.17
876.577	14651.62
876.896	14706.31
877.214	14652.98
877.533	14631.28
877.852	14652.98
878.17	14674.9
878.489	14638.51
878.807	14567.33
879.125	14534.56
879.444	14577.27
879.762	14504.28
880.08	14508.57
880.398	14357.16
880.716	14371.4
881.034	14340.44
881.352	14336.83
881.67	14267.22
881.988	14331.4
882.306	14300.67
882.624	14268.81
882.941	14210.73
883.259	14130.96
883.577	14107.91
883.894	14043.27
884.212	14060.68
884.529	14045.99
884.846	13964.18
885.164	13944.07
885.481	13878.31
885.798	13917.85
886.115	13882.6
886.432	13815.26
886.75	13793.11
887.067	13727.58
887.383	13721.93
887.7	13630.18
888.017	13539.79
888.334	13701.14
888.651	13521.93
888.967	13520.35
889.284	13442.61
889.6	13465.89
889.917	13367.59
890.233	13444.65
890.55	13348.15
890.866	13422.05
891.182	13253.01
891.498	13224.77
891.815	13148.84
892.131	13136.18
892.447	13066.13
892.763	13065
893.079	13051.21
893.395	12880.59
893.71	12909.75
894.026	12889.86
894.342	12881.95
894.657	12813.25
894.973	12732.35
895.289	12792.23
895.604	12713.82
895.92	12569.42
896.235	12535.52
896.55	12673.37
896.865	12566.25
897.181	12539.36
897.496	12465.69
897.811	12373.49
898.126	12317.67
898.441	12343.43
898.756	12321.51
899.071	12180.95
899.386	12243.1
899.7	12141.18
900.015	12124.23
900.33	12064.34
900.644	11956.32
900.959	12046.49
901.273	11943.44
901.588	11913.39
901.902	11854.18
902.216	11782.77
902.531	11747.74
902.845	11726.73
903.159	11590.46
903.473	11568.09
903.787	11531.25
904.101	11497.13
904.415	11478.14
904.729	11441.54
905.042	11364.7
905.356	11259.39
905.67	11273.63
905.984	11305.04
906.297	11208.1
906.611	11114.99
906.924	11117.02
907.237	11107.08
907.551	11036.35
907.864	10993.41
908.177	10981.43
908.491	10924.71
908.804	10880.65
909.117	10733.31
909.43	10713.42
909.743	10639.07
910.056	10683.59
910.368	10686.3
910.681	10595
910.994	10496.48
911.307	10522.01
911.619	10421
911.932	10419.87
912.244	10379.64
912.557	10278.63
912.869	10249.93
913.181	10249.25
913.494	10158.18
913.806	10126.99
914.118	10101.46
914.43	10023.04
914.742	10101.91
915.054	10009.03
915.366	9951.63
915.678	9924.29
915.99	9858.98
916.302	9815.82
916.613	9801.35
916.925	9759.55
917.236	9689.49
917.548	9696.5
917.859	9703.05
918.171	9612.88
918.482	9499.67
918.794	9513
919.105	9457.63
919.416	9399.33
919.727	9366.79
920.038	9393.23
920.349	9275.26
920.66	9205.89
920.971	9218.54
921.282	9132.22
921.593	9133.8
921.903	9028.94
922.214	9111.43
922.525	9001.6
922.835	8921.15
923.146	8976.97
923.456	8913.47
923.767	8908.04
924.077	8895.16
924.387	8786.46
924.697	8755.73
925.008	8660.14
925.318	8651.55
925.628	8689.52
925.938	8620.37
926.248	8526.58
926.558	8487.49
926.867	8400.71
927.177	8424.67
927.487	8366.14
927.796	8298.12
928.106	8302.63
928.416	8255.63
928.725	8217.21
929.034	8176.31
929.344	8253.82
929.653	8153.03
929.962	8159.81
930.271	8080.04
930.581	8039.82
930.89	8033.49
931.199	7920.5
931.508	7975.19
931.817	7879.37
932.125	7875.08
932.434	7842.99
932.743	7743.78
933.051	7764.8
933.36	7686.38
933.669	7674.63
933.977	7628.75
934.286	7628.3
934.594	7590.56
934.902	7525.48
935.21	7564.58
935.519	7486.61
935.827	7513.95
936.135	7439.61
936.443	7366.84
936.751	7283.9
937.059	7320.97
937.367	7277.13
937.674	7272.15
937.982	7217.69
938.29	7170.69
938.597	7212.72
938.905	7086.85
939.213	7128.88
939.52	7052.27
939.827	7025.15
940.135	7001.43
940.442	6951.48
940.749	6938.38
941.056	6949.45
941.363	6793.3
941.67	6929.11
941.977	6737.7
942.284	6787.42
942.591	6790.81
942.898	6688.21
943.205	6683.47
943.511	6615.67
943.818	6622.23
944.125	6581.55
944.431	6552.4
944.738	6574.77
945.044	6540.87
945.35	6478.95
945.657	6447.77
945.963	6426.98
946.269	6340.88
946.575	6364.15
946.881	6335
947.187	6313.31
947.493	6270.82
947.799	6247.77
948.105	6201.67
948.41	6130.49
948.716	6147.66
949.022	6129.36
949.327	6104.95
949.633	6034.22
949.938	6041.23
950.244	6069.47
950.549	5967.55
950.854	5935.69
951.16	5976.59
951.465	5857.73
951.77	5840.55
952.075	5891.4
952.38	5868.12
952.685	5813.89
952.99	5749.48
953.294	5732.53
953.599	5723.72
953.904	5704.51
954.209	5687.11
954.513	5674.23
954.818	5646.66
955.122	5599.88
955.426	5541.58
955.731	5565.76
956.035	5511.75
956.339	5502.93
956.643	5507
956.948	5436.27
957.252	5401.47
957.556	5362.6
957.86	5356.27
958.163	5375.48
958.467	5351.75
958.771	5277.18
959.075	5271.08
959.378	5220
959.682	5240.79
959.985	5250.29
960.289	5182.26
960.592	5131.64
960.896	5118.54
961.199	5140.68
961.502	5056.84
961.805	5046
962.108	5035.83
962.411	5014.36
962.714	4965.55
963.017	5002.38
963.32	4947.02
963.623	4902.27
963.926	4926
964.228	4889.84
964.531	4859.79
964.833	4859.56
965.136	4819.56
965.438	4770.75
965.741	4814.59
966.043	4768.26
966.345	4733.92
966.648	4660.92
966.95	4696.4
967.252	4636.74
967.554	4621.83
967.856	4681.71
968.158	4577.99
968.46	4581.6
968.761	4564.65
969.063	4553.35
969.365	4552.45
969.666	4506.8
969.968	4471.55
970.269	4470.65
970.571	4447.14
970.872	4414.83
971.174	4393.36
971.475	4374.83
971.776	4393.13
972.077	4327.37
972.378	4296.86
972.679	4302.74
972.98	4301.38
973.281	4219.35
973.582	4269.07
973.883	4226.58
974.183	4150.88
974.484	4211.89
974.785	4154.27
975.085	4156.53
975.386	4137.09
975.686	4093.03
975.986	4120.15
976.287	4072.92
976.587	4096.87
976.887	4032.24
977.187	3993.37
977.487	3987.72
977.787	4000.15
978.087	3980.26
978.387	3924.22
978.687	3949.53
978.987	3897.78
979.286	3884.45
979.586	3883.32
979.885	3876.99
980.185	3834.5
980.484	3805.13
980.784	3775.75
981.083	3792.92
981.382	3793.6
981.682	3782.98
981.981	3698.91
982.28	3705.24
982.579	3669.08
982.878	3696.43
983.177	3626.15
983.475	3625.24
983.774	3582.98
984.073	3628.86
984.372	3556.77
984.67	3570.78
984.969	3541.63
985.267	3542.76
985.566	3536.21
985.864	3491.24
986.162	3465.7
986.461	3464.57
986.759	3452.14
987.057	3449.66
987.355	3399.49
987.653	3422.99
987.951	3390.22
988.249	3391.35
988.547	3413.05
988.844	3400.16
989.142	3359.26
989.44	3340.05
989.737	3324.91
990.035	3293.73
990.332	3266.16
990.63	3245.37
990.927	3260.96
991.224	3238.59
991.521	3207.4
991.819	3170.34
992.116	3186.39
992.413	3179.61
992.71	3166.95
993.006	3127.63
993.303	3100.51
993.6	3125.82
993.897	3089.44
994.193	3051.25
994.49	3027.75
994.787	3017.58
995.083	3001.31
995.379	3025.26
995.676	2960.63
995.972	2969.89
996.268	2983.45
996.565	2976.45
996.861	2939.16
997.157	2925.38
997.453	2884.02
997.749	2900.06
998.044	2861.2
998.34	2867.75
998.636	2835.21
998.932	2805.83
999.227	2804.02
999.523	2810.12
999.818	2771.71
1000.114	2751.37
1000.409	2740.3
1000.704	2769.45
1001	2722.44
1001.295	2710.24
1001.59	2677.02
1001.885	2696
1002.18	2669.56
1002.475	2604.71
1002.77	2628.21
1003.065	2608.1
1003.359	2617.59
1003.654	2566.74
1003.949	2572.62
1004.243	2581.2
1004.538	2491.94
1004.832	2524.03
1005.127	2523.35
1005.421	2513.86
1005.715	2470.7
1006.009	2481.77
1006.304	2490.36
1006.598	2435.22
1006.892	2408.55
1007.186	2369.46
1007.48	2404.71
1007.773	2370.14
1008.067	2371.04
1008.361	2371.94
1008.655	2331.94
1008.948	2330.14
1009.242	2300.31
1009.535	2312.06
1009.829	2293.3
1010.122	2290.82
1010.415	2279.29
1010.708	2253.53
1011.001	2224.6
1011.295	2231.38
1011.588	2213.98
1011.881	2184.38
1012.173	2162.01
1012.466	2181.44
1012.759	2142.57
1013.052	2100.76
1013.344	2105.96
1013.637	2109.35
1013.93	2088.11
1014.222	2100.54
1014.514	2097.6
1014.807	2074.55
1015.099	2037.49
1015.391	2027.09
1015.683	2014.89
1015.976	2019.18
1016.268	1997.26
1016.56	1961.33
1016.851	1979.19
1017.143	1958.62
1017.435	1934.89
1017.727	1916.59
1018.018	1912.75
1018.31	1879.98
1018.602	1880.66
1018.893	1875.46
1019.185	1857.61
1019.476	1792.98
1019.767	1842.92
1020.058	1808.79
1020.35	1821.22
1020.641	1799.08
1020.932	1775.57
1021.223	1778.29
1021.514	1746.87
1021.804	1736.25
1022.095	1747.1
1022.386	1713.88
1022.677	1728.57
1022.967	1689.48
1023.258	1684.96
1023.548	1687.22
1023.839	1649.7
1024.129	1686.76
1024.419	1655.58
1024.709	1644.73
1025	1642.47
1025.29	1606.31
1025.58	1637.05
1025.87	1591.62
1026.16	1564.05
1026.449	1592.08
1026.739	1572.87
1027.029	1528.35
1027.319	1543.04
1027.608	1529.71
1027.898	1517.28
1028.187	1496.71
1028.477	1475.47
1028.766	1475.02
1029.055	1449.26
1029.344	1460.33
1029.634	1428.92
1029.923	1457.62
1030.212	1418.97
1030.501	1414
1030.79	1422.59
1031.078	1393.21
1031.367	1396.83
1031.656	1383.27
1031.945	1349.82
1032.233	1359.54
1032.522	1358.18
1032.81	1353.66
1033.099	1333.78
1033.387	1317.28
1033.675	1317.06
1033.963	1312.08
1034.251	1306.66
1034.54	1281.8
1034.828	1272.09
1035.116	1287.68
1035.403	1242.71
1035.691	1245.19
1035.979	1267.11
1036.267	1254.68
1036.554	1228.47
1036.842	1238.64
1037.129	1205.42
1037.417	1200.67
1037.704	1182.6
1037.992	1183.05
1038.279	1186.21
1038.566	1166.55
1038.853	1166.55
1039.14	1166.55
