Data from white_wall_FLMS001491_095.txt Node
Date: Tue Feb 07 11:06:16 GMT 2017
User: dcchb
Spectrometer: FLMS00149
Trigger mode: 0
Integration Time (sec): 2.000000E-2
Scans to average: 10
Electric dark correction enabled: true
Nonlinearity correction enabled: false
Boxcar width: 0
XAxis mode: Wavelengths
Number of Pixels in Spectrum: 2048
>>>>>Begin Spectral Data<<<<<
341.393	-6.48
341.776	-6.48
342.16	-6.48
342.543	-58.46
342.927	-46.48
343.31	-59.81
343.693	-80.15
344.077	-64.33
344.46	-57.33
344.843	-44.22
345.226	-55.75
345.61	-8.29
345.993	-21.62
346.376	-10.32
346.759	22.67
347.142	14.99
347.525	37.58
347.908	54.31
348.291	74.87
348.674	100.18
349.057	97.24
349.44	131.37
349.823	142.21
350.206	170.91
350.588	214.98
350.971	237.35
351.354	261.08
351.737	263.34
352.119	283
352.502	292.72
352.884	316.22
353.267	328.88
353.65	330.91
354.032	327.52
354.414	348.99
354.797	342.89
355.179	323.9
355.562	344.47
355.944	349.89
356.326	348.99
356.709	361.87
357.091	361.42
357.473	377.91
357.855	377.91
358.238	370.68
358.62	359.84
359.002	374.75
359.384	364.58
359.766	378.59
360.148	372.49
360.53	371.13
360.912	369.78
361.294	344.47
361.676	367.29
362.057	370.91
362.439	375.2
362.821	346.5
363.203	365.48
363.584	355.32
363.966	332.72
364.348	357.8
364.729	368.2
365.111	379.5
365.493	356.9
365.874	354.41
366.256	344.24
366.637	376.78
367.019	331.36
367.4	365.26
367.781	340.17
368.163	351.93
368.544	348.54
368.925	380.85
369.306	351.02
369.688	343.11
370.069	336.11
370.45	353.28
370.831	339.04
371.212	366.61
371.593	347.18
371.974	348.54
372.355	351.93
372.736	362.09
373.117	355.99
373.498	358.71
373.879	363
374.26	361.42
374.641	351.25
375.021	367.07
375.402	354.86
375.783	373.17
376.163	371.13
376.544	369.1
376.925	377.91
377.305	372.04
377.686	377.46
378.066	373.39
378.447	369.33
378.827	394.64
379.208	372.04
379.588	375.43
379.968	388.08
380.349	389.21
380.729	394.41
381.109	399.61
381.489	383.56
381.87	400.06
382.25	388.76
382.63	419.04
383.01	431.92
383.39	391.02
383.77	393.96
384.15	402.55
384.53	420.85
384.91	400.74
385.29	399.83
385.67	411.36
386.049	431.47
386.429	425.82
386.809	428.53
387.189	455.65
387.568	439.83
387.948	431.47
388.328	453.17
388.707	430.34
389.087	470.57
389.466	464.92
389.846	450
390.225	452.71
390.605	473.73
390.984	494.75
391.363	459.04
391.743	507.63
392.122	498.81
392.501	513.5
392.881	506.72
393.26	527.06
393.639	513.05
394.018	516.67
394.397	532.03
394.776	532.26
395.155	560.06
395.534	571.58
395.913	570
396.292	585.59
396.671	599.6
397.05	607.51
397.429	601.86
397.808	613.84
398.186	639.38
398.565	631.24
398.944	629.88
399.323	660.84
399.701	665.36
400.08	681.63
400.458	699.71
400.837	699.94
401.215	703.33
401.594	718.92
401.972	737.23
402.351	764.34
402.729	777.9
403.107	764.57
403.486	788.3
403.864	800.73
404.242	827.85
404.62	862.65
404.999	862.87
405.377	855.64
405.755	871.91
406.133	910.56
406.511	904.23
406.889	937
407.267	954.4
407.645	965.24
408.023	1020.83
408.401	999.14
408.779	1041.85
409.156	1048.4
409.534	1062.64
409.912	1076.88
410.29	1093.6
410.667	1119.14
411.045	1133.37
411.422	1178.57
411.8	1197.78
412.178	1215.63
412.555	1235.74
412.933	1233.26
413.31	1265.35
413.687	1277.55
414.065	1296.53
414.442	1300.15
414.819	1305.12
415.197	1337.89
415.574	1359.58
415.951	1409.75
416.328	1406.36
416.705	1415.63
417.082	1418.11
417.46	1464.89
417.837	1450.65
418.214	1459.24
418.591	1487.94
418.967	1515.06
419.344	1507.83
419.721	1550.31
420.098	1555.74
420.475	1596.86
420.852	1591.67
421.228	1602.51
421.605	1613.59
421.982	1643.19
422.358	1677.77
422.735	1659.24
423.111	1696.3
423.488	1724.55
423.864	1702.85
424.241	1741.72
424.617	1776.52
424.994	1770.42
425.37	1825.79
425.746	1803.64
426.123	1862.39
426.499	1847.71
426.875	1847.25
427.251	1945.56
427.627	1955.5
428.003	2012.67
428.379	1991.43
428.756	2052.9
429.132	2065.33
429.507	2097.42
429.883	2127.92
430.259	2152.78
430.635	2182.39
431.011	2193.01
431.387	2222.16
431.763	2312.55
432.138	2313.91
432.514	2306.22
432.89	2342.16
433.265	2402.04
433.641	2401.82
434.016	2470.51
434.392	2490.63
434.767	2540.34
435.143	2523.62
435.518	2560.91
435.894	2609.04
436.269	2593.9
436.644	2680
437.02	2709.83
437.395	2718.42
437.77	2780.79
438.145	2783.73
438.52	2811.52
438.895	2874.57
439.271	2884.51
439.646	2912.31
440.021	2945.98
440.395	2963.83
440.77	2969.48
441.145	3006.77
441.52	3088.35
441.895	3019.88
442.27	3117.73
442.645	3066.2
443.019	3131.97
443.394	3164.96
443.769	3204.73
444.143	3152.98
444.518	3222.81
444.892	3225.07
445.267	3251.96
445.641	3333.54
446.016	3336.03
446.39	3375.58
446.764	3355.01
447.139	3399.08
447.513	3450.38
447.887	3443.6
448.262	3478.85
448.636	3512.52
449.01	3567.66
449.384	3567.21
449.758	3644.04
450.132	3643.59
450.506	3676.58
450.88	3715.68
451.254	3657.83
451.628	3746.19
452.002	3824.38
452.376	3844.26
452.75	3891.04
453.123	3906.41
453.497	4023.47
453.871	4023.02
454.244	4078.83
454.618	4154.76
454.992	4163.35
455.365	4196.8
455.739	4287.19
456.112	4360.63
456.486	4396.57
456.859	4448.99
457.232	4513.62
457.606	4477.02
457.979	4590.23
458.352	4642.21
458.725	4772.83
459.099	4760.85
459.472	4897.79
459.845	4921.98
460.218	4972.82
460.591	5032.93
460.964	5026.15
461.337	5185.7
461.71	5272.02
462.083	5320.61
462.456	5319.48
462.829	5393.15
463.201	5518.34
463.574	5481.06
463.947	5587.72
464.32	5712.69
464.692	5793.36
465.065	5788.84
465.438	5899.35
465.81	5996.75
466.183	6046.24
466.555	6157.87
466.928	6251.88
467.3	6271.77
467.672	6290.3
468.045	6575.72
468.417	6556.73
468.789	6596.06
469.161	6698.88
469.534	6804.86
469.906	6982.94
470.278	7008.47
470.65	7081.92
471.022	7268.58
471.394	7340.67
471.766	7442.36
472.138	7531.85
472.51	7673.99
472.882	7811.39
473.253	7965.51
473.625	8075.34
473.997	8251.15
474.369	8264.49
474.74	8359.62
475.112	8569.56
475.484	8724.36
475.855	8789.9
476.227	8932.94
476.598	9259.71
476.97	9296.32
477.341	9483.44
477.713	9665.81
478.084	9677.56
478.455	10042.74
478.827	10061.73
479.198	10365.45
479.569	10400.25
479.94	10660.36
480.311	10816.74
480.682	11096.95
481.053	11320.22
481.424	11505.98
481.795	11608.35
482.166	11766.99
482.537	11973.32
482.908	12154.33
483.279	12352.97
483.65	12597.03
484.021	12811.49
484.391	12933.06
484.762	13091.93
485.133	13292.6
485.503	13489.89
485.874	13811.01
486.244	13869.31
486.615	14156.31
486.985	14257.77
487.356	14660.48
487.726	14695.28
488.097	15101.82
488.467	14975.72
488.837	15389.27
489.207	15537.29
489.578	15818.86
489.948	15972.31
490.318	16329.36
490.688	16328.23
491.058	16619.75
491.428	16764.6
491.798	17025.61
492.168	17290.92
492.538	17499.05
492.908	17582.89
493.278	17858.36
493.648	17925.93
494.017	18185.36
494.387	18372.02
494.757	18560.71
495.126	18713.02
495.496	18823.3
495.866	18983.75
496.235	19248.15
496.605	19396.85
496.974	19578.99
497.344	19779.66
497.713	19896.27
498.082	19948.47
498.452	20221.69
498.821	20387.33
499.19	20354.56
499.559	20585.74
499.928	20762.46
500.298	20856.02
500.667	21144.37
501.036	21167.42
501.405	21398.6
501.774	21424.37
502.143	21710.23
502.512	21826.16
502.88	22062.54
503.249	22029.55
503.618	22334.17
503.987	22500.72
504.356	22518.8
504.724	22687.84
505.093	22867.27
505.462	23029.07
505.83	23256.41
506.199	23398.1
506.567	23645.55
506.936	23775.49
507.304	24037.18
507.672	23971.64
508.041	24226.78
508.409	24488.69
508.777	24652.98
509.145	24882.13
509.514	24833.99
509.882	25128.22
510.25	25243.7
510.618	25407.76
510.986	25582.22
511.354	25812.95
511.722	26025.6
512.09	26385.59
512.458	26307.85
512.826	26507.17
513.193	26751.01
513.561	26809.76
513.929	27103.09
514.297	27335.17
514.664	27666.69
515.032	27801.6
515.4	27963.18
515.767	28075.04
516.135	28146
516.502	28177.41
516.869	28668.47
517.237	28822.36
517.604	28726.09
517.972	29116.37
518.339	29401.33
518.706	29496.47
519.073	29630.25
519.44	29822.34
519.808	30096.91
520.175	30153.18
520.542	30533.51
520.909	30669.77
521.276	30860.95
521.643	31257.33
522.009	31409.19
522.376	31698.9
522.743	31827.48
523.11	32190.64
523.477	32451.42
523.843	32540.91
524.21	32983.61
524.577	33202.36
524.943	33284.17
525.31	33472.41
525.676	33925.51
526.043	34040.76
526.409	34182.22
526.776	34463.12
527.142	34672.15
527.508	34815.65
527.874	35113.5
528.241	35456.31
528.607	35453.38
528.973	35707.83
529.339	35746.02
529.705	36124.09
530.071	36440.24
530.437	36683.85
530.803	36788.93
531.169	37070.73
531.535	36982.15
531.901	37277.51
532.267	37380.1
532.632	37597.05
532.998	37744.84
533.364	38023.7
533.73	38169.91
534.095	38414.43
534.461	38441.77
534.826	38736.91
535.192	38993.4
535.557	39281.07
535.923	39160.62
536.288	39324.69
536.653	39580.95
537.019	39499.15
537.384	39719.7
537.749	39824.56
538.114	40192.69
538.479	40038.79
538.845	40289.63
539.21	40335.28
539.575	40600.13
539.94	40729.85
540.305	41022.49
540.67	40842.61
541.034	41234.24
541.399	41324.18
541.764	41441.01
542.129	41646.66
542.494	41728.69
542.858	41858.63
543.223	41966.88
543.587	42240.32
543.952	42121.22
544.316	42309.92
544.681	42392.4
545.045	42798.49
545.41	42883.01
545.774	43000.97
546.138	43039.62
546.503	43261.31
546.867	43248.65
547.231	43776.77
547.595	43659.94
547.959	43925.24
548.324	44056.09
548.688	44094.05
549.052	44328.85
549.416	44579.46
549.779	44595.51
550.143	44759.8
550.507	45015.84
550.871	45053.35
551.235	45207.7
551.599	45445.2
551.962	45639.55
552.326	45741.24
552.689	46049.26
553.053	45982.82
553.417	46018.3
553.78	46618.73
554.143	46506.64
554.507	46741.44
554.87	46910.48
555.234	47337.13
555.597	47134.2
555.96	47292.39
556.323	47608.31
556.686	47564.7
557.05	47942.76
557.413	48052.14
557.776	48291.46
558.139	48547.72
558.502	48527.83
558.865	48760.82
559.228	48930.76
559.59	49031.55
559.953	49230.87
560.316	49476.06
560.679	49501.37
561.041	49836.73
561.404	49931.87
561.767	50194.46
562.129	50184.06
562.492	50513.54
562.854	50535.47
563.217	50547.22
563.579	50798.73
563.941	50960.99
564.304	51125.96
564.666	51312.39
565.028	51390.36
565.39	51527.3
565.753	51762.78
566.115	51871.93
566.477	51901.76
566.839	51991.25
567.201	52291.35
567.563	52253.84
567.925	52508.52
568.287	52523.21
568.648	52567.5
569.01	52730.66
569.372	52925.91
569.734	52923.65
570.095	53145.11
570.457	53301.27
570.819	53284.77
571.18	53315.5
571.542	53427.37
571.903	53455.16
572.265	53554.59
572.626	53620.58
572.987	53710.3
573.349	53816.06
573.71	53879.56
574.071	53946
574.432	54013.79
574.794	54354.57
575.155	54228.7
575.516	54272.99
575.877	54415.14
576.238	54441.58
576.599	54591.18
576.96	54552.53
577.32	54588.92
577.681	54736.26
578.042	54743.49
578.403	54771.29
578.763	54804.51
579.124	54844.73
579.485	55024.61
579.845	55025.97
580.206	54879.08
580.566	54957.04
580.927	55035.69
581.287	55084.5
581.648	55060.32
582.008	55188
582.368	55103.93
582.728	55182.35
583.089	55182.57
583.449	55147.32
583.809	55166.53
584.169	55291.72
584.529	55190.03
584.889	55379.86
585.249	55196.36
585.609	55180.99
585.969	55306.86
586.329	55344.83
586.688	55377.15
587.048	55284.49
587.408	55276.13
587.768	55316.58
588.127	55256.92
588.487	55263.48
588.846	55476.35
589.206	55297.83
589.565	55315.9
589.925	55378.05
590.284	55323.81
590.643	55372.17
591.003	55402.91
591.362	55469.35
591.721	55387.99
592.08	55412.62
592.44	55587.08
592.799	55521.77
593.158	55478.39
593.517	55491.04
593.876	55531.04
594.235	55406.3
594.593	55523.13
594.952	55580.3
595.311	55490.59
595.67	55521.32
596.029	55688.55
596.387	55674.99
596.746	55733.97
597.104	55550.93
597.463	55528.55
597.822	55709.57
598.18	55605.16
598.538	55653.07
598.897	55776.68
599.255	55590.47
599.613	55962.44
599.972	55765.16
600.33	55898.04
600.688	55746.85
601.046	55851.48
601.404	55969.9
601.762	55863.69
602.12	55921.99
602.478	56092.16
602.836	55915.44
603.194	55903.46
603.552	55934.87
603.91	55870.01
604.268	56041.08
604.625	55973.97
604.983	56017.35
605.341	55958.83
605.698	56027.98
606.056	56131.02
606.413	56101.42
606.771	56185.49
607.128	56207.18
607.485	56041.31
607.843	56093.74
608.2	56249.21
608.557	56360.17
608.914	56225.03
609.272	56373.73
609.629	56419.6
609.986	56509.32
610.343	56373.05
610.7	56593.61
611.057	56511.13
611.414	56503.44
611.771	56508.64
612.127	56599.03
612.484	56615.76
612.841	56733.49
613.198	56638.13
613.554	56657.34
613.911	56790.67
614.267	56805.13
614.624	56719.71
614.98	56826.83
615.337	56890.78
615.693	56861.4
616.05	56836.99
616.406	57004.9
616.762	56858.91
617.118	56893.72
617.475	56991.34
617.831	56988.85
618.187	56989.53
618.543	56999.7
618.899	57164.22
619.255	57117.89
619.611	57197.21
619.967	57192.47
620.323	57280.15
620.678	57156.76
621.034	57120.15
621.39	57117.21
621.746	57085.35
622.101	57365.57
622.457	57131.68
622.812	57191.79
623.168	57257.1
623.523	57303.2
623.879	57379.13
624.234	57144.1
624.589	57314.04
624.945	57274.27
625.3	57252.35
625.655	57286.93
626.01	57244.22
626.365	57355.62
626.72	57297.55
627.075	57231.11
627.43	57225.23
627.785	57151.79
628.14	57319.24
628.495	57310.88
628.85	57208.06
629.205	57093.94
629.559	57355.4
629.914	57174.61
630.269	57147.49
630.623	57165.8
630.978	57071.56
631.332	57208.74
631.687	57200.6
632.041	57083.32
632.396	57126.25
632.75	57042.64
633.104	57074.05
633.459	56992.02
633.813	56919.48
634.167	56973.71
634.521	56950.66
634.875	56962.19
635.229	56848.07
635.583	56748.63
635.937	56775.98
636.291	56716.55
636.645	56771.69
636.999	56681.29
637.352	56779.37
637.706	56579.83
638.06	56688.98
638.413	56657.34
638.767	56522.88
639.121	56564.23
639.474	56500.73
639.828	56518.36
640.181	56502.31
640.534	56554.74
640.888	56418.25
641.241	56390
641.594	56354.52
641.947	56441.98
642.301	56363.56
642.654	56294.86
643.007	56290.57
643.36	56279.27
643.713	56249.44
644.066	56310.91
644.419	56147.29
644.771	55941.88
645.124	55762.22
645.477	55678.38
645.83	55465.28
646.182	55424.15
646.535	55311.61
646.888	55428.22
647.24	55239.97
647.593	55437.71
647.945	55359.97
648.298	55182.12
648.65	55118.4
649.002	55002.69
649.355	55144.84
649.707	55048.79
650.059	55233.65
650.411	55488.33
650.763	55532.62
651.115	55754.76
651.467	55724.93
651.819	55627.99
652.171	55634.77
652.523	55512.06
652.875	55589.12
653.227	55451.49
653.578	55621.88
653.93	55516.8
654.282	55377.37
654.633	55337.37
654.985	55371.04
655.337	55326.53
655.688	55430.48
656.039	55467.09
656.391	55220.09
656.742	55251.27
657.094	55183.48
657.445	55342.34
657.796	55256.02
658.147	55200.43
658.498	55159.52
658.849	55219.41
659.2	55103.93
659.551	55059.87
659.902	55254.89
660.253	55113.2
660.604	55239.75
660.955	55068.23
661.306	55064.39
661.656	55051.28
662.007	55017.83
662.358	54962.47
662.708	54972.86
663.059	55004.05
663.409	54770.16
663.76	55004.05
664.11	54931.28
664.461	54993.65
664.811	54968.34
665.161	54924.5
665.511	54828.69
665.862	54934.9
666.212	54909.14
666.562	54975.35
666.912	54802.92
667.262	54840.89
667.612	54806.54
667.962	54837.27
668.312	54740.78
668.662	54857.39
669.011	54796.37
669.361	54666.66
669.711	54725.64
670.06	54600.44
670.41	54728.8
670.76	54546.21
671.109	54741.46
671.459	54614.68
671.808	54545.08
672.157	54535.81
672.507	54388.25
672.856	54401.35
673.205	54513.89
673.554	54557.73
673.904	54405.42
674.253	54632.08
674.602	54428.92
674.951	53909.61
675.3	53852.89
675.649	54287.91
675.998	54235.71
676.346	54382.14
676.695	54341.47
677.044	54179.44
677.393	54233.45
677.741	54247.91
678.09	54199.55
678.438	54175.82
678.787	54191.19
679.135	54162.94
679.484	53952.78
679.832	54034.81
680.181	53868.94
680.529	53937.64
680.877	53869.61
681.225	53807.47
681.573	54014.02
681.922	53717.3
682.27	53645.67
682.618	53770.86
682.966	53636.63
683.314	53645.67
683.661	53532.45
684.009	53377.65
684.357	53366.13
684.705	53265.34
685.053	53290.87
685.4	53260.59
685.748	53085.45
686.095	53096.75
686.443	52934.05
686.79	52902.18
687.138	52982.41
687.485	52944.67
687.832	52693.6
688.18	52744.67
688.527	52576.09
688.874	52574.51
689.221	52475.53
689.568	52419.94
689.915	52333.61
690.262	52296.1
690.609	52218.13
690.956	52131.58
691.303	52143.11
691.65	51849.55
691.997	51933.39
692.344	51672.84
692.69	51721.65
693.037	51603.01
693.383	51416.57
693.73	51607.53
694.077	51336.35
694.423	51398.72
694.769	51238.95
695.116	51237.82
695.462	51151.04
695.808	50987.2
696.155	50983.81
696.501	50760.09
696.847	50785.85
697.193	50530.04
697.539	50641.45
697.885	50385.19
698.231	50318.07
698.577	50248.69
698.923	50338.41
699.269	49994.91
699.614	49965.54
699.96	49909.94
700.306	49843.28
700.651	49602.83
700.997	49533.68
701.342	49561.48
701.688	49463.63
702.033	49318.77
702.379	49302.96
702.724	49090.31
703.069	49172.11
703.415	48767.6
703.76	48900.48
704.105	48871.1
704.45	48849.18
704.795	48487.84
705.14	48498
705.485	48501.62
705.83	48153.83
706.175	48221.18
706.52	48012.14
706.865	48089.65
707.209	47962.88
707.554	47850.11
707.899	47980.96
708.243	47655.99
708.588	47547.97
708.932	47536.67
709.277	47351.14
709.621	47368.54
709.966	47101.21
710.31	47173.07
710.654	46968.55
710.998	47061.21
711.342	46896.46
711.687	46886.07
712.031	46649.92
712.375	46490.15
712.719	46729.46
713.063	46660.54
713.407	46632.97
713.75	46369.25
714.094	46340.1
714.438	46103.27
714.782	46222.81
715.125	46084.51
715.469	46069.14
715.812	45923.83
716.156	45702.15
716.499	45694.69
716.843	45795.7
717.186	45378.76
717.53	45666.89
717.873	45546.44
718.216	45464.64
718.559	45308.94
718.902	45039.79
719.246	45266
719.589	45026.68
719.932	44856.74
720.275	44744.88
720.617	44806.8
720.96	44712.57
721.303	44722.51
721.646	44749.18
721.989	44414.72
722.331	44566.58
722.674	44419.92
723.016	44417.66
723.359	44395.06
723.701	44381.73
724.044	44128.85
724.386	43780.39
724.729	44099.93
725.071	44028.07
725.413	43969.76
725.755	43852.93
726.097	43724.12
726.439	43485.93
726.782	43511.47
727.124	43763.21
727.465	43628.3
727.807	43472.37
728.149	43316.67
728.491	43234.19
728.833	43320.74
729.175	43188.77
729.516	43038.49
729.858	42941.77
730.199	42988.09
730.541	42946.06
730.882	42864.71
731.224	42890.92
731.565	42643.47
731.906	42718.95
732.248	42636.46
732.589	42493.87
732.93	42246.19
733.271	42414.1
733.612	42436.24
733.953	42419.07
734.294	42180.88
734.635	42069.7
734.976	42128.68
735.317	41975.69
735.658	41877.84
735.999	41981.79
736.339	41845.52
736.68	41919.87
737.021	41682.59
737.361	41409.83
737.702	41800.55
738.042	41569.37
738.383	41417.96
738.723	41685.75
739.063	41317.18
739.404	41516.95
739.744	41303.84
740.084	41227.91
740.424	41229.27
740.764	41139.78
741.104	41248.93
741.444	41068.6
741.784	40874.93
742.124	40955.38
742.464	40798.77
742.804	40808.49
743.143	40763.97
743.483	40694.14
743.823	40539.12
744.162	40576.18
744.502	40639.91
744.841	40374.15
745.181	40544.09
745.52	40269.97
745.86	40328.5
746.199	40127.38
746.538	40337.54
746.877	40245.34
747.216	40119.69
747.556	40026.81
747.895	39931.45
748.234	39837.22
748.573	39655.75
748.911	39745.69
749.25	39700.72
749.589	39513.38
749.928	39635.19
750.267	39694.85
750.605	39505.7
750.944	39308.19
751.283	39176.89
751.621	39270.22
751.96	38972.15
752.298	39042.21
752.636	38920.63
752.975	38819.16
753.313	38575.33
753.651	38805.38
753.989	38537.14
754.327	38471.83
754.666	38315.9
755.004	38400.64
755.342	38321.1
755.679	38267.09
756.017	38062.8
756.355	38028.45
756.693	37919.07
757.031	37819.19
757.368	37771.96
757.706	37642.47
758.044	37423.72
758.381	37499.42
758.719	37376.26
759.056	37419.2
759.394	37199.32
759.731	36991.19
760.068	36742.38
760.405	36838.2
760.743	36701.93
761.08	36800.91
761.417	36546
761.754	36646.34
762.091	36422.16
762.428	36364.76
762.765	36070.76
763.102	36151.89
763.438	35965.45
763.775	35746.25
764.112	35792.58
764.449	35788.51
764.785	35679.36
765.122	35350.55
765.458	35354.62
765.795	35311.23
766.131	35273.72
766.467	35043.22
766.804	34881.87
767.14	34750.34
767.476	34709.44
767.812	34481.88
768.148	34601.19
768.485	34344.7
768.821	34245.27
769.157	34228.78
769.492	34116.24
769.828	34127.99
770.164	33813.64
770.5	33676.47
770.836	33739.07
771.171	33469.02
771.507	33360.1
771.842	33090.05
772.178	33035.13
772.513	33001.69
772.849	32848.92
773.184	32723.5
773.519	32775.71
773.855	32779.32
774.19	32457.52
774.525	32448.03
774.86	32356.51
775.195	32431.76
775.53	32236.06
775.865	31931.89
776.2	31817.77
776.535	31535.51
776.87	31569.64
777.205	31485.12
777.539	31365.8
777.874	31239.02
778.209	31071.57
778.543	30962.65
778.878	30774.85
779.212	30713.39
779.547	30606.27
779.881	30698.47
780.215	30426.62
780.55	30479.95
780.884	30107.3
781.218	30106.85
781.552	30106.17
781.886	29874.09
782.22	29809.68
782.554	29668.9
782.888	29468.22
783.222	29425.51
783.556	29327.89
783.889	29245.86
784.223	29038.18
784.557	28969.25
784.89	29083.37
785.224	28896.71
785.557	28757.73
785.891	28680.9
786.224	28511.86
786.558	28466.89
786.891	28264.41
787.224	28075.26
787.557	28085.89
787.891	28137.86
788.224	27963.18
788.557	27864.42
788.89	27717.76
789.223	27748.95
789.556	27626.69
789.888	27454.04
790.221	27381.5
790.554	27129.3
790.887	27282.74
791.219	27159.13
791.552	27016.76
791.884	26878.23
792.217	26849.76
792.549	26748.29
792.882	26571.58
793.214	26383.33
793.546	26535.19
793.879	26252.26
794.211	26061.08
794.543	26188.76
794.875	26053.62
795.207	26087.97
795.539	26019.73
795.871	25914.42
796.203	25786.29
796.535	25663.58
796.867	25647.31
797.198	25452.73
797.53	25440.76
797.862	25377.71
798.193	25306.98
798.525	25266.75
798.856	25198.96
799.188	25085.06
799.519	24856.14
799.85	24666.99
800.182	24701.12
800.513	24779.53
800.844	24535.24
801.175	24561.91
801.506	24545.41
801.837	24421.35
802.168	24299.77
802.499	24196.27
802.83	24163.96
803.161	24053.22
803.491	24058.42
803.822	24049.61
804.153	23964.19
804.483	23800.12
804.814	23715.61
805.145	23655.27
805.475	23610.98
805.805	23535.27
806.136	23450.08
806.466	23456.63
806.796	23254.37
807.126	23121.27
807.457	23178.9
807.787	23195.17
808.117	23199.69
808.447	23011.89
808.777	23043.08
809.107	22843.31
809.436	22871.79
809.766	22740.04
810.096	22710.21
810.426	22666.82
810.755	22628.18
811.085	22549.53
811.414	22500.72
811.744	22357.22
812.073	22337.11
812.403	22282.65
812.732	22167.85
813.061	22220.5
813.39	22038.81
813.719	21984.8
814.049	22160.17
814.378	22020.51
814.707	21964.46
815.036	21898.7
815.365	21701.87
815.693	21504.36
816.022	21579.39
816.351	21532.84
816.68	21522.67
817.008	21487.64
817.337	21294.65
817.665	21185.28
817.994	21337.59
818.322	21206.52
818.651	21131.94
818.979	21018.95
819.307	21199.51
819.636	21070.03
819.964	20969.46
820.292	20977.6
820.62	20988.67
820.948	20901.67
821.276	20900.54
821.604	20853.53
821.932	20886.75
822.259	20884.27
822.587	20924.27
822.915	20804.95
823.243	20927.2
823.57	20675.69
823.898	20717.94
824.225	20651.28
824.553	20691.96
824.88	20735.12
825.207	20887.21
825.535	20740.77
825.862	20809.92
826.189	20711.39
826.516	20778.06
826.843	20759.3
827.17	20759.52
827.497	20899.86
827.824	20762.46
828.151	20769.24
828.478	20804.27
828.805	20919.75
829.131	20703.26
829.458	20727.66
829.785	20604.95
830.111	20664.84
830.438	20728.57
830.764	20675.23
831.09	20750.03
831.417	20510.94
831.743	20710.94
832.069	20710.49
832.395	20507.55
832.722	20623.26
833.048	20576.93
833.374	20475.01
833.7	20502.81
834.026	20463.71
834.351	20501.45
834.677	20440.89
835.003	20498.97
835.329	20416.48
835.654	20358.63
835.98	20315.47
836.306	20396.37
836.631	20433.66
836.956	20381.68
837.282	20358.86
837.607	20256.71
837.932	20118.64
838.258	20165.64
838.583	20090.62
838.908	20011.75
839.233	19973.1
839.558	20035.48
839.883	20006.78
840.208	19828.48
840.533	19930.85
840.858	19958.64
841.182	19818.08
841.507	19809.49
841.832	19691.76
842.156	19755.03
842.481	19623.96
842.805	19652.44
843.13	19662.83
843.454	19637.29
843.778	19492.89
844.103	19395.94
844.427	19408.37
844.751	19287.47
845.075	19326.57
845.399	19247.7
845.723	19107.59
846.047	19137.42
846.371	18935.62
846.695	19036.86
847.019	18786.02
847.343	18748.5
847.666	18689.97
847.99	18632.12
848.313	18596.64
848.637	18418.8
848.96	18459.92
849.284	18360.49
849.607	18255.64
849.931	18143.32
850.254	18105.36
850.577	18016.55
850.9	17918.7
851.223	17911.69
851.546	17754.41
851.869	17688.87
852.192	17725.03
852.515	17540.63
852.838	17457.24
853.161	17542.43
853.483	17458.37
853.806	17229.67
854.129	17334.08
854.451	17213.63
854.774	17108.1
855.096	17127.53
855.419	17074.88
855.741	17014.76
856.063	16876.01
856.385	16926.86
856.708	16833.98
857.03	16796.69
857.352	16742.91
857.674	16731.38
857.996	16653.64
858.318	16588.79
858.64	16563.7
858.961	16540.88
859.283	16481.9
859.605	16335.01
859.926	16348.34
860.248	16288.46
860.57	16267.21
860.891	16281.45
861.212	16165.97
861.534	16164.84
861.855	16160.1
862.176	16107.22
862.498	16078.29
862.819	16044.62
863.14	16025.64
863.461	15979.09
863.782	15933.66
864.103	15996.26
864.424	15825.19
864.745	15911.52
865.065	15730.96
865.386	15742.03
865.707	15667.91
866.027	15650.51
866.348	15596.72
866.668	15699.54
866.989	15602.37
867.309	15493.9
867.63	15484.86
867.95	15529.15
868.27	15353.34
868.59	15402.38
868.91	15339.55
869.23	15345.66
869.55	15335.49
869.87	15424.98
870.19	15292.55
870.51	15319.22
870.83	15325.54
871.15	15191.99
871.469	15160.58
871.789	15168.03
872.109	15200.12
872.428	15023.4
872.748	15186.11
873.067	15166.68
873.386	15065.66
873.706	15139.56
874.025	15081.48
874.344	14933.69
874.663	14974.59
874.982	14987.7
875.301	14927.14
875.62	14857.31
875.939	14892.11
876.258	14839.91
876.577	14796.52
876.896	14793.81
877.214	14715.84
877.533	14715.62
877.852	14709.29
878.17	14753.81
878.489	14668.61
878.807	14624.54
879.125	14657.31
879.444	14656.63
879.762	14497.77
880.08	14523.53
880.398	14483.98
880.716	14492.8
881.034	14471.78
881.352	14439.92
881.67	14298.45
881.988	14422.52
882.306	14308.62
882.624	14265.68
882.941	14229.08
883.259	14160.15
883.577	14186.14
883.894	14180.71
884.212	14166.7
884.529	14133.03
884.846	13999.25
885.164	13984.79
885.481	13929.2
885.798	14023.43
886.115	13885.13
886.432	13868.41
886.75	13858.01
887.067	13867.28
887.383	13808.97
887.7	13765.13
888.017	13754.51
888.334	13713.38
888.651	13703.21
888.967	13701.41
889.284	13562.88
889.6	13609.88
889.917	13433.39
890.233	13499.6
890.55	13397.23
890.866	13452.82
891.182	13383.9
891.498	13320.62
891.815	13306.16
892.131	13247.41
892.447	13244.47
892.763	13132.61
893.079	13135.32
893.395	13066.62
893.71	13021.2
894.026	13028.65
894.342	12932.39
894.657	12870.47
894.973	12944.14
895.289	12856.46
895.604	12802.9
895.92	12686.97
896.235	12640.19
896.55	12631.38
896.865	12607.65
897.181	12652.39
897.496	12583.92
897.811	12479.74
898.126	12401.1
898.441	12362.01
898.756	12324.94
899.071	12327.43
899.386	12334.44
899.7	12180.54
900.015	12188.22
900.33	12129.24
900.644	12047.44
900.959	12148.45
901.273	12124.5
901.588	11999.08
901.902	11854.22
902.216	11861.45
902.531	11829.59
902.845	11738.52
903.159	11730.16
903.473	11630.73
903.787	11685.41
904.101	11581.24
904.415	11606.55
904.729	11550.95
905.042	11372.88
905.356	11424.4
905.67	11417.85
905.984	11349.38
906.297	11335.82
906.611	11309.83
906.924	11245.42
907.237	11170.85
907.551	11234.8
907.864	11077.75
908.177	10995.26
908.491	11052.44
908.804	10901.03
909.117	10975.6
909.43	10829.16
909.743	10819.22
910.056	10801.37
910.368	10689.96
910.681	10701.94
910.994	10629.62
911.307	10631.88
911.619	10607.93
911.932	10551.66
912.244	10520.92
912.557	10478.21
912.869	10385.79
913.181	10304.88
913.494	10332.91
913.806	10289.07
914.118	10209.07
914.43	10195.51
914.742	10133.14
915.054	10071.9
915.366	10013.14
915.678	10034.61
915.99	10015.4
916.302	9896.76
916.613	9868.29
916.925	9772.7
917.236	9781.06
917.548	9740.61
917.859	9819.02
918.171	9613.6
918.482	9654.96
918.794	9602.76
919.105	9587.84
919.416	9458.35
919.727	9383.33
920.038	9469.65
920.349	9351.92
920.66	9300.62
920.971	9278.02
921.282	9294.29
921.593	9222.43
921.903	9217.23
922.214	9144.01
922.525	9101.75
922.835	9080.06
923.146	9031.02
923.456	8996.9
923.767	8926.39
924.077	8912.83
924.387	8849.78
924.697	8870.57
925.008	8814.98
925.318	8770.69
925.628	8725.49
925.938	8713.51
926.248	8594.19
926.558	8592.61
926.867	8541.99
927.177	8599.84
927.487	8502.9
927.796	8426.06
928.106	8434.43
928.416	8368.21
928.725	8322.79
929.034	8302.9
929.344	8250.25
929.653	8240.08
929.962	8214.09
930.271	8118.73
930.581	8085.28
930.89	8054.32
931.199	8027.66
931.508	7993.76
931.817	8002.35
932.125	7983.59
932.434	7900.88
932.743	7811.62
933.051	7837.38
933.36	7804.61
933.669	7742.01
933.977	7728.91
934.286	7696.37
934.594	7679.19
934.902	7651.85
935.21	7542.47
935.519	7539.99
935.827	7524.84
936.135	7462.47
936.443	7384.74
936.751	7375.92
937.059	7346.32
937.367	7324.4
937.674	7337.5
937.982	7299.99
938.29	7274.68
938.597	7218.86
938.905	7140.9
939.213	7130.96
939.52	7068.36
939.827	7097.06
940.135	7007.34
940.442	7040.34
940.749	6986.55
941.056	6970.51
941.363	6893
941.67	6904.97
941.977	6847.57
942.284	6777.75
942.591	6751.98
942.898	6793.11
943.205	6733.68
943.511	6726.45
943.818	6700.46
944.125	6639.67
944.431	6619.56
944.738	6585.89
945.044	6622.27
945.35	6561.48
945.657	6515.15
945.963	6445.1
946.269	6380.47
946.575	6389.96
946.881	6412.78
947.187	6400.35
947.493	6344.54
947.799	6305.22
948.105	6300.92
948.41	6199.46
948.716	6270.64
949.022	6188.83
949.327	6167.37
949.633	6156.97
949.938	6134.82
950.244	6104.54
950.549	6041.95
950.854	6049.18
951.16	6001.49
951.465	5971.67
951.77	5955.39
952.075	5919.69
952.38	5898.45
952.685	5881.5
952.99	5809.41
953.294	5849.86
953.599	5792.69
953.904	5763.08
954.209	5770.09
954.513	5752.69
954.818	5716.08
955.122	5687.6
955.426	5639.47
955.731	5640.15
956.035	5625.23
956.339	5581.17
956.643	5577.1
956.948	5500.94
957.252	5440.15
957.556	5495.29
957.86	5445.8
958.163	5439.25
958.467	5409.87
958.771	5415.52
959.075	5431.34
959.378	5339.37
959.682	5322.87
959.985	5264.79
960.289	5232.25
960.592	5212.36
960.896	5253.94
961.199	5220.95
961.502	5179.6
961.805	5142.76
962.108	5139.6
962.411	5097.79
962.714	5017.79
963.017	5025.48
963.32	5073.16
963.623	5009.66
963.926	5013.27
964.228	4951.8
964.531	4936.44
964.833	4934.18
965.136	4902.09
965.438	4862.77
965.741	4868.87
966.043	4809.89
966.345	4860.96
966.648	4774.41
966.95	4772.37
967.252	4716.56
967.554	4735.77
967.856	4737.12
968.158	4666.39
968.46	4632.72
968.761	4687.86
969.063	4595.2
969.365	4587.29
969.666	4573.74
969.968	4561.98
970.269	4496.68
970.571	4494.42
970.872	4515.88
971.174	4509.78
971.475	4462.78
971.776	4447.41
972.077	4430.24
972.378	4429.56
972.679	4367.41
972.98	4404.47
973.281	4323.57
973.582	4329.9
973.883	4307.08
974.183	4280.41
974.484	4238.15
974.785	4239.06
975.085	4229.11
975.386	4192.95
975.686	4159.28
975.986	4157.93
976.287	4204.93
976.587	4114.09
976.887	4130.81
977.187	4099.17
977.487	4072.73
977.787	4035.22
978.087	4060.98
978.387	4043.13
978.687	4039.74
978.987	4034.54
979.286	3944.83
979.586	3931.27
979.885	3934.2
980.185	3902.34
980.484	3888.1
980.784	3893.53
981.083	3844.49
981.382	3844.72
981.682	3816.24
981.981	3758.16
982.28	3829.35
982.579	3752.97
982.878	3744.38
983.177	3730.59
983.475	3744.6
983.774	3720.65
984.073	3712.74
984.372	3654.44
984.67	3646.3
984.969	3668.45
985.267	3638.39
985.566	3612.86
985.864	3607.89
986.162	3561.11
986.461	3557.94
986.759	3560.65
987.057	3496.25
987.355	3521.33
987.653	3522.24
987.951	3502.35
988.249	3486.53
988.547	3469.36
988.844	3437.27
989.142	3416.48
989.44	3382.35
989.737	3336.25
990.035	3350.27
990.332	3340.32
990.63	3301.9
990.927	3323.6
991.224	3300.55
991.521	3290.38
991.819	3213.32
992.116	3244.73
992.413	3208.12
992.71	3229.82
993.006	3220.55
993.303	3173.09
993.6	3166.32
993.897	3161.57
994.193	3122.25
994.49	3137.84
994.787	3111.85
995.083	3056.26
995.379	3035.02
995.676	3041.35
995.972	3044.74
996.268	3040.67
996.565	2993.66
996.861	3008.81
997.157	2969.03
997.453	2961.35
997.749	2922.93
998.044	2908.24
998.34	2922.03
998.636	2890.62
998.932	2879.09
999.227	2856.27
999.523	2845.87
999.818	2835.93
1000.114	2760
1000.409	2783.5
1000.704	2760.45
1001	2764.29
1001.295	2735.82
1001.59	2752.99
1001.885	2725.2
1002.18	2723.61
1002.475	2719.77
1002.77	2691.3
1003.065	2612.66
1003.359	2642.49
1003.654	2637.06
1003.949	2621.24
1004.243	2590.28
1004.538	2608.59
1004.832	2596.16
1005.127	2544.86
1005.421	2550.74
1005.715	2546.22
1006.009	2517.52
1006.304	2479.78
1006.598	2475.94
1006.892	2491.3
1007.186	2487.69
1007.48	2436.39
1007.773	2452.66
1008.067	2375.38
1008.361	2393.45
1008.655	2414.02
1008.948	2349.16
1009.242	2365.66
1009.535	2343.29
1009.829	2339.44
1010.122	2287.92
1010.415	2275.72
1010.708	2267.36
1011.001	2317.75
1011.295	2280.91
1011.588	2246.11
1011.881	2249.95
1012.173	2189.62
1012.466	2243.4
1012.759	2213.8
1013.052	2200.46
1013.344	2191.65
1013.637	2164.76
1013.93	2177.87
1014.222	2124.53
1014.514	2129.51
1014.807	2113.01
1015.099	2086.12
1015.391	2089.51
1015.683	2054.03
1015.976	2054.93
1016.268	2062.16
1016.56	2028.04
1016.851	2030.07
1017.143	2030.53
1017.435	1983.3
1017.727	1976.29
1018.018	1988.72
1018.31	1943.07
1018.602	1936.74
1018.893	1919.12
1019.185	1908.27
1019.476	1895.61
1019.767	1912.56
1020.058	1874.6
1020.35	1871.21
1020.641	1858.78
1020.932	1816.07
1021.223	1835.73
1021.514	1817.42
1021.804	1801.38
1022.095	1790.53
1022.386	1782.17
1022.677	1755.73
1022.967	1743.98
1023.258	1743.3
1023.548	1727.93
1023.839	1719.8
1024.129	1720.7
1024.419	1691.55
1024.709	1653.81
1025	1666.69
1025.29	1652.46
1025.58	1635.28
1025.87	1596.41
1026.16	1638.22
1026.449	1602.97
1026.739	1625.34
1027.029	1586.47
1027.319	1568.62
1027.608	1566.81
1027.898	1553.7
1028.187	1552.35
1028.477	1537.66
1028.766	1525
1029.055	1509.64
1029.344	1468.51
1029.634	1498.34
1029.923	1463.76
1030.212	1467.38
1030.501	1451.33
1030.79	1442.97
1031.078	1450.43
1031.367	1419.92
1031.656	1403.2
1031.945	1396.19
1032.233	1388.28
1032.522	1386.02
1032.81	1373.37
1033.099	1376.31
1033.387	1343.54
1033.675	1330.21
1033.963	1319.13
1034.251	1313.26
1034.54	1318.45
1034.828	1310.09
1035.116	1315.97
1035.403	1311.45
1035.691	1281.39
1035.979	1289.98
1036.267	1261.28
1036.554	1263.09
1036.842	1244.33
1037.129	1256.53
1037.417	1216.08
1037.704	1221.06
1037.992	1216.31
1038.279	1207.72
1038.566	1166.14
1038.853	1166.14
1039.14	1166.14
