Data from white_wall_FLMS001491_028.txt Node
Date: Tue Feb 07 11:04:01 GMT 2017
User: dcchb
Spectrometer: FLMS00149
Trigger mode: 0
Integration Time (sec): 2.000000E-2
Scans to average: 10
Electric dark correction enabled: true
Nonlinearity correction enabled: false
Boxcar width: 0
XAxis mode: Wavelengths
Number of Pixels in Spectrum: 2048
>>>>>Begin Spectral Data<<<<<
341.393	-29.52
341.776	-29.52
342.16	-29.52
342.543	-51.21
342.927	-81.95
343.31	-70.65
343.693	-94.6
344.077	-50.08
344.46	-69.97
344.843	-55.96
345.226	-48.95
345.61	-28.39
345.993	-14.6
346.376	10.03
346.759	3.02
347.142	22.46
347.525	43.25
347.908	61.33
348.291	83.7
348.674	101.33
349.057	108.1
349.44	122.12
349.823	141.55
350.206	180.87
350.588	200.76
350.971	219.06
351.354	230.59
351.737	268.78
352.119	254.77
352.502	249.57
352.884	281.66
353.267	283.47
353.65	297.93
354.032	307.2
354.414	324.6
354.797	335.44
355.179	338.15
355.562	347.87
355.944	334.09
356.326	344.71
356.709	342.22
357.091	345.84
357.473	360.3
357.855	386.29
358.238	338.83
358.62	372.28
359.002	349.23
359.384	348.1
359.766	336.12
360.148	339.96
360.53	346.97
360.912	342
361.294	331.83
361.676	350.36
362.057	362.79
362.439	361.21
362.821	339.74
363.203	363.69
363.584	363.92
363.966	334.99
364.348	340.19
364.729	349.91
365.111	344.93
365.493	335.67
365.874	309.68
366.256	328.66
366.637	337.25
367.019	315.1
367.4	337.48
367.781	333.18
368.163	340.64
368.544	326.86
368.925	343.13
369.306	325.73
369.688	327.99
370.069	331.38
370.45	332.51
370.831	339.74
371.212	341.77
371.593	337.03
371.974	302.68
372.355	330.02
372.736	362.34
373.117	333.41
373.498	317.14
373.879	339.28
374.26	315.33
374.641	332.96
375.021	339.96
375.402	324.82
375.783	339.96
376.163	361.88
376.544	364.37
376.925	353.52
377.305	348.32
377.686	339.28
378.066	347.65
378.447	366.85
378.827	351.49
379.208	351.94
379.588	338.38
379.968	353.3
380.349	350.13
380.729	351.04
381.109	364.14
381.489	342.45
381.87	367.08
382.25	358.72
382.63	374.54
383.01	367.31
383.39	391.49
383.77	379.96
384.15	364.82
384.53	364.82
384.91	385.61
385.29	398.04
385.67	398.04
386.049	388.32
386.429	384.93
386.809	405.72
387.189	412.5
387.568	405.5
387.948	404.37
388.328	402.11
388.707	428.77
389.087	421.09
389.466	418.83
389.846	412.96
390.225	431.26
390.605	431.49
390.984	414.76
391.363	433.52
391.743	424.48
392.122	436.46
392.501	437.59
392.881	460.86
393.26	446.63
393.639	464.71
394.018	484.59
394.397	497.92
394.776	485.72
395.155	499.28
395.534	507.19
395.913	499.05
396.292	508.77
396.671	510.13
397.05	533.86
397.429	536.34
397.808	539.05
398.186	539.05
398.565	556.91
398.944	525.95
399.323	577.02
399.701	587.41
400.08	585.38
400.458	608.66
400.837	628.54
401.215	606.62
401.594	606.62
401.972	638.49
402.351	626.51
402.729	676.23
403.107	675.32
403.486	685.26
403.864	671.71
404.242	688.43
404.62	711.25
404.999	724.13
405.377	732.04
405.755	736.11
406.133	732.95
406.511	784.7
406.889	778.82
407.267	803.45
407.645	808.43
408.023	798.71
408.401	855.66
408.779	843.68
409.156	843.68
409.534	874.86
409.912	902.21
410.29	922.77
410.667	926.39
411.045	942.66
411.422	967.29
411.8	970.68
412.178	982.43
412.555	1004.58
412.933	1011.58
413.31	1036.67
413.687	1035.09
414.065	1076.89
414.442	1053.62
414.819	1085.71
415.197	1111.02
415.574	1154.18
415.951	1135.87
416.328	1165.93
416.705	1157.57
417.082	1132.48
417.46	1177.91
417.837	1206.38
418.214	1140.39
418.591	1218.36
418.967	1231.92
419.344	1240.73
419.721	1233.95
420.098	1253.61
420.475	1292.48
420.852	1283.21
421.228	1335.64
421.605	1297
421.982	1336.55
422.358	1371.35
422.735	1381.74
423.111	1378.35
423.488	1390.33
423.864	1406.6
424.241	1438.01
424.617	1435.53
424.994	1432.36
425.37	1455.41
425.746	1468.97
426.123	1510.78
426.499	1557.11
426.875	1542.19
427.251	1534.96
427.627	1600.27
428.003	1605.47
428.379	1616.09
428.756	1640.27
429.132	1662.19
429.507	1674.62
429.883	1696.09
430.259	1716.42
430.635	1734.05
431.011	1736.99
431.387	1789.87
431.763	1800.04
432.138	1827.16
432.514	1884.55
432.89	1862.86
433.265	1911.22
433.641	1939.02
434.016	1939.69
434.392	1995.51
434.767	1998.9
435.143	2049.07
435.518	2064.66
435.894	2046.58
436.269	2081.16
436.644	2134.72
437.02	2156.86
437.395	2169.52
437.77	2199.8
438.145	2225.56
438.52	2233.47
438.895	2246.81
439.271	2285.22
439.646	2334.03
440.021	2315.73
440.395	2361.15
440.77	2348.95
441.145	2390.3
441.52	2400.7
441.895	2419.91
442.27	2453.13
442.645	2475.05
443.019	2498.55
443.394	2485.22
443.769	2535.39
444.143	2525.22
444.518	2575.61
444.892	2576.06
445.267	2591.88
445.641	2591.2
446.016	2640.24
446.39	2657.42
446.764	2688.83
447.139	2717.53
447.513	2718.88
447.887	2727.7
448.262	2723.18
448.636	2755.04
449.01	2802.04
449.384	2834.13
449.758	2829.84
450.132	2860.35
450.506	2906.9
450.88	2912.55
451.254	2971.08
451.628	2988.25
452.002	3041.36
452.376	3053.34
452.75	3074.58
453.123	3105.77
453.497	3200
453.871	3192.77
454.244	3225.08
454.618	3264.86
454.992	3316.83
455.365	3268.47
455.739	3395.48
456.112	3376.49
456.486	3440.9
456.859	3521.57
457.232	3586.43
457.606	3584.62
457.979	3605.87
458.352	3713.21
458.725	3739.87
459.099	3727.67
459.472	3827.55
459.845	3899.87
460.218	3915.69
460.591	3940.09
460.964	3910.26
461.337	4086.76
461.71	4124.27
462.083	4166.3
462.456	4190.48
462.829	4230.48
463.201	4281.1
463.574	4350.03
463.947	4425.05
464.32	4487.88
464.692	4509.8
465.065	4590.02
465.438	4613.3
465.81	4670.02
466.183	4776.46
466.555	4862.78
466.928	4865.49
467.3	4879.5
467.672	4969.22
468.045	5119.72
468.417	5109.78
468.789	5127.86
469.161	5226.39
469.534	5340.51
469.906	5444.01
470.278	5486.95
470.65	5540.73
471.022	5602.42
471.394	5728.97
471.766	5797.22
472.138	5815.53
472.51	5941.17
472.882	6072.24
473.253	6189.07
473.625	6285.12
473.997	6366.92
474.369	6407.15
474.74	6476.52
475.112	6587.93
475.484	6783.41
475.855	6894.37
476.227	6903.41
476.598	7104.53
476.97	7202.83
477.341	7378.2
477.713	7439.44
478.084	7596.27
478.455	7755.81
478.827	7799.88
479.198	8046.88
479.569	8083.49
479.94	8262.92
480.311	8415.23
480.682	8583.81
481.053	8719.4
481.424	8940.41
481.795	9005.27
482.166	9155.78
482.537	9250.91
482.908	9441.19
483.279	9518.7
483.65	9704.24
484.021	9845.25
484.391	10019.93
484.762	10164.79
485.133	10261.06
485.503	10304.45
485.874	10568.62
486.244	10756.86
486.615	10971.1
486.985	11115.27
487.356	11284.99
487.726	11402.04
488.097	11720
488.467	11684.52
488.837	11894.69
489.207	12035.25
489.578	12254.9
489.948	12392.08
490.318	12567.89
490.688	12621.45
491.058	12791.61
491.428	13043.58
491.798	13090.59
492.168	13487.87
492.538	13541.65
492.908	13580.97
493.278	13768.54
493.648	13846.95
494.017	14007.85
494.387	14120.62
494.757	14280.61
495.126	14456.2
495.496	14529.87
495.866	14671.34
496.235	14854.16
496.605	14970.31
496.974	14988.84
497.344	15294.15
497.713	15326.01
498.082	15394.03
498.452	15658.88
498.821	15678.09
499.19	15779.33
499.559	15974.81
499.928	16086.22
500.298	16086.89
500.667	16363.27
501.036	16363.27
501.405	16519.2
501.774	16579.99
502.143	16752.64
502.512	16864.5
502.88	17047.32
503.249	17078.73
503.618	17183.81
503.987	17313.98
504.356	17419.74
504.724	17536.8
505.093	17666.96
505.462	17811.14
505.83	17960.97
506.199	17960.29
506.567	18181.53
506.936	18350.11
507.304	18538.35
507.672	18715.75
508.041	18684.57
508.409	18984.9
508.777	18974.95
509.145	19163.2
509.514	19275.96
509.882	19336.98
510.25	19471.66
510.618	19800.92
510.986	19773.8
511.354	20016.73
511.722	20186.67
512.09	20346.44
512.458	20296.95
512.826	20616.72
513.193	20589.6
513.561	20738.3
513.929	20882.25
514.297	21192.52
514.664	21409.69
515.032	21499.86
515.4	21644.94
515.767	21706.41
516.135	21917.02
516.502	21707.76
516.869	22271.59
517.237	22333.73
517.604	22251.48
517.972	22586.38
518.339	22726.72
518.706	22703.22
519.073	23001.51
519.44	23172.58
519.808	23330.54
520.175	23492.12
520.542	23707.71
520.909	23796.07
521.276	23937.76
521.643	24175.72
522.009	24343.4
522.376	24489.16
522.743	24744.29
523.11	25082.82
523.477	25171.17
523.843	25245.97
524.21	25620.88
524.577	25789.46
524.943	25798.73
525.31	26132.05
525.676	26292.5
526.043	26335.66
526.409	26661.53
526.776	26811.58
527.142	26875.31
527.508	27081.41
527.874	27450.89
528.241	27462.41
528.607	27478.46
528.973	27796.19
529.339	27747.83
529.705	28106.92
530.071	28400.47
530.437	28499
530.803	28657.64
531.169	28711.87
531.535	28763.85
531.901	28915.71
532.267	29157.28
532.632	29302.59
532.998	29301.24
533.364	29606.76
533.73	29549.82
534.095	29901.45
534.461	30044.94
534.826	30167.88
535.192	30220.99
535.557	30470.02
535.923	30429.12
536.288	30678.37
536.653	30748.2
537.019	30770.58
537.384	31051.02
537.749	31274.74
538.114	31308.41
538.479	31299.83
538.845	31479.03
539.21	31514.96
539.575	31661.4
539.94	31836.76
540.305	32030.88
540.67	32002.63
541.034	32098.9
541.399	32334.15
541.764	32409.4
542.129	32550.87
542.494	32566.46
542.858	32825.44
543.223	32767.81
543.587	33107.46
543.952	33106.78
544.316	33265.42
544.681	33235.37
545.045	33489.37
545.41	33638.07
545.774	33660.89
546.138	33742.7
546.503	33886.2
546.867	33966.88
547.231	34252.52
547.595	34426.07
547.959	34425.39
548.324	34505.39
548.688	34623.58
549.052	34856.34
549.416	34840.07
549.779	35042.55
550.143	35127.52
550.507	35471.92
550.871	35503.33
551.235	35501.3
551.599	35830.78
551.962	36014.51
552.326	36112.36
552.689	36273.26
553.053	36247.27
553.417	36452.01
553.78	36759.8
554.143	36707.82
554.507	36948.94
554.87	37082.27
555.234	37481.36
555.597	37355.03
555.96	37346.9
556.323	37524.97
556.686	37696.04
557.05	38010.84
557.413	38125.18
557.776	38213.09
558.139	38481.56
558.502	38624.38
558.865	38719.07
559.228	39047.42
559.59	39213.29
559.953	39397.24
560.316	39641.3
560.679	39719.04
561.041	39919.71
561.404	40018.02
561.767	40277.9
562.129	40297.1
562.492	40671.11
562.854	40822.97
563.217	40860.48
563.579	40989.74
563.941	41307.93
564.304	41420.01
564.666	41646.9
565.028	41670.63
565.39	41935.03
565.753	42023.16
566.115	42176.15
566.477	42430.61
566.839	42562.58
567.201	42753.54
567.563	42775.68
567.925	43096.35
568.287	43054.55
568.648	43138.61
569.01	43532.73
569.372	43786.05
569.734	43533.4
570.095	43883.9
570.457	43989.21
570.819	44132.94
571.18	44162.99
571.542	44314.17
571.903	44455.19
572.265	44593.49
572.626	44668.06
572.987	44793.94
573.349	44957.09
573.71	45188.5
574.071	45277.99
574.432	45357.54
574.794	45604.31
575.155	45689.73
575.516	45512.56
575.877	45642.05
576.238	46028.48
576.599	45858.09
576.96	45976.28
577.32	45978.54
577.681	46099.21
578.042	46225.99
578.403	46332.88
578.763	46263.28
579.124	46237.51
579.485	46569.03
579.845	46615.58
580.206	46505.98
580.566	46632.76
580.927	46542.59
581.287	46688.12
581.648	46707.11
582.008	46877.27
582.368	46709.59
582.728	46847.89
583.089	46790.04
583.449	46801.79
583.809	46896.48
584.169	46960.21
584.529	46793.43
584.889	47169.01
585.249	46929.47
585.609	46778.97
585.969	46985.52
586.329	46804.05
586.688	47035.46
587.048	47042.46
587.408	46835.01
587.768	46826.88
588.127	46845.18
588.487	46820.32
588.846	47211.95
589.206	46834.79
589.565	46892.41
589.925	47137.83
590.284	46888.8
590.643	46983.26
591.003	47103.7
591.362	47219.86
591.721	47086.76
592.08	47199.75
592.44	47241.33
592.799	47191.84
593.158	47044.5
593.517	47098.28
593.876	47226.19
594.235	47093.54
594.593	47193.42
594.952	47309.35
595.311	47145.51
595.67	47350.7
596.029	47555.9
596.387	47486.75
596.746	47512.28
597.104	47402.91
597.463	47334.89
597.822	47467.99
598.18	47271.61
598.538	47423.7
598.897	47511.15
599.255	47272.06
599.613	47765.83
599.972	47507.08
600.33	47721.77
600.688	47552.73
601.046	47632.73
601.404	47851.03
601.762	47774.42
602.12	47945.49
602.478	47830.24
602.836	47802.44
603.194	47760.41
603.552	47890.12
603.91	47739.85
604.268	47885.61
604.625	47895.77
604.983	48092.83
605.341	47972.38
605.698	47969.22
606.056	48082.44
606.413	48159.72
606.771	48143.9
607.128	48197.01
607.485	48038.37
607.843	48058.71
608.2	48369.66
608.557	48376.21
608.914	48343.9
609.272	48523.33
609.629	48483.78
609.986	48528.75
610.343	48472.71
610.7	48712.25
611.057	48644.23
611.414	48604.46
611.771	48605.81
612.127	48873.15
612.484	48929.87
612.841	48784.11
613.198	48724
613.554	48899.59
613.911	49123.09
614.267	49041.06
614.624	48980.04
614.98	49045.12
615.337	49281.5
615.693	49197.44
616.05	49193.59
616.406	49450.99
616.762	49242.41
617.118	49257.77
617.475	49293.03
617.831	49313.82
618.187	49489.63
618.543	49369.18
618.899	49576.63
619.255	49476.3
619.611	49617.76
619.967	49615.96
620.323	49755.84
620.678	49512.46
621.034	49480.59
621.39	49451.67
621.746	49455.28
622.101	49962.16
622.457	49525.79
622.812	49633.13
623.168	49719.68
623.523	49774.37
623.879	49755.61
624.234	49495.51
624.589	49731.66
624.945	49748.61
625.3	49743.86
625.655	49684.88
626.01	49668.16
626.365	49701.83
626.72	49658.44
627.075	49682.85
627.43	49559.23
627.785	49528.95
628.14	49589.74
628.495	49707.48
628.85	49620.93
629.205	49547.03
629.559	49789.06
629.914	49544.09
630.269	49603.53
630.623	49414.83
630.978	49436.98
631.332	49523.08
631.687	49598.1
632.041	49532.57
632.396	49418.45
632.75	49281.5
633.104	49466.35
633.459	49190.66
633.813	49257.32
634.167	49150.2
634.521	49188.85
634.875	49137.32
635.229	49243.08
635.583	48983.2
635.937	49009.19
636.291	49007.84
636.645	49008.97
636.999	48861.62
637.352	48966.48
637.706	48657.56
638.06	48952.7
638.413	48795.86
638.767	48690.1
639.121	48832.02
639.474	48554.29
639.828	48605.36
640.181	48693.04
640.534	48613.04
640.888	48455.76
641.241	48354.75
641.594	48499.6
641.947	48598.13
642.301	48386.38
642.654	48518.13
643.007	48284.92
643.36	48336.21
643.713	48331.02
644.066	48414.18
644.419	48199.27
644.771	47934.19
645.124	47579.85
645.477	47427.54
645.83	47161.33
646.182	47086.76
646.535	46917.04
646.888	47031.84
647.24	46815.58
647.593	47088.56
647.945	46906.42
648.298	46738.06
648.65	46654
649.002	46522.7
649.355	46663.04
649.707	46574.91
650.059	46832.07
650.411	47172.4
650.763	47161.56
651.115	47597.25
651.467	47410.59
651.819	47506.86
652.171	47262.8
652.523	47317.94
652.875	47230.71
653.227	47027.55
653.578	47402
653.93	47263.7
654.282	47032.97
654.633	47065.97
654.985	47149.81
655.337	46983.71
655.688	47173.53
656.039	47203.82
656.391	46756.82
656.742	47013.31
657.094	46930.6
657.445	47039.07
657.796	46877.95
658.147	46900.32
658.498	46735.81
658.849	46877.72
659.2	46862.36
659.551	46818.06
659.902	46742.58
660.253	46738.97
660.604	46756.6
660.955	46501.01
661.306	46837.95
661.656	46691.06
662.007	46597.5
662.358	46441.8
662.708	46626.43
663.059	46489.03
663.409	46197.97
663.76	46415.14
664.11	46359.32
664.461	46449.94
664.811	46418.3
665.161	46461.69
665.511	46335.59
665.862	46311.41
666.212	46433.89
666.562	46370.84
666.912	46334.46
667.262	46166.78
667.612	46212.43
667.962	46249.49
668.312	46246.78
668.662	46483.38
669.011	46301.92
669.361	46100.34
669.711	46105.99
670.06	46076.61
670.41	46023.06
670.76	45924.07
671.109	45948.26
671.459	45925.66
671.808	45855.83
672.157	46022.38
672.507	45752.33
672.856	45757.98
673.205	45778.09
673.554	45966.79
673.904	45806.34
674.253	45959.33
674.602	45831.42
674.951	45143.08
675.3	45011.78
675.649	45528.15
675.998	45520.92
676.346	45531.99
676.695	45637.08
677.044	45304.88
677.393	45468.95
677.741	45472.79
678.09	45318.44
678.438	45238.67
678.787	45289.97
679.135	45352.11
679.484	45012.01
679.832	45154.83
680.181	45111.67
680.529	45064.21
680.877	44986.47
681.225	44762.75
681.573	45013.82
681.922	44729.53
682.27	44592.36
682.618	44711.68
682.966	44412.02
683.314	44591.68
683.661	44624.22
684.009	44202.54
684.357	44224.68
684.705	44125.7
685.053	44299.94
685.4	44105.59
685.748	43867.18
686.095	43971.36
686.443	43777.92
686.79	43692.5
687.138	43636.9
687.485	43749.67
687.832	43628.99
688.18	43593.51
688.527	43325.95
688.874	43296.8
689.221	43179.06
689.568	43068.33
689.915	42993.98
690.262	42991.95
690.609	42840.09
690.956	42620.43
691.303	42773.65
691.65	42648.91
691.997	42486.43
692.344	42214.34
692.69	42314.9
693.037	42176.15
693.383	41928.25
693.73	42071.07
694.077	41671.98
694.423	41646.9
694.769	41507.47
695.116	41463.4
695.462	41396.51
695.808	41266.12
696.155	41181.37
696.501	40959.69
696.847	41127.36
697.193	40759.01
697.539	40997.2
697.885	40594.95
698.231	40396.54
698.577	40581.62
698.923	40411.9
699.269	40213.04
699.614	40018.47
699.96	40034.29
700.306	40015.53
700.651	39853.05
700.997	39732.15
701.342	39589.1
701.688	39510.01
702.033	39384.81
702.379	39526.5
702.724	39325.15
703.069	39409.44
703.415	38879.29
703.76	38922.23
704.105	39004.71
704.45	38773.53
704.795	38634.1
705.14	38581.9
705.485	38510.48
705.83	38490.6
706.175	38409.92
706.52	38305.29
706.865	38156.14
707.209	38203.6
707.554	38033.89
707.899	38075.69
708.243	37771.97
708.588	37749.15
708.932	37572.43
709.277	37562.71
709.621	37626.21
709.966	37340.57
710.31	37448.37
710.654	37127.7
710.998	37253.57
711.342	37308.03
711.687	37044.08
712.031	36912.33
712.375	36954.59
712.719	36846.12
713.063	36869.4
713.407	36747.59
713.75	36669.4
714.094	36651.55
714.438	36507.83
714.782	36562.74
715.125	36320.94
715.469	36419.69
715.812	36135.86
716.156	36115.52
716.499	35954.39
716.843	36101.51
717.186	35685.7
717.53	35997.56
717.873	35816.32
718.216	35867.39
718.559	35797.11
718.902	35478.93
719.246	35564.12
719.589	35352.15
719.932	35187.63
720.275	35263.11
720.617	35194.41
720.96	35055.21
721.303	35123.91
721.646	35102.66
721.989	34948.77
722.331	34973.85
722.674	34857.93
723.016	34905.16
723.359	34853.41
723.701	34766.18
724.044	34714.65
724.386	34403.47
724.729	34607.31
725.071	34549.23
725.413	34507.88
725.755	34462.23
726.097	34293.42
726.439	34084.16
726.782	34250.26
727.124	34294.32
727.465	34164.61
727.807	34114.67
728.149	34139.53
728.491	33964.62
728.833	34074.9
729.175	33795.13
729.516	33913.32
729.858	33834.45
730.199	33750.61
730.541	33632.19
730.882	33707.67
731.224	33805.52
731.565	33519.2
731.906	33343.39
732.248	33566.66
732.589	33312.43
732.93	33243.28
733.271	33363.05
733.612	33311.07
733.953	33260.68
734.294	33126.22
734.635	33009.16
734.976	33110.4
735.317	32989.73
735.658	32862.05
735.999	32762.16
736.339	32827.92
736.68	32815.72
737.021	32627.02
737.361	32539.12
737.702	32744.53
738.042	32642.62
738.383	32512.22
738.723	32622.5
739.063	32434.26
739.404	32577.53
739.744	32414.6
740.084	32151.1
740.424	32431.32
740.764	32180.93
741.104	32267.94
741.444	32039.47
741.784	32061.39
742.124	32180.26
742.464	32074.27
742.804	31908.17
743.143	31773.26
743.483	31860.49
743.823	31644.68
744.162	31684.68
744.502	31664.11
744.841	31557.45
745.181	31694.62
745.52	31491.69
745.86	31465.02
746.199	31363.55
746.538	31392.48
746.877	31422.54
747.216	31312.93
747.556	31372.37
747.895	31306.83
748.234	31140.28
748.573	31050.57
748.911	31047.63
749.25	31090.34
749.589	30929.67
749.928	30924.7
750.267	31016.9
750.605	30748.65
750.944	30734.42
751.283	30631.82
751.621	30622.78
751.96	30461.66
752.298	30373.3
752.636	30401.32
752.975	30286.29
753.313	30235.22
753.651	30256.46
753.989	30024.61
754.327	30124.26
754.666	29872.52
755.004	29988.45
755.342	29934.44
755.679	29849.92
756.017	29575.58
756.355	29762.47
756.693	29574
757.031	29608.8
757.368	29505.98
757.706	29350.73
758.044	29248.58
758.381	29241.58
758.719	29180.56
759.056	29174.91
759.394	29041.13
759.731	28823.06
760.068	28940.57
760.405	28715.04
760.743	28713.91
761.08	28667.35
761.417	28445.66
761.754	28532.22
762.091	28460.81
762.428	28181.26
762.765	28158.67
763.102	28307.82
763.438	28134.94
763.775	27960.48
764.112	27894.04
764.449	27930.65
764.785	27872.8
765.122	27607.27
765.458	27588.29
765.795	27575.18
766.131	27514.39
766.467	27323.43
766.804	27230.56
767.14	27066.72
767.476	27099.49
767.812	26976.1
768.148	27049.32
768.485	26864.46
768.821	26734.07
769.157	26689.78
769.492	26578.14
769.828	26494.98
770.164	26449.56
770.5	26332.5
770.836	26314.87
771.171	26058.16
771.507	26155.78
771.842	25920.08
772.178	25787.2
772.513	25784.27
772.849	25563.71
773.184	25483.26
773.519	25604.84
773.855	25250.72
774.19	25330.49
774.525	25174.56
774.86	25214.34
775.195	24994
775.53	24932.31
775.865	24810.51
776.2	24596.95
776.535	24599.66
776.87	24487.12
777.205	24463.4
777.539	24286
777.874	24404.87
778.209	24135.5
778.543	24130.3
778.878	24045.78
779.212	23993.13
779.547	23765.79
779.881	23820.25
780.215	23623.87
780.55	23788.84
780.884	23590.65
781.218	23567.37
781.552	23525.57
781.886	23336.19
782.22	23271.34
782.554	23142.98
782.888	22924
783.222	22839.71
783.556	22798.13
783.889	22790.67
784.223	22565.37
784.557	22596.55
784.89	22653.73
785.224	22443.11
785.557	22294.19
785.891	22293.28
786.224	22147.75
786.558	22141.2
786.891	21929.45
787.224	21870.02
787.557	21772.85
787.891	21786.86
788.224	21837.02
788.557	21696.46
788.89	21705.28
789.223	21686.07
789.556	21294.21
789.888	21413.31
790.221	21362.01
790.554	21149.59
790.887	21205.18
791.219	20996.37
791.552	21024.84
791.884	20987.33
792.217	20884.73
792.549	20746.21
792.882	20639.77
793.214	20648.13
793.546	20557.74
793.879	20496.27
794.211	20465.31
794.543	20469.15
794.875	20361.36
795.207	20382.37
795.539	20211.3
795.871	20217.63
796.203	20076.84
796.535	19965.89
796.867	19987.13
797.198	19832.11
797.53	19855.16
797.862	19779.23
798.193	19720.7
798.525	19566.8
798.856	19555.5
799.188	19416.3
799.519	19388.73
799.85	19297.66
800.182	19305.57
800.513	19270.99
800.844	19096.31
801.175	19136.3
801.506	19117.77
801.837	18980.6
802.168	18902.64
802.499	18865.58
802.83	18801.85
803.161	18757.33
803.491	18773.15
803.822	18699.03
804.153	18586.49
804.483	18443.89
804.814	18458.58
805.145	18391.69
805.475	18360.73
805.805	18257.01
806.136	18338.36
806.466	18283.9
806.796	18156.22
807.126	18054.75
807.457	17973.17
807.787	17968.88
808.117	18024.02
808.447	17932.27
808.777	17926.17
809.107	17767.98
809.436	17789.22
809.766	17704.7
810.096	17600.53
810.426	17584.71
810.755	17596.91
811.085	17601.43
811.414	17467.42
811.744	17436.46
812.073	17334.54
812.403	17298.84
812.732	17263.13
813.061	17201.21
813.39	17075.12
813.719	17134.78
814.049	17156.47
814.378	17132.74
814.707	16998.06
815.036	17016.13
815.365	16967.1
815.693	16733.66
816.022	16805.07
816.351	16722.81
816.68	16658.63
817.008	16734.33
817.337	16510.39
817.665	16569.59
817.994	16499.99
818.322	16524.62
818.651	16396.49
818.979	16301.8
819.307	16414.12
819.636	16304.51
819.964	16297.51
820.292	16314.46
820.62	16239.43
820.948	16195.14
821.276	16228.13
821.604	16189.49
821.932	16194.46
822.259	16245.53
822.587	16229.71
822.915	16152.65
823.243	16132.77
823.57	16101.81
823.898	16157.63
824.225	16081.47
824.553	16083.5
824.88	16042.37
825.207	16075.14
825.535	16141.58
825.862	16164.86
826.189	16005.99
826.516	16066.55
826.843	16100.9
827.17	16140.23
827.497	16119.43
827.824	16170.73
828.151	16172.31
828.478	16094.35
828.805	16154.24
829.131	16097.29
829.458	16074.69
829.785	16022.04
830.111	16076.95
830.438	16056.16
830.764	16064.97
831.09	15982.72
831.417	15958.99
831.743	16024.07
832.069	15985.88
832.395	15911.76
832.722	16042.6
833.048	15882.38
833.374	15998.53
833.7	15922.6
834.026	15904.75
834.351	15957.86
834.677	15853.91
835.003	15935.03
835.329	15839.89
835.654	15712.67
835.98	15752.44
836.306	15788.37
836.631	15648.94
836.956	15761.03
837.282	15743.17
837.607	15650.07
837.932	15630.18
838.258	15567.59
838.583	15537.98
838.908	15510.19
839.233	15514.48
839.558	15560.81
839.883	15510.86
840.208	15360.81
840.533	15386.12
840.858	15352.45
841.182	15372.34
841.507	15373.92
841.832	15213.92
842.156	15198.1
842.481	15336.4
842.805	15220.48
843.13	15168.73
843.454	15139.8
843.778	15014.15
844.103	15090.54
844.427	14977.09
844.751	15042.85
845.075	14923.99
845.399	14859.36
845.723	14754.27
846.047	14813.25
846.371	14689.87
846.695	14589.98
847.019	14596.31
847.343	14580.27
847.666	14556.99
847.99	14382.08
848.313	14445.81
848.637	14301.4
848.96	14306.6
849.284	14237
849.607	14154.97
849.931	14085.14
850.254	14049.66
850.577	13895.54
850.9	13851.92
851.223	13870.23
851.546	13724.24
851.869	13708.2
852.192	13710.91
852.515	13598.37
852.838	13511.14
853.161	13664.13
853.483	13501.88
853.806	13422.56
854.129	13411.94
854.451	13368.77
854.774	13313.41
855.096	13329.68
855.419	13280.64
855.741	13141.89
856.063	13130.81
856.385	13127.65
856.708	13085.62
857.03	13006.07
857.352	13043.81
857.674	12964.94
857.996	12970.82
858.318	12767.88
858.64	12870.03
858.961	12828.9
859.283	12768.11
859.605	12670.94
859.926	12684.72
860.248	12658.28
860.57	12642.01
860.891	12646.76
861.212	12576.25
861.534	12490.15
861.855	12566.99
862.176	12520.66
862.498	12453.77
862.819	12464.39
863.14	12417.16
863.461	12400.66
863.782	12378.52
864.103	12376.93
864.424	12266.43
864.745	12344.39
865.065	12284.28
865.386	12191.4
865.707	12218.29
866.027	12170.39
866.348	12091.07
866.668	12109.6
866.989	12209.26
867.309	12081.8
867.63	12068.69
867.95	12079.99
868.27	11881.35
868.59	12006.32
868.91	11995.7
869.23	11908.25
869.55	11807.23
869.87	11911.41
870.19	11907.34
870.51	11946.89
870.83	11902.37
871.15	11861.24
871.469	11787.57
871.789	11820.79
872.109	11704.41
872.428	11721.13
872.748	11744.18
873.067	11714.8
873.386	11746.44
873.706	11724.52
874.025	11691.75
874.344	11600.68
874.663	11560.91
874.982	11641.59
875.301	11593
875.62	11598.2
875.939	11635.49
876.258	11498.09
876.577	11567.69
876.896	11503.96
877.214	11436.85
877.533	11507.35
877.852	11416.96
878.17	11432.33
878.489	11345.32
878.807	11383.74
879.125	11406.56
879.444	11379.45
879.762	11329.96
880.08	11347.36
880.398	11289.96
880.716	11336.74
881.034	11285.44
881.352	11242.73
881.67	11231.2
881.988	11243.86
882.306	11082.05
882.624	11119.79
882.941	11009.96
883.259	11031.89
883.577	11123.86
883.894	11041.38
884.212	10918.67
884.529	10959.8
884.846	10994.6
885.164	10948.27
885.481	10927.71
885.798	10904.2
886.115	10765.68
886.432	10797.09
886.75	10753.47
887.067	10748.05
887.383	10727.71
887.7	10709.18
888.017	10655.85
888.334	10619.92
888.651	10643.87
888.967	10633.7
889.284	10513.25
889.6	10482.07
889.917	10461.28
890.233	10460.6
890.55	10423.99
890.866	10361.85
891.182	10394.39
891.498	10330.43
891.815	10355.52
892.131	10305.35
892.447	10237.33
892.763	10218.8
893.079	10176.77
893.395	10153.72
893.71	10124.11
894.026	10145.58
894.342	10077.11
894.657	9965.7
894.973	9992.82
895.289	10003.89
895.604	10030.1
895.92	9847.28
896.235	9834.63
896.55	9808.87
896.865	9773.84
897.181	9739.49
897.496	9672.6
897.811	9720.28
898.126	9679.38
898.441	9730.68
898.756	9582.43
899.071	9610.91
899.386	9587.4
899.7	9479.61
900.015	9479.16
900.33	9414.3
900.644	9360.29
900.959	9364.13
901.273	9349.44
901.588	9255.89
901.902	9267.41
902.216	9242.1
902.531	9266.73
902.845	9177.02
903.159	9166.85
903.473	9087.76
903.787	9185.38
904.101	8994.65
904.415	9014.99
904.729	8948.1
905.042	8952.84
905.356	8890.25
905.67	8876.91
905.984	8867.2
906.297	8802.34
906.611	8815.67
906.924	8741.55
907.237	8665.85
907.551	8668.11
907.864	8642.57
908.177	8670.14
908.491	8611.16
908.804	8535.23
909.117	8482.57
909.43	8395.57
909.743	8434.89
910.056	8361.9
910.368	8407.32
910.681	8340.2
910.994	8272.18
911.307	8228.79
911.619	8192.19
911.932	8201
912.244	8161.45
912.557	8160.77
912.869	8125.52
913.181	8102.92
913.494	8088.01
913.806	8007.33
914.118	7981.57
914.43	7885.08
914.742	7897.5
915.054	7883.27
915.366	7818.86
915.678	7812.76
915.99	7737.96
916.302	7687.34
916.613	7701.8
916.925	7700.45
917.236	7667.45
917.548	7593.11
917.859	7607.12
918.171	7541.81
918.482	7503.16
918.794	7458.87
919.105	7410.74
919.416	7372.09
919.727	7351.98
920.038	7325.54
920.349	7339.33
920.66	7253.68
920.971	7259.55
921.282	7249.39
921.593	7196.05
921.903	7162.83
922.214	7173.68
922.525	7130.74
922.835	7096.4
923.146	7009.84
923.456	7076.06
923.767	6990.86
924.077	6948.38
924.387	6944.08
924.697	6862.28
925.008	6878.32
925.318	6807.36
925.628	6812.34
925.938	6827.7
926.248	6740.02
926.558	6739.34
926.867	6732.56
927.177	6666.12
927.487	6592.45
927.796	6576.86
928.106	6567.37
928.416	6554.04
928.725	6544.32
929.034	6461.38
929.344	6461.84
929.653	6459.35
929.962	6346.58
930.271	6352.23
930.581	6329.41
930.89	6321.95
931.199	6295.74
931.508	6294.61
931.817	6297.55
932.125	6217.77
932.434	6206.02
932.743	6168.28
933.051	6115.86
933.36	6130.09
933.669	6093.94
933.977	6088.96
934.286	6034.5
934.594	6007.16
934.902	5933.04
935.21	5940.04
935.519	5907.5
935.827	5942.53
936.135	5900.72
936.443	5831.12
936.751	5779.59
937.059	5811.91
937.367	5736.88
937.674	5792.47
937.982	5717.22
938.29	5684.23
938.597	5686.04
938.905	5640.61
939.213	5599.71
939.52	5586.6
939.827	5620.73
940.135	5566.72
940.442	5534.85
940.749	5521.3
941.056	5552.48
941.363	5447.4
941.67	5428.87
941.977	5348.42
942.284	5359.94
942.591	5332.6
942.898	5301.87
943.205	5308.65
943.511	5298.02
943.818	5264.58
944.125	5247.4
944.431	5211.7
944.738	5231.13
945.044	5180.51
945.35	5156.56
945.657	5077.92
945.963	5086.73
946.269	5077.69
946.575	5022.55
946.881	5092.61
947.187	5044.47
947.493	4990.01
947.799	4940.97
948.105	4921.09
948.41	4905.27
948.716	4972.16
949.022	4871.37
949.327	4849.45
949.633	4810.58
949.938	4818.94
950.244	4815.33
950.549	4759.73
950.854	4712.73
951.16	4728.77
951.465	4729.23
951.77	4716.12
952.075	4660.53
952.38	4670.92
952.685	4659.85
952.99	4604.71
953.294	4647.19
953.599	4621.66
953.904	4554.99
954.209	4506.86
954.513	4507.54
954.818	4485.62
955.122	4483.58
955.426	4457.59
955.731	4429.57
956.035	4387.77
956.339	4417.6
956.643	4400.65
956.948	4346.19
957.252	4352.06
957.556	4351.38
957.86	4314.1
958.163	4339.41
958.467	4270.71
958.771	4240.65
959.075	4245.17
959.378	4191.16
959.682	4202.01
959.985	4190.71
960.289	4197.94
960.592	4112.74
960.896	4128.79
961.199	4140.99
961.502	4100.77
961.805	4075.01
962.108	4065.06
962.411	4043.14
962.714	3987.1
963.017	3992.75
963.32	3968.12
963.623	3961.79
963.926	3929.7
964.228	3903.03
964.531	3891.73
964.833	3868.23
965.136	3864.84
965.438	3832.3
965.741	3829.59
966.043	3784.17
966.345	3815.13
966.648	3778.52
966.95	3819.42
967.252	3747.33
967.554	3710.04
967.856	3692.42
968.158	3701.23
968.46	3663.04
968.761	3657.16
969.063	3625.3
969.365	3610.84
969.666	3639.99
969.968	3581.23
970.269	3578.52
970.571	3611.74
970.872	3566.77
971.174	3503.5
971.475	3548.24
971.776	3534
972.077	3477.51
972.378	3494.68
972.679	3477.06
972.98	3472.31
973.281	3426.66
973.582	3440.22
973.883	3450.62
974.183	3428.7
974.484	3404.06
974.785	3376.95
975.085	3379.66
975.386	3383.72
975.686	3353.44
975.986	3347.34
976.287	3344.4
976.587	3255.59
976.887	3279.09
977.187	3290.85
977.487	3301.47
977.787	3221.92
978.087	3242.03
978.387	3181.02
978.687	3206.33
978.987	3211.3
979.286	3128.82
979.586	3135.37
979.885	3125.43
980.185	3093.34
980.484	3064.64
980.784	3065.31
981.083	3072.32
981.382	3093.56
981.682	3074.81
981.981	3052.43
982.28	3033.9
982.579	3005.2
982.878	2964.75
983.177	2955.04
983.475	2959.78
983.774	2955.94
984.073	2942.38
984.372	2898.09
984.67	2928.6
984.969	2881.36
985.267	2880.46
985.566	2895.6
985.864	2856.51
986.162	2887.01
986.461	2821.48
986.759	2809.95
987.057	2816.28
987.355	2791.65
987.653	2801.37
987.951	2752.33
988.249	2750.97
988.547	2747.81
988.844	2767.7
989.142	2691.31
989.44	2705.78
989.737	2663.97
990.035	2688.83
990.332	2642.28
990.63	2655.16
990.927	2616.97
991.224	2637.76
991.521	2643.86
991.819	2602.28
992.116	2613.58
992.413	2573.35
992.71	2522.96
993.006	2536.29
993.303	2513.24
993.6	2517.98
993.897	2513.69
994.193	2528.61
994.49	2538.78
994.787	2449.06
995.083	2470.08
995.379	2472.11
995.676	2454.48
995.972	2461.71
996.268	2430.76
996.565	2428.04
996.861	2396.41
997.157	2381.49
997.453	2363.19
997.749	2364.54
998.044	2344.66
998.34	2346.69
998.636	2322.74
998.932	2289.52
999.227	2293.36
999.523	2322.51
999.818	2288.16
1000.114	2243.42
1000.409	2206.81
1000.704	2236.64
1001	2190.99
1001.295	2207.26
1001.59	2178.11
1001.885	2192.12
1002.18	2183.3
1002.475	2144.21
1002.77	2138.33
1003.065	2122.97
1003.359	2115.74
1003.654	2116.41
1003.949	2102.63
1004.243	2078.22
1004.538	2070.54
1004.832	2032.12
1005.127	2074.61
1005.421	2049.07
1005.715	2049.97
1006.009	2018.56
1006.304	2002.52
1006.598	2011.33
1006.892	1993.03
1007.186	1968.17
1007.48	1975.4
1007.773	1929.75
1008.067	1952.12
1008.361	1930.88
1008.655	1912.58
1008.948	1871
1009.242	1894.05
1009.535	1893.37
1009.829	1899.47
1010.122	1884.78
1010.415	1884.1
1010.708	1859.7
1011.001	1824.67
1011.295	1843.43
1011.588	1813.6
1011.881	1803.43
1012.173	1798.46
1012.466	1778.8
1012.759	1771.11
1013.052	1765.01
1013.344	1753.26
1013.637	1773.37
1013.93	1738.8
1014.222	1725.92
1014.514	1709.42
1014.807	1697.67
1015.099	1690.21
1015.391	1697.67
1015.683	1686.82
1015.976	1661.51
1016.268	1647.73
1016.56	1638.91
1016.851	1621.74
1017.143	1632.81
1017.435	1619.25
1017.727	1589.42
1018.018	1586.71
1018.31	1584
1018.602	1543.1
1018.893	1554.62
1019.185	1556.2
1019.476	1510.78
1019.767	1502.42
1020.058	1544.68
1020.35	1492.25
1020.641	1482.98
1020.932	1478.92
1021.223	1483.66
1021.514	1499.48
1021.804	1438.01
1022.095	1425.36
1022.386	1427.84
1022.677	1449.09
1022.967	1425.36
1023.258	1397.79
1023.548	1387.84
1023.839	1402.53
1024.129	1368.64
1024.419	1363.44
1024.709	1386.49
1025	1376.77
1025.29	1368.41
1025.58	1347.39
1025.87	1302.2
1026.16	1338.81
1026.449	1310.33
1026.739	1295.64
1027.029	1274.4
1027.319	1252.93
1027.608	1273.5
1027.898	1262.88
1028.187	1248.41
1028.477	1240.5
1028.766	1266.94
1029.055	1247.51
1029.344	1225.59
1029.634	1212.71
1029.923	1214.06
1030.212	1181.07
1030.501	1188.3
1030.79	1198.47
1031.078	1172.94
1031.367	1166.83
1031.656	1177.68
1031.945	1165.25
1032.233	1141.98
1032.522	1137.23
1032.81	1140.62
1033.099	1143.56
1033.387	1126.38
1033.675	1115.76
1033.963	1111.69
1034.251	1117.8
1034.54	1075.99
1034.828	1100.39
1035.116	1080.06
1035.403	1066.05
1035.691	1064.69
1035.979	1041.64
1036.267	1046.16
1036.554	1070.34
1036.842	1051.58
1037.129	1030.57
1037.417	1035.76
1037.704	1019.27
1037.992	976.1
1038.279	982.88
1038.566	1018.59
1038.853	1018.59
1039.14	1018.59
