Data from white_steel_sheet_FLMS001491_037.txt Node
Date: Tue Feb 07 10:57:46 GMT 2017
User: dcchb
Spectrometer: FLMS00149
Trigger mode: 0
Integration Time (sec): 2.000000E-2
Scans to average: 10
Electric dark correction enabled: true
Nonlinearity correction enabled: false
Boxcar width: 0
XAxis mode: Wavelengths
Number of Pixels in Spectrum: 2048
>>>>>Begin Spectral Data<<<<<
341.393	-20.23
341.776	-20.23
342.16	-20.23
342.543	-81.24
342.927	-74.91
343.31	-48.93
343.693	-57.51
344.077	-73.78
344.46	-56.61
344.843	-45.54
345.226	-37.63
345.61	-29.26
345.993	-33.56
346.376	-9.83
346.759	-1.24
347.142	28.13
347.525	53.67
347.908	48.25
348.291	61.81
348.674	91.86
349.057	110.17
349.44	123.95
349.823	148.13
350.206	152.43
350.588	195.36
350.971	238.52
351.354	236.26
351.737	244.17
352.119	244.17
352.502	288.47
352.884	290.05
353.267	291.18
353.65	293.21
354.032	311.97
354.414	319.2
354.797	316.04
355.179	332.53
355.562	331.4
355.944	312.42
356.326	348.13
356.709	343.15
357.091	351.29
357.473	354.23
357.855	340.44
358.238	345.41
358.62	353.1
359.002	337.96
359.384	353.32
359.766	353.1
360.148	337.51
360.53	347.67
360.912	333.21
361.294	346.32
361.676	334.79
362.057	336.38
362.439	336.38
362.821	327.56
363.203	340.44
363.584	353.1
363.966	349.26
364.348	335.7
364.729	336.83
365.111	319.88
365.493	337.51
365.874	339.54
366.256	330.73
366.637	312.2
367.019	334.12
367.4	318.3
367.781	319.65
368.163	334.79
368.544	338.86
368.925	317.39
369.306	335.25
369.688	335.92
370.069	325.98
370.45	304.96
370.831	316.26
371.212	313.55
371.593	354.68
371.974	323.49
372.355	320.33
372.736	331.86
373.117	337.05
373.498	346.09
373.879	335.25
374.26	337.51
374.641	329.82
375.021	319.88
375.402	354.23
375.783	336.38
376.163	344.06
376.544	347.22
376.925	325.53
377.305	362.36
377.686	348.35
378.066	348.13
378.447	336.6
378.827	353.78
379.208	345.41
379.588	348.58
379.968	362.82
380.349	375.92
380.729	361.01
381.109	362.59
381.489	342.48
381.87	359.65
382.25	373.89
382.63	357.39
383.01	356.49
383.39	355.58
383.77	377.28
384.15	359.88
384.53	368.46
384.91	374.34
385.29	376.37
385.67	382.93
386.049	376.6
386.429	403.94
386.809	394.9
387.189	417.05
387.568	396.71
387.948	407.33
388.328	393.55
388.707	405.07
389.087	377.05
389.466	412.76
389.846	427.45
390.225	435.13
390.605	423.83
390.984	429.25
391.363	424.73
391.743	442.14
392.122	431.06
392.501	444.85
392.881	451.63
393.26	421.8
393.639	457.5
394.018	454.56
394.397	453.66
394.776	456.82
395.155	471.96
395.534	477.39
395.913	477.16
396.292	504.51
396.671	468.58
397.05	503.15
397.429	507.9
397.808	476.03
398.186	506.77
398.565	517.16
398.944	521.68
399.323	535.92
399.701	510.61
400.08	536.14
400.458	535.47
400.837	561.45
401.215	556.71
401.594	560.55
401.972	565.75
402.351	569.59
402.729	591.74
403.107	580.89
403.486	611.62
403.864	612.98
404.242	624.5
404.62	622.24
404.999	617.05
405.377	643.71
405.755	661.79
406.133	651.85
406.511	670.6
406.889	670.83
407.267	682.35
407.645	711.96
408.023	706.08
408.401	739.75
408.779	721.22
409.156	721.9
409.534	758.06
409.912	776.59
410.29	806.42
410.667	800.09
411.045	797.61
411.422	811.84
411.8	816.59
412.178	842.8
412.555	819.07
412.933	848.9
413.31	896.59
413.687	910.37
414.065	900.88
414.442	913.76
414.819	920.31
415.197	924.16
415.574	962.35
415.951	956.02
416.328	970.71
416.705	954.44
417.082	976.36
417.46	968.9
417.837	979.97
418.214	1015.68
418.591	1027.2
418.967	1001.44
419.344	1049.12
419.721	1057.49
420.098	1030.59
420.475	1081.44
420.852	1057.03
421.228	1078.05
421.605	1125.73
421.982	1125.73
422.358	1117.6
422.735	1153.3
423.111	1154.21
423.488	1176.13
423.864	1191.49
424.241	1190.82
424.617	1198.95
424.994	1217.71
425.37	1221.1
425.746	1216.13
426.123	1258.38
426.499	1268.1
426.875	1270.81
427.251	1288.67
427.627	1331.83
428.003	1292.51
428.379	1340.19
428.756	1369.57
429.132	1379.29
429.507	1400.98
429.883	1410.92
430.259	1433.52
430.635	1471.71
431.011	1443.46
431.387	1479.62
431.763	1515.55
432.138	1513.29
432.514	1557.81
432.89	1546.74
433.265	1577.25
433.641	1616.57
434.016	1603.91
434.392	1644.59
434.767	1653.63
435.143	1710.12
435.518	1697.02
435.894	1730.91
436.269	1725.49
436.644	1740.86
437.02	1777.24
437.395	1797.35
437.77	1812.95
438.145	1856.79
438.52	1856.11
438.895	1916.45
439.271	1912.15
439.646	1933.4
440.021	1905.83
440.395	1939.95
440.77	1938.37
441.145	1957.35
441.52	2004.58
441.895	1994.41
442.27	2036.67
442.645	2028.76
443.019	2109.66
443.394	2067.18
443.769	2078.93
444.143	2061.3
444.518	2116.89
444.892	2133.16
445.267	2122.09
445.641	2173.39
446.016	2188.08
446.39	2195.99
446.764	2191.47
447.139	2229.43
447.513	2243.22
447.887	2270.11
448.262	2258.58
448.636	2306.49
449.01	2329.77
449.384	2343.33
449.758	2359.15
450.132	2375.42
450.506	2401.41
450.88	2435.3
451.254	2417.45
451.628	2495.41
452.002	2473.95
452.376	2498.35
452.75	2539.93
453.123	2542.19
453.497	2606.15
453.871	2586.94
454.244	2687.95
454.618	2689.31
454.992	2736.09
455.365	2692.47
455.739	2772.47
456.112	2810.66
456.486	2840.26
456.859	2875.29
457.232	2899.7
457.606	2895.86
457.979	2903.54
458.352	3015.85
458.725	3006.14
459.099	3062.63
459.472	3097.21
459.845	3183.08
460.218	3160.71
460.591	3236.41
460.964	3214.04
461.337	3295.17
461.71	3314.83
462.083	3374.71
462.456	3443.19
462.829	3383.3
463.201	3461.04
463.574	3466.91
463.947	3576.74
464.32	3618.32
464.692	3635.05
465.065	3688.15
465.438	3726.34
465.81	3761.14
466.183	3765.89
466.555	3872.78
466.928	3976.28
467.3	3925.66
467.672	3970.86
468.045	4089.95
468.417	4101.47
468.789	4105.09
469.161	4159.55
469.534	4285.2
469.906	4351.64
470.278	4348.02
470.65	4407.68
471.022	4453.33
471.394	4603.16
471.766	4607.45
472.138	4690.39
472.51	4751.4
472.882	4859.42
473.253	4865.97
473.625	4989.13
473.997	5011.73
474.369	5090.83
474.74	5155.91
475.112	5254.44
475.484	5320.65
475.855	5419.41
476.227	5482.91
476.598	5642.68
476.97	5669.34
477.341	5777.81
477.713	5825.95
478.084	5928.09
478.455	6090.12
478.827	6105.04
479.198	6274.07
479.569	6294.18
479.94	6452.6
480.311	6466.38
480.682	6703.44
481.053	6855.98
481.424	6944.56
481.795	6979.59
482.166	7098.91
482.537	7190.88
482.908	7331.67
483.279	7383.2
483.65	7571.89
484.021	7727.14
484.391	7774.82
484.762	7909.06
485.133	7963.52
485.503	8041.03
485.874	8336.62
486.244	8299.1
486.615	8525.76
486.985	8557.18
487.356	8753.33
487.726	8817.96
488.097	8982.7
488.467	8946.77
488.837	9212.53
489.207	9348.12
489.578	9482.12
489.948	9571.61
490.318	9672.18
490.688	9697.71
491.058	9842.79
491.428	10010.02
491.798	10118.49
492.168	10298.37
492.538	10345.6
492.908	10466.05
493.278	10594.86
493.648	10652.71
494.017	10819.94
494.387	10867.62
494.757	10953.95
495.126	11189.65
495.496	11139.03
495.866	11286.6
496.235	11426.25
496.605	11476.65
496.974	11533.14
497.344	11665.79
497.713	11757.54
498.082	11844.32
498.452	11941.27
498.821	12132.9
499.19	12069.17
499.559	12222.16
499.928	12397.3
500.298	12340.81
500.667	12565.21
501.036	12551.87
501.405	12720
501.774	12670.06
502.143	12791.87
502.512	12923.61
502.88	13064.18
503.249	12993.44
503.618	13142.82
503.987	13226.66
504.356	13296.49
504.724	13367.22
505.093	13468.69
505.462	13494.67
505.83	13685.18
506.199	13816.25
506.567	14027.31
506.936	13917.04
507.304	14123.13
507.672	14138.95
508.041	14331.71
508.409	14433.41
508.777	14504.82
509.145	14665.72
509.514	14702.33
509.882	14842.89
510.25	14823
510.618	15037.91
510.986	15043.11
511.354	15225.7
511.722	15346.83
512.09	15458.69
512.458	15498.91
512.826	15692.36
513.193	15765.57
513.561	15778.68
513.929	15965.34
514.297	16243.08
514.664	16203.98
515.032	16242.17
515.4	16521.94
515.767	16524.65
516.135	16627.92
516.502	16636.51
516.869	16983.62
517.237	17063.85
517.604	17022.26
517.972	17270.39
518.339	17402.37
518.706	17489.82
519.073	17511.29
519.44	17632.87
519.808	17881.68
520.175	17902.02
520.542	18093.65
520.909	18245.51
521.276	18244.38
521.643	18588.32
522.009	18602.34
522.376	18758.04
522.743	18861.76
523.11	19144.47
523.477	19343.11
523.843	19384.91
524.21	19529.09
524.577	19691.35
524.943	19840.5
525.31	20028.06
525.676	20185.34
526.043	20297.88
526.409	20346.02
526.776	20640.47
527.142	20600.48
527.508	20883.41
527.874	21035.72
528.241	21165.66
528.607	21158.88
528.973	21357.52
529.339	21463.05
529.705	21772.2
530.071	21812.42
530.437	21848.58
530.803	22044.96
531.169	22218.29
531.535	22309.58
531.901	22293.76
532.267	22464.38
532.632	22589.8
532.998	22781.21
533.364	22869.79
533.73	22888.32
534.095	23178.49
534.461	23137.58
534.826	23312.72
535.192	23432.72
535.557	23481.3
535.923	23596.78
536.288	23758.13
536.653	23799.26
537.019	23890.33
537.384	23945.92
537.749	24015.53
538.114	24102.08
538.479	24316.08
538.845	24301.39
539.21	24263.66
539.575	24429.98
539.94	24559.02
540.305	24719.46
540.67	24692.57
541.034	24943.19
541.399	24984.99
541.764	25016.86
542.129	25149.06
542.494	25213.46
542.858	25351.99
543.223	25350.41
543.587	25569.61
543.952	25465.21
544.316	25718.53
544.681	25749.94
545.045	25867.46
545.41	25848.02
545.774	26073.55
546.138	25961.01
546.503	26176.37
546.867	26144.96
547.231	26356.93
547.595	26451.62
547.959	26618.85
548.324	26586.98
548.688	26589.92
549.052	26833.98
549.416	26764.16
549.779	26892.97
550.143	26961.21
550.507	27123.02
550.871	27243.69
551.235	27223.8
551.599	27393.07
551.962	27421.76
552.326	27528.88
552.689	27894.75
553.053	27611.36
553.417	27681.65
553.78	28126.15
554.143	28062.43
554.507	28140.39
554.87	28201.18
555.234	28532.47
555.597	28423.09
555.96	28569.31
556.323	28680.26
556.686	28749.87
557.05	28929.75
557.413	29043.64
557.776	29165
558.139	29323.64
558.502	29382.62
558.865	29389.85
559.228	29706.22
559.59	29828.93
559.953	29816.5
560.316	30098.08
560.679	30159.09
561.041	30380.78
561.404	30446.54
561.767	30630.04
562.129	30569.03
562.492	30982.12
562.854	30852.86
563.217	30893.99
563.579	31121.55
563.941	31320.42
564.304	31503.69
564.666	31567.42
565.028	31661.2
565.39	31751.37
565.753	31928.76
566.115	31992.04
566.477	32187.52
566.839	32224.8
567.201	32406.04
567.563	32452.14
567.925	32593.83
568.287	32769.65
568.648	32805.58
569.01	32961.05
569.372	32962.18
569.734	33039.92
570.095	33341.16
570.457	33455.73
570.819	33375.28
571.18	33430.42
571.542	33723.07
571.903	33756.51
572.265	33823.18
572.626	33997.86
572.987	33951.99
573.349	34156.73
573.71	34126.67
574.071	34328.93
574.432	34487.12
574.794	34573.44
575.155	34575.7
575.516	34641.91
575.877	34646.43
576.238	34747.67
576.599	34914.22
576.96	34858.86
577.32	34952.19
577.681	35000.32
578.042	35157.38
578.403	35179.08
578.763	35068.34
579.124	35236.25
579.485	35260.65
579.845	35475.79
580.206	35312.4
580.566	35265.85
580.927	35265.17
581.287	35558.27
581.648	35418.62
582.008	35494.09
582.368	35532.96
582.728	35539.52
583.089	35431.27
583.449	35480.31
583.809	35537.71
584.169	35610.48
584.529	35595.11
584.889	35849.34
585.249	35509.24
585.609	35568.44
585.969	35747.42
586.329	35630.14
586.688	35691.38
587.048	35657.48
587.408	35543.59
587.768	35596.47
588.127	35491.16
588.487	35506.07
588.846	35824.48
589.206	35529.35
589.565	35505.85
589.925	35777.25
590.284	35654.09
590.643	35666.97
591.003	35848.44
591.362	35781.32
591.721	35606.63
592.08	35737.03
592.44	35731.83
592.799	35754.65
593.158	35674.43
593.517	35651.38
593.876	35671.49
594.235	35567.54
594.593	35730.47
594.952	35615.67
595.311	35660.64
595.67	35822.67
596.029	35974.99
596.387	35890.47
596.746	35941.77
597.104	35764.14
597.463	35775.44
597.822	35976.57
598.18	35742.22
598.538	35800.3
598.897	36054.31
599.255	35781.32
599.613	36207.52
599.972	35914.65
600.33	36116.68
600.688	35970.24
601.046	36076.45
601.404	36134.98
601.762	36063.57
602.12	36276.67
602.478	36174.76
602.836	36207.52
603.194	35854.76
603.552	35958.26
603.91	36028.77
604.268	36254.53
604.625	36062.44
604.983	36099.95
605.341	36123.46
605.698	36353.73
606.056	36231.48
606.413	36253.4
606.771	36376.33
607.128	36425.82
607.485	36211.36
607.843	36347.41
608.2	36430.57
608.557	36378.59
608.914	36345.6
609.272	36594.86
609.629	36560.06
609.986	36693.61
610.343	36599.15
610.7	36808.64
611.057	36699.26
611.414	36662.43
611.771	36711.92
612.127	36899.03
612.484	36868.3
612.841	36996.65
613.198	36786.26
613.554	36967.28
613.911	36965.24
614.267	37018.35
614.624	36981.97
614.98	37111.68
615.337	37251.34
615.693	37214.28
616.05	37192.36
616.406	37500.82
616.762	37276.65
617.118	37281.84
617.475	37302.63
617.831	37508.51
618.187	37343.76
618.543	37390.54
618.899	37587.37
619.255	37546.47
619.611	37584.89
619.967	37662.17
620.323	37681.38
620.678	37555.06
621.034	37584.21
621.39	37658.56
621.746	37506.02
622.101	37827.82
622.457	37764.54
622.812	37707.82
623.168	37730.19
623.523	37813.13
623.879	37893.81
624.234	37609.29
624.589	37675.28
624.945	37797.31
625.3	37825.11
625.655	37594.83
626.01	37808.61
626.365	37768.61
626.72	37809.74
627.075	37763.19
627.43	37564.55
627.785	37617.2
628.14	37746.47
628.495	37809.06
628.85	37718.9
629.205	37618.11
629.559	37755.96
629.914	37644.55
630.269	37669.63
630.623	37610.88
630.978	37441.16
631.332	37711.66
631.687	37739.69
632.041	37523.19
632.396	37581.27
632.75	37462.18
633.104	37489.75
633.459	37260.83
633.813	37311.45
634.167	37254.05
634.521	37180.6
634.875	37168.4
635.229	37211.79
635.583	37040.27
635.937	36972.02
636.291	36979.71
636.645	37069.65
636.999	36947.62
637.352	37081.17
637.706	36757.11
638.06	36901.52
638.413	36710.33
638.767	36626.27
639.121	36760.95
639.474	36466.27
639.828	36559.6
640.181	36513.5
640.534	36596.89
640.888	36366.39
641.241	36318.93
641.594	36264.47
641.947	36337.69
642.301	36235.09
642.654	36328.65
643.007	36263.11
643.36	36230.12
643.713	36184.02
644.066	36257.69
644.419	36001.2
644.771	35728.67
645.124	35505.17
645.477	35429.69
645.83	35096.82
646.182	34979.53
646.535	34940.21
646.888	34935.47
647.24	34879.87
647.593	34896.37
647.945	34942.02
648.298	34747.9
648.65	34584.51
649.002	34494.12
649.355	34643.72
649.707	34650.05
650.059	34701.57
650.411	35159.64
650.763	35161
651.115	35412.29
651.467	35366.64
651.819	35229.7
652.171	35166.65
652.523	35255.23
652.875	35206.64
653.227	35062.69
653.578	35422.23
653.93	35185.85
654.282	35121.68
654.633	34991.06
654.985	35148.12
655.337	35029.47
655.688	35053.65
656.039	35233.76
656.391	34692.31
656.742	34811.63
657.094	34797.39
657.445	34921.91
657.796	34912.42
658.147	34815.92
658.498	34731.86
658.849	34728.69
659.2	34700.44
659.551	34568.92
659.902	34714.23
660.253	34480.11
660.604	34534.57
660.955	34360.11
661.306	34524.4
661.656	34381.36
662.007	34198.08
662.358	34269.72
662.708	34328.25
663.059	34133.68
663.409	33918.77
663.76	34354.01
664.11	34182.49
664.461	34286.22
664.811	34103.62
665.161	34148.14
665.511	33862.95
665.862	33995.38
666.212	33875.83
666.562	33921.03
666.912	33816.62
667.262	33514.71
667.612	33636.52
667.962	33554.03
668.312	33368.95
668.662	33521.49
669.011	33296.64
669.361	33238.34
669.711	33266.58
670.06	33085.8
670.41	33049.19
670.76	32819.14
671.109	32962.41
671.459	32837.44
671.808	32700.95
672.157	32682.42
672.507	32488.07
672.856	32522.87
673.205	32564.23
673.554	32487.39
673.904	32385.25
674.253	32613.04
674.602	32343.22
674.951	31784.36
675.3	31752.5
675.649	32308.19
675.998	32158.82
676.346	32082.89
676.695	32303.9
677.044	31967.41
677.393	32187.06
677.741	32136.22
678.09	32007.41
678.438	31876.56
678.787	31920.86
679.135	32190
679.484	31805.38
679.832	31958.59
680.181	31689.9
680.529	31928.09
680.877	31777.36
681.225	31841.99
681.573	31957.24
681.922	31954.75
682.27	31698.94
682.618	31815.32
682.966	31785.72
683.314	31777.36
683.661	31732.61
684.009	31651.03
684.357	31633.18
684.705	31663.91
685.053	31691.48
685.4	31625.72
685.748	31549.57
686.095	31590.92
686.443	31368.33
686.79	31446.74
687.138	31548.66
687.485	31571.71
687.832	31497.14
688.18	31564.93
688.527	31513.63
688.874	31610.13
689.221	31561.32
689.568	31446.52
689.915	31369.23
690.262	31293.08
690.609	31289.01
690.956	31206.52
691.303	31185.96
691.65	31133.08
691.997	31345.96
692.344	31057.15
692.69	31077.26
693.037	31198.39
693.383	30864.16
693.73	31006.3
694.077	30878.4
694.423	30852.64
694.769	30821.45
695.116	30875.46
695.462	30828.68
695.808	30676.59
696.155	30842.69
696.501	30617.84
696.847	30520.21
697.193	30306.66
697.539	30593.43
697.885	30309.82
698.231	30191.41
698.577	30227.79
698.923	30118.42
699.269	30049.72
699.614	29996.16
699.96	29810.18
700.306	29929.72
700.651	29735.38
700.997	29643.85
701.342	29557.98
701.688	29576.96
702.033	29610.63
702.379	29480.69
702.724	29344.88
703.069	29586
703.415	29230.53
703.76	29109.4
704.105	29233.24
704.45	29125
704.795	28958.67
705.14	28788.73
705.485	28970.2
705.83	28665.35
706.175	28721.84
706.52	28643.88
706.865	28571.11
707.209	28579.25
707.554	28473.26
707.899	28483.43
708.243	28405.92
708.588	28432.59
708.932	28114.18
709.277	28092.03
709.621	28267.39
709.966	28052.48
710.31	28117.34
710.654	27853.39
710.998	28055.42
711.342	27887.06
711.687	27804.58
712.031	27679.39
712.375	27619.27
712.719	27658.14
713.063	27573.17
713.407	27616.34
713.75	27539.95
714.094	27487.07
714.438	27357.13
714.782	27326.85
715.125	27157.82
715.469	27310.36
715.812	27128.89
716.156	26926.64
716.499	26949.69
716.843	26917.37
717.186	26921.44
717.53	26943.13
717.873	26896.35
718.216	26822.23
718.559	26680.99
718.902	26666.98
719.246	26623.82
719.589	26482.35
719.932	26478.51
720.275	26429.02
720.617	26447.55
720.96	26351.96
721.303	26395.8
721.646	26420.66
721.989	26131.86
722.331	26249.82
722.674	26119.2
723.016	26203.27
723.359	26162.81
723.701	26054.12
724.044	25924.18
724.386	25904.74
724.729	25941.58
725.071	25923.05
725.413	25786.1
725.755	25787.46
726.097	25625.88
726.439	25754.01
726.782	25561.25
727.124	25735.03
727.465	25605.09
727.807	25474.02
728.149	25584.3
728.491	25446.9
728.833	25375.26
729.175	25347.7
729.516	25279.67
729.858	25207.81
730.199	25305.44
730.541	25190.64
730.882	25129.85
731.224	25277.87
731.565	24970.76
731.906	25096.63
732.248	24855.28
732.589	24861.83
732.93	24733.02
733.271	24851.66
733.612	24821.16
733.953	24874.26
734.294	24664.78
734.635	24744.77
734.976	24733.47
735.317	24532.58
735.658	24584.33
735.999	24603.99
736.339	24496.64
736.68	24555.85
737.021	24277.21
737.361	24274.28
737.702	24483.54
738.042	24294.39
738.383	24328.51
738.723	24404.22
739.063	24225.46
739.404	24313.6
739.744	24284.45
740.084	24142.08
740.424	24150.44
740.764	23962.19
741.104	24110.44
741.444	23930.78
741.784	23904.12
742.124	23970.78
742.464	23865.25
742.804	23959.26
743.143	23827.51
743.483	23809.66
743.823	23625.71
744.162	23721.75
744.502	23657.57
744.841	23634.07
745.181	23672.03
745.52	23478.14
745.86	23647.17
746.199	23533.96
746.538	23448.99
746.877	23525.14
747.216	23413.51
747.556	23420.06
747.895	23357.92
748.234	23265.72
748.573	23192.95
748.911	23299.61
749.25	23208.54
749.589	23106.62
749.928	23065.95
750.267	23105.27
750.605	22955.67
750.944	22963.8
751.283	22835.9
751.621	22947.53
751.96	22729.01
752.298	22819.4
752.636	22668.67
752.975	22682.68
753.313	22592.29
753.651	22571.27
753.989	22429.35
754.327	22490.14
754.666	22364.27
755.004	22432.29
755.342	22392.07
755.679	22305.29
756.017	22238.62
756.355	22346.42
756.693	22062.36
757.031	22146.65
757.368	21914.79
757.706	21982.36
758.044	21829.37
758.381	21835.25
758.719	21755.25
759.056	21725.87
759.394	21696.72
759.731	21519.1
760.068	21457.85
760.405	21378.08
760.743	21295.82
761.08	21407.46
761.417	21233
761.754	21293.34
762.091	21201.14
762.428	21064.42
762.765	20925.89
763.102	21034.14
763.438	20904.87
763.775	20732.9
764.112	20784.2
764.449	20823.07
764.785	20629.85
765.122	20484.77
765.458	20440.93
765.795	20491.55
766.131	20461.5
766.467	20400.25
766.804	20232.35
767.14	20138.34
767.476	20146.7
767.812	19937.44
768.148	20054.05
768.485	20029.42
768.821	19816.77
769.157	19794.85
769.492	19790.78
769.828	19754.4
770.164	19574.51
770.5	19514.63
770.836	19594.85
771.171	19359.38
771.507	19354.86
771.842	19177.69
772.178	19207.52
772.513	19281.87
772.849	19123.68
773.184	19060.63
773.519	18939.28
773.855	18922.33
774.19	18734.54
774.525	18793.52
774.86	18685.95
775.195	18728.21
775.53	18589.45
775.865	18612.5
776.2	18409.35
776.535	18290.25
776.87	18251.16
777.205	18153.99
777.539	18045.74
777.874	18073.54
778.209	18017.94
778.543	17970.49
778.878	17822.02
779.212	17833.99
779.547	17754.9
779.881	17710.83
780.215	17563.04
780.55	17532.08
780.884	17377.96
781.218	17342.48
781.552	17434.68
781.886	17304.97
782.22	17186.78
782.554	17238.76
782.888	17099.78
783.222	17049.16
783.556	16951.98
783.889	16842.83
784.223	16856.17
784.557	16660.69
784.89	16727.13
785.224	16616.85
785.557	16554.48
785.891	16477.42
786.224	16502.73
786.558	16434.26
786.891	16396.74
787.224	16317.2
787.557	16269.52
787.891	16177.09
788.224	16155.17
788.557	16124.66
788.89	16047.15
789.223	15997.88
789.556	15940.48
789.888	15874.5
790.221	15888.73
790.554	15738.91
790.887	15690.1
791.219	15664.33
791.552	15650.55
791.884	15509.76
792.217	15404.23
792.549	15437
792.882	15287.17
793.214	15256.21
793.546	15253.5
793.879	15126.27
794.211	15101.18
794.543	15174.86
794.875	15061.41
795.207	15101.41
795.539	15004.46
795.871	15021.19
796.203	14768.54
796.535	14704.13
796.867	14703
797.198	14757.92
797.53	14693.96
797.862	14547.3
798.193	14637.24
798.525	14548.88
798.856	14489.22
799.188	14300.53
799.519	14312.96
799.85	14244.26
800.182	14157.93
800.513	14237.48
800.844	14102.12
801.175	14188.44
801.506	14146.41
801.837	14084.49
802.168	13984.83
802.499	13991.61
802.83	13822.35
803.161	13836.81
803.491	13827.09
803.822	13795.91
804.153	13779.41
804.483	13639.53
804.814	13594.33
805.145	13597.04
805.475	13551.62
805.805	13592.3
806.136	13521.57
806.466	13491.06
806.796	13463.49
807.126	13347.78
807.457	13346.2
807.787	13291.29
808.117	13170.84
808.447	13226.43
808.777	13249.03
809.107	13211.74
809.436	13141.91
809.766	13109.82
810.096	13034.12
810.426	13093.1
810.755	13006.55
811.085	12965.2
811.414	12912.99
811.744	12741.25
812.073	12795.48
812.403	12832.77
812.732	12737.86
813.061	12753.68
813.39	12664.41
813.719	12622.83
814.049	12694.69
814.378	12684.53
814.707	12535.38
815.036	12653.11
815.365	12460.8
815.693	12461.48
816.022	12439.56
816.351	12358.66
816.68	12287.02
817.008	12322.27
817.337	12178.55
817.665	12213.35
817.994	12290.41
818.322	12216.29
818.651	12137.65
818.979	12072.34
819.307	12232.11
819.636	12077.08
819.964	11946.47
820.292	12097.42
820.62	12068.95
820.948	11993.92
821.276	12092.45
821.604	12002.06
821.932	12052.68
822.259	12028.5
822.587	11982.85
822.915	12016.07
823.243	12048.16
823.57	11954.37
823.898	12034.37
824.225	11967.71
824.553	11953.25
824.88	11963.41
825.207	11937.43
825.535	11907.6
825.862	11915.73
826.189	11926.13
826.516	11972.91
826.843	11982.85
827.17	11977.2
827.497	11987.82
827.824	11903.3
828.151	11976.52
828.478	11889.74
828.805	11941.27
829.131	11955.73
829.458	11863.3
829.785	11913.47
830.111	11947.6
830.438	11903.98
830.764	11856.3
831.09	11878.22
831.417	11820.14
831.743	11897.2
832.069	11890.2
832.395	11781.27
832.722	11862.63
833.048	11802.74
833.374	11801.16
833.7	11767.04
834.026	11717.77
834.351	11837.32
834.677	11687.26
835.003	11793.93
835.329	11823.53
835.654	11760.03
835.98	11660.15
836.306	11767.71
836.631	11635.51
836.956	11714.61
837.282	11629.41
837.607	11588.73
837.932	11569.53
838.258	11521.62
838.583	11591.22
838.908	11472.81
839.233	11506.25
839.558	11517.78
839.883	11475.97
840.208	11426.25
840.533	11463.99
840.858	11427.16
841.182	11414.73
841.507	11349.65
841.832	11353.03
842.156	11353.03
842.481	11279.36
842.805	11299.48
843.13	11261.51
843.454	11271.23
843.778	11265.81
844.103	11178.12
844.427	11118.69
844.751	11094.51
845.075	11040.05
845.399	11063.32
845.723	10985.59
846.047	10982.2
846.371	10843.9
846.695	10911.92
847.019	10840.73
847.343	10833.5
847.666	10674.86
847.99	10695.65
848.313	10666.05
848.637	10652.71
848.96	10618.82
849.284	10526.84
849.607	10570.68
849.931	10503.79
850.254	10425.15
850.577	10420.86
850.9	10320.29
851.223	10247.08
851.546	10215.44
851.869	10149.22
852.192	10201.43
852.515	10114.65
852.838	10051.6
853.161	10052.05
853.483	10026.97
853.806	9947.2
854.129	9955.78
854.451	9929.12
854.774	9975.9
855.096	9869.46
855.419	9852.06
855.741	9793.53
856.063	9686.86
856.385	9681.44
856.708	9741.78
857.03	9702.91
857.352	9663.36
857.674	9616.13
857.996	9601.44
858.318	9539.52
858.64	9538.85
858.961	9485.51
859.283	9519.18
859.605	9411.16
859.926	9531.84
860.248	9422.69
860.57	9422.92
860.891	9395.35
861.212	9368.68
861.534	9359.87
861.855	9283.94
862.176	9319.87
862.498	9280.32
862.819	9301.11
863.14	9233.99
863.461	9189.93
863.782	9146.54
864.103	9175.01
864.424	9134.11
864.745	9140.44
865.065	9122.13
865.386	9059.08
865.707	9022.47
866.027	9077.84
866.348	8960.1
866.668	9074.68
866.989	8945.87
867.309	8913.32
867.63	8965.53
867.95	8867
868.27	8951.29
868.59	8904.74
868.91	8881.24
869.23	8914.45
869.55	8881.01
869.87	8963.27
870.19	8810.05
870.51	8842.14
870.83	8853.44
871.15	8761.01
871.469	8794.01
871.789	8850.5
872.109	8730.05
872.428	8665.87
872.748	8758.98
873.067	8688.02
873.386	8684.4
873.706	8739.32
874.025	8689.38
874.344	8659.32
874.663	8671.98
874.982	8618.19
875.301	8681.24
875.62	8601.92
875.939	8552.66
876.258	8534.13
876.577	8513.34
876.896	8526.89
877.214	8530.74
877.533	8529.83
877.852	8499.55
878.17	8503.84
878.489	8492.55
878.807	8491.19
879.125	8421.13
879.444	8445.09
879.762	8358.31
880.08	8433.11
880.398	8395.15
880.716	8412.55
881.034	8321.48
881.352	8318.09
881.67	8270.86
881.988	8383.62
882.306	8295.49
882.624	8283.06
882.941	8229.73
883.259	8194.25
883.577	8173.68
883.894	8137.98
884.212	8156.73
884.529	8131.88
884.846	8156.28
885.164	8099.34
885.481	8084.87
885.798	8093.91
886.115	8000.58
886.432	8020.02
886.75	8053.46
887.067	7941.15
887.383	7894.14
887.7	7942.28
888.017	7921.49
888.334	7895.95
888.651	7926.68
888.967	7919.9
889.284	7826.57
889.6	7839.23
889.917	7805.11
890.233	7772.34
890.55	7720.81
890.866	7709.97
891.182	7706.35
891.498	7664.09
891.815	7665.45
892.131	7560.37
892.447	7618.67
892.763	7623.64
893.079	7597.2
893.395	7496.87
893.71	7556.52
894.026	7509.52
894.342	7428.62
894.657	7463.19
894.973	7469.75
895.289	7359.24
895.604	7320.15
895.92	7362.63
896.235	7332.8
896.55	7302.52
896.865	7268.4
897.181	7241.73
897.496	7279.24
897.811	7179.13
898.126	7170.77
898.441	7155.63
898.756	7116.31
899.071	7115.18
899.386	7064.79
899.7	7038.57
900.015	7046.26
900.33	6976.65
900.644	7002.87
900.959	6967.39
901.273	6979.14
901.588	6926.03
901.902	6917.22
902.216	6908.86
902.531	6815.3
902.845	6744.57
903.159	6799.93
903.473	6787.96
903.787	6740.73
904.101	6700.05
904.415	6637.68
904.729	6641.75
905.042	6550.22
905.356	6601.97
905.67	6622.99
905.984	6589.09
906.297	6535.31
906.611	6524.46
906.924	6522.43
907.237	6441.75
907.551	6356.33
907.864	6396.78
908.177	6450.56
908.491	6393.84
908.804	6361.75
909.117	6362.88
909.43	6223
909.743	6253.28
910.056	6283.56
910.368	6252.15
910.681	6159.05
910.994	6143
911.307	6147.75
911.619	6085.6
911.932	6154.53
912.244	6096.45
912.557	6047.41
912.869	6039.5
913.181	6003.12
913.494	5973.52
913.806	5954.76
914.118	5955.44
914.43	5877.25
914.742	5917.92
915.054	5886.51
915.366	5817.59
915.678	5834.54
915.99	5777.81
916.302	5786.85
916.613	5741.66
916.925	5714.76
917.236	5705.27
917.548	5695.78
917.859	5706.4
918.171	5626.41
918.482	5609.01
918.794	5635.22
919.105	5594.99
919.416	5524.94
919.727	5562
920.038	5506.86
920.349	5472.51
920.66	5421.89
920.971	5383.47
921.282	5411.72
921.593	5356.36
921.903	5354.1
922.214	5300.99
922.525	5290.37
922.835	5309.8
923.146	5225.51
923.456	5259.18
923.767	5170.6
924.077	5220.77
924.387	5206.3
924.697	5119.53
925.008	5134.89
925.318	5130.6
925.628	5134.89
925.938	5096.93
926.248	5001.79
926.558	5054.67
926.867	5011.28
927.177	4999.08
927.487	4957.5
927.796	4957.95
928.106	4980.77
928.416	4942.58
928.725	4893.77
929.034	4858.52
929.344	4927.22
929.653	4829.59
929.962	4780.78
930.271	4734.68
930.581	4750.04
930.89	4743.04
931.199	4669.59
931.508	4746.88
931.817	4672.76
932.125	4666.66
932.434	4634.79
932.743	4567.9
933.051	4553.89
933.36	4564.51
933.669	4531.07
933.977	4518.64
934.286	4532.65
934.594	4482.93
934.902	4456.04
935.21	4435.48
935.519	4454.91
935.827	4433.89
936.135	4365.87
936.443	4371.75
936.751	4371.3
937.059	4347.8
937.367	4308.93
937.674	4352.54
937.982	4308.93
938.29	4286.78
938.597	4321.36
938.905	4242.26
939.213	4227.12
939.52	4210.4
939.827	4184.86
940.135	4172.21
940.442	4160.91
940.749	4131.3
941.056	4149.61
941.363	4103.96
941.67	4117.52
941.977	4081.14
942.284	4048.14
942.591	4057.18
942.898	4011.53
943.205	3984.87
943.511	3958.43
943.818	3953.68
944.125	3936.05
944.431	3915.94
944.738	3900.35
945.044	3883.63
945.35	3871.42
945.657	3892.44
945.963	3872.78
946.269	3831.88
946.575	3796.85
946.881	3811.09
947.187	3838.2
947.493	3753.23
947.799	3753.91
948.105	3745.33
948.41	3717.53
948.716	3722.05
949.022	3684.08
949.327	3688.15
949.633	3663.07
949.938	3639.57
950.244	3620.81
950.549	3607.02
950.854	3588.49
951.16	3596.18
951.465	3584.88
951.77	3524.31
952.075	3473.02
952.38	3514.14
952.685	3517.99
952.99	3501.04
953.294	3462.17
953.599	3441.83
953.904	3424.43
954.209	3407.03
954.513	3380.82
954.818	3399.35
955.122	3374.26
955.426	3355.05
955.731	3363.19
956.035	3351.66
956.339	3327.94
956.643	3335.62
956.948	3281.16
957.252	3273.47
957.556	3248.62
957.86	3263.76
958.163	3268.95
958.467	3242.29
958.771	3176.07
959.075	3210.88
959.378	3223.31
959.682	3164.1
959.985	3157.77
960.289	3148.96
960.592	3095.17
960.896	3130.2
961.199	3088.62
961.502	3125.45
961.805	3064.44
962.108	3029.41
962.411	3060.6
962.714	3013.14
963.017	3007.72
963.32	3000.94
963.623	2998.23
963.926	2975.4
964.228	2952.35
964.531	2970.43
964.833	2934.5
965.136	2919.13
965.438	2875.29
965.741	2909.42
966.043	2862.18
966.345	2906.25
966.648	2851.56
966.95	2835.74
967.252	2830.32
967.554	2846.82
967.856	2829.42
968.158	2798.91
968.46	2801.85
968.761	2814.28
969.063	2741.74
969.365	2752.58
969.666	2746.93
969.968	2721.62
970.269	2740.61
970.571	2720.95
970.872	2689.76
971.174	2688.86
971.475	2684.79
971.776	2651.34
972.077	2644.56
972.378	2648.18
972.679	2639.37
972.98	2638.24
973.281	2614.51
973.582	2620.16
973.883	2608.63
974.183	2582.19
974.484	2581.51
974.785	2540.16
975.085	2574.06
975.386	2567.28
975.686	2504.45
975.986	2506.49
976.287	2531.35
976.587	2474.17
976.887	2476.88
977.187	2470.56
977.487	2452.03
977.787	2428.52
978.087	2450.9
978.387	2389.88
978.687	2436.43
978.987	2381.75
979.286	2369.77
979.586	2391.69
979.885	2362.08
980.185	2376.1
980.484	2364.34
980.784	2353.5
981.083	2355.31
981.382	2337.23
981.682	2318.47
981.981	2306.04
982.28	2290.9
982.579	2274.86
982.878	2287.06
983.177	2273.27
983.475	2270.79
983.774	2246.83
984.073	2246.16
984.372	2240.28
984.67	2244.12
984.969	2217
985.267	2204.35
985.566	2187.4
985.864	2172.26
986.162	2164.8
986.461	2141.07
986.759	2127.74
987.057	2133.84
987.355	2134.97
987.653	2111.92
987.951	2113.28
988.249	2137.46
988.547	2077.12
988.844	2066.95
989.142	2113.05
989.44	2092.04
989.737	2042.32
990.035	2059.95
990.332	2063.11
990.63	2040.06
990.927	2017.69
991.224	2003
991.521	2017.69
991.819	1985.6
992.116	1989.67
992.413	1964.13
992.71	1960.74
993.006	1942.21
993.303	1929.1
993.6	1941.76
993.897	1925.03
994.193	1941.08
994.49	1883.45
994.787	1912.83
995.083	1886.39
995.379	1901.98
995.676	1871.02
995.972	1872.83
996.268	1840.52
996.565	1859.95
996.861	1854.3
997.157	1832.16
997.453	1847.3
997.749	1830.8
998.044	1817.92
998.34	1794.64
998.636	1795.32
998.932	1782.66
999.227	1765.72
999.523	1757.13
999.818	1732.95
1000.114	1776.56
1000.409	1715.1
1000.704	1732.04
1001	1726.85
1001.295	1702.89
1001.59	1719.16
1001.885	1670.8
1002.18	1703.12
1002.475	1672.16
1002.77	1637.36
1003.065	1674.65
1003.359	1656.79
1003.654	1647.53
1003.949	1675.78
1004.243	1606.62
1004.538	1589.22
1004.832	1581.09
1005.127	1634.42
1005.421	1600.75
1005.715	1591.71
1006.009	1568.43
1006.304	1567.3
1006.598	1558.26
1006.892	1554.2
1007.186	1541.09
1007.48	1540.19
1007.773	1524.37
1008.067	1538.6
1008.361	1511.71
1008.655	1504.25
1008.948	1495.89
1009.242	1474.65
1009.535	1477.36
1009.829	1461.09
1010.122	1436.91
1010.415	1433.75
1010.708	1429
1011.001	1437.59
1011.295	1450.92
1011.588	1421.09
1011.881	1407.08
1012.173	1413.41
1012.466	1388.33
1012.759	1418.15
1013.052	1359.85
1013.344	1353.75
1013.637	1364.37
1013.93	1348.1
1014.222	1372.96
1014.514	1348.33
1014.807	1342.68
1015.099	1328.44
1015.391	1324.82
1015.683	1302.45
1015.976	1306.75
1016.268	1297.03
1016.56	1280.53
1016.851	1285.05
1017.143	1285.73
1017.435	1250.25
1017.727	1259.51
1018.018	1238.05
1018.31	1266.97
1018.602	1260.87
1018.893	1224.94
1019.185	1232.17
1019.476	1215.9
1019.767	1211.38
1020.058	1205.73
1020.35	1180.87
1020.641	1180.65
1020.932	1181.1
1021.223	1166.41
1021.514	1171.16
1021.804	1131.61
1022.095	1139.74
1022.386	1169.57
1022.677	1146.75
1022.967	1121.44
1023.258	1131.16
1023.548	1102.23
1023.839	1128.9
1024.129	1097.94
1024.419	1086.19
1024.709	1097.26
1025	1057.94
1025.29	1062.91
1025.58	1049.8
1025.87	1088.9
1026.16	1050.71
1026.449	1059.97
1026.739	1034.21
1027.029	1033.53
1027.319	1019.75
1027.608	1048.9
1027.898	1015.45
1028.187	1013.42
1028.477	987.43
1028.766	990.82
1029.055	989.92
1029.344	963.25
1029.634	977.04
1029.923	978.17
1030.212	968.22
1030.501	968.22
1030.79	968.68
1031.078	965.29
1031.367	932.97
1031.656	942.91
1031.945	930.03
1032.233	953.31
1032.522	929.13
1032.81	915.8
1033.099	916.93
1033.387	914.21
1033.675	895.68
1033.963	905.85
1034.251	899.3
1034.54	883.93
1034.828	876.25
1035.116	862.46
1035.403	877.15
1035.691	868.79
1035.979	858.85
1036.267	852.75
1036.554	855.01
1036.842	823.14
1037.129	856.81
1037.417	832.18
1037.704	823.82
1037.992	836.02
1038.279	831.96
1038.566	803.48
1038.853	803.48
1039.14	803.48
