Data from White_reflection_standard_FLMS001491_061.txt Node
Date: Tue Feb 07 10:32:07 GMT 2017
User: dcchb
Spectrometer: FLMS00149
Trigger mode: 0
Integration Time (sec): 2.000000E-2
Scans to average: 10
Electric dark correction enabled: true
Nonlinearity correction enabled: false
Boxcar width: 0
XAxis mode: Wavelengths
Number of Pixels in Spectrum: 2048
>>>>>Begin Spectral Data<<<<<
341.393	-35.08
341.776	-35.08
342.16	-35.08
342.543	-52.03
342.927	-53.16
343.31	-64.01
343.693	-68.76
344.077	-71.47
344.46	-57.68
344.843	-50.68
345.226	-37.12
345.61	-28.53
345.993	-21.75
346.376	5.59
346.759	8.98
347.142	26.38
347.525	40.62
347.908	73.39
348.291	64.12
348.674	68.87
349.057	112.03
349.44	113.84
349.823	125.59
350.206	171.46
350.588	228.19
350.971	260.73
351.354	263.89
351.737	277.22
352.119	293.5
352.502	304.12
352.884	321.97
353.267	339.14
353.65	328.75
354.032	338.47
354.414	354.96
354.797	350.22
355.179	369.43
355.562	375.53
355.944	359.26
356.326	377.33
356.709	398.13
357.091	392.7
357.473	382.76
357.855	411.91
358.238	399.93
358.62	416.2
359.002	419.59
359.384	411.91
359.766	400.84
360.148	430.21
360.53	412.14
360.912	401.06
361.294	393.38
361.676	415.98
362.057	386.37
362.439	401.29
362.821	422.76
363.203	415.75
363.584	429.31
363.966	418.01
364.348	416.43
364.729	404.9
365.111	412.81
365.493	396.54
365.874	409.2
366.256	399.93
366.637	421.4
367.019	416.43
367.4	429.08
367.781	404.9
368.163	425.92
368.544	427.05
368.925	408.07
369.306	421.63
369.688	415.3
370.069	422.53
370.45	391.8
370.831	446.49
371.212	427.28
371.593	440.84
371.974	445.81
372.355	436.99
372.736	466.82
373.117	447.62
373.498	430.67
373.879	462.08
374.26	435.64
374.641	442.42
375.021	455.75
375.402	436.77
375.783	498.46
376.163	493.04
376.544	503.21
376.925	471.8
377.305	503.66
377.686	497.11
378.066	475.19
378.447	491
378.827	484.68
379.208	504.56
379.588	501.63
379.968	511.57
380.349	518.35
380.729	531
381.109	529.2
381.489	528.07
381.87	522.19
382.25	554.96
382.63	550.44
383.01	563.77
383.39	569.19
383.77	573.04
384.15	587.27
384.53	611
384.91	562.41
385.29	605.35
385.67	602.41
386.049	601.96
386.429	645.8
386.809	625.24
387.189	624.11
387.568	648.74
387.948	655.75
388.328	632.24
388.707	642.19
389.087	650.55
389.466	682.64
389.846	690.55
390.225	688.74
390.605	682.64
390.984	699.13
391.363	702.52
391.743	714.5
392.122	733.71
392.501	736.42
392.881	722.64
393.26	761.96
393.639	747.72
394.018	740.49
394.397	803.99
394.776	819.81
395.155	785.46
395.534	796.98
395.913	791.79
396.292	806.7
396.671	806.93
397.05	831.11
397.429	850.99
397.808	826.59
398.186	844.89
398.565	840.6
398.944	868.85
399.323	894.61
399.701	893.93
400.08	916.98
400.458	905.23
400.837	912.24
401.215	912.24
401.594	937.32
401.972	956.53
402.351	959.01
402.729	973.7
403.107	988.39
403.486	974.83
403.864	994.27
404.242	1017.09
404.62	1017.54
404.999	1041.5
405.377	1025.23
405.755	1063.19
406.133	1078.33
406.511	1099.58
406.889	1077.66
407.267	1128.95
407.645	1121.5
408.023	1121.5
408.401	1161.95
408.779	1171.89
409.156	1161.04
409.534	1204.43
409.912	1228.16
410.29	1237.65
410.667	1251.44
411.045	1302.06
411.422	1283.98
411.8	1300.93
412.178	1281.72
412.555	1360.81
412.933	1377.99
413.31	1356.29
413.687	1408.49
414.065	1398.1
414.442	1394.71
414.819	1442.17
415.197	1463.63
415.574	1491.2
415.951	1506.8
416.328	1530.52
416.705	1529.17
417.082	1529.85
417.46	1537.98
417.837	1554.48
418.214	1585.89
418.591	1624.76
418.967	1662.5
419.344	1648.26
419.721	1687.13
420.098	1664.53
420.475	1685.55
420.852	1688.26
421.228	1735.94
421.605	1756.96
421.982	1757.19
422.358	1802.38
422.735	1809.84
423.111	1815.94
423.488	1851.42
423.864	1851.19
424.241	1883.51
424.617	1876.28
424.994	1917.86
425.37	1932.32
425.746	1956.05
426.123	1982.04
426.499	1993.34
426.875	2030.4
427.251	2093.67
427.627	2121.7
428.003	2121.7
428.379	2174.8
428.756	2188.81
429.132	2232.65
429.507	2217.96
429.883	2253.67
430.259	2332.09
430.635	2372.54
431.011	2372.99
431.387	2401.46
431.763	2455.02
432.138	2425.64
432.514	2531.4
432.89	2523.04
433.265	2584.28
433.641	2599.42
434.016	2622.7
434.392	2663.15
434.767	2729.14
435.143	2749.7
435.518	2754.45
435.894	2807.33
436.269	2848.91
436.644	2897.04
437.02	2907.44
437.395	2901.11
437.77	2929.58
438.145	3003.71
438.52	3004.38
438.895	3078.51
439.271	3040.09
439.646	3172.74
440.021	3151.05
440.395	3169.58
440.77	3142.91
441.145	3201.22
441.52	3252.51
441.895	3235.11
442.27	3270.82
442.645	3345.39
443.019	3363.24
443.394	3371.83
443.769	3436.01
444.143	3385.39
444.518	3480.53
444.892	3439.85
445.267	3483.69
445.641	3506.74
446.016	3576.12
446.39	3577.93
446.764	3595.78
447.139	3626.51
447.513	3673.97
447.887	3689.34
448.262	3677.13
448.636	3644.59
449.01	3778.6
449.384	3791.71
449.758	3836.23
450.132	3904.25
450.506	3881.2
450.88	3936.56
451.254	3965.49
451.628	4025.6
452.002	4047.75
452.376	4092.72
452.75	4125.03
453.123	4139.04
453.497	4233.96
453.871	4307.85
454.244	4397.57
454.618	4408.42
454.992	4470.56
455.365	4456.78
455.739	4590.56
456.112	4643.21
456.486	4697
456.859	4713.27
457.232	4848.63
457.606	4794.85
457.979	4884.11
458.352	4962.3
458.725	5043.65
459.099	5093.82
459.472	5156.42
459.845	5241.84
460.218	5303.98
460.591	5329.07
460.964	5372.23
461.337	5525.9
461.71	5593.47
462.083	5642.28
462.456	5647.48
462.829	5701.71
463.201	5802.05
463.574	5830.98
463.947	5945.78
464.32	6085.43
464.692	6093.34
465.065	6186
465.438	6169.27
465.81	6329.27
466.183	6398.65
466.555	6512.77
466.928	6553.44
467.3	6586.21
467.672	6731.97
468.045	6917.28
468.417	6816.71
468.789	6915.24
469.161	6981.91
469.534	7172.86
469.906	7336.47
470.278	7359.3
470.65	7393.87
471.022	7632.74
471.394	7771.94
471.766	7771.72
472.138	7920.87
472.51	8122.44
472.882	8164.25
473.253	8285.38
473.625	8375.32
473.997	8614.63
474.369	8631.58
474.74	8775.08
475.112	8940.05
475.484	9131.68
475.855	9269.08
476.227	9310.21
476.598	9667.71
476.97	9640.37
477.341	9861.61
477.713	10050.53
478.084	10079.45
478.455	10437.41
478.827	10470.85
479.198	10753.56
479.569	10808.02
479.94	11140.67
480.311	11224.51
480.682	11512.41
481.053	11718.05
481.424	11925.51
481.795	12120.75
482.166	12236.01
482.537	12345.61
482.908	12626.96
483.279	12798.03
483.65	13040.96
484.021	13301.51
484.391	13455.18
484.762	13524.33
485.133	13637.1
485.503	13913.48
485.874	14172.9
486.244	14332.22
486.615	14665.09
486.985	14822.83
487.356	15097.85
487.726	15170.84
488.097	15560.44
488.467	15566.77
488.837	15903.25
489.207	16026.19
489.578	16254.21
489.948	16441.77
490.318	16738.26
490.688	16720.41
491.058	17042.43
491.428	17342.76
491.798	17451.24
492.168	17813.71
492.538	17823.43
492.908	18054.61
493.278	18319.91
493.648	18319.69
494.017	18578.66
494.387	18787.02
494.757	18909.05
495.126	19133.68
495.496	19240.79
495.866	19331.19
496.235	19557.62
496.605	19741.8
496.974	19941.57
497.344	20041.45
497.713	20222.91
498.082	20294.1
498.452	20620.87
498.821	20624.94
499.19	20808.66
499.559	21021.31
499.928	21164.81
500.298	21230.57
500.667	21478.7
501.036	21434.63
501.405	21705.36
501.774	21714.85
502.143	22012.02
502.512	22093.83
502.88	22292.46
503.249	22384.21
503.618	22556.41
503.987	22687.48
504.356	22943.75
504.724	22940.81
505.093	23113.91
505.462	23155.49
505.83	23381.02
506.199	23584.63
506.567	23870.73
506.936	23883.16
507.304	24186.88
507.672	24338.51
508.041	24427.78
508.409	24744.6
508.777	24806.75
509.145	24929.68
509.514	25025.27
509.882	25254.42
510.25	25302.33
510.618	25586.62
510.986	25709.32
511.354	25863.67
511.722	26260.95
512.09	26328.52
512.458	26471.34
512.826	26665.01
513.193	26796.53
513.561	26965.11
513.929	27269.51
514.297	27453.68
514.664	27587.92
515.032	27703.85
515.4	27988.81
515.767	28101.13
516.135	28289.14
516.502	28227.22
516.869	28705.86
517.237	28785.63
517.604	28867.66
517.972	29243.92
518.339	29370.92
518.706	29461.54
519.073	29758.71
519.44	29981.75
519.808	30297.23
520.175	30224.91
520.542	30644.56
520.909	30962.07
521.276	30860.15
521.643	31261.49
522.009	31463.07
522.376	31723.63
522.743	31893.57
523.11	32221.7
523.477	32457.17
523.843	32732.19
524.21	33075.46
524.577	33298.95
524.943	33455.11
525.31	33476.13
525.676	33998.82
526.043	34195.2
526.409	34268.2
526.776	34564.23
527.142	34767.62
527.508	35080.6
527.874	35411.67
528.241	35466.58
528.607	35515.85
528.973	35937.3
529.339	35980.92
529.705	36344.07
530.071	36561.69
530.437	36923.72
530.803	36906.09
531.169	37408.68
531.535	37077.61
531.901	37455.68
532.267	37615.9
532.632	37858.84
532.998	37964.14
533.364	38240.75
533.73	38247.07
534.095	38671.02
534.461	38773.61
534.826	38841.18
535.192	39048.41
535.557	39319.14
535.923	39393.03
536.288	39630.99
536.653	39697.66
537.019	39689.52
537.384	39939.01
537.749	40171.09
538.114	40313.91
538.479	40353.01
538.845	40634.81
539.21	40484.98
539.575	40831.41
539.94	40876.38
540.305	41177.17
540.67	41142.82
541.034	41212.65
541.399	41468.68
541.764	41643.37
542.129	41787.09
542.494	41907.32
542.858	41885.4
543.223	42013.08
543.587	42364.71
543.952	42451.03
544.316	42343.01
544.681	42617.13
545.045	42739.38
545.41	42839.5
545.774	43138.7
546.138	43013.05
546.503	43195.42
546.867	43305.7
547.231	43644.9
547.595	43743.43
547.959	43922.4
548.324	43838.79
548.688	44137.77
549.052	44203.3
549.416	44226.8
549.779	44527.13
550.143	44672.44
550.507	44896.39
550.871	44979.55
551.235	44933.23
551.599	45333.67
551.962	45284.63
552.326	45607.11
552.689	45671.51
553.053	45565.53
553.417	45847.33
553.78	46217.26
554.143	46180.42
554.507	46305.17
554.87	46629.68
555.234	46911.03
555.597	46645.04
555.96	46862.89
556.323	47044.81
556.686	47141.75
557.05	47390.79
557.413	47506.94
557.776	47714.4
558.139	48079.36
558.502	47894.28
558.865	48024.67
559.228	48446.35
559.59	48562.73
559.953	48561.6
560.316	49038.88
560.679	49034.59
561.041	49219.89
561.404	49533.1
561.767	49645.19
562.129	49606.77
562.492	49930.61
562.854	49888.35
563.217	49904.17
563.579	50137.16
563.941	50334.67
564.304	50524.94
564.666	50750.02
565.028	50856.23
565.39	50916.12
565.753	51161.76
566.115	51233.4
566.477	51435.65
566.839	51526.72
567.201	51630.9
567.563	51765.59
567.925	51939.59
568.287	51987.5
568.648	52005.58
569.01	52149.98
569.372	52456.87
569.734	52368.51
570.095	52603.53
570.457	52731.66
570.819	52787.93
571.18	52840.81
571.542	53001.71
571.903	52982.05
572.265	53102.73
572.626	53238.09
572.987	53261.59
573.349	53359.9
573.71	53504.3
574.071	53626.1
574.432	53662.26
574.794	53818.64
575.155	53880.56
575.516	53688.25
575.877	53930.28
576.238	53984.29
576.599	54041.23
576.96	54108.8
577.32	54193.32
577.681	54296.14
578.042	54301.79
578.403	54264.05
578.763	54327.78
579.124	54394.67
579.485	54502.92
579.845	54568.9
580.206	54469.02
580.566	54546.98
580.927	54552.18
581.287	54699.3
581.648	54634.21
582.008	54689.13
582.368	54635.12
582.728	54740.65
583.089	54744.49
583.449	54595.12
583.809	54707.88
584.169	54796.69
584.529	54709.69
584.889	54946.07
585.249	54686.42
585.609	54725.06
585.969	54860.2
586.329	54752.4
586.688	54793.31
587.048	54803.47
587.408	54727.54
587.768	54805.73
588.127	54819.75
588.487	54770.48
588.846	54932.51
589.206	54707.21
589.565	54770.25
589.925	54830.82
590.284	54796.92
590.643	54905.17
591.003	54903.36
591.362	54996.92
591.721	54983.81
592.08	54838.73
592.44	54996.46
592.799	54932.96
593.158	54907.65
593.517	54948.33
593.876	55030.13
594.235	54932.51
594.593	54975.45
594.952	55039.85
595.311	54918.5
595.67	55052.96
596.029	55190.13
596.387	55155.78
596.746	55209.79
597.104	55050.02
597.463	55108.1
597.822	55227.19
598.18	55106.29
598.538	55130.25
598.897	55279.85
599.255	55042.56
599.613	55481.65
599.972	55283.69
600.33	55221.77
600.688	55219.28
601.046	55320.97
601.404	55431.25
601.762	55400.75
602.12	55508.77
602.478	55561.65
602.836	55495.43
603.194	55395.32
603.552	55478.71
603.91	55323.69
604.268	55570.23
604.625	55448.66
604.983	55600.97
605.341	55473.29
605.698	55631.02
606.056	55607.52
606.413	55631.25
606.771	55692.04
607.128	55779.95
607.485	55614.3
607.843	55677.58
608.2	55817.23
608.557	55856.1
608.914	55769.78
609.272	55910.79
609.629	55981.75
609.986	56051.8
610.343	55869.21
610.7	56101.52
611.057	56022.65
611.414	56129.99
611.771	56066.94
612.127	56184.45
612.484	56134.96
612.841	56219.03
613.198	56117.79
613.554	56197.34
613.911	56291.34
614.267	56280.05
614.624	56268.97
614.98	56211.8
615.337	56462.19
615.693	56331.34
616.05	56344.68
616.406	56438.91
616.762	56308.29
617.118	56342.19
617.475	56428.97
617.831	56433.04
618.187	56493.15
618.543	56523.43
618.899	56638
619.255	56566.37
619.611	56478.46
619.967	56645.46
620.323	56679.81
620.678	56576.53
621.034	56531.79
621.39	56494.96
621.746	56457.89
622.101	56822.18
622.457	56463.54
622.812	56539.25
623.168	56696.53
623.523	56671.67
623.879	56720.49
624.234	56485.24
624.589	56645.01
624.945	56633.48
625.3	56628.29
625.655	56579.92
626.01	56682.52
626.365	56656.76
626.72	56639.36
627.075	56583.99
627.43	56568.85
627.785	56511.9
628.14	56617.44
628.495	56618.34
628.85	56583.77
629.205	56402.3
629.559	56546.25
629.914	56500.6
630.269	56492.92
630.623	56437.56
630.978	56349.42
631.332	56493.83
631.687	56504.9
632.041	56426.93
632.396	56369.76
632.75	56329.31
633.104	56339.25
633.459	56168.64
633.813	56232.14
634.167	56209.76
634.521	56151.69
634.875	56099.94
635.229	56038.24
635.583	55990.56
635.937	55938.13
636.291	55965.93
636.645	55938.59
636.999	55901.52
637.352	55995.76
637.706	55811.13
638.06	55941.52
638.413	55842.09
638.767	55727.29
639.121	55703.56
639.474	55678.25
639.828	55683.9
640.181	55595.32
640.534	55695.2
640.888	55594.19
641.241	55421.09
641.594	55558.03
641.947	55595.32
642.301	55438.03
642.654	55475.1
643.007	55376.57
643.36	55352.61
643.713	55360.07
644.066	55446.85
644.419	55163.46
644.771	54904.04
645.124	54689.35
645.477	54683.93
645.83	54554.89
646.182	54342.7
646.535	54271.96
646.888	54306.31
647.24	54139.99
647.593	54340.89
647.945	54266.54
648.298	54096.15
648.65	54070.84
649.002	54017.96
649.355	54055.02
649.707	54052.76
650.059	54177.05
650.411	54420.21
650.763	54477.38
651.115	54812.74
651.467	54688.22
651.819	54685.06
652.171	54580.66
652.523	54544.72
652.875	54571.39
653.227	54358.06
653.578	54553.09
653.93	54501.79
654.282	54279.65
654.633	54299.31
654.985	54308.12
655.337	54291.4
655.688	54319.19
656.039	54288.46
656.391	54058.18
656.742	54161.91
657.094	54069.71
657.445	54279.87
657.796	54074.23
658.147	54067.9
658.498	54032.42
658.849	54085.3
659.2	54087.79
659.551	53957.39
659.902	54124.62
660.253	53974.12
660.604	54015.25
660.955	53907.68
661.306	53975.47
661.656	53954.46
662.007	53904.97
662.358	53889.6
662.708	53852.99
663.059	53868.58
663.409	53706.33
663.76	53844.4
664.11	53773.67
664.461	53772.77
664.811	53889.37
665.161	53831.75
665.511	53656.16
665.862	53683.28
666.212	53777.51
666.562	53791.07
666.912	53647.57
667.262	53602.83
667.612	53695.48
667.962	53678.08
668.312	53525.99
668.662	53698.64
669.011	53611.87
669.361	53451.19
669.711	53542.26
670.06	53463.62
670.41	53374.81
670.76	53395.15
671.109	53437.18
671.459	53433.79
671.808	53348.82
672.157	53370.07
672.507	53158.32
672.856	53180.47
673.205	53147.25
673.554	53295.04
673.904	53224.98
674.253	53332.78
674.602	53197.87
674.951	52746.13
675.3	52611.89
675.649	53092.78
675.998	53012.56
676.346	53115.16
676.695	53062.96
677.044	52926.46
677.393	52953.81
677.741	53031.09
678.09	52861.6
678.438	52855.95
678.787	52858.21
679.135	52795.84
679.484	52670.2
679.832	52720.82
680.181	52583.42
680.529	52714.49
680.877	52597.2
681.225	52560.37
681.573	52772.79
681.922	52427.04
682.27	52388.4
682.618	52322.18
682.966	52276.31
683.314	52360.6
683.661	52237.67
684.009	51995.86
684.357	52020.95
684.705	52000.38
685.053	51948.63
685.4	51842.65
685.748	51733.27
686.095	51745.02
686.443	51558.36
686.79	51601.75
687.138	51653.5
687.485	51525.14
687.832	51492.15
688.18	51456.44
688.527	51247.86
688.874	51302.78
689.221	51150.91
689.568	51019.62
689.915	50959.96
690.262	50917.7
690.609	50818.49
690.956	50680.19
691.303	50651.49
691.65	50600.19
691.997	50537.37
692.344	50256.02
692.69	50268
693.037	50345.29
693.383	50031.85
693.73	50192.07
694.077	50017.39
694.423	49921.12
694.769	49722.48
695.116	49546.66
695.462	49696.72
695.808	49515.25
696.155	49536.72
696.501	49281.59
696.847	49288.82
697.193	48994.59
697.539	49231.19
697.885	48839.56
698.231	48637.53
698.577	48623.98
698.923	48602.28
699.269	48405.22
699.614	48279.58
699.96	48209.52
700.306	48210.43
700.651	48001.62
700.997	47820.83
701.342	47904.45
701.688	47810.66
702.033	47634.17
702.379	47625.13
702.724	47520.95
703.069	47564.34
703.415	47131.36
703.76	47158.25
704.105	47079.84
704.45	46915.09
704.795	46715.55
705.14	46730.01
705.485	46617.25
705.83	46456.8
706.175	46499.06
706.52	46337.48
706.865	46098.39
707.209	46245.73
707.554	46010.26
707.899	46090.26
708.243	45869.25
708.588	45822.69
708.932	45473.78
709.277	45522.81
709.621	45483.72
709.966	45223.39
710.31	45304.74
710.654	44992.21
710.998	45117.4
711.342	44987.24
711.687	45002.38
712.031	44766.68
712.375	44579.56
712.719	44798.09
713.063	44661.14
713.407	44672.67
713.75	44494.37
714.094	44359.68
714.438	44149.07
714.782	44221.61
715.125	43986.36
715.469	44041.5
715.812	43870.65
716.156	43728.29
716.499	43727.83
716.843	43689.64
717.186	43392.47
717.53	43585.92
717.873	43547.73
718.216	43446.94
718.559	43250.78
718.902	42910.91
719.246	43126.49
719.589	42933.73
719.932	42775.54
720.275	42720.85
720.617	42763.56
720.96	42587.52
721.303	42694.19
721.646	42676.56
721.989	42307.08
722.331	42431.37
722.674	42352.95
723.016	42334.42
723.359	42240.19
723.701	42239.51
724.044	41988.67
724.386	41660.32
724.729	41930.37
725.071	41829.13
725.413	41731.5
725.755	41718.17
726.097	41498.97
726.439	41318.41
726.782	41455.8
727.124	41424.39
727.465	41308.69
727.807	41290.61
728.149	41139.65
728.491	40974.01
728.833	41184.17
729.175	40923.16
729.516	40946.66
729.858	40948.47
730.199	40814.46
730.541	40680.91
730.882	40820.34
731.224	40767.01
731.565	40544.64
731.906	40472.78
732.248	40364.31
732.589	40276.62
732.93	40248.38
733.271	40355.94
733.612	40266.91
733.953	40272.1
734.294	40153.92
734.635	39917.76
734.976	40106.01
735.317	39847.48
735.658	39743.31
735.999	39730.42
736.339	39459.7
736.68	39709.86
737.021	39539.24
737.361	39427.16
737.702	39654.49
738.042	39331.11
738.383	39290.66
738.723	39261.06
739.063	38997.79
739.404	39214.96
739.744	39215.41
740.084	38861.07
740.424	38956.66
740.764	38799.83
741.104	38977.9
741.444	38770
741.784	38648.64
742.124	38775.42
742.464	38700.39
742.804	38466.95
743.143	38555.99
743.483	38360.74
743.823	38276.68
744.162	38228.32
744.502	38182.22
744.841	38051.15
745.181	38253.4
745.52	38013.86
745.86	38076
746.199	37946.97
746.538	37900.87
746.877	37854.77
747.216	37923.69
747.556	37599.41
747.895	37570.48
748.234	37505.4
748.573	37344.05
748.911	37349.24
749.25	37393.76
749.589	37248.91
749.928	37166.2
750.267	37266.99
750.605	37156.03
750.944	37073.77
751.283	36966.88
751.621	36978.18
751.96	36808.24
752.298	36848.01
752.636	36671.97
752.975	36411.64
753.313	36446.67
753.651	36570.96
753.989	36280.35
754.327	36194.7
754.666	35974.14
755.004	36050.75
755.342	36099.56
755.679	36002.61
756.017	35714.48
756.355	35859.34
756.693	35585.67
757.031	35658.21
757.368	35371.89
757.706	35419.13
758.044	35214.84
758.381	35081.51
758.719	35100.26
759.056	35062.52
759.394	34993.83
759.731	34740.95
760.068	34661.18
760.405	34532.37
760.743	34478.81
761.08	34480.84
761.417	34361.07
761.754	34225.48
762.091	34237.69
762.428	33962.21
762.765	33854.87
763.102	33802.22
763.438	33758.83
763.775	33641.09
764.112	33594.54
764.449	33585.05
764.785	33301.21
765.122	33204.04
765.458	33032.97
765.795	33055.8
766.131	32982.13
766.467	32908.23
766.804	32670.04
767.14	32498.75
767.476	32638.41
767.812	32376.72
768.148	32396.61
768.485	32144.41
768.821	31945.54
769.157	31845.43
769.492	31808.6
769.828	31771.76
770.164	31480.02
770.5	31470.75
770.836	31517.98
771.171	31239.57
771.507	31140.82
771.842	30982.63
772.178	30985.57
772.513	30812.01
772.849	30822.18
773.184	30638.01
773.519	30563.43
773.855	30340.16
774.19	30308.3
774.525	30161.41
774.86	30234.4
775.195	30058.59
775.53	29957.8
775.865	29824.92
776.2	29621.09
776.535	29469.9
776.87	29469.68
777.205	29326.63
777.539	29198.72
777.874	29272.39
778.209	28923.48
778.543	28880.31
778.878	28805.29
779.212	28794.21
779.547	28592.86
779.881	28560.55
780.215	28418.41
780.55	28478.06
780.884	28333.89
781.218	28214.34
781.552	28087.79
781.886	27954.01
782.22	27836.27
782.554	27704.53
782.888	27539.11
783.222	27375.27
783.556	27278.55
783.889	27215.05
784.223	27082.85
784.557	27013.02
784.89	27034.03
785.224	26935.28
785.557	26819.8
785.891	26745.45
786.224	26560.6
786.558	26631.33
786.891	26340.27
787.224	26171.46
787.557	26232.02
787.891	26077.68
788.224	26072.93
788.557	26032.25
788.89	25893.5
789.223	25895.76
789.556	25685.14
789.888	25499.61
790.221	25478.82
790.554	25395.66
790.887	25372.38
791.219	25224.37
791.552	25209
791.884	24959.29
792.217	24970.13
792.549	24841.32
792.882	24667.32
793.214	24520.43
793.546	24626.87
793.879	24443.82
794.211	24373.99
794.543	24436.14
794.875	24208.57
795.207	24365.18
795.539	24043.38
795.871	24194.79
796.203	23829.37
796.535	23858.98
796.867	23930.39
797.198	23707.34
797.53	23622.83
797.862	23524.3
798.193	23530.62
798.525	23350.06
798.856	23466.22
799.188	23151.65
799.519	23058.77
799.85	22972.9
800.182	23021.94
800.513	23051.77
800.844	22730.65
801.175	22938.1
801.506	22763.41
801.837	22697.88
802.168	22591.89
802.499	22559.8
802.83	22539.69
803.161	22433.7
803.491	22421.05
803.822	22296.98
804.153	22270.77
804.483	22044.34
804.814	22017.9
805.145	22065.35
805.475	22029.42
805.805	21928.86
806.136	21846.15
806.466	21919.37
806.796	21701.52
807.126	21509.43
807.457	21576.55
807.787	21554.63
808.117	21462.66
808.447	21365.26
808.777	21402.09
809.107	21254.98
809.436	21315.32
809.766	21231.48
810.096	21104.7
810.426	21036.9
810.755	21032.38
811.085	20891.82
811.414	20980.18
811.744	20670.59
812.073	20663.35
812.403	20694.54
812.732	20515.79
813.061	20542
813.39	20529.8
813.719	20296.81
814.049	20429.01
814.378	20332.74
814.707	20258.39
815.036	20350.82
815.365	20086.65
815.693	19955.13
816.022	19993.99
816.351	19926.2
816.68	19770.27
817.008	19883.26
817.337	19724.62
817.665	19800.78
817.994	19762.14
818.322	19699.99
818.651	19664.51
818.979	19572.76
819.307	19763.49
819.636	19601.91
819.964	19403.73
820.292	19490.96
820.62	19437.62
820.948	19347.68
821.276	19441.92
821.604	19389.04
821.932	19391.3
822.259	19347.01
822.587	19412.31
822.915	19327.57
823.243	19352.2
823.57	19308.59
823.898	19341.58
824.225	19221.36
824.553	19289.61
824.88	19305.65
825.207	19338.87
825.535	19246.44
825.862	19288.93
826.189	19236.73
826.516	19312.88
826.843	19326.44
827.17	19328.47
827.497	19334.35
827.824	19391.07
828.151	19238.08
828.478	19215.71
828.805	19320.11
829.131	19298.42
829.458	19211.87
829.785	19130.29
830.111	19222.71
830.438	19181.81
830.764	19172.32
831.09	19110.18
831.417	19104.53
831.743	19188.37
832.069	19077.86
832.395	19052.78
832.722	19114.02
833.048	19114.24
833.374	18986.34
833.7	19002.16
834.026	19079.44
834.351	19046.45
834.677	18993.34
835.003	19001.7
835.329	18950.63
835.654	18805.78
835.98	18870.18
836.306	18890.29
836.631	18816.17
836.956	18773.91
837.282	18788.15
837.607	18726.68
837.932	18615.27
838.258	18646.46
838.583	18691.2
838.908	18502.06
839.233	18576.18
839.558	18487.14
839.883	18475.39
840.208	18405.79
840.533	18333.7
840.858	18395.39
841.182	18405.56
841.507	18320.59
841.832	18166.7
842.156	18250.54
842.481	18222.06
842.805	18153.36
843.13	18111.33
843.454	18031.56
843.778	18032.24
844.103	17987.49
844.427	17938.68
844.751	17935.97
845.075	17842.86
845.399	17729.19
845.723	17634.73
846.047	17848.97
846.371	17611.68
846.695	17541.63
847.019	17469.54
847.343	17406.27
847.666	17191.36
847.99	17262.99
848.313	17172.83
848.637	17083.11
848.96	17020.29
849.284	17026.16
849.607	16942.1
849.931	16678.83
850.254	16613.07
850.577	16662.1
850.9	16551.15
851.223	16489.68
851.546	16445.16
851.869	16291.72
852.192	16350.02
852.515	16238.16
852.838	16116.13
853.161	16195.22
853.483	16030.03
853.806	16048.56
854.129	16018.05
854.451	15936.25
854.774	15873.65
855.096	15728.12
855.419	15911.84
855.741	15681.79
856.063	15714.11
856.385	15571.06
856.708	15627.33
857.03	15467.11
857.352	15461.91
857.674	15513.21
857.996	15371.74
858.318	15338.07
858.64	15295.59
858.961	15240.45
859.283	15232.31
859.605	15123.84
859.926	15139.43
860.248	15079.77
860.57	15083.84
860.891	15010.17
861.212	14966.56
861.534	14952.32
861.855	14933.11
862.176	14928.36
862.498	15005.42
862.819	14886.33
863.14	14774.92
863.461	14751.42
863.782	14701.48
864.103	14697.86
864.424	14666.22
864.745	14697.41
865.065	14513.23
865.386	14585.55
865.707	14525.21
866.027	14570.41
866.348	14516.4
866.668	14586.45
866.989	14392.33
867.309	14336.74
867.63	14303.75
867.95	14373.58
868.27	14338.55
868.59	14230.3
868.91	14215.61
869.23	14155.05
869.55	14173.58
869.87	14227.82
870.19	14178.1
870.51	14180.59
870.83	14081.16
871.15	14003.19
871.469	14039.8
871.789	14100.59
872.109	14084.54
872.428	13987.82
872.748	14037.31
873.067	14048.84
873.386	13983.08
873.706	13963.42
874.025	13946.47
874.344	13853.14
874.663	13908.73
874.982	13895.17
875.301	13769.3
875.62	13796.64
875.939	13776.76
876.258	13781.5
876.577	13694.05
876.896	13619.7
877.214	13570.89
877.533	13620.83
877.852	13626.25
878.17	13616.53
878.489	13634.39
878.807	13560.04
879.125	13476.43
879.444	13598.91
879.762	13544.67
880.08	13479.14
880.398	13500.61
880.716	13418.8
881.034	13336.99
881.352	13459.02
881.67	13289.31
881.988	13280.05
882.306	13294.06
882.624	13328.63
882.941	13227.39
883.259	13149.65
883.577	13101.29
883.894	13079.37
884.212	13029.43
884.529	13128.41
884.846	12999.38
885.164	13028.98
885.481	12948.08
885.798	12945.14
886.115	12876.22
886.432	12876.89
886.75	12804.8
887.067	12824.69
887.383	12787.4
887.7	12796.9
888.017	12660.4
888.334	12647.52
888.651	12643.68
888.967	12624.02
889.284	12544.92
889.6	12535.89
889.917	12387.41
890.233	12432.61
890.55	12423.8
890.866	12388.77
891.182	12344.25
891.498	12361.88
891.815	12265.16
892.131	12204.59
892.447	12195.56
892.763	12177.93
893.079	12097.48
893.395	12029.91
893.71	12075.11
894.026	12002.57
894.342	11989.46
894.657	11942.23
894.973	11851.84
895.289	11814.77
895.604	11858.39
895.92	11840.99
896.235	11702.91
896.55	11710.82
896.865	11636.7
897.181	11646.19
897.496	11613.88
897.811	11540.21
898.126	11549.92
898.441	11441.68
898.756	11477.61
899.071	11373.88
899.386	11357.16
899.7	11345.41
900.015	11156.94
900.33	11207.78
900.644	11110.61
900.959	11168.24
901.273	11089.37
901.588	11002.37
901.902	10953.33
902.216	10895.02
902.531	10976.38
902.845	10873.56
903.159	10812.31
903.473	10832.2
903.787	10781.35
904.101	10678.08
904.415	10700.68
904.729	10584.52
905.042	10558.99
905.356	10550.4
905.67	10492.32
905.984	10452.55
906.297	10404.42
906.611	10393.34
906.924	10392.66
907.237	10300.69
907.551	10255.04
907.864	10244.42
908.177	10241.26
908.491	10155.16
908.804	10090.98
909.117	10077.19
909.43	10002.39
909.743	9956.74
910.056	9951.09
910.368	9916.74
910.681	9908.16
910.994	9871.55
911.307	9750.87
911.619	9690.54
911.932	9686.02
912.244	9681.04
912.557	9653.7
912.869	9587.94
913.181	9574.61
913.494	9516.3
913.806	9447.83
914.118	9436.08
914.43	9461.16
914.742	9322.41
915.054	9289.64
915.366	9334.61
915.678	9248.51
915.99	9226.14
916.302	9174.17
916.613	9121.29
916.925	9082.42
917.236	8980.05
917.548	9052.81
917.859	8984.79
918.171	8934.17
918.482	8834.06
918.794	8851.69
919.105	8780.28
919.416	8752.71
919.727	8787.28
920.038	8721.97
920.349	8664.8
920.66	8578.93
920.971	8599.94
921.282	8512.49
921.593	8529.89
921.903	8436.56
922.214	8446.05
922.525	8400.17
922.835	8352.27
923.146	8320.85
923.456	8297.13
923.767	8213.74
924.077	8241.99
924.387	8156.11
924.697	8168.99
925.008	8100.97
925.318	8121.99
925.628	8041.31
925.938	8038.6
926.248	7999.06
926.558	8015.55
926.867	7930.81
927.177	7877.25
927.487	7807.42
927.796	7763.13
928.106	7756.8
928.416	7733.07
928.725	7671.15
929.034	7669.12
929.344	7695.33
929.653	7543.7
929.962	7517.26
930.271	7544.83
930.581	7478.62
930.89	7430.71
931.199	7429.13
931.508	7418.73
931.817	7338.28
932.125	7351.16
932.434	7377.38
932.743	7209.92
933.051	7225.29
933.36	7234.33
933.669	7178.51
933.977	7112.52
934.286	7077.72
934.594	7077.5
934.902	7025.3
935.21	6998.63
935.519	7018.97
935.827	6969.03
936.135	6869.37
936.443	6859.65
936.751	6839.76
937.059	6812.19
937.367	6789.14
937.674	6802.02
937.982	6778.3
938.29	6719.31
938.597	6729.26
938.905	6603.16
939.213	6630.73
939.52	6570.84
939.827	6593.67
940.135	6532.2
940.442	6490.17
940.749	6451.75
941.056	6456.27
941.363	6412.43
941.67	6399.1
941.977	6377.85
942.284	6281.81
942.591	6256.05
942.898	6267.58
943.205	6240.68
943.511	6215.15
943.818	6151.19
944.125	6103.96
944.431	6116.39
944.738	6092.21
945.044	6082.95
945.35	6062.83
945.657	6016.51
945.963	6002.72
946.269	5943.29
946.575	5935.38
946.881	5920.01
947.187	5851.54
947.493	5854.48
947.799	5855.38
948.105	5859
948.41	5759.34
948.716	5752.56
949.022	5703.07
949.327	5687.03
949.633	5650.64
949.938	5655.16
950.244	5667.59
950.549	5559.57
950.854	5546.01
951.16	5538.78
951.465	5491.78
951.77	5510.76
952.075	5414.04
952.38	5486.35
952.685	5456.52
952.99	5376.98
953.294	5373.81
953.599	5395.73
953.904	5341.05
954.209	5287.71
954.513	5265.12
954.818	5271.67
955.122	5206.13
955.426	5194.38
955.731	5186.93
956.035	5146.25
956.339	5134.72
956.643	5115.97
956.948	5063.99
957.252	5129.75
957.556	5071
957.86	5054.95
958.163	5002.52
958.467	4986.25
958.771	4969.53
959.075	4905.35
959.378	4943.77
959.682	4913.03
959.985	4893.6
960.289	4864.9
960.592	4816.99
960.896	4804.79
961.199	4763.89
961.502	4784.9
961.805	4733.38
962.108	4722.08
962.411	4713.04
962.714	4659.26
963.017	4631.46
963.32	4635.98
963.623	4609.77
963.926	4621.06
964.228	4534.97
964.531	4584
964.833	4538.58
965.136	4505.14
965.438	4483.22
965.741	4457
966.043	4479.6
966.345	4449.77
966.648	4411.35
966.95	4412.03
967.252	4399.38
967.554	4349.66
967.856	4335.65
968.158	4310.11
968.46	4301.53
968.761	4315.31
969.063	4301.53
969.365	4228.31
969.666	4259.27
969.968	4182.88
970.269	4172.94
970.571	4149.21
970.872	4150.34
971.174	4122.55
971.475	4108.31
971.776	4095.88
972.077	4081.42
972.378	4024.24
972.679	4040.06
972.98	3999.61
973.281	3961.2
973.582	3979.5
973.883	3951.93
974.183	3940.18
974.484	3944.02
974.785	3871.03
975.085	3916.22
975.386	3854.08
975.686	3840.07
975.986	3871.71
976.287	3795.32
976.587	3772.95
976.887	3788.77
977.187	3809.56
977.487	3760.52
977.787	3748.55
978.087	3675.78
978.387	3716
978.687	3694.99
978.987	3686.4
979.286	3637.81
979.586	3628.55
979.885	3620.64
980.185	3592.84
980.484	3576.8
980.784	3584.93
981.083	3542.45
981.382	3573.86
981.682	3498.83
981.981	3474.43
982.28	3465.16
982.579	3474.65
982.878	3415.67
983.177	3473.3
983.475	3421.77
983.774	3410.93
984.073	3390.14
984.372	3382.68
984.67	3324.38
984.969	3327.77
985.267	3313.3
985.566	3349.91
985.864	3312.62
986.162	3271.95
986.461	3285.73
986.759	3268.56
987.057	3230.14
987.355	3163.48
987.653	3193.53
987.951	3208.45
988.249	3168.22
988.547	3176.81
988.844	3153.31
989.142	3127.09
989.44	3099.75
989.737	3094.78
990.035	3094.78
990.332	3063.82
990.63	3105.17
990.927	3051.16
991.224	3031.73
991.521	3031.95
991.819	3005.06
992.116	3036.25
992.413	2987.89
992.71	2963.03
993.006	2931.62
993.303	2916.48
993.6	2954.44
993.897	2950.37
994.193	2897.27
994.49	2904.05
994.787	2875.35
995.083	2855.24
995.379	2842.13
995.676	2796.03
995.972	2789.02
996.268	2775.92
996.565	2751.06
996.861	2787.21
997.157	2735.46
997.453	2666.09
997.749	2722.81
998.044	2683.94
998.34	2722.81
998.636	2678.97
998.932	2662.47
999.227	2634.22
999.523	2616.37
999.818	2616.6
1000.114	2594
1000.409	2582.47
1000.704	2566.66
1001	2553.55
1001.295	2542.93
1001.59	2547.45
1001.885	2518.07
1002.18	2510.61
1002.475	2485.75
1002.77	2455.92
1003.065	2494.34
1003.359	2422.7
1003.654	2435.59
1003.949	2400.11
1004.243	2425.19
1004.538	2386.55
1004.832	2374.12
1005.127	2360.79
1005.421	2357.4
1005.715	2336.83
1006.009	2300.45
1006.304	2294.57
1006.598	2268.13
1006.892	2279.88
1007.186	2248.02
1007.48	2255.25
1007.773	2243.05
1008.067	2229.04
1008.361	2180.23
1008.655	2158.08
1008.948	2209.15
1009.242	2168.47
1009.535	2157.4
1009.829	2178.87
1010.122	2152.43
1010.415	2139.55
1010.708	2123.28
1011.001	2118.76
1011.295	2073.56
1011.588	2074.47
1011.881	2071.3
1012.173	2078.98
1012.466	2055.48
1012.759	2040.34
1013.052	2024.07
1013.344	2031.08
1013.637	1982.94
1013.93	1938.42
1014.222	1971.87
1014.514	1946.33
1014.807	1926.9
1015.099	1939.1
1015.391	1930.51
1015.683	1888.93
1015.976	1916.28
1016.268	1893
1016.56	1880.57
1016.851	1840.8
1017.143	1842.38
1017.435	1828.14
1017.727	1787.69
1018.018	1808.48
1018.31	1788.15
1018.602	1777.75
1018.893	1762.38
1019.185	1783.4
1019.476	1758.99
1019.767	1746.11
1020.058	1715.83
1020.35	1740.01
1020.641	1674.7
1020.932	1689.16
1021.223	1676.74
1021.514	1656.85
1021.804	1671.54
1022.095	1638.09
1022.386	1617.53
1022.677	1596.51
1022.967	1627.92
1023.258	1595.16
1023.548	1587.02
1023.839	1560.35
1024.129	1550.64
1024.419	1557.64
1024.709	1520.36
1025	1545.44
1025.29	1532.78
1025.58	1516.29
1025.87	1504.54
1026.16	1474.93
1026.449	1496.4
1026.739	1456.4
1027.029	1452.33
1027.319	1464.54
1027.608	1448.27
1027.898	1448.04
1028.187	1423.41
1028.477	1445.33
1028.766	1394.03
1029.055	1382.73
1029.344	1399.68
1029.634	1366.69
1029.923	1370.08
1030.212	1385.22
1030.501	1357.2
1030.79	1334.82
1031.078	1308.84
1031.367	1315.62
1031.656	1301.38
1031.945	1309.51
1032.233	1300.25
1032.522	1295.05
1032.81	1267.48
1033.099	1287.14
1033.387	1276.52
1033.675	1226.13
1033.963	1225
1034.251	1232.91
1034.54	1236.75
1034.828	1219.8
1035.116	1194.04
1035.403	1182.06
1035.691	1168.05
1035.979	1182.29
1036.267	1165.34
1036.554	1169.86
1036.842	1171.66
1037.129	1170.76
1037.417	1128.28
1037.704	1140.48
1037.992	1126.02
1038.279	1097.32
1038.566	1102.97
1038.853	1102.97
1039.14	1102.97
