Data from White_reflection_standard_FLMS001491_098.txt Node
Date: Tue Feb 07 10:32:14 GMT 2017
User: dcchb
Spectrometer: FLMS00149
Trigger mode: 0
Integration Time (sec): 2.000000E-2
Scans to average: 10
Electric dark correction enabled: true
Nonlinearity correction enabled: false
Boxcar width: 0
XAxis mode: Wavelengths
Number of Pixels in Spectrum: 2048
>>>>>Begin Spectral Data<<<<<
341.393	-6.65
341.776	-6.65
342.16	-6.65
342.543	-45.97
342.927	-60.21
343.31	-58.18
343.693	-68.57
344.077	-82.81
344.46	-68.57
344.843	-64.28
345.226	-36.03
345.61	-36.71
345.993	-33.09
346.376	-5.52
346.759	17.98
347.142	36.51
347.525	39
347.908	69.28
348.291	80.13
348.674	93.68
349.057	117.19
349.44	105.66
349.823	160.8
350.206	182.72
350.588	214.81
350.971	239.22
351.354	267.69
351.737	276.96
352.119	275.37
352.502	297.52
352.884	311.53
353.267	337.52
353.65	347.91
354.032	345.65
354.414	351.76
354.797	362.38
355.179	377.07
355.562	357.18
355.944	379.1
356.326	380
356.709	394.92
357.091	380.23
357.473	388.37
357.855	382.26
358.238	397.63
358.62	386.56
359.002	381.36
359.384	413.9
359.766	417.29
360.148	417.07
360.53	393.79
360.912	384.75
361.294	413.45
361.676	413
362.057	407.12
362.439	403.05
362.821	405.77
363.203	393.79
363.584	417.52
363.966	408.7
364.348	406.44
364.729	421.58
365.111	400.79
365.493	401.25
365.874	409.38
366.256	423.62
366.637	430.62
367.019	425.43
367.4	418.2
367.781	408.7
368.163	431.3
368.544	418.2
368.925	424.3
369.306	415.94
369.688	420.46
370.069	433.34
370.45	431.08
370.831	415.94
371.212	428.59
371.593	443.73
371.974	427.69
372.355	442.38
372.736	448.02
373.117	449.38
373.498	457.29
373.879	449.61
374.26	420.91
374.641	445.99
375.021	468.82
375.402	463.17
375.783	483.73
376.163	492.54
376.544	501.81
376.925	500.45
377.305	473.56
377.686	493.67
378.066	486.89
378.447	486.44
378.827	521.92
379.208	527.12
379.588	534.58
379.968	520.79
380.349	528.47
380.729	519.21
381.109	526.89
381.489	560.56
381.87	536.16
382.25	566.21
382.63	530.28
383.01	556.95
383.39	540.9
383.77	551.75
384.15	573.45
384.53	580.22
384.91	577.51
385.29	596.27
385.67	613.9
386.049	617.06
386.429	603.95
386.809	620.9
387.189	634.01
387.568	637.4
387.948	623.16
388.328	653.9
388.707	650.96
389.087	664.52
389.466	686.89
389.846	661.35
390.225	716.27
390.605	674.91
390.984	704.74
391.363	705.19
391.743	725.08
392.122	704.52
392.501	731.63
392.881	731.86
393.26	764.85
393.639	761.91
394.018	771.86
394.397	775.47
394.776	793.33
395.155	765.08
395.534	795.36
395.913	803.27
396.292	794.23
396.671	819.99
397.05	827.22
397.429	827.9
397.808	833.1
398.186	835.36
398.565	841.91
398.944	864.51
399.323	870.61
399.701	882.59
400.08	885.53
400.458	905.64
400.837	910.16
401.215	923.49
401.594	939.99
401.972	944.28
402.351	932.31
402.729	938.18
403.107	958.52
403.486	972.3
403.864	997.62
404.242	1018.41
404.62	1025.86
404.999	1041.68
405.377	1020.67
405.755	1038.52
406.133	1068.12
406.511	1051.4
406.889	1096.6
407.267	1122.58
407.645	1110.15
408.023	1133.66
408.401	1155.12
408.779	1183.6
409.156	1191.51
409.534	1211.85
409.912	1206.42
410.29	1241
410.667	1281.22
411.045	1297.27
411.422	1291.62
411.8	1270.38
412.178	1311.51
412.555	1368
412.933	1364.84
413.31	1377.94
413.687	1383.59
414.065	1406.64
414.442	1431.73
414.819	1446.87
415.197	1442.58
415.574	1459.3
415.951	1508.34
416.328	1493.87
416.705	1516.02
417.082	1535.68
417.46	1539.07
417.837	1537.49
418.214	1582.23
418.591	1598.96
418.967	1617.03
419.344	1619.52
419.721	1657.48
420.098	1672.85
420.475	1688.9
420.852	1721.21
421.228	1712.17
421.605	1730.7
421.982	1765.28
422.358	1808.67
422.735	1791.27
423.111	1832.85
423.488	1854.32
423.864	1861.77
424.241	1882.11
424.617	1899.06
424.994	1924.82
425.37	1932.05
425.746	1952.62
426.123	1943.8
426.499	1976.57
426.875	2023.35
427.251	2037.14
427.627	2087.53
428.003	2119.17
428.379	2158.04
428.756	2145.83
429.132	2222.89
429.507	2242.33
429.883	2249.79
430.259	2292.72
430.635	2346.51
431.011	2354.87
431.387	2382.21
431.763	2441.19
432.138	2487.75
432.514	2500.4
432.89	2454.75
433.265	2541.76
433.641	2591.02
434.016	2642.09
434.392	2704.69
434.767	2720.28
435.143	2751.02
435.518	2748.76
435.894	2786.27
436.269	2818.58
436.644	2886.15
437.02	2886.83
437.395	2926.83
437.77	2956.21
438.145	3017.9
438.52	3028.52
438.895	3071.01
439.271	3068.75
439.646	3144.9
440.021	3123.43
440.395	3180.16
440.77	3181.29
441.145	3162.53
441.52	3267.16
441.895	3248.63
442.27	3312.81
442.645	3308.74
443.019	3342.86
443.394	3372.69
443.769	3427.16
444.143	3388.96
444.518	3494.05
444.892	3492.46
445.267	3477.78
445.641	3584.44
446.016	3546.25
446.39	3570.65
446.764	3610.88
447.139	3625.79
447.513	3669.86
447.887	3719.58
448.262	3708.5
448.636	3723.65
449.01	3753.93
449.384	3814.94
449.758	3854.26
450.132	3904.21
450.506	3924.32
450.88	3934.03
451.254	3945.56
451.628	4016.97
452.002	4058.78
452.376	4066.01
452.75	4166.12
453.123	4184.65
453.497	4206.34
453.871	4288.38
454.244	4341.71
454.618	4386.68
454.992	4515.04
455.365	4498.99
455.739	4619.89
456.112	4640.23
456.486	4697.4
456.859	4712.77
457.232	4800.9
457.606	4808.36
457.979	4847.91
458.352	4954.8
458.725	4995.7
459.099	5079.54
459.472	5198.86
459.845	5228.92
460.218	5307.11
460.591	5317.28
460.964	5314.79
461.337	5499.42
461.71	5597.04
462.083	5611.96
462.456	5635.46
462.829	5675.46
463.201	5802.69
463.574	5868.9
463.947	5915.45
464.32	6064.15
464.692	6079.06
465.065	6136.24
465.438	6231.6
465.81	6303.46
466.183	6421.2
466.555	6568.77
466.928	6575.1
467.3	6630.69
467.672	6703.23
468.045	6851.47
468.417	6907.74
468.789	6994.29
469.161	7036.33
469.534	7159.94
469.906	7310.22
470.278	7309.09
470.65	7458.46
471.022	7667.04
471.394	7728.29
471.766	7832.46
472.138	7904.55
472.51	8068.84
472.882	8266.12
473.253	8309.74
473.625	8464.76
473.997	8596.29
474.369	8641.93
474.74	8821.14
475.112	8997.86
475.484	9111.98
475.855	9254.8
476.227	9295.02
476.598	9618.86
476.97	9690.72
477.341	9919.41
477.713	10020.65
478.084	10163.93
478.455	10388.33
478.827	10507.65
479.198	10820.86
479.569	10753.06
479.94	11168.42
480.311	11228.53
480.682	11478.47
481.053	11722.53
481.424	11859.48
481.795	11949.19
482.166	12201.61
482.537	12371.78
482.908	12660.81
483.279	12874.14
483.65	13105.32
484.021	13267.35
484.391	13395.26
484.762	13546.66
485.133	13728.35
485.503	13901
485.874	14139.87
486.244	14364.04
486.615	14718.61
486.985	14748.44
487.356	15053.52
487.726	15193.4
488.097	15533.28
488.467	15549.55
488.837	15887.17
489.207	16014.62
489.578	16331
489.948	16432.01
490.318	16762.62
490.688	16834.26
491.058	17036.74
491.428	17322.16
491.798	17475.37
492.168	17857.74
492.538	17876.27
492.908	18091.18
493.278	18269.93
493.648	18310.15
494.017	18618.17
494.387	18821.55
494.757	18918.95
495.126	19209.34
495.496	19153.3
495.866	19425.38
496.235	19664.92
496.605	19823.11
496.974	19923.67
497.344	20105.36
497.713	20161.86
498.082	20411.12
498.452	20497.67
498.821	20658.34
499.19	20777.43
499.559	20977.2
499.928	21161.38
500.298	21199.8
500.667	21527.24
501.036	21429.39
501.405	21668.26
501.774	21839.1
502.143	21977.85
502.512	22079.32
502.88	22315.02
503.249	22339.43
503.618	22651.28
503.987	22712.52
504.356	22821.67
504.724	22973.99
505.093	22990.48
505.462	23164.04
505.83	23490.36
506.199	23650.35
506.567	23887.41
506.936	23953.17
507.304	24196.78
507.672	24274.74
508.041	24453.27
508.409	24509.09
508.777	24832.47
509.145	24988.4
509.514	24997.21
509.882	25338.22
510.25	25271.1
510.618	25449.63
510.986	25570.98
511.354	25895.94
511.722	26201.25
512.09	26372.54
512.458	26405.31
512.826	26674.23
513.193	26803.94
513.561	26979.98
513.929	27138.17
514.297	27363.02
514.664	27589.68
515.032	27632.39
515.4	27911.26
515.767	28171.59
516.135	28241.87
516.502	28085.72
516.869	28674.63
517.237	28850.89
517.604	28783.1
517.972	29189.42
518.339	29389.86
518.706	29483.19
519.073	29623.3
519.44	29915.95
519.808	30298.99
520.175	30166.79
520.542	30769.04
520.909	30846.55
521.276	30828.47
521.643	31148.46
522.009	31525.4
522.376	31662.12
522.743	31979.85
523.11	32162.67
523.477	32566.95
523.843	32717.23
524.21	32995.64
524.577	33278.35
524.943	33521.51
525.31	33650.09
525.676	33892.57
526.043	34131.21
526.409	34249.85
526.776	34686.67
527.142	34753.56
527.508	35030.62
527.874	35314
528.241	35488.69
528.607	35517.61
528.973	35962.35
529.339	35989.24
529.705	36338.38
530.071	36572.72
530.437	36739.27
530.803	37096.33
531.169	37229.88
531.535	37248.41
531.901	37523.43
532.267	37571.12
532.632	37826.93
532.998	38089.75
533.364	38257.65
533.73	38453.81
534.095	38594.37
534.461	38762.95
534.826	38946.45
535.192	38853.34
535.557	39473.21
535.923	39382.59
536.288	39554.12
536.653	39744.39
537.019	39700.1
537.384	39983.03
537.749	40060.09
538.114	40289.01
538.479	40333.3
538.845	40617.36
539.21	40404.94
539.575	40776.23
539.94	40756.57
540.305	41139.38
540.67	41021.87
541.034	41252.83
541.399	41441.75
541.764	41569.66
542.129	41760.61
542.494	41876.54
542.858	42058.68
543.223	41990.89
543.587	42271.33
543.952	42392.68
544.316	42383.87
544.681	42447.37
545.045	42668.16
545.41	42963.97
545.774	43064.08
546.138	43180.01
546.503	43184.08
546.867	43286.22
547.231	43803.95
547.595	43675.36
547.959	43877.39
548.324	43954.23
548.688	44104.05
549.052	44312.63
549.416	44243.94
549.779	44458.62
550.143	44647.77
550.507	44834.2
550.871	45003.24
551.235	44985.38
551.599	45213.18
551.962	45396
552.326	45621.3
552.689	45870.79
553.053	45565.71
553.417	45764.12
553.78	46315.07
554.143	46156.88
554.507	46378.57
554.87	46508.96
555.234	46799.12
555.597	46658.34
555.96	46960.25
556.323	47122.73
556.686	47167.47
557.05	47512.1
557.413	47546.45
557.776	47642.04
558.139	47971.52
558.502	48083.83
558.865	48167.9
559.228	48443.15
559.59	48638.62
559.953	48564.73
560.316	49006.75
560.679	48993.64
561.041	49281.77
561.404	49462.78
561.767	49696.9
562.129	49634.53
562.492	49964.69
562.854	49989.32
563.217	49804.02
563.579	50225.25
563.941	50425.69
564.304	50564.67
564.666	50842.41
565.028	50775.74
565.39	50893.93
565.753	51102.06
566.115	51333.69
566.477	51441.49
566.839	51438.1
567.201	51743.17
567.563	51796.96
567.925	51971.64
568.287	51918.31
568.648	52096.61
569.01	52215.03
569.372	52467.9
569.734	52330.5
570.095	52632.19
570.457	52716.26
570.819	52725.07
571.18	52768.01
571.542	53048.9
571.903	52955.8
572.265	53216.81
572.626	53247.31
572.987	53257.71
573.349	53389.68
573.71	53536.57
574.071	53560.53
574.432	53680.3
574.794	53859.73
575.155	53830.58
575.516	53833.51
575.877	53988.99
576.238	53942.89
576.599	54045.26
576.96	54120.51
577.32	54022.66
577.681	54288.64
578.042	54306.5
578.403	54307.63
578.763	54311.92
579.124	54477.11
579.485	54414.52
579.845	54616.32
580.206	54504.91
580.566	54494.51
580.927	54588.07
581.287	54707.16
581.648	54529.77
582.008	54726.82
582.368	54643.21
582.728	54753.94
583.089	54713.49
583.449	54691.12
583.809	54708.75
584.169	54752.36
584.529	54760.5
584.889	54948.29
585.249	54826.93
585.609	54686.37
585.969	54892.02
586.329	54744.22
586.688	54791.23
587.048	54759.14
587.408	54751
587.768	54825.13
588.127	54864.45
588.487	54716.88
588.846	54936.76
589.206	54783.55
589.565	54762.53
589.925	55004.33
590.284	54773.6
590.643	54880.49
591.003	54943.99
591.362	54945.58
591.721	54955.07
592.08	54903.09
592.44	54983.31
592.799	55030.54
593.158	54956.87
593.517	54941.96
593.876	55005.46
594.235	54824.45
594.593	55001.17
594.952	55059.92
595.311	55030.09
595.67	55018.79
596.029	55181.95
596.387	55195.74
596.746	55223.08
597.104	55121.84
597.463	55119.58
597.822	55184.89
598.18	55144.44
598.538	55085.23
598.897	55303.76
599.255	55054.27
599.613	55473.47
599.972	55261.72
600.33	55272.12
600.688	55241.16
601.046	55364.1
601.404	55468.73
601.762	55405
602.12	55500.59
602.478	55534.94
602.836	55438.9
603.194	55366.35
603.552	55462.17
603.91	55338.33
604.268	55454.71
604.625	55538.55
604.983	55580.13
605.341	55479.12
605.698	55627.82
606.056	55652.45
606.413	55625.78
606.771	55726.57
607.128	55777.42
607.485	55639.34
607.843	55695.84
608.2	55830.52
608.557	55916.85
608.914	55745.33
609.272	55880.24
609.629	55955.49
609.986	56080.91
610.343	55910.3
610.7	56101.25
611.057	56005.43
611.414	55963.85
611.771	56082.95
612.127	56177.86
612.484	56114.81
612.841	56200.23
613.198	56197.07
613.554	56128.14
613.911	56291.08
614.267	56209.04
614.624	56188.71
614.98	56298.99
615.337	56401.36
615.693	56394.12
616.05	56370.85
616.406	56440.68
616.762	56382.15
617.118	56387.35
617.475	56457.17
617.831	56472.09
618.187	56485.2
618.543	56466.21
618.899	56630.5
619.255	56587.34
619.611	56562.48
619.967	56661.91
620.323	56654.91
620.678	56544.4
621.034	56519.54
621.39	56547.57
621.746	56484.52
622.101	56780.33
622.457	56493.1
622.812	56554.8
623.168	56590.05
623.523	56665.08
623.879	56719.09
624.234	56529.26
624.589	56679.09
624.945	56666.89
625.3	56680.9
625.655	56634.12
626.01	56653.78
626.365	56654
626.72	56530.84
627.075	56640.9
627.43	56574.46
627.785	56552.54
628.14	56576.04
628.495	56650.39
628.85	56635.47
629.205	56472.54
629.559	56635.25
629.914	56433.9
630.269	56468.92
630.623	56363.16
630.978	56382.37
631.332	56487
631.687	56567.91
632.041	56317.06
632.396	56390.51
632.75	56375.37
633.104	56335.59
633.459	56248.82
633.813	56205.65
634.167	56233
634.521	56108.71
634.875	56195.03
635.229	56161.81
635.583	55944.87
635.937	55990.29
636.291	55878.43
636.645	56018.32
636.999	55921.37
637.352	55946.45
637.706	55806.12
638.06	55884.76
638.413	55861.26
638.767	55712.56
639.121	55788.49
639.474	55676.86
639.828	55617.42
640.181	55649.06
640.534	55607.7
640.888	55548.05
641.241	55415.85
641.594	55526.58
641.947	55481.61
642.301	55449.97
642.654	55483.64
643.007	55415.85
643.36	55395.51
643.713	55320.71
644.066	55409.74
644.419	55229.18
644.771	55000.04
645.124	54698.58
645.477	54725.24
645.83	54508.07
646.182	54358.7
646.535	54325.48
646.888	54425.81
647.24	54154.18
647.593	54315.76
647.945	54336.55
648.298	54133.39
648.65	54081.19
649.002	54008.2
649.355	54200.51
649.707	53937.24
650.059	54128.2
650.411	54489.99
650.763	54540.39
651.115	54746.48
651.467	54548.52
651.819	54608.63
652.171	54580.39
652.523	54607.73
652.875	54468.98
653.227	54391.01
653.578	54527.28
653.93	54480.05
654.282	54320.73
654.633	54257.23
654.985	54318.02
655.337	54238.93
655.688	54287.74
656.039	54331.35
656.391	54104.02
656.742	54188.31
657.094	54185.14
657.445	54256.55
657.796	54114.18
658.147	54069.44
658.498	54089.33
658.849	54120.74
659.2	54017.92
659.551	53956.67
659.902	54078.03
660.253	54000.06
660.604	53950.35
660.955	53816.57
661.306	53959.84
661.656	53902.66
662.007	53899.95
662.358	53834.42
662.708	53908.99
663.059	53857.69
663.409	53651.82
663.76	53878.26
664.11	53843.01
664.461	53871.7
664.811	53817.24
665.161	53739.51
665.511	53686.85
665.862	53656.12
666.212	53724.82
666.562	53762.1
666.912	53638.49
667.262	53636.91
667.612	53587.19
667.962	53605.27
668.312	53584.71
668.662	53640.98
669.011	53652.5
669.361	53537.02
669.711	53521.21
670.06	53458.38
670.41	53431.94
670.76	53307.43
671.109	53503.35
671.459	53389.01
671.808	53283.02
672.157	53389.23
672.507	53193.3
672.856	53214.1
673.205	53251.61
673.554	53301.1
673.904	53155.11
674.253	53297.93
674.602	53149.01
674.951	52787.67
675.3	52696.14
675.649	53109.92
675.998	53016.36
676.346	53040.99
676.695	53119.41
677.044	52833.31
677.393	52998.51
677.741	53008.22
678.09	52826.99
678.438	52907.66
678.787	52870.83
679.135	52952.86
679.484	52643.26
679.832	52786.31
680.181	52575.02
680.529	52690.49
680.877	52532.31
681.225	52525.98
681.573	52789.93
681.922	52423.83
682.27	52393.55
682.618	52416.38
682.966	52282.37
683.314	52291.86
683.661	52196.72
684.009	52123.95
684.357	51991.08
684.705	51976.61
685.053	51962.6
685.4	51922.83
685.748	51851.42
686.095	51704.98
686.443	51680.12
686.79	51579.11
687.138	51695.94
687.485	51553.12
687.832	51445.1
688.18	51504.54
688.527	51245.33
688.874	51362.17
689.221	51263.86
689.568	50957.88
689.915	50948.84
690.262	51016.86
690.609	50856.64
690.956	50753.14
691.303	50727.83
691.65	50608.29
691.997	50521.06
692.344	50384.79
692.69	50287.62
693.037	50358.58
693.383	50046.27
693.73	50159.26
694.077	49874.07
694.423	49902.32
694.769	49690.57
695.116	49707.75
695.462	49643.79
695.808	49478.37
696.155	49443.35
696.501	49235.22
696.847	49291.26
697.193	48929.91
697.539	49086.07
697.885	48813.53
698.231	48686.3
698.577	48717.49
698.923	48646.31
699.269	48490.83
699.614	48343.04
699.96	48198.18
700.306	48228.24
700.651	48086.77
700.997	47863.28
701.342	47864.18
701.688	47706.9
702.033	47649.27
702.379	47541.48
702.724	47428.94
703.069	47617.41
703.415	47146.68
703.76	47094.93
704.105	47077.76
704.45	46952.11
704.795	46760.03
705.14	46644.78
705.485	46649.75
705.83	46363.2
706.175	46427.15
706.52	46394.84
706.865	46225.13
707.209	46133.83
707.554	45945.36
707.899	46085.7
708.243	45974.96
708.588	45711.47
708.932	45578.82
709.277	45546.27
709.621	45522.77
709.966	45230.12
710.31	45316.45
710.654	45099.28
710.998	45080.3
711.342	45014.54
711.687	45017.25
712.031	44739.97
712.375	44496.13
712.719	44608.67
713.063	44537.71
713.407	44655.22
713.75	44362.12
714.094	44337.04
714.438	44144.28
714.782	44225.86
715.125	43993.32
715.469	44150.15
715.812	43852.31
716.156	43603.27
716.499	43726.66
716.843	43664.74
717.186	43512.88
717.53	43657.06
717.873	43512.88
718.216	43435.37
718.559	43197.86
718.902	43027.24
719.246	43015.27
719.589	42926
719.932	42715.84
720.275	42834.26
720.617	42775.27
720.96	42522.85
721.303	42545.22
721.646	42692.79
721.989	42252.8
722.331	42325.57
722.674	42374.38
723.016	42387.26
723.359	42183.65
723.701	42186.14
724.044	42042.86
724.386	41782.53
724.729	42078.12
725.071	41833.15
725.413	41728.75
725.755	41780.5
726.097	41553.84
726.439	41431.13
726.782	41473.16
727.124	41544.12
727.465	41313.84
727.807	41290.11
728.149	41246.27
728.491	41088.31
728.833	41156.33
729.175	40958.82
729.516	40801.54
729.858	40845.15
730.199	40844.48
730.541	40825.49
730.882	40612.39
731.224	40811.03
731.565	40506.18
731.906	40613.07
732.248	40451.49
732.589	40281.55
732.93	40163.14
733.271	40327.88
733.612	40196.58
733.953	40228.45
734.294	40136.02
734.635	39965.4
734.976	40049.02
735.317	39748.23
735.658	39812.87
735.999	39745.97
736.339	39659.2
736.68	39702.13
737.021	39555.02
737.361	39345.76
737.702	39438.64
738.042	39342.37
738.383	39163.84
738.723	39286.78
739.063	38941.25
739.404	39346.66
739.744	39070.06
740.084	38922.04
740.424	38857.18
740.764	38892.44
741.104	38863.29
741.444	38769.5
741.784	38622.16
742.124	38769.96
742.464	38608.83
742.804	38518.44
743.143	38479.79
743.483	38397.99
743.823	38195.28
744.162	38188.05
744.502	38327.03
744.841	38017.88
745.181	38256.75
745.52	38052.69
745.86	38115.96
746.199	37917.77
746.538	37818.12
746.877	37901.28
747.216	37904.44
747.556	37580.38
747.895	37707.61
748.234	37559.82
748.573	37369.54
748.911	37436.88
749.25	37448.63
749.589	37242.76
749.928	37285.25
750.267	37302.88
750.605	37174.29
750.944	37028.98
751.283	36928.42
751.621	36953.05
751.96	36626.96
752.298	36757.8
752.636	36688.43
752.975	36527.98
753.313	36344.03
753.651	36528.88
753.989	36287.08
754.327	36253.19
754.666	35978.16
755.004	35989.24
755.342	36181.55
755.679	36013.42
756.017	35767.55
756.355	35877.6
756.693	35614.11
757.031	35634.67
757.368	35354.45
757.706	35437.16
758.044	35112.2
758.381	35211.4
758.719	35210.73
759.056	35171.86
759.394	34949.04
759.731	34641.7
760.068	34670.18
760.405	34611.19
760.743	34497.53
761.08	34452.1
761.417	34311.99
761.754	34274.93
762.091	34145.44
762.428	33952.68
762.765	33808.73
763.102	34055.73
763.438	33762.18
763.775	33481.96
764.112	33608.51
764.449	33609.64
764.785	33394.73
765.122	33287.16
765.458	33046.94
765.795	33062.53
766.131	33023.44
766.467	32868.87
766.804	32765.14
767.14	32533.06
767.476	32472.49
767.812	32423.46
768.148	32392.95
768.485	32092.16
768.821	32082.9
769.157	31999.96
769.492	31921.32
769.828	31807.65
770.164	31563.36
770.5	31545.29
770.836	31394.33
771.171	31350.26
771.507	31142.13
771.842	31043.6
772.178	30997.28
772.513	30931.74
772.849	30905.98
773.184	30624.86
773.519	30591.19
773.855	30424.64
774.19	30396.16
774.525	30231.2
774.86	30223.06
775.195	30137.19
775.53	30021.94
775.865	29802.96
776.2	29609.07
776.535	29420.14
776.87	29418.11
777.205	29322.75
777.539	29189.87
777.874	29323.65
778.209	28986.26
778.543	28875.53
778.878	28770.44
779.212	28686.83
779.547	28446.84
779.881	28622.88
780.215	28345.37
780.55	28464.01
780.884	28212.04
781.218	28228.54
781.552	28188.76
781.886	27946.28
782.22	27898.15
782.554	27769.79
782.888	27484.6
783.222	27445.96
783.556	27341.1
783.889	27146.76
784.223	27078.96
784.557	26961
784.89	27026.08
785.224	26836.48
785.557	26680.33
785.891	26761.68
786.224	26581.12
786.558	26592.2
786.891	26374.35
787.224	26334.12
787.557	26223.84
787.891	26090.74
788.224	26128.71
788.557	26023.62
788.89	25918.09
789.223	25812.78
789.556	25576.86
789.888	25648.72
790.221	25465.9
790.554	25300.93
790.887	25336.18
791.219	25176.19
791.552	25133.03
791.884	25050.77
792.217	25024.1
792.549	24825.01
792.882	24663.89
793.214	24541.4
793.546	24622.76
793.879	24523.78
794.211	24376.44
794.543	24470.67
794.875	24257.12
795.207	24323.33
795.539	24202.65
795.871	24162.2
796.203	23886.96
796.535	23914.07
796.867	23843.79
797.198	23736.9
797.53	23672.5
797.862	23546.85
798.193	23662.56
798.525	23405.16
798.856	23398.16
799.188	23268.44
799.519	23135.56
799.85	23004.04
800.182	22995.68
800.513	23069.8
800.844	22800.66
801.175	23040.43
801.506	22869.58
801.837	22759.98
802.168	22797.72
802.499	22641.57
802.83	22486.32
803.161	22414.9
803.491	22363.61
803.822	22366.77
804.153	22300.33
804.483	22046.55
804.814	22042.26
805.145	22011.75
805.475	22030.51
805.805	21924.3
806.136	21832.77
806.466	21879.78
806.796	21820.34
807.126	21580.58
807.457	21419.45
807.787	21612.89
808.117	21485.21
808.447	21420.13
808.777	21409.73
809.107	21359.57
809.436	21256.52
809.766	21220.13
810.096	21122.96
810.426	21054.04
810.755	21054.04
811.085	20995.51
811.414	20878.9
811.744	20792.12
812.073	20775.17
812.403	20669.64
812.732	20457.22
813.061	20497.22
813.39	20394.17
813.719	20356.43
814.049	20407.27
814.378	20376.09
814.707	20238.01
815.036	20226.94
815.365	20087.73
815.693	19863.33
816.022	20007.96
816.351	19973.39
816.68	19880.28
817.008	19933.39
817.337	19751.25
817.665	19727.97
817.994	19744.47
818.322	19723.45
818.651	19592.61
818.979	19528.43
819.307	19599.84
819.636	19481.2
819.964	19499.28
820.292	19471.25
820.62	19427.19
820.948	19365.95
821.276	19421.54
821.604	19449.56
821.932	19394.42
822.259	19452.72
822.587	19306.29
822.915	19280.98
823.243	19402.78
823.57	19295.89
823.898	19377.92
824.225	19211.37
824.553	19260.86
824.88	19250.69
825.207	19345.16
825.535	19198.49
825.862	19324.59
826.189	19183.8
826.516	19323.23
826.843	19311.94
827.17	19290.24
827.497	19225.16
827.824	19275.78
828.151	19175.22
828.478	19224.93
828.805	19351.26
829.131	19239.85
829.458	19213.18
829.785	19180.64
830.111	19097.03
830.438	19325.95
830.764	19292.28
831.09	19206.63
831.417	19065.16
831.743	19238.27
832.069	19156.91
832.395	19066.74
832.722	19101.55
833.048	18996.92
833.374	19099.74
833.7	18952.85
834.026	18988.55
834.351	19113.52
834.677	18926.64
835.003	19056.35
835.329	19039.4
835.654	18945.39
835.98	18796.02
836.306	18834.89
836.631	18829.01
836.956	18811.61
837.282	18730.48
837.607	18703.59
837.932	18615.23
838.258	18728.9
838.583	18636.02
838.908	18557.61
839.233	18604.84
839.558	18518.28
839.883	18448.68
840.208	18447.55
840.533	18469.7
840.858	18424.95
841.182	18405.29
841.507	18399.87
841.832	18214.79
842.156	18254.56
842.481	18216.6
842.805	18154.45
843.13	18187.22
843.454	18076.71
843.778	18028.35
844.103	18009.82
844.427	17956.72
844.751	17947.9
845.075	17835.82
845.399	17756.27
845.723	17765.31
846.047	17748.14
846.371	17637.86
846.695	17594.47
847.019	17483.96
847.343	17425.21
847.666	17280.8
847.99	17226.11
848.313	17240.13
848.637	17047.14
848.96	17086.23
849.284	17029.96
849.607	16848.27
849.931	16858.21
850.254	16655.06
850.577	16638.11
850.9	16591.33
851.223	16483.99
851.546	16464.1
851.869	16354.5
852.192	16431.79
852.515	16288.74
852.838	16167.84
853.161	16173.26
853.483	16153.37
853.806	16056.2
854.129	15972.36
854.451	15921.74
854.774	15852.82
855.096	15823.21
855.419	15738.7
855.741	15773.72
856.063	15647.85
856.385	15655.76
856.708	15586.61
857.03	15545.26
857.352	15477.91
857.674	15443.79
857.996	15373.96
858.318	15294.41
858.64	15240.4
858.961	15234.98
859.283	15260.97
859.605	15118.37
859.926	15200.63
860.248	15078.15
860.57	15060.75
860.891	15035.21
861.212	14915.22
861.534	14859.17
861.855	14903.24
862.176	14880.19
862.498	14908.21
862.819	14874.31
863.14	14794.77
863.461	14757.48
863.782	14657.82
864.103	14703.02
864.424	14640.42
864.745	14679.06
865.065	14574.66
865.386	14524.04
865.707	14586.86
866.027	14528.33
866.348	14544.83
866.668	14524.94
866.989	14363.14
867.309	14249.47
867.63	14338.96
867.95	14314.78
868.27	14248.11
868.59	14372.18
868.91	14201.79
869.23	14244.05
869.55	14084.05
869.87	14246.98
870.19	14129.02
870.51	14159.08
870.83	14201.79
871.15	14008.35
871.469	14071.17
871.789	14104.16
872.109	14102.81
872.428	14021.23
872.748	13996.14
873.067	14045.63
873.386	13999.31
873.706	13893.55
874.025	13893.77
874.344	13845.41
874.663	13888.8
874.982	13765.64
875.301	13780.1
875.62	13780.78
875.939	13762.93
876.258	13770.16
876.577	13738.75
876.896	13718.64
877.214	13701.69
877.533	13649.94
877.852	13617.85
878.17	13517.96
878.489	13624.4
878.807	13605.19
879.125	13524.74
879.444	13563.84
879.762	13567.23
880.08	13438.19
880.398	13400.68
880.716	13334.47
881.034	13355.71
881.352	13335.6
881.67	13322.04
881.988	13296.27
882.306	13219.44
882.624	13209.72
882.941	13212.44
883.259	13145.54
883.577	13211.98
883.894	13119.33
884.212	13044.08
884.529	13081.59
884.846	12997.3
885.164	12961.37
885.481	12941.93
885.798	12994.14
886.115	12859.9
886.432	12854.93
886.75	12799.79
887.067	12885.89
887.383	12752.33
887.7	12827.81
888.017	12747.14
888.334	12721.6
888.651	12657.2
888.967	12559.12
889.284	12549.4
889.6	12527.03
889.917	12418.56
890.233	12506.24
890.55	12390.31
890.866	12445.9
891.182	12354.83
891.498	12289.75
891.815	12246.13
892.131	12224.89
892.447	12201.39
892.763	12223.99
893.079	12124.78
893.395	12036.19
893.71	12029.64
894.026	11929.53
894.342	11955.97
894.657	11921.62
894.973	11849.76
895.289	11900.38
895.604	11833.26
895.92	11818.12
896.235	11753.04
896.55	11686.6
896.865	11692.02
897.181	11585.59
897.496	11665.58
897.811	11558.02
898.126	11534.29
898.441	11449.54
898.756	11439.37
899.071	11352.82
899.386	11337.46
899.7	11304.24
900.015	11180.62
900.33	11178.82
900.644	11186.73
900.959	11123.45
901.273	11112.38
901.588	11027.63
901.902	11010.23
902.216	10937.69
902.531	10913.96
902.845	10880.74
903.159	10809.33
903.473	10777.47
903.787	10822.44
904.101	10672.16
904.415	10681.2
904.729	10651.82
905.042	10522.11
905.356	10538.16
905.67	10549.68
905.984	10503.58
906.297	10482.56
906.611	10393.53
906.924	10350.14
907.237	10279.18
907.551	10298.16
907.864	10252.74
908.177	10242.57
908.491	10247.99
908.804	10095.45
909.117	10061.11
909.43	10023.14
909.743	9989.24
910.056	9932.52
910.368	9962.8
910.681	9878.74
910.994	9823.82
911.307	9824.5
911.619	9721.68
911.932	9689.82
912.244	9681.45
912.557	9656.37
912.869	9571.4
913.181	9507.22
913.494	9492.53
913.806	9432.87
914.118	9456.6
914.43	9368.47
914.742	9372.76
915.054	9286.66
915.366	9268.58
915.678	9245.53
915.99	9191.98
916.302	9151.3
916.613	9104.52
916.925	9099.77
917.236	9073.56
917.548	8956.95
917.859	9023.84
918.171	8921.47
918.482	8875.15
918.794	8856.17
919.105	8830.4
919.416	8768.03
919.727	8846.9
920.038	8797.41
920.349	8635.15
920.66	8636.96
920.971	8587.02
921.282	8452.11
921.593	8497.08
921.903	8491.66
922.214	8446.46
922.525	8402.84
922.835	8364.88
923.146	8301.6
923.456	8305.45
923.767	8294.15
924.077	8230.87
924.387	8143.87
924.697	8100.71
925.008	8086.02
925.318	8047.83
925.628	8072.68
925.938	8060.25
926.248	7957.88
926.558	7966.25
926.867	8004.44
927.177	7857.1
927.487	7869.98
927.796	7747.04
928.106	7783.88
928.416	7681.96
928.725	7713.82
929.034	7644.45
929.344	7727.16
929.653	7659.81
929.962	7558.57
930.271	7513.38
930.581	7539.59
930.89	7460.95
931.199	7416.66
931.508	7391.57
931.817	7405.81
932.125	7396.32
932.434	7368.07
932.743	7210.33
933.051	7205.36
933.36	7208.75
933.669	7151.35
933.977	7114.52
934.286	7095.53
934.594	7021.64
934.902	7058.02
935.21	7009.66
935.519	7012.15
935.827	6938.48
936.135	6883.56
936.443	6856.67
936.751	6814.86
937.059	6831.59
937.367	6814.86
937.674	6743.45
937.982	6728.99
938.29	6737.8
938.597	6689.22
938.905	6586.62
939.213	6641.31
939.52	6558.37
939.827	6610.8
940.135	6503.23
940.442	6498.26
940.749	6476.34
941.056	6513.18
941.363	6441.99
941.67	6371.03
941.977	6321.32
942.284	6323.58
942.591	6270.47
942.898	6230.47
943.205	6229.12
943.511	6205.39
943.818	6164.03
944.125	6136.69
944.431	6084.49
944.738	6117.93
945.044	6061.21
945.35	6037.48
945.657	6008.1
945.963	5999.74
946.269	5937.82
946.575	5936.92
946.881	5875.45
947.187	5919.07
947.493	5823.93
947.799	5820.54
948.105	5820.31
948.41	5775.79
948.716	5738.96
949.022	5749.58
949.327	5684.72
949.633	5649.7
949.938	5657.83
950.244	5674.1
950.549	5604.05
950.854	5597.04
951.16	5541.45
951.465	5502.36
951.77	5507.78
952.075	5483.82
952.38	5472.98
952.685	5382.13
952.99	5374.22
953.294	5401.34
953.599	5378.06
953.904	5301.91
954.209	5306.65
954.513	5296.94
954.818	5281.12
955.122	5295.58
955.426	5258.52
955.731	5156.83
956.035	5141.01
956.339	5183.04
956.643	5146.66
956.948	5099.43
957.252	5069.37
957.556	5063.27
957.86	5073.67
958.163	5008.81
958.467	4963.84
958.771	5005.87
959.075	4942.82
959.378	4919.32
959.682	4905.99
959.985	4868.02
960.289	4904.86
960.592	4803.16
960.896	4818.76
961.199	4788.93
961.502	4798.19
961.805	4745.09
962.108	4715.94
962.411	4672.55
962.714	4691.53
963.017	4674.35
963.32	4702.15
963.623	4600.68
963.926	4590.51
964.228	4551.65
964.531	4507.58
964.833	4552.78
965.136	4495.38
965.438	4522.04
965.741	4498.09
966.043	4491.99
966.345	4427.58
966.648	4411.54
966.95	4408.6
967.252	4425.55
967.554	4349.84
967.856	4324.31
968.158	4301.48
968.46	4324.08
968.761	4318.43
969.063	4265.78
969.365	4222.16
969.666	4212.45
969.968	4241.6
970.269	4180.36
970.571	4167.02
970.872	4128.83
971.174	4110.75
971.475	4119.11
971.776	4143.97
972.077	4045.22
972.378	4057.87
972.679	4017.42
972.98	4017.65
973.281	4007.48
973.582	3951.89
973.883	3960.02
974.183	3974.49
974.484	3956.41
974.785	3916.63
975.085	3920.48
975.386	3890.65
975.686	3857.65
975.986	3797.77
976.287	3829.4
976.587	3774.72
976.887	3788.28
977.187	3765.68
977.487	3732.68
977.787	3767.26
978.087	3699.01
978.387	3679.35
978.687	3678.22
978.987	3651.78
979.286	3617.21
979.586	3595.96
979.885	3596.64
980.185	3613.14
980.484	3552.8
980.784	3567.49
981.083	3558.9
981.382	3537.66
981.682	3537.89
981.981	3546.02
982.28	3510.32
982.579	3448.85
982.878	3425.35
983.177	3432.13
983.475	3435.97
983.774	3400.26
984.073	3424.22
984.372	3370.21
984.67	3318.68
984.969	3345.58
985.267	3334.73
985.566	3325.92
985.864	3277.1
986.162	3304
986.461	3267.39
986.759	3247.95
987.057	3258.12
987.355	3203.88
987.653	3187.84
987.951	3203.43
988.249	3179.93
988.547	3150.1
988.844	3136.99
989.142	3126.82
989.44	3115.98
989.737	3141.74
990.035	3084.57
990.332	3060.61
990.63	3043.44
990.927	3054.28
991.224	3040.27
991.521	2993.04
991.819	3011.35
992.116	3015.64
992.413	2968.41
992.71	2932.03
993.006	2926.83
993.303	2945.36
993.6	2915.08
993.897	2908.75
994.193	2905.36
994.49	2861.52
994.787	2839.37
995.083	2820.17
995.379	2879.6
995.676	2835.08
995.972	2805.7
996.268	2761.86
996.565	2757.34
996.861	2759.6
997.157	2766.83
997.453	2706.04
997.749	2701.53
998.044	2705.82
998.34	2692.49
998.636	2685.03
998.932	2649.77
999.227	2643.45
999.523	2634.41
999.818	2637.8
1000.114	2567.07
1000.409	2596.67
1000.704	2546.73
1001	2560.29
1001.295	2546.27
1001.59	2519.61
1001.885	2527.97
1002.18	2480.29
1002.475	2477.35
1002.77	2478.48
1003.065	2444.81
1003.359	2436.67
1003.654	2459.27
1003.949	2449.55
1004.243	2397.13
1004.538	2367.07
1004.832	2365.26
1005.127	2382.66
1005.421	2356.68
1005.715	2353.29
1006.009	2342.21
1006.304	2285.49
1006.598	2310.57
1006.892	2290.01
1007.186	2254.31
1007.48	2268.09
1007.773	2222.22
1008.067	2224.7
1008.361	2199.17
1008.655	2208.43
1008.948	2198.26
1009.242	2185.15
1009.535	2157.13
1009.829	2144.7
1010.122	2139.96
1010.415	2123.24
1010.708	2116
1011.001	2086.4
1011.295	2109.22
1011.588	2061.54
1011.881	2051.6
1012.173	2059.51
1012.466	2050.02
1012.759	2009.34
1013.052	2019.74
1013.344	1989.91
1013.637	2017.25
1013.93	1959.85
1014.222	1980.64
1014.514	1957.36
1014.807	1940.19
1015.099	1925.27
1015.391	1892.28
1015.683	1900.64
1015.976	1902.22
1016.268	1878.27
1016.56	1864.94
1016.851	1851.38
1017.143	1826.75
1017.435	1842.56
1017.727	1806.18
1018.018	1801.89
1018.31	1784.94
1018.602	1792.17
1018.893	1769.8
1019.185	1783.36
1019.476	1745.62
1019.767	1730.7
1020.058	1697.94
1020.35	1687.54
1020.641	1702.91
1020.932	1694.77
1021.223	1678.95
1021.514	1669.91
1021.804	1631.27
1022.095	1655
1022.386	1595.11
1022.677	1625.85
1022.967	1609.12
1023.258	1591.27
1023.548	1576.13
1023.839	1576.81
1024.129	1553.08
1024.419	1554.89
1024.709	1551.95
1025	1532.29
1025.29	1507.43
1025.58	1499.07
1025.87	1481.22
1026.16	1450.26
1026.449	1469.47
1026.739	1453.42
1027.029	1475.57
1027.319	1428.79
1027.608	1439.64
1027.898	1444.16
1028.187	1436.25
1028.477	1392.63
1028.766	1405.06
1029.055	1383.59
1029.344	1369.81
1029.634	1363.93
1029.923	1366.42
1030.212	1358.96
1030.501	1318.74
1030.79	1361.45
1031.078	1339.75
1031.367	1334.33
1031.656	1298.62
1031.945	1293.65
1032.233	1296.82
1032.522	1297.04
1032.81	1294.78
1033.099	1242.35
1033.387	1266.99
1033.675	1255.69
1033.963	1249.59
1034.251	1226.99
1034.54	1237.38
1034.828	1223.6
1035.116	1193.54
1035.403	1203.49
1035.691	1179.98
1035.979	1192.41
1036.267	1159.42
1036.554	1173.88
1036.842	1169.81
1037.129	1149.02
1037.417	1145.63
1037.704	1128.91
1037.992	1116.93
1038.279	1114.67
1038.566	1132.75
1038.853	1132.75
1039.14	1132.75
