Data from white_steel_sheet_FLMS001491_062.txt Node
Date: Tue Feb 07 10:58:15 GMT 2017
User: dcchb
Spectrometer: FLMS00149
Trigger mode: 0
Integration Time (sec): 2.000000E-2
Scans to average: 10
Electric dark correction enabled: true
Nonlinearity correction enabled: false
Boxcar width: 0
XAxis mode: Wavelengths
Number of Pixels in Spectrum: 2048
>>>>>Begin Spectral Data<<<<<
341.393	-10.62
341.776	-10.62
342.16	-10.62
342.543	-81.13
342.927	-63.95
343.31	-82.71
343.693	-62.37
344.077	-50.17
344.46	-47.23
344.843	-56.95
345.226	-53.33
345.61	-52.43
345.993	-37.97
346.376	7.68
346.759	12.2
347.142	22.37
347.525	49.49
347.908	49.49
348.291	93.56
348.674	97.62
349.057	110.73
349.44	130.39
349.823	136.95
350.206	155.93
350.588	184.63
350.971	216.49
351.354	230.05
351.737	236.83
352.119	256.04
352.502	247.45
352.884	279.99
353.267	283.38
353.65	304.17
354.032	284.06
354.414	311.86
354.797	318.64
355.179	310.05
355.562	321.12
355.944	325.64
356.326	313.89
356.709	337.84
357.091	362.25
357.473	344.62
357.855	360.44
358.238	347.11
358.62	342.14
359.002	341.23
359.384	337.17
359.766	348.01
360.148	349.14
360.53	344.17
360.912	331.06
361.294	331.97
361.676	336.04
362.057	332.42
362.439	319.09
362.821	322.25
363.203	332.65
363.584	327
363.966	342.36
364.348	324.29
364.729	321.12
365.111	319.99
365.493	290.16
365.874	333.1
366.256	324.06
366.637	311.63
367.019	310.27
367.4	322.03
367.781	329.48
368.163	327.68
368.544	327
368.925	345.53
369.306	318.41
369.688	338.97
370.069	322.25
370.45	322.25
370.831	327.9
371.212	330.61
371.593	315.7
371.974	303.49
372.355	320.22
372.736	332.42
373.117	329.48
373.498	336.94
373.879	333.32
374.26	331.52
374.641	296.94
375.021	308.01
375.402	334.23
375.783	332.42
376.163	322.93
376.544	331.97
376.925	334
377.305	330.61
377.686	341.91
378.066	359.54
378.447	350.05
378.827	350.5
379.208	335.13
379.588	355.02
379.968	346.43
380.349	335.81
380.729	347.11
381.109	372.87
381.489	346.88
381.87	353.44
382.25	365.19
382.63	366.77
383.01	369.03
383.39	353.89
383.77	365.64
384.15	369.93
384.53	351.18
384.91	371.06
385.29	383.49
385.67	376.04
386.049	380.55
386.429	364.96
386.809	382.81
387.189	377.39
387.568	400.89
387.948	399.09
388.328	385.53
388.707	383.49
389.087	391.18
389.466	420.1
389.846	412.42
390.225	395.92
390.605	396.83
390.984	416.26
391.363	403.83
391.743	430.27
392.122	441.34
392.501	433.43
392.881	449.25
393.26	440.21
393.639	428.92
394.018	451.06
394.397	454.23
394.776	458.29
395.155	469.14
395.534	460.55
395.913	473.89
396.292	475.02
396.671	473.21
397.05	505.07
397.429	491.96
397.808	479.76
398.186	502.59
398.565	518.63
398.944	524.51
399.323	524.51
399.701	537.61
400.08	520.21
400.458	543.94
400.837	543.94
401.215	577.61
401.594	543.04
401.972	544.17
402.351	564.05
402.729	585.75
403.107	579.42
403.486	583.94
403.864	606.09
404.242	581.91
404.62	621
404.999	597.5
405.377	663.94
405.755	632.98
406.133	649.7
406.511	649.25
406.889	676.59
407.267	691.96
407.645	684.5
408.023	700.09
408.401	717.5
408.779	722.69
409.156	745.74
409.534	734.9
409.912	765.18
410.29	766.31
410.667	775.12
411.045	792.52
411.422	830.71
411.8	830.71
412.178	827.1
412.555	851.73
412.933	842.01
413.31	865.06
413.687	858.06
414.065	872.07
414.442	891.5
414.819	909.13
415.197	904.61
415.574	920.88
415.951	937.83
416.328	924.27
416.705	961.56
417.082	962.46
417.46	975.79
417.837	984.15
418.214	998.39
418.591	1010.82
418.967	1026.87
419.344	1029.35
419.721	1040.65
420.098	1049.01
420.475	1060.54
420.852	1066.86
421.228	1077.49
421.605	1083.36
421.982	1107.77
422.358	1112.97
422.735	1132.4
423.111	1132.17
423.488	1160.65
423.864	1153.42
424.241	1166.3
424.617	1197.93
424.994	1204.04
425.37	1201.1
425.746	1204.49
426.123	1266.41
426.499	1222.34
426.875	1249.01
427.251	1272.06
427.627	1277.03
428.003	1315.67
428.379	1344.6
428.756	1329.68
429.132	1359.06
429.507	1404.71
429.883	1384.6
430.259	1400.42
430.635	1386.86
431.011	1444.26
431.387	1494.2
431.763	1457.81
432.138	1511.6
432.514	1499.85
432.89	1548.21
433.265	1557.02
433.641	1563.35
434.016	1586.62
434.392	1623.01
434.767	1639.73
435.143	1644.48
435.518	1663.46
435.894	1684.93
436.269	1713.18
436.644	1742.1
437.02	1745.72
437.395	1773.06
437.77	1775.32
438.145	1811.25
438.52	1796.34
438.895	1835.66
439.271	1851.7
439.646	1906.16
440.021	1877.01
440.395	1881.08
440.77	1883.11
441.145	1917.24
441.52	1972.15
441.895	1964.47
442.27	2018.48
442.645	2027.97
443.019	2031.13
443.394	2031.59
443.769	2062.09
444.143	2049.21
444.518	2093.96
444.892	2081.3
445.267	2124.01
445.641	2133.96
446.016	2156.55
446.39	2181.19
446.764	2192.26
447.139	2179.15
447.513	2231.13
447.887	2206.04
448.262	2227.96
448.636	2247.62
449.01	2228.19
449.384	2286.49
449.758	2296.66
450.132	2344.8
450.506	2371.01
450.88	2391.58
451.254	2392.93
451.628	2425.25
452.002	2438.58
452.376	2446.94
452.75	2490.33
453.123	2519.93
453.497	2576.43
453.871	2550.22
454.244	2608.52
454.618	2617.11
454.992	2648.52
455.365	2682.87
455.739	2755.86
456.112	2747.27
456.486	2803.54
456.859	2838.57
457.232	2871.79
457.606	2876.99
457.979	2912.24
458.352	2963.54
458.725	3030.43
459.099	3006.02
459.472	3105.23
459.845	3092.35
460.218	3151.56
460.591	3154.49
460.964	3167.37
461.337	3250.99
461.71	3347.48
462.083	3314.04
462.456	3341.83
462.829	3340.48
463.201	3444.2
463.574	3427.93
463.947	3481.04
464.32	3559.45
464.692	3554.26
465.065	3603.52
465.438	3658.89
465.81	3723.52
466.183	3725.1
466.555	3820.01
466.928	3821.59
467.3	3852.33
467.672	3924.19
468.045	4000.35
468.417	4009.39
468.789	4048.26
469.161	4092.1
469.534	4146.33
469.906	4246.67
470.278	4303.39
470.65	4326.67
471.022	4382.94
471.394	4482.59
471.766	4554.23
472.138	4565.3
472.51	4703.61
472.882	4800.1
473.253	4824.28
473.625	4869.02
473.997	4966.42
474.369	4993.77
474.74	5078.96
475.112	5162.8
475.484	5215.91
475.855	5290.93
476.227	5273.31
476.598	5531.83
476.97	5525.05
477.341	5674.43
477.713	5724.14
478.084	5796.01
478.455	5945.38
478.827	6021.99
479.198	6177.69
479.569	6184.92
479.94	6384.24
480.311	6424.92
480.682	6516.89
481.053	6749.65
481.424	6780.84
481.795	6856.77
482.166	6933.6
482.537	7015.86
482.908	7270.54
483.279	7288.62
483.65	7467.15
484.021	7581.72
484.391	7687.26
484.762	7689.29
485.133	7818.55
485.503	7937.64
485.874	8133.8
486.244	8177.19
486.615	8330.4
486.985	8427.35
487.356	8587.57
487.726	8622.6
488.097	8899.88
488.467	8858.98
488.837	9039.54
489.207	9105.07
489.578	9233.88
489.948	9408.11
490.318	9456.47
490.688	9492.18
491.058	9662.8
491.428	9842.23
491.798	9897.82
492.168	10112.95
492.538	10157.02
492.908	10304.14
493.278	10390.69
493.648	10410.12
494.017	10575.32
494.387	10806.72
494.757	10812.82
495.126	10997.9
495.496	10903.67
495.866	11002.42
496.235	11127.17
496.605	11233.38
496.974	11359.02
497.344	11443.77
497.713	11527.15
498.082	11642.86
498.452	11725.12
498.821	11816.41
499.19	11842.17
499.559	12077.2
499.928	11988.16
500.298	12139.34
500.667	12312.67
501.036	12339.56
501.405	12411.2
501.774	12433.57
502.143	12591.31
502.512	12629.05
502.88	12807.8
503.249	12848.93
503.618	12928.25
503.987	12962.15
504.356	13141.35
504.724	13138.86
505.093	13216.83
505.462	13317.39
505.83	13391.29
506.199	13457.27
506.567	13654.1
506.936	13721.22
507.304	13904.72
507.672	13916.47
508.041	14037.6
508.409	14158.05
508.777	14216.58
509.145	14274.2
509.514	14408.43
509.882	14596
510.25	14556.45
510.618	14708.77
510.986	14673.51
511.354	15000.74
511.722	15053.16
512.09	15198.02
512.458	15204.57
512.826	15279.6
513.193	15448.41
513.561	15498.12
513.929	15577.67
514.297	15808.85
514.664	15834.61
515.032	15979.24
515.4	16120.71
515.767	16199.12
516.135	16339.01
516.502	16214.94
516.869	16570.41
517.237	16602.28
517.604	16720.01
517.972	16776.73
518.339	16967.01
518.706	17118.42
519.073	17108.93
519.44	17300.34
519.808	17511.86
520.175	17515.25
520.542	17735.13
520.909	17929.02
521.276	17938.06
521.643	18110.94
522.009	18225.28
522.376	18348.67
522.743	18505.95
523.11	18625.27
523.477	18884.48
523.843	18990.91
524.21	19247.4
524.577	19328.98
524.943	19414.86
525.31	19561.29
525.676	19764.23
526.043	19853.72
526.409	19963.77
526.776	20270.88
527.142	20303.19
527.508	20479.69
527.874	20555.62
528.241	20715.39
528.607	20757.87
528.973	20926.91
529.339	21007.13
529.705	21301.81
530.071	21288.71
530.437	21424.3
530.803	21657.28
531.169	21789.26
531.535	21743.84
531.901	21861.12
532.267	22112.19
532.632	22266.76
532.998	22336.59
533.364	22484.61
533.73	22413.42
534.095	22729.8
534.461	22760.76
534.826	22881.21
535.192	22971.83
535.557	23115.1
535.923	23027.19
536.288	23156
536.653	23337.47
537.019	23285.49
537.384	23586.95
537.749	23617.68
538.114	23701.3
538.479	23692.94
538.845	23925.92
539.21	23916.89
539.575	24009.76
539.94	24040.5
540.305	24222.41
540.67	24231.23
541.034	24359.59
541.399	24516.87
541.764	24536.53
542.129	24609.97
542.494	24775.39
542.858	24786.69
543.223	24899.46
543.587	25002.28
543.952	24896.07
544.316	25127.25
544.681	25145.1
545.045	25289.5
545.41	25454.92
545.774	25482.27
546.138	25428.94
546.503	25632.09
546.867	25570.85
547.231	25913.44
547.595	25819.89
547.959	26093.1
548.324	25961.8
548.688	26092.42
549.052	26140.33
549.416	26364.28
549.779	26357.5
550.143	26466.2
550.507	26623.93
550.871	26691.05
551.235	26738.05
551.599	26885.17
551.962	26985.05
552.326	27053.3
552.689	27222.34
553.053	27088.78
553.417	27201.54
553.78	27575.77
554.143	27376.68
554.507	27576.68
554.87	27670.23
555.234	28000.17
555.597	27888.31
555.96	28064.57
556.323	28112.26
556.686	28115.42
557.05	28426.6
557.413	28464.56
557.776	28547.27
558.139	28647.83
558.502	28933.25
558.865	28901.39
559.228	29068.39
559.59	29093.92
559.953	29187.71
560.316	29549.73
560.679	29473.12
561.041	29642.84
561.404	29884.86
561.767	29904.75
562.129	29920.12
562.492	30321.91
562.854	30229.71
563.217	30384.96
563.579	30414.79
563.941	30632.19
564.304	30707.89
564.666	30947.66
565.028	30937.94
565.39	31132.97
565.753	31249.12
566.115	31345.84
566.477	31594.65
566.839	31693.86
567.201	31850.24
567.563	31654.99
567.925	32032.83
568.287	32040.29
568.648	32298.36
569.01	32212.03
569.372	32480.28
569.734	32418.13
570.095	32689.99
570.457	32845.69
570.819	33014.73
571.18	32998.68
571.542	32996.42
571.903	33110.32
572.265	33166.81
572.626	33381.72
572.987	33374.72
573.349	33390.53
573.71	33479.35
574.071	33657.19
574.432	33644.99
574.794	33941.71
575.155	33969.73
575.516	33885.89
575.877	34169.5
576.238	34141.25
576.599	34280.91
576.96	34339.21
577.32	34255.14
577.681	34423.95
578.042	34467.57
578.403	34414.69
578.763	34512.54
579.124	34492.65
579.485	34622.59
579.845	34698.07
580.206	34595.25
580.566	34689.03
580.927	34752.53
581.287	34843.83
581.648	34653.1
582.008	34903.94
582.368	34837.5
582.728	34791.85
583.089	34810.61
583.449	34869.59
583.809	34847.45
584.169	34961.11
584.529	34970.83
584.889	35156.82
585.249	34824.85
585.609	34802.47
585.969	35040.43
586.329	34954.11
586.688	35054.45
587.048	34918.63
587.408	34797.28
587.768	34966.09
588.127	34942.81
588.487	34932.41
588.846	35091.73
589.206	34908.46
589.565	34973.32
589.925	35149.36
590.284	34990.72
590.643	35051.73
591.003	35074.11
591.362	35246.08
591.721	35152.52
592.08	35106.87
592.44	35178.28
592.799	35070.04
593.158	35030.27
593.517	35098.51
593.876	35156.36
594.235	35076.59
594.593	35010.38
594.952	35192.97
595.311	34921.57
595.67	35069.13
596.029	35368.79
596.387	35257.38
596.746	35268.23
597.104	35092.86
597.463	35070.49
597.822	35390.48
598.18	35071.62
598.538	35090.38
598.897	35315.91
599.255	35027.78
599.613	35513.64
599.972	35216.93
600.33	35493.76
600.688	35326.3
601.046	35425.28
601.404	35518.84
601.762	35347.77
602.12	35550.93
602.478	35553.42
602.836	35518.16
603.194	35344.61
603.552	35436.81
603.91	35301.22
604.268	35563.36
604.625	35299.18
604.983	35460.99
605.341	35471.38
605.698	35529.24
606.056	35616.69
606.413	35589.57
606.771	35630.7
607.128	35700.3
607.485	35622.79
607.843	35580.08
608.2	35733.3
608.557	35823.92
608.914	35706.18
609.272	35856.01
609.629	35959.51
609.986	36109.33
610.343	35831.15
610.7	36195.66
611.057	36097.36
611.414	36158.6
611.771	36121.08
612.127	36161.31
612.484	36092.84
612.841	36265.49
613.198	36112.72
613.554	36236.34
613.911	36406.5
614.267	36279.95
614.624	36355.43
614.98	36442.43
615.337	36672.26
615.693	36561.3
616.05	36597
616.406	36716.32
616.762	36617.79
617.118	36551.13
617.475	36637.68
617.831	36605.14
618.187	36684.69
618.543	36765.81
618.899	36982.3
619.255	36862.99
619.611	36848.75
619.967	37029.31
620.323	36966.49
620.678	36865.7
621.034	36922.19
621.39	36905.02
621.746	36832.93
622.101	37291.22
622.457	36920.39
622.812	37050.55
623.168	37050.33
623.523	37037.44
623.879	37181.85
624.234	36957.45
624.589	37044.9
624.945	37108.4
625.3	37180.04
625.655	36905.7
626.01	37038.35
626.365	37092.58
626.72	37049.2
627.075	36966.03
627.43	36968.29
627.785	36913.38
628.14	36991.57
628.495	37118.8
628.85	36930.1
629.205	36892.14
629.559	37139.14
629.914	36842.2
630.269	36821.18
630.623	36862.08
630.978	36690.11
631.332	36811.69
631.687	36965.58
632.041	36694.4
632.396	36812.82
632.75	36613.05
633.104	36755.42
633.459	36621.41
633.813	36438.82
634.167	36539.38
634.521	36526.27
634.875	36571.24
635.229	36583.9
635.583	36275.88
635.937	36279.5
636.291	36278.37
636.645	36297.8
636.999	36197.92
637.352	36253.96
637.706	36081.54
638.06	36188.43
638.413	35852.16
638.767	35807.65
639.121	35917.25
639.474	35768.55
639.828	35722.68
640.181	35682.45
640.534	35855.33
640.888	35715.67
641.241	35556.81
641.594	35484.49
641.947	35644.71
642.301	35511.61
642.654	35544.83
643.007	35499.41
643.36	35423.7
643.713	35287.89
644.066	35477.03
644.419	35209.24
644.771	34958.85
645.124	34683.83
645.477	34612.2
645.83	34270.74
646.182	34205.65
646.535	34138.76
646.888	34210.63
647.24	34023.06
647.593	34219.21
647.945	34293.11
648.298	34005.43
648.65	33866.91
649.002	33817.87
649.355	33993.91
649.707	33876.62
650.059	33912.78
650.411	34322.49
650.763	34322.94
651.115	34741.01
651.467	34732.42
651.819	34623.5
652.171	34589.15
652.523	34363.39
652.875	34413.11
653.227	34354.35
653.578	34437.74
653.93	34369.72
654.282	34225.31
654.633	34239.1
654.985	34223.28
655.337	34231.87
655.688	34206.33
656.039	34313.22
656.391	34000.24
656.742	34058.09
657.094	34045.43
657.445	34177.41
657.796	34094.47
658.147	33997.75
658.498	33833.91
658.849	34050.86
659.2	33963.85
659.551	33897.87
659.902	33945.77
660.253	33830.3
660.604	33888.6
660.955	33598.44
661.306	33816.74
661.656	33501.94
662.007	33565.45
662.358	33643.64
662.708	33433.7
663.059	33455.62
663.409	33242.74
663.76	33393.47
664.11	33439.35
664.461	33391.66
664.811	33404.55
665.161	33269.63
665.511	33072.35
665.862	33038.91
666.212	33154.83
666.562	33048.4
666.912	32860.15
667.262	32967.49
667.612	32856.31
667.962	32873.03
668.312	32661.51
668.662	32821.51
669.011	32669.42
669.361	32457.68
669.711	32456.55
670.06	32316.44
670.41	32239.6
670.76	32144.24
671.109	32343.1
671.459	32218.36
671.808	32145.14
672.157	31940.18
672.507	31800.97
672.856	31753.06
673.205	31845.72
673.554	31919.16
673.904	31793.97
674.253	31804.81
674.602	31635.1
674.951	31283.47
675.3	31127.77
675.649	31537.02
675.998	31498.83
676.346	31467.65
676.695	31579.06
677.044	31306.75
677.393	31323.24
677.741	31445.95
678.09	31304.71
678.438	31163.02
678.787	31298.16
679.135	31283.7
679.484	31086.19
679.832	31283.47
680.181	31036.25
680.529	31217.03
680.877	31107.88
681.225	31093.65
681.573	31308.78
681.922	31067.88
682.27	30948.11
682.618	31219.29
682.966	31146.3
683.314	31202.34
683.661	31056.58
684.009	30885.52
684.357	30863.82
684.705	30947.89
685.053	30989.24
685.4	30925.06
685.748	30829.25
686.095	30849.58
686.443	30940.2
686.79	30788.57
687.138	30839.42
687.485	31014.55
687.832	30891.17
688.18	30938.17
688.527	30822.01
688.874	30857.04
689.221	30806.87
689.568	30716.25
689.915	30741.79
690.262	30644.62
690.609	30638.52
690.956	30490.72
691.303	30591.74
691.65	30455.7
691.997	30384.29
692.344	30312.65
692.69	30331.18
693.037	30431.97
693.383	30051.87
693.73	30406.43
694.077	30115.59
694.423	30153.33
694.769	30098.42
695.116	29987.23
695.462	30038.08
695.808	29935.71
696.155	30048.93
696.501	29831.76
696.847	29771.19
697.193	29648.94
697.539	29698.65
697.885	29567.58
698.231	29422.05
698.577	29420.02
698.923	29437.87
699.269	29260.02
699.614	29230.19
699.96	29150.65
700.306	29255.95
700.651	29112.23
700.997	29015.28
701.342	28905.23
701.688	28890.99
702.033	28794.5
702.379	28790.43
702.724	28656.87
703.069	28686.7
703.415	28427.28
703.76	28417.56
704.105	28388.63
704.45	28233.83
704.795	28145.7
705.14	28102.54
705.485	28199.71
705.83	28001.07
706.175	28102.09
706.52	27927.4
706.865	27874.75
707.209	27813.05
707.554	27703.9
707.899	27709.1
708.243	27549.11
708.588	27594.53
708.932	27310.92
709.277	27423.23
709.621	27423.69
709.966	27193.41
710.31	27377.81
710.654	26957.71
710.998	27189.12
711.342	27191.38
711.687	27111.83
712.031	26860.76
712.375	26822.12
712.719	26863.02
713.063	26722.24
713.407	26847.2
713.75	26701.67
714.094	26686.08
714.438	26635.46
714.782	26508.46
715.125	26524.27
715.469	26448.8
715.812	26388.91
716.156	26182.81
716.499	26317.5
716.843	26206.99
717.186	26041.8
717.53	26192.76
717.873	26127
718.216	26045.42
718.559	25936.72
718.902	25777.18
719.246	25823.5
719.589	25782.6
719.932	25718.65
720.275	25719.78
720.617	25741.02
720.96	25712.54
721.303	25663.96
721.646	25641.81
721.989	25437.75
722.331	25501.02
722.674	25338.99
723.016	25291.99
723.359	25367.69
723.701	25378.99
724.044	25186.91
724.386	25076.63
724.729	25216.51
725.071	25088.15
725.413	25100.36
725.755	24969.29
726.097	24910.76
726.439	24881.61
726.782	24863.53
727.124	24971.09
727.465	24870.53
727.807	24789.63
728.149	24699.46
728.491	24659.92
728.833	24708.28
729.175	24594.83
729.516	24443.2
729.858	24514.84
730.199	24447.72
730.541	24426.25
730.882	24487.94
731.224	24486.81
731.565	24208.85
731.906	24325.69
732.248	24280.72
732.589	24182.64
732.93	24133.38
733.271	24055.86
733.612	24111.23
733.953	24065.36
734.294	23951.01
734.635	24004.57
734.976	23966.15
735.317	23919.15
735.658	23808.19
735.999	23852.03
736.339	23633.73
736.68	23873.5
737.021	23764.12
737.361	23661.75
737.702	23612.26
738.042	23610
738.383	23530.91
738.723	23520.06
739.063	23594.41
739.404	23514.41
739.744	23421.76
740.084	23283.46
740.424	23347.41
740.764	23365.49
741.104	23335.88
741.444	23185.61
741.784	23197.58
742.124	23157.81
742.464	23153.06
742.804	23031.03
743.143	23044.59
743.483	22993.52
743.823	22875.56
744.162	22862
744.502	22951.03
744.841	22887.53
745.181	22970.7
745.52	22787.65
745.86	22855.67
746.199	22701.32
746.538	22595.79
746.877	22818.61
747.216	22685.73
747.556	22605.96
747.895	22633.3
748.234	22554.21
748.573	22436.47
748.911	22391.73
749.25	22379.3
749.589	22305.4
749.928	22237.16
750.267	22234.22
750.605	22283.03
750.944	22169.36
751.283	22130.49
751.621	22182.47
751.96	21918.97
752.298	22025.86
752.636	21892.98
752.975	21931.85
753.313	21908.8
753.651	21855.24
753.989	21687.79
754.327	21544.74
754.666	21628.58
755.004	21623.61
755.342	21565.99
755.679	21638.75
756.017	21411.87
756.355	21423.39
756.693	21361.7
757.031	21516.27
757.368	21246
757.706	21220.68
758.044	21078.54
758.381	21174.13
758.719	21068.6
759.056	21083.97
759.394	20932.78
759.731	20840.81
760.068	20784.76
760.405	20780.24
760.743	20557.2
761.08	20549.29
761.417	20556.75
761.754	20481.95
762.091	20526.69
762.428	20387.26
762.765	20260.71
763.102	20372.12
763.438	20185.01
763.775	20162.41
764.112	20173.93
764.449	20134.61
764.785	19982.98
765.122	19873.83
765.458	19792.25
765.795	19715.64
766.131	19738.46
766.467	19640.61
766.804	19534.4
767.14	19440.39
767.476	19463.44
767.812	19361.52
768.148	19403.11
768.485	19325.59
768.821	19154.98
769.157	19112.94
769.492	19158.37
769.828	19040.4
770.164	18963.34
770.5	18799.05
770.836	18833.18
771.171	18726.06
771.507	18707.08
771.842	18486.52
772.178	18488.55
772.513	18505.28
772.849	18436.8
773.184	18300.31
773.519	18339.63
773.855	18222.12
774.19	18108.9
774.525	18048.56
774.86	18028
775.195	18062.12
775.53	17957.27
775.865	17817.38
776.2	17714.34
776.535	17684.05
776.87	17598.63
777.205	17533.78
777.539	17499.65
777.874	17550.27
778.209	17352.99
778.543	17363.61
778.878	17172.66
779.212	17265.08
779.547	17127.46
779.881	17108.48
780.215	16980.34
780.55	16921.36
780.884	16776.73
781.218	16870.97
781.552	16707.58
781.886	16684.76
782.22	16565.21
782.554	16571.09
782.888	16378.78
783.222	16342.62
783.556	16223.08
783.889	16281.38
784.223	16187.6
784.557	16131.78
784.89	16205.22
785.224	16027.15
785.557	15900.6
785.891	15845.46
786.224	15782.41
786.558	15827.15
786.891	15759.36
787.224	15727.95
787.557	15659.25
787.891	15587.39
788.224	15662.41
788.557	15529.08
788.89	15492.93
789.223	15484.56
789.556	15313.72
789.888	15275.98
790.221	15292.25
790.554	15108.08
790.887	15092.03
791.219	15050.23
791.552	15067.17
791.884	14951.47
792.217	14927.29
792.549	14773.85
792.882	14741.99
793.214	14651.82
793.546	14663.34
793.879	14589.22
794.211	14539.96
794.543	14534.99
794.875	14478.94
795.207	14511.03
795.539	14435.78
795.871	14414.08
796.203	14346.74
796.535	14305.84
796.867	14135
797.198	14105.84
797.53	14106.07
797.862	14039.86
798.193	14071.04
798.525	13917.6
798.856	13888.22
799.188	13803.93
799.519	13709.92
799.85	13643.94
800.182	13730.94
800.513	13664.95
800.844	13539.31
801.175	13656.14
801.506	13612.52
801.837	13396.71
802.168	13455.92
802.499	13457.73
802.83	13376.6
803.161	13339.54
803.491	13352.19
803.822	13325.98
804.153	13191.29
804.483	13126.43
804.814	13039.21
805.145	13038.98
805.475	13042.37
805.805	13015.25
806.136	13064.29
806.466	13010.73
806.796	12946.33
807.126	12891.19
807.457	12760.12
807.787	12875.82
808.117	12779.55
808.447	12776.39
808.777	12753.56
809.107	12667.46
809.436	12654.58
809.766	12643.96
810.096	12627.69
810.426	12511.54
810.755	12483.51
811.085	12475.6
811.414	12396.51
811.744	12327.59
812.073	12411.65
812.403	12344.08
812.732	12279.9
813.061	12241.49
813.39	12202.62
813.719	12173.24
814.049	12247.14
814.378	12238.32
814.707	12112.9
815.036	12109.96
815.365	11968.95
815.693	11968.5
816.022	11948.39
816.351	11902.51
816.68	11820.48
817.008	11911.33
817.337	11766.02
817.665	11742.29
817.994	11776.41
818.322	11754.49
818.651	11715.62
818.979	11669.75
819.307	11713.82
819.636	11585.68
819.964	11509.53
820.292	11578.68
820.62	11592.46
820.948	11587.94
821.276	11527.15
821.604	11508.4
821.932	11669.07
822.259	11566.93
822.587	11509.75
822.915	11424.11
823.243	11547.04
823.57	11459.59
823.898	11417.33
824.225	11387.27
824.553	11468.63
824.88	11492.13
825.207	11535.29
825.535	11529.87
825.862	11481.28
826.189	11435.18
826.516	11441.51
826.843	11503.65
827.17	11499.13
827.497	11488.06
827.824	11411.23
828.151	11506.36
828.478	11468.17
828.805	11453.71
829.131	11377.1
829.458	11405.35
829.785	11411.23
830.111	11365.58
830.438	11416.2
830.764	11292.81
831.09	11464.11
831.417	11346.37
831.743	11413.03
832.069	11426.82
832.395	11310.66
832.722	11321.06
833.048	11330.78
833.374	11288.97
833.7	11319.25
834.026	11320.15
834.351	11323.32
834.677	11243.09
835.003	11317.89
835.329	11311.34
835.654	11245.81
835.98	11241.29
836.306	11198.8
836.631	11143.21
836.956	11325.35
837.282	11261.4
837.607	11107.05
837.932	11076.32
838.258	11084.91
838.583	11101.85
838.908	10980.95
839.233	11077.9
839.558	11009.88
839.883	10935.08
840.208	10968.07
840.533	10925.81
840.858	10936.66
841.182	10933.72
841.507	10916.32
841.832	10832.94
842.156	10880.17
842.481	10798.59
842.805	10788.42
843.13	10754.29
843.454	10762.2
843.778	10669.1
844.103	10613.96
844.427	10619.61
844.751	10671.81
845.075	10624.81
845.399	10564.92
845.723	10571.7
846.047	10538.93
846.371	10450.57
846.695	10492.15
847.019	10476.79
847.343	10393.85
847.666	10281.76
847.99	10293.29
848.313	10270.92
848.637	10176.46
848.96	10139.62
849.284	10152.28
849.607	10098.04
849.931	10009
850.254	10039.74
850.577	9965.61
850.9	9865.96
851.223	9806.52
851.546	9743.7
851.869	9755.22
852.192	9782.34
852.515	9734.43
852.838	9718.84
853.161	9648.11
853.483	9596.58
853.806	9573.08
854.129	9509.58
854.451	9489.24
854.774	9444.05
855.096	9378.74
855.419	9475.01
855.741	9385.52
856.063	9299.64
856.385	9312.98
856.708	9298.51
857.03	9228.23
857.352	9271.17
857.674	9239.53
857.996	9162.47
858.318	9089.48
858.64	9169.48
858.961	9112.08
859.283	9138.06
859.605	9121.79
859.926	9011.51
860.248	9042.93
860.57	8967.45
860.891	9019.65
861.212	8932.87
861.534	8890.84
861.855	8884.96
862.176	8874.57
862.498	8886.77
862.819	8848.35
863.14	8843.16
863.461	8805.87
863.782	8765.19
864.103	8745.98
864.424	8776.04
864.745	8750.28
865.065	8738.98
865.386	8722.03
865.707	8729.26
866.027	8672.09
866.348	8705.08
866.668	8616.5
866.989	8596.16
867.309	8591.19
867.63	8584.86
867.95	8599.55
868.27	8506.67
868.59	8539.21
868.91	8513.67
869.23	8496.95
869.55	8466.22
869.87	8550.28
870.19	8504.41
870.51	8463.05
870.83	8452.21
871.15	8441.81
871.469	8415.15
871.789	8407.46
872.109	8338.99
872.428	8373.34
872.748	8442.94
873.067	8335.15
873.386	8374.7
873.706	8320.01
874.025	8268.71
874.344	8282.27
874.663	8264.19
874.982	8246.79
875.301	8228.03
875.62	8169.73
875.939	8186
876.258	8208.37
876.577	8198.88
876.896	8247.47
877.214	8150.97
877.533	8132.67
877.852	8109.17
878.17	8184.87
878.489	8118.66
878.807	8105.55
879.125	8044.31
879.444	8122.95
879.762	8061.93
880.08	8077.3
880.398	7981.26
880.716	8009.73
881.034	7975.38
881.352	8051.09
881.67	7947.59
881.988	7882.05
882.306	7964.99
882.624	7906.23
882.941	7890.19
883.259	7844.54
883.577	7821.04
883.894	7815.39
884.212	7827.59
884.529	7774.48
884.846	7726.35
885.164	7741.72
885.481	7777.42
885.798	7714.15
886.115	7684.77
886.432	7696.29
886.75	7680.93
887.067	7599.35
887.383	7603.19
887.7	7627.6
888.017	7567.94
888.334	7610.87
888.651	7494.72
888.967	7467.15
889.284	7469.86
889.6	7467.15
889.917	7395.51
890.233	7442.74
890.55	7402.07
890.866	7363.65
891.182	7386.7
891.498	7409.97
891.815	7310.09
892.131	7253.59
892.447	7301.28
892.763	7237.32
893.079	7175.86
893.395	7237.1
893.71	7191
894.026	7127.5
894.342	7184.9
894.657	7136.08
894.973	7091.11
895.289	7111.23
895.604	7075.52
895.92	7055.18
896.235	7022.19
896.55	7011.79
896.865	6996.2
897.181	6928.63
897.496	6953.94
897.811	6925.24
898.126	6891.57
898.441	6833.94
898.756	6795.08
899.071	6805.92
899.386	6799.6
899.7	6766.83
900.015	6722.99
900.33	6697.68
900.644	6714.63
900.959	6707.17
901.273	6651.35
901.588	6663.1
901.902	6601.18
902.216	6587.85
902.531	6584.23
902.845	6519.83
903.159	6528.64
903.473	6437.8
903.787	6445.25
904.101	6413.39
904.415	6385.37
904.729	6326.16
905.042	6325.26
905.356	6302.43
905.67	6280.51
905.984	6280.74
906.297	6219.95
906.611	6210.23
906.924	6213.85
907.237	6193.96
907.551	6207.52
907.864	6134.08
908.177	6113.51
908.491	6074.87
908.804	6039.84
909.117	5993.74
909.43	5960.3
909.743	5982.22
910.056	5940.63
910.368	5944.25
910.681	5919.39
910.994	5880.52
911.307	5891.82
911.619	5852.73
911.932	5866.96
912.244	5768.21
912.557	5845.27
912.869	5730.24
913.181	5696.8
913.494	5766.4
913.806	5639.63
914.118	5687.76
914.43	5628.33
914.742	5630.81
915.054	5633.75
915.366	5584.71
915.678	5605.05
915.99	5545.16
916.302	5516.47
916.613	5455.45
916.925	5437.82
917.236	5448.67
917.548	5419.97
917.859	5429.91
918.171	5365.28
918.482	5357.83
918.794	5343.14
919.105	5321.67
919.416	5294.55
919.727	5245.74
920.038	5256.81
920.349	5239.41
920.66	5170.71
920.971	5172.75
921.282	5141.33
921.593	5182.01
921.903	5102.92
922.214	5110.15
922.525	5093.2
922.835	5033.09
923.146	5021.34
923.456	5031.28
923.767	5022.01
924.077	5022.69
924.387	4924.84
924.697	4950.6
925.008	4894.11
925.318	4889.14
925.628	4815.69
925.938	4833.55
926.248	4787.22
926.558	4761.68
926.867	4759.87
927.177	4786.31
927.487	4766.88
927.796	4690.5
928.106	4699.99
928.416	4657.96
928.725	4653.66
929.034	4619.99
929.344	4632.42
929.653	4599.43
929.962	4579.09
930.271	4570.73
930.581	4542.03
930.89	4502.03
931.199	4476.94
931.508	4482.59
931.817	4458.41
932.125	4429.71
932.434	4441.69
932.743	4375.48
933.051	4362.6
933.36	4385.65
933.669	4346.1
933.977	4316.27
934.286	4354.91
934.594	4351.3
934.902	4270.62
935.21	4275.14
935.519	4257.29
935.827	4241.7
936.135	4195.37
936.443	4154.47
936.751	4177.29
937.059	4186.78
937.367	4135.03
937.674	4163.28
937.982	4119.89
938.29	4124.86
938.597	4080.57
938.905	4053.9
939.213	4059.33
939.52	4016.84
939.827	4014.58
940.135	4030.63
940.442	3913.57
940.749	3949.05
941.056	3971.87
941.363	3898.43
941.67	3900.46
941.977	3873.57
942.284	3856.17
942.591	3843.06
942.898	3843.74
943.205	3810.3
943.511	3823.85
943.818	3797.87
944.125	3776.62
944.431	3747.7
944.738	3748.15
945.044	3702.28
945.35	3739.56
945.657	3699.34
945.963	3707.47
946.269	3686.68
946.575	3631.54
946.881	3622.28
947.187	3625.89
947.493	3588.61
947.799	3603.07
948.105	3592.45
948.41	3521.49
948.716	3500.25
949.022	3502.96
949.327	3506.8
949.633	3455.28
949.938	3414.83
950.244	3443.3
950.549	3399.91
950.854	3360.59
951.16	3393.58
951.465	3434.49
951.77	3375.96
952.075	3374.37
952.38	3342.28
952.685	3315.39
952.99	3297.99
953.294	3333.7
953.599	3308.61
953.904	3267.03
954.209	3290.31
954.513	3257.54
954.818	3222.06
955.122	3215.06
955.426	3199.24
955.731	3195.85
956.035	3180.26
956.339	3172.57
956.643	3161.5
956.948	3104.33
957.252	3117.43
957.556	3114.95
957.86	3088.73
958.163	3079.02
958.467	3072.91
958.771	3079.47
959.075	3042.63
959.378	3028.62
959.682	3068.85
959.985	3026.36
960.289	3012.35
960.592	2999.02
960.896	2971.67
961.199	2962.18
961.502	2941.17
961.805	2957.89
962.108	2921.96
962.411	2935.06
962.714	2875.86
963.017	2855.97
963.32	2837.89
963.623	2848.74
963.926	2807.61
964.228	2828.85
964.531	2826.37
964.833	2799.47
965.136	2776.42
965.438	2773.94
965.741	2767.16
966.043	2767.84
966.345	2777.1
966.648	2719.93
966.95	2717.67
967.252	2703.43
967.554	2663.43
967.856	2694.17
968.158	2660.27
968.46	2651.91
968.761	2642.19
969.063	2627.5
969.365	2639.7
969.666	2597.45
969.968	2594.73
970.269	2604.68
970.571	2558.58
970.872	2537.33
971.174	2550.22
971.475	2532.36
971.776	2533.72
972.077	2494.4
972.378	2546.15
972.679	2541.4
972.98	2535.07
973.281	2494.62
973.582	2546.37
973.883	2492.14
974.183	2453.27
974.484	2417.56
974.785	2445.36
975.085	2450.78
975.386	2441.97
975.686	2377.11
975.986	2399.03
976.287	2422.08
976.587	2346.38
976.887	2365.81
977.187	2368.3
977.487	2354.74
977.787	2316.55
978.087	2322.2
978.387	2312.71
978.687	2307.51
978.987	2316.1
979.286	2262.99
979.586	2267.06
979.885	2272.93
980.185	2250.79
980.484	2226.38
980.784	2224.8
981.083	2235.87
981.382	2235.2
981.682	2203.11
981.981	2224.12
982.28	2186.16
982.579	2171.02
982.878	2191.13
983.177	2164.01
983.475	2133.96
983.774	2126.95
984.073	2104.58
984.372	2113.39
984.67	2122.43
984.969	2122.43
985.267	2127.85
985.566	2051.25
985.864	2074.07
986.162	2091.02
986.461	2063
986.759	2027.97
987.057	2043.34
987.355	2053.96
987.653	2030.68
987.951	2005.6
988.249	1976.9
988.547	1999.95
988.844	1985.26
989.142	1996.78
989.44	1965.15
989.737	1950.23
990.035	1959.72
990.332	1932.6
990.63	1934.64
990.927	1977.58
991.224	1946.62
991.521	1933.28
991.819	1905.03
992.116	1870.91
992.413	1910.01
992.71	1840.63
993.006	1878.37
993.303	1837.24
993.6	1846.96
993.897	1840.4
994.193	1834.08
994.49	1827.07
994.787	1801.76
995.083	1806.05
995.379	1803.34
995.676	1792.5
995.972	1764.47
996.268	1788.2
996.565	1781.2
996.861	1788.43
997.157	1751.59
997.453	1721.31
997.749	1727.41
998.044	1729.22
998.34	1731.25
998.636	1719.5
998.932	1696.45
999.227	1683.8
999.523	1663.91
999.818	1682.67
1000.114	1681.76
1000.409	1671.82
1000.704	1638.83
1001	1624.36
1001.295	1601.09
1001.59	1649.67
1001.885	1623.23
1002.18	1595.21
1002.475	1583.24
1002.77	1596.57
1003.065	1573.74
1003.359	1570.58
1003.654	1567.42
1003.949	1572.16
1004.243	1563.35
1004.538	1540.07
1004.832	1539.39
1005.127	1535.1
1005.421	1505.27
1005.715	1516.8
1006.009	1500.53
1006.304	1489.9
1006.598	1484.93
1006.892	1436.12
1007.186	1451.26
1007.48	1462.11
1007.773	1481.32
1008.067	1449.91
1008.361	1426.63
1008.655	1452.62
1008.948	1421.43
1009.242	1401.09
1009.535	1413.97
1009.829	1367.2
1010.122	1379.17
1010.415	1404.03
1010.708	1392.51
1011.001	1381.43
1011.295	1366.07
1011.588	1361.55
1011.881	1350.02
1012.173	1349.57
1012.466	1320.87
1012.759	1323.81
1013.052	1336.69
1013.344	1305.5
1013.637	1298.72
1013.93	1274.77
1014.222	1304.37
1014.514	1296.69
1014.807	1282.9
1015.099	1249.01
1015.391	1242.45
1015.683	1249.46
1015.976	1233.64
1016.268	1226.18
1016.56	1216.47
1016.851	1239.29
1017.143	1205.39
1017.435	1200.87
1017.727	1217.14
1018.018	1206.07
1018.31	1198.39
1018.602	1194.77
1018.893	1168.78
1019.185	1149.8
1019.476	1142.79
1019.767	1152.96
1020.058	1150.93
1020.35	1134.43
1020.641	1121.55
1020.932	1141.89
1021.223	1117.71
1021.514	1107.09
1021.804	1130.37
1022.095	1096.47
1022.386	1068.9
1022.677	1094.66
1022.967	1075.68
1023.258	1084.49
1023.548	1047.66
1023.839	1039.29
1024.129	1056.24
1024.419	1041.1
1024.709	1054.21
1025	1040.65
1025.29	1054.21
1025.58	1028
1025.87	1030.48
1026.16	1013.31
1026.449	983.7
1026.739	994.1
1027.029	1002.69
1027.319	959.97
1027.608	994.32
1027.898	988.9
1028.187	978.28
1028.477	975.34
1028.766	941.22
1029.055	949.58
1029.344	928.34
1029.634	938.51
1029.923	935.57
1030.212	946.19
1030.501	939.86
1030.79	935.34
1031.078	882.24
1031.367	912.29
1031.656	904.38
1031.945	875.91
1032.233	886.08
1032.522	879.3
1032.81	875.46
1033.099	873.42
1033.387	864.84
1033.675	878.85
1033.963	858.06
1034.251	862.58
1034.54	858.96
1034.828	831.62
1035.116	827.32
1035.403	863.93
1035.691	820.77
1035.979	814.44
1036.267	818.06
1036.554	787.55
1036.842	803.59
1037.129	811.05
1037.417	783.03
1037.704	789.13
1037.992	787.1
1038.279	789.13
1038.566	791.84
1038.853	791.84
1039.14	791.84
