Data from whiteboard_FLMS001491_00081.txt Node
Date: Wed Feb 08 11:28:28 GMT 2017
User: dcchb
Spectrometer: FLMS00149
Trigger mode: 0
Integration Time (sec): 2.000000E-2
Scans to average: 10
Electric dark correction enabled: true
Nonlinearity correction enabled: false
Boxcar width: 0
XAxis mode: Wavelengths
Number of Pixels in Spectrum: 2048
>>>>>Begin Spectral Data<<<<<
341.393	-25.28
341.776	-25.28
342.16	-25.28
342.543	-46.52
342.927	-68.9
343.31	-81.55
343.693	-67.77
344.077	-62.12
344.46	-50.37
344.843	-61.21
345.226	-53.76
345.61	-22.34
345.993	-0.42
346.376	-13.08
346.759	2.51
347.142	19.69
347.525	63.3
347.908	58.78
348.291	79.8
348.674	96.3
349.057	92.23
349.44	113.7
349.823	140.59
350.206	164.09
350.588	236.86
350.971	243.19
351.354	263.3
351.737	278.21
352.119	297.87
352.502	295.16
352.884	307.36
353.267	311.21
353.65	320.25
354.032	340.36
354.414	332.9
354.797	339.45
355.179	366.12
355.562	346.46
355.944	353.01
356.326	383.97
356.709	380.13
357.091	383.3
357.473	374.71
357.855	357.08
358.238	385.55
358.62	376.97
359.002	383.97
359.384	357.08
359.766	370.87
360.148	379.45
360.53	357.98
360.912	379.91
361.294	383.07
361.676	372.67
362.057	386.23
362.439	354.37
362.821	355.27
363.203	379
363.584	362.96
363.966	396.4
364.348	348.04
364.729	397.98
365.111	379.45
365.493	371.54
365.874	369.06
366.256	381.49
366.637	372
367.019	373.35
367.4	341.04
367.781	356.63
368.163	365.89
368.544	353.92
368.925	365.67
369.306	372
369.688	357.08
370.069	354.6
370.45	350.3
370.831	362.28
371.212	359.11
371.593	345.33
371.974	354.82
372.355	368.83
372.736	380.81
373.117	364.99
373.498	380.36
373.879	380.58
374.26	360.24
374.641	345.56
375.021	394.59
375.402	383.97
375.783	372.67
376.163	368.83
376.544	395.72
376.925	405.22
377.305	390.53
377.686	388.49
378.066	408.61
378.447	422.84
378.827	380.13
379.208	421.49
379.588	406.8
379.968	392.33
380.349	402.05
380.729	415.61
381.109	412.45
381.489	429.17
381.87	414.25
382.25	416.06
382.63	431.88
383.01	410.86
383.39	417.64
383.77	427.81
384.15	429.85
384.53	435.72
384.91	452.45
385.29	452.45
385.67	453.35
386.049	462.84
386.429	446.8
386.809	470.3
387.189	459
387.568	466.23
387.948	471.2
388.328	469.17
388.707	516.17
389.087	493.8
389.466	470.75
389.846	488.6
390.225	506.68
390.605	508.94
390.984	499
391.363	529.51
391.743	506.46
392.122	521.6
392.501	528.38
392.881	558.21
393.26	552.56
393.639	537.87
394.018	574.93
394.397	569.96
394.776	581.03
395.155	581.03
395.534	599.56
395.913	601.59
396.292	601.59
396.671	621.25
397.05	620.8
397.429	636.4
397.808	632.1
398.186	634.14
398.565	669.16
398.944	663.29
399.323	677.07
399.701	682.27
400.08	693.12
400.458	669.39
400.837	703.51
401.215	741.48
401.594	741.93
401.972	771.08
402.351	767.92
402.729	784.41
403.107	787.58
403.486	833.68
403.864	817.86
404.242	843.17
404.62	852.66
404.999	865.99
405.377	888.82
405.755	913
406.133	931.98
406.511	929.5
406.889	938.53
407.267	972.66
407.645	992.09
408.023	1016.5
408.401	1002.94
408.779	1009.27
409.156	1074.35
409.534	1064.86
409.912	1108.02
410.29	1134.24
410.667	1130.17
411.045	1177.4
411.422	1211.97
411.8	1207
412.178	1254.68
412.555	1255.14
412.933	1280.9
413.31	1298.75
413.687	1343.72
414.065	1370.16
414.442	1335.59
414.819	1413.78
415.197	1418.52
415.574	1446.32
415.951	1467.79
416.328	1478.63
416.705	1500.1
417.082	1517.28
417.46	1535.81
417.837	1550.72
418.214	1594.79
418.591	1593.88
418.967	1601.57
419.344	1653.54
419.721	1669.59
420.098	1657.84
420.475	1700.77
420.852	1713.66
421.228	1760.21
421.605	1739.87
421.982	1772.64
422.358	1776.48
422.735	1812.18
423.111	1802.92
423.488	1863.03
423.864	1899.64
424.241	1894.44
424.617	1927.66
424.994	1957.49
425.37	1944.61
425.746	1978.51
426.123	2014.44
426.499	2035.45
426.875	2044.49
427.251	2085.17
427.627	2164.49
428.003	2178.28
428.379	2225.28
428.756	2202.68
429.132	2253.75
429.507	2252.85
429.883	2328.78
430.259	2356.8
430.635	2384.15
431.011	2415.33
431.387	2461.43
431.763	2481.09
432.138	2528.1
432.514	2552.5
432.89	2565.38
433.265	2638.15
433.641	2660.3
434.016	2676.79
434.392	2740.3
434.767	2805.38
435.143	2778.26
435.518	2806.96
435.894	2862.1
436.269	2884.02
436.644	2926.96
437.02	2963.79
437.395	2983.45
437.77	3049.44
438.145	3078.82
438.52	3100.51
438.895	3159.49
439.271	3197.46
439.646	3241.3
440.021	3275.2
440.395	3259.38
440.77	3201.07
441.145	3301.41
441.52	3342.54
441.895	3347.06
442.27	3408.07
442.645	3404.68
443.019	3413.27
443.394	3433.84
443.769	3491.69
444.143	3447.4
444.518	3572.36
444.892	3545.47
445.267	3564.23
445.641	3627.05
446.016	3638.35
446.39	3634.96
446.764	3680.38
447.139	3687.39
447.513	3761.51
447.887	3797.67
448.262	3793.83
448.636	3807.39
449.01	3891.9
449.384	3894.62
449.758	3912.69
450.132	3953.82
450.506	3960.15
450.88	4004.22
451.254	4040.37
451.628	4071.33
452.002	4172.8
452.376	4178.68
452.75	4238.79
453.123	4246.24
453.497	4298.45
453.871	4338.45
454.244	4400.14
454.618	4465.67
454.992	4500.7
455.365	4535.73
455.739	4654.37
456.112	4705.67
456.486	4807.81
456.859	4807.36
457.232	4882.84
457.606	4910.18
457.979	4984.76
458.352	5067.47
458.725	5216.61
459.099	5197.86
459.472	5253
459.845	5356.72
460.218	5375.71
460.591	5410.51
460.964	5409.38
461.337	5623.61
461.71	5640.11
462.083	5766.43
462.456	5734.79
462.829	5787.45
463.201	5934.34
463.574	5954.67
463.947	5990.15
464.32	6151.05
464.692	6203.25
465.065	6219.75
465.438	6338.84
465.81	6495
466.183	6541.1
466.555	6622.45
466.928	6640.31
467.3	6710.13
467.672	6800.53
468.045	6992.84
468.417	7003.91
468.789	7075.32
469.161	7147.18
469.534	7285.94
469.906	7445.26
470.278	7477.35
470.65	7616.1
471.022	7703.33
471.394	7881.18
471.766	7991.46
472.138	8049.76
472.51	8200.26
472.882	8375.85
473.253	8454.5
473.625	8549.18
473.997	8710.53
474.369	8786.69
474.74	8800.02
475.112	9073.46
475.484	9177.64
475.855	9300.57
476.227	9442.04
476.598	9719.55
476.97	9784.63
477.341	10002.7
477.713	10216.26
478.084	10214.22
478.455	10438.85
478.827	10539.19
479.198	10895.11
479.569	10902.11
479.94	11193.18
480.311	11333.29
480.682	11504.36
481.053	11881.52
481.424	12078.58
481.795	12143.89
482.166	12359.25
482.537	12533.48
482.908	12799.24
483.279	12883.31
483.65	13135.95
484.021	13437.19
484.391	13559.22
484.762	13625.43
485.133	13820.68
485.503	14045.08
485.874	14274
486.244	14448.69
486.615	14749.47
486.985	14893.42
487.356	15102.23
487.726	15278.27
488.097	15547.64
488.467	15759.39
488.837	15937.01
489.207	16114.86
489.578	16365.25
489.948	16574.96
490.318	16798.23
490.688	16865.8
491.058	17107.38
491.428	17406.8
491.798	17529.96
492.168	17849.28
492.538	17974.47
492.908	18180.79
493.278	18377.17
493.648	18346.21
494.017	18541.01
494.387	18821
494.757	18961.11
495.126	19154.55
495.496	19215.79
495.866	19467.99
496.235	19611.04
496.605	19783.91
496.974	19907.98
497.344	20153.17
497.713	20195.88
498.082	20417.34
498.452	20587.51
498.821	20606.27
499.19	20773.27
499.559	20929.42
499.928	21114.28
500.298	21249.41
500.667	21392.91
501.036	21510.42
501.405	21709.74
501.774	21776.86
502.143	21915.84
502.512	22079.9
502.88	22231.99
503.249	22377.52
503.618	22561.47
503.987	22697.51
504.356	22736.15
504.724	22978.86
505.093	22968.69
505.462	23107.9
505.83	23365.52
506.199	23629.69
506.567	23801.44
506.936	23755.79
507.304	24075.55
507.672	24198.04
508.041	24322.55
508.409	24492.27
508.777	24656.33
509.145	24959.6
509.514	24911.24
509.882	25107.39
510.25	25207.05
510.618	25452.01
510.986	25450.66
511.354	25648.39
511.722	25895.17
512.09	26103.75
512.458	26084.54
512.826	26390.52
513.193	26528.6
513.561	26685.65
513.929	26836.16
514.297	27072.54
514.664	27249.26
515.032	27297.62
515.4	27627.1
515.767	27629.81
516.135	27977.15
516.502	27974.89
516.869	28470.69
517.237	28582.55
517.604	28413.74
517.972	28981.41
518.339	29092.82
518.706	29100.05
519.073	29367.62
519.44	29541.62
519.808	29970.09
520.175	29842.86
520.542	30340.47
520.909	30449.4
521.276	30507.25
521.643	30875.6
522.009	30961.93
522.376	31225.2
522.743	31338.87
523.11	31783.6
523.477	32000.99
523.843	32163.25
524.21	32531.83
524.577	32619.96
524.943	32858.15
525.31	32960.74
525.676	33264.24
526.043	33439.15
526.409	33710.33
526.776	34033.71
527.142	34091.11
527.508	34259.47
527.874	34447.94
528.241	34719.34
528.607	34839.56
528.973	35255.37
529.339	35158.88
529.705	35478.42
530.071	35849.48
530.437	35971.29
530.803	36150.94
531.169	36423.93
531.535	36417.83
531.901	36521.1
532.267	36908.21
532.632	37084.48
532.998	37270.23
533.364	37545.26
533.73	37562.66
534.095	37968.52
534.461	38143.43
534.826	38275.86
535.192	38272.24
535.557	38618.67
535.923	38706.58
536.288	38832
536.653	39080.36
537.019	38966.01
537.384	39111.54
537.749	39298.2
538.114	39454.13
538.479	39652.09
538.845	39763.5
539.21	39750.4
539.575	39884.18
539.94	39970.05
540.305	40286.2
540.67	40225.86
541.034	40415.46
541.399	40523.93
541.764	40697.72
542.129	40731.61
542.494	40933.87
542.858	40979.74
543.223	41013.19
543.587	41298.15
543.952	41334.53
544.316	41406.17
544.681	41587.86
545.045	41739.04
545.41	41994.63
545.774	42165.7
546.138	42217.68
546.503	42340.16
546.867	42387.39
547.231	42691.56
547.595	42813.59
547.959	43050.2
548.324	42970.88
548.688	43090.42
549.052	43184.2
549.416	43413.58
549.779	43470.52
550.143	43624.42
550.507	43867.35
550.871	43983.05
551.235	44134.01
551.599	44347.79
551.962	44454
552.326	44526.99
552.689	44801.11
553.053	44717.04
553.417	44722.47
553.78	45352.73
554.143	45107.54
554.507	45423.24
554.87	45523.58
555.234	45885.6
555.597	45684.93
555.96	45927.63
556.323	45966.28
556.686	46127.4
557.05	46459.15
557.413	46468.64
557.776	46530.78
558.139	46959.7
558.502	46864.33
558.865	47051.9
559.228	47269.52
559.59	47360.59
559.953	47398.56
560.316	47873.35
560.679	47884.42
561.041	48068.37
561.404	48411.18
561.767	48537.74
562.129	48424.07
562.492	48863.6
562.854	48841.23
563.217	48880.32
563.579	49100.66
563.941	49285.06
564.304	49525.28
564.666	49736.57
565.028	49770.47
565.39	49910.81
565.753	50086.62
566.115	50162.1
566.477	50355.99
566.839	50474.63
567.201	50771.8
567.563	50739.03
567.925	50958.69
568.287	51073.94
568.648	51064.9
569.01	51238
569.372	51461.73
569.734	51429.41
570.095	51570.2
570.457	51676.41
570.819	51737.65
571.18	51684.32
571.542	52073.46
571.903	52030.75
572.265	52213.34
572.626	52214.25
572.987	52235.04
573.349	52400.46
573.71	52462.15
574.071	52625.31
574.432	52688.81
574.794	52930.39
575.155	52895.36
575.516	52765.42
575.877	52952.76
576.238	53051.97
576.599	53142.13
576.96	53105.52
577.32	53147.56
577.681	53310.04
578.042	53376.7
578.403	53413.31
578.763	53422.35
579.124	53535.12
579.485	53650.37
579.845	53671.61
580.206	53618.28
580.566	53644.49
580.927	53698.96
581.287	53779.41
581.648	53725.85
582.008	53865.96
582.368	53809.23
582.728	53844.04
583.089	53897.59
583.449	53869.12
583.809	53903.02
584.169	53992.51
584.529	54005.16
584.889	54112.96
585.249	53906.18
585.609	53878.61
585.969	54129.23
586.329	54060.98
586.688	54018.72
587.048	54022.79
587.408	53952.28
587.768	53962.23
588.127	53929.01
588.487	53866.63
588.846	54021.43
589.206	53818.95
589.565	53915.9
589.925	53955.45
590.284	54028.44
590.643	53987.54
591.003	54074.54
591.362	54110.47
591.721	54099.62
592.08	54116.57
592.44	54217.36
592.799	54226.17
593.158	54104.37
593.517	54182.11
593.876	54174.87
594.235	54039.96
594.593	54136.46
594.952	54217.59
595.311	54109.57
595.67	54135.1
596.029	54387.52
596.387	54343.23
596.746	54371.48
597.104	54137.59
597.463	54230.01
597.822	54363.34
598.18	54289
598.538	54274.08
598.897	54459.39
599.255	54194.99
599.613	54649.44
599.972	54509.78
600.33	54576.9
600.688	54457.35
601.046	54566.28
601.404	54681.98
601.762	54611.7
602.12	54745.48
602.478	54668.42
602.836	54647.86
603.194	54524.24
603.552	54618.71
603.91	54533.28
604.268	54695.54
604.625	54557.24
604.983	54667.52
605.341	54509.1
605.698	54724.92
606.056	54724.01
606.413	54666.84
606.771	54711.13
607.128	54680.62
607.485	54661.42
607.843	54658.25
608.2	54776.89
608.557	54871.81
608.914	54768.31
609.272	54958.81
609.629	54934.85
609.986	55093.95
610.343	54837.46
610.7	55074.74
611.057	55008.07
611.414	55035.42
611.771	55071.8
612.127	55099.6
612.484	55124.91
612.841	55241.06
613.198	55100.73
613.554	55131.69
613.911	55353.6
614.267	55235.64
614.624	55252.59
614.98	55259.59
615.337	55472.47
615.693	55331.45
616.05	55391.57
616.406	55550.88
616.762	55425.69
617.118	55534.16
617.475	55435.18
617.831	55503.88
618.187	55584.33
618.543	55551.34
618.899	55708.85
619.255	55610.32
619.611	55575.74
619.967	55728.05
620.323	55821.84
620.678	55632.24
621.034	55562.64
621.39	55636.08
621.746	55535.74
622.101	55808.96
622.457	55486.7
622.812	55643.76
623.168	55695.74
623.523	55671.11
623.879	55744.1
624.234	55515.63
624.589	55644.44
624.945	55624.1
625.3	55656.87
625.655	55669.52
626.01	55594.05
626.365	55628.4
626.72	55601.96
627.075	55520.15
627.43	55488.74
627.785	55462.75
628.14	55518.12
628.495	55487.38
628.85	55482.86
629.205	55328.74
629.559	55576.65
629.914	55386.59
630.269	55333.04
630.623	55267.73
630.978	55220.05
631.332	55328.74
631.687	55353.15
632.041	55152.25
632.396	55213.49
632.75	55140.5
633.104	55227.73
633.459	55055.98
633.813	55052.37
634.167	55029.54
634.521	55054.17
634.875	55083.55
635.229	55121.29
635.583	54928.3
635.937	54887.4
636.291	54874.97
636.645	54900.96
636.999	54754.29
637.352	54865.25
637.706	54723.56
638.06	54848.98
638.413	54726.95
638.767	54683.11
639.121	54718.82
639.474	54536.45
639.828	54592.94
640.181	54613.73
640.534	54613.51
640.888	54533.74
641.241	54362.67
641.594	54462.33
641.947	54517.24
642.301	54407.64
642.654	54417.58
643.007	54374.19
643.36	54343.68
643.713	54362.89
644.066	54390.91
644.419	54151.6
644.771	53942.79
645.124	53600.65
645.477	53496.7
645.83	53411.73
646.182	53273.66
646.535	53322.24
646.888	53291.28
647.24	53170.38
647.593	53334.45
647.945	53254.45
648.298	53122.02
648.65	53048.58
649.002	52849.03
649.355	53012.65
649.707	52939.43
650.059	52979.65
650.411	53280.89
650.763	53315.46
651.115	53707.32
651.467	53537.15
651.819	53500.54
652.171	53336.93
652.523	53243.15
652.875	53324.5
653.227	53204.96
653.578	53489.24
653.93	53359.76
654.282	53131.74
654.633	53117.05
654.985	53124.73
655.337	53106.88
655.688	53121.57
656.039	53163.38
656.391	52886.55
656.742	53010.61
657.094	53045.87
657.445	53083.6
657.796	52951.86
658.147	52930.84
658.498	52927
658.849	52984.85
659.2	52775.14
659.551	52759.54
659.902	52825.98
660.253	52864.85
660.604	52839.99
660.955	52656.27
661.306	52778.53
661.656	52646.33
662.007	52730.85
662.358	52835.02
662.708	52718.19
663.059	52695.14
663.409	52513.45
663.76	52789.37
664.11	52610.4
664.461	52695.37
664.811	52691.52
665.161	52636.84
665.511	52652.2
665.862	52541.7
666.212	52637.06
666.562	52575.82
666.912	52459.89
667.262	52497.4
667.612	52439.55
667.962	52476.61
668.312	52391.42
668.662	52542.15
669.011	52444.75
669.361	52383.06
669.711	52308.26
670.06	52320.01
670.41	52213.8
670.76	52253.12
671.109	52246.11
671.459	52135.38
671.808	52132.22
672.157	52134.02
672.507	51841.15
672.856	52018.77
673.205	52061.71
673.554	52156.17
673.904	51872.79
674.253	52054.25
674.602	51910.98
674.951	51438.22
675.3	51229.64
675.649	51722.51
675.998	51855.16
676.346	51660.14
676.695	51725.45
677.044	51446.59
677.393	51556.86
677.741	51678.67
678.09	51415.4
678.438	51325.68
678.787	51412.69
679.135	51478.22
679.484	51231.9
679.832	51380.37
680.181	51167.95
680.529	51271.45
680.877	51055.86
681.225	51067.16
681.573	51147.16
681.922	50940.84
682.27	50858.13
682.618	50963.89
682.966	50708.53
683.314	50815.87
683.661	50681.86
684.009	50580.62
684.357	50529.55
684.705	50405.03
685.053	50567.06
685.4	50406.61
685.748	50238.71
686.095	50224.47
686.443	50038.26
686.79	50121.2
687.138	50101.99
687.485	50054.98
687.832	49951.03
688.18	49913.52
688.527	49839.17
688.874	49757.36
689.221	49577.48
689.568	49520.76
689.915	49336.81
690.262	49401.89
690.609	49204.16
690.956	49088.68
691.303	49014.78
691.65	49021.56
691.997	48825.19
692.344	48595.13
692.69	48627.45
693.037	48467.45
693.383	48221.59
693.73	48389.72
694.077	48182.72
694.423	48072.44
694.769	48003.74
695.116	47963.51
695.462	47951.99
695.808	47762.84
696.155	47840.35
696.501	47491.89
696.847	47634.71
697.193	47222.97
697.539	47438.1
697.885	47056.19
698.231	46951.79
698.577	46943.43
698.923	46917.44
699.269	46721.51
699.614	46527.62
699.96	46538.24
700.306	46383.89
700.651	46211.47
700.997	46107.97
701.342	46069.33
701.688	45956.79
702.033	45787.75
702.379	45652.16
702.724	45535.55
703.069	45599.06
703.415	45087.66
703.76	45166.52
704.105	45198.84
704.45	45002.91
704.795	44777.16
705.14	44697.16
705.485	44642.47
705.83	44534.9
706.175	44569.93
706.52	44510.5
706.865	44172.65
707.209	44196.83
707.554	44157.06
707.899	44303.5
708.243	43960.68
708.588	43835.71
708.932	43550.52
709.277	43508.71
709.621	43736.96
709.966	43408.6
710.31	43320.47
710.654	42991.67
710.998	43152.34
711.342	43081.16
711.687	42860.14
712.031	42686.14
712.375	42698.34
712.719	42718.91
713.063	42626.48
713.407	42684.1
713.75	42513.03
714.094	42472.58
714.438	42331.8
714.782	42229.2
715.125	42030.56
715.469	42106.72
715.812	41897.01
716.156	41718.71
716.499	41793.73
716.843	41820.85
717.186	41467.64
717.53	41494.08
717.873	41446.4
718.216	41450.69
718.559	41282.56
718.902	41000.31
719.246	40938.16
719.589	40857.94
719.932	40668.79
720.275	40818.16
720.617	40684.16
720.96	40627.89
721.303	40580.43
721.646	40664.5
721.989	40297.5
722.331	40502.01
722.674	40312.64
723.016	40182.93
723.359	40151.29
723.701	40263.83
724.044	39964.85
724.386	39725.31
724.729	39892.99
725.071	39708.36
725.413	39700.45
725.755	39613.22
726.097	39525.77
726.439	39238.32
726.782	39393.34
727.124	39442.83
727.465	39329.39
727.807	39142.28
728.149	39131.43
728.491	38928.5
728.833	39040.36
729.175	38895.95
729.516	38803.98
729.858	38689.41
730.199	38734.6
730.541	38637.43
730.882	38595.17
731.224	38654.38
731.565	38265.46
731.906	38365.8
732.248	38502.29
732.589	38133.94
732.93	37947.96
733.271	38072.7
733.612	37961.52
733.953	38082.42
734.294	37995.19
734.635	37875.87
734.976	37891.24
735.317	37720.39
735.658	37686.27
735.999	37632.94
736.339	37701.86
736.68	37617.12
737.021	37441.08
737.361	37401.3
737.702	37561.53
738.042	37484.47
738.383	37287.41
738.723	37295.09
739.063	37119.96
739.404	37229.56
739.744	37048.32
740.084	36818.95
740.424	36956.12
740.764	36739.63
741.104	37025.27
741.444	36604.04
741.784	36613.53
742.124	36542.57
742.464	36504.38
742.804	36411.27
743.143	36444.95
743.483	36402.01
743.823	36117.95
744.162	36120.66
744.502	36063.03
744.841	35982.81
745.181	36126.99
745.52	35879.76
745.86	35945.3
746.199	35840.67
746.538	35818.97
746.877	35716.6
747.216	35750.5
747.556	35519.09
747.895	35480.23
748.234	35266.45
748.573	35401.36
748.911	35387.57
749.25	35156.17
749.589	35088.37
749.928	35134.7
750.267	35107.13
750.605	34971.76
750.944	34814.71
751.283	34655.84
751.621	34794.37
751.96	34552.34
752.298	34472.79
752.636	34567.71
752.975	34233.93
753.313	34150.09
753.651	34292.23
753.989	34116.42
754.327	33974.28
754.666	33853.38
755.004	33860.15
755.342	33660.16
755.679	33543.1
756.017	33473.27
756.355	33491.58
756.693	33454.06
757.031	33473.72
757.368	33265.37
757.706	33096.79
758.044	32966.39
758.381	33031.48
758.719	32789.9
759.056	32816.11
759.394	32703.12
759.731	32512.17
760.068	32567.53
760.405	32325.28
760.743	32306.98
761.08	32318.95
761.417	32151.95
761.754	32195.34
762.091	31977.49
762.428	31899.3
762.765	31651.17
763.102	31787.89
763.438	31626.32
763.775	31484.4
764.112	31630.83
764.449	31488.92
764.785	31270.84
765.122	31008.7
765.458	30977.07
765.795	30836.51
766.131	30888.71
766.467	30732.1
766.804	30581.6
767.14	30475.39
767.476	30521.71
767.812	30250.53
768.148	30422.28
768.485	30202.62
768.821	30019.8
769.157	29878.56
769.492	29854.84
769.828	29923.31
770.164	29594.28
770.5	29421.4
770.836	29512.02
771.171	29305.92
771.507	29391.12
771.842	29149.54
772.178	29061.19
772.513	28962.2
772.849	28937.8
773.184	28730.57
773.519	28616.45
773.855	28536.68
774.19	28383.91
774.525	28316.8
774.86	28319.96
775.195	28235.44
775.53	28081.78
775.865	27908.45
776.2	27819.64
776.535	27612.86
776.87	27627.55
777.205	27472.07
777.539	27284.28
777.874	27331.29
778.209	27099.88
778.543	27044.74
778.878	27045.64
779.212	26972.88
779.547	26841.58
779.881	26818.31
780.215	26591.65
780.55	26558.2
780.884	26469.84
781.218	26458.32
781.552	26287.7
781.886	26114.14
782.22	25934.94
782.554	26022.62
782.888	25651.33
783.222	25604.55
783.556	25420.83
783.889	25468.51
784.223	25235.75
784.557	25216.09
784.89	25193.49
785.224	25191
785.557	24985.36
785.891	24792.6
786.224	24836.44
786.558	24751.02
786.891	24488.2
787.224	24411.14
787.557	24325.49
787.891	24227.19
788.224	24116.91
788.557	24144.93
788.89	24112.61
789.223	24028.32
789.556	23785.62
789.888	23856.35
790.221	23630.59
790.554	23404.61
790.887	23334.78
791.219	23484.83
791.552	23419.53
791.884	23236.03
792.217	23213.2
792.549	23034
792.882	22890.05
793.214	22741.58
793.546	22886.88
793.879	22697.96
794.211	22688.02
794.543	22640.79
794.875	22598.53
795.207	22521.7
795.539	22457.29
795.871	22368.48
796.203	22194.47
796.535	22054.14
796.867	22146.34
797.198	22072.22
797.53	22094.81
797.862	21770.3
798.193	21900.92
798.525	21667.03
798.856	21783.86
799.188	21501.16
799.519	21469.75
799.85	21399.69
800.182	21329.86
800.513	21385.45
800.844	21097.1
801.175	21268.17
801.506	21171.67
801.837	21045.58
802.168	20928.29
802.499	20978.46
802.83	20803.55
803.161	20739.37
803.491	20778.24
803.822	20756.54
804.153	20600.84
804.483	20402.88
804.814	20442.43
805.145	20333.05
805.475	20420.73
805.805	20260.51
806.136	20272.94
806.466	20119.5
806.796	20140.29
807.126	19976.9
807.457	19977.81
807.787	19864.59
808.117	19999.28
808.447	19804.93
808.777	19835.89
809.107	19820.07
809.436	19674.09
809.766	19676.57
810.096	19612.39
810.426	19556.58
810.755	19622.56
811.085	19430.93
811.414	19460.08
811.744	19248.56
812.073	19221.67
812.403	19244.49
812.732	19110.26
813.061	19143.25
813.39	18957.72
813.719	18971.05
814.049	18978.96
814.378	18972.18
814.707	18895.58
815.036	18813.54
815.365	18775.35
815.693	18609.48
816.022	18618.97
816.351	18513.21
816.68	18426.89
817.008	18531.74
817.337	18275.93
817.665	18262.6
817.994	18214.01
818.322	18271.41
818.651	18172.88
818.979	18135.82
819.307	18239.55
819.636	18092.21
819.964	17856.73
820.292	18103.28
820.62	18014.24
820.948	17902.83
821.276	17988.03
821.604	17834.59
821.932	17933.12
822.259	17840.01
822.587	17881.37
822.915	17685.44
823.243	17927.01
823.57	17789.39
823.898	17763.18
824.225	17703.07
824.553	17769.5
824.88	17783.29
825.207	17768.6
825.535	17780.8
825.862	17750.3
826.189	17669.62
826.516	17835.27
826.843	17758.88
827.17	17717.3
827.497	17767.92
827.824	17770.18
828.151	17840.92
828.478	17655.16
828.805	17815.83
829.131	17716.62
829.458	17788.71
829.785	17610.19
830.111	17642.05
830.438	17724.53
830.764	17701.48
831.09	17670.07
831.417	17574.48
831.743	17616.29
832.069	17660.81
832.395	17555.27
832.722	17609.51
833.048	17424.2
833.374	17541.26
833.7	17378.33
834.026	17462.17
834.351	17561.83
834.677	17486.12
835.003	17416.07
835.329	17359.35
835.654	17371.55
835.98	17334.71
836.306	17383.53
836.631	17317.76
836.956	17256.52
837.282	17350.98
837.607	17263.3
837.932	17192.34
838.258	17104.66
838.583	17207.26
838.908	17044.78
839.233	17089.07
839.558	17031.22
839.883	16956.87
840.208	16849.53
840.533	16967.72
840.858	16934.95
841.182	16901.73
841.507	16834.16
841.832	16810.21
842.156	16887.27
842.481	16782.86
842.805	16794.39
843.13	16665.8
843.454	16647.5
843.778	16539.71
844.103	16451.12
844.427	16450.22
844.751	16561.63
845.075	16446.15
845.399	16358.47
845.723	16263.56
846.047	16193.27
846.371	16114.18
846.695	16092.49
847.019	15994.41
847.343	15880.74
847.666	15794.19
847.99	15813.17
848.313	15716.45
848.637	15693.85
848.96	15625.83
849.284	15631.71
849.607	15551.94
849.931	15490.24
850.254	15357.82
850.577	15233.3
850.9	15223.36
851.223	15176.13
851.546	15144.26
851.869	14929.13
852.192	15089.8
852.515	14799.64
852.838	14804.38
853.161	14732.97
853.483	14739.75
853.806	14713.09
854.129	14649.59
854.451	14629.02
854.774	14479.65
855.096	14456.6
855.419	14523.26
855.741	14495.01
856.063	14380.89
856.385	14295.02
856.708	14276.72
857.03	14195.81
857.352	14226.09
857.674	14157.85
857.996	14099.32
858.318	13945.42
858.64	13991.98
858.961	13954.46
859.283	13874.92
859.605	13862.49
859.926	13848.25
860.248	13856.61
860.57	13808.25
860.891	13817.97
861.212	13736.39
861.534	13647.13
861.855	13721.93
862.176	13667.01
862.498	13628.6
862.819	13629.95
863.14	13542.5
863.461	13397.64
863.782	13469.05
864.103	13502.72
864.424	13462.5
864.745	13483.06
865.065	13370.75
865.386	13266.57
865.707	13315.84
866.027	13373.46
866.348	13378.66
866.668	13292.56
866.989	13231.77
867.309	13130.3
867.63	13179.79
867.95	13097.99
868.27	13064.54
868.59	13105.9
868.91	13109.06
869.23	13082.85
869.55	13065
869.87	13053.02
870.19	13014.15
870.51	12999.46
870.83	12958.78
871.15	12898.22
871.469	12827.94
871.789	12842.63
872.109	12839.01
872.428	12791.33
872.748	12825
873.067	12738.22
873.386	12766.25
873.706	12719.47
874.025	12685.57
874.344	12665.23
874.663	12667.94
874.982	12630.2
875.301	12609.64
875.62	12483.54
875.939	12512.92
876.258	12544.56
876.577	12439.25
876.896	12465.24
877.214	12396.54
877.533	12439.48
877.852	12419.81
878.17	12419.81
878.489	12365.58
878.807	12396.09
879.125	12290.78
879.444	12341.85
879.762	12294.85
880.08	12231.12
880.398	12211.01
880.716	12259.37
881.034	12155.87
881.352	12152.25
881.67	12087.39
881.988	12176.66
882.306	12004.23
882.624	12056.21
882.941	12039.71
883.259	11931.92
883.577	11823.45
883.894	11844.01
884.212	11877
884.529	11891.92
884.846	11782.09
885.164	11852.15
885.481	11749.1
885.798	11807.85
886.115	11663.68
886.432	11671.36
886.75	11642.21
887.067	11618.71
887.383	11631.59
887.7	11583.68
888.017	11514.08
888.334	11485.38
888.651	11468.43
888.967	11500.74
889.284	11336.91
889.6	11348.88
889.917	11277.02
890.233	11323.12
890.55	11253.97
890.866	11312.27
891.182	11246.06
891.498	11182.79
891.815	11100.3
892.131	11077.25
892.447	11060.98
892.763	11002.22
893.079	11020.76
893.395	10993.19
893.71	10987.54
894.026	10880.87
894.342	10868.9
894.657	10831.61
894.973	10774.66
895.289	10764.72
895.604	10668.22
895.92	10654.44
896.235	10624.16
896.55	10609.24
896.865	10556.59
897.181	10498.96
897.496	10577.83
897.811	10484.27
898.126	10449.7
898.441	10353.43
898.756	10383.94
899.071	10307.78
899.386	10240.44
899.7	10245.18
900.015	10204.51
900.33	10162.47
900.644	10101.68
900.959	10022.14
901.273	9960.9
901.588	9945.98
901.902	9947.34
902.216	9908.69
902.531	9932.2
902.845	9836.61
903.159	9745.31
903.473	9750.05
903.787	9792.99
904.101	9670.28
904.415	9625.31
904.729	9706.44
905.042	9640.45
905.356	9542.6
905.67	9521.59
905.984	9533.79
906.297	9439.78
906.611	9376.5
906.924	9381.7
907.237	9352.32
907.551	9303.06
907.864	9317.07
908.177	9273.46
908.491	9279.56
908.804	9150.3
909.117	9115.49
909.43	9089.73
909.743	9045.21
910.056	9021.49
910.368	9019.9
910.681	8962.73
910.994	9000.47
911.307	8913.69
911.619	8797.31
911.932	8816.52
912.244	8792.57
912.557	8740.14
912.869	8710.31
913.181	8687.03
913.494	8629.41
913.806	8583.08
914.118	8547.83
914.43	8470.99
914.742	8488.84
915.054	8422.63
915.366	8388.96
915.678	8359.13
915.99	8332.69
916.302	8203.65
916.613	8259.02
916.925	8214.5
917.236	8203.43
917.548	8133.83
917.859	8141.51
918.171	8056.31
918.482	8059.93
918.794	8003.89
919.105	8000.72
919.416	7940.38
919.727	7920.72
920.038	7869.43
920.349	7788.75
920.66	7761.41
920.971	7728.19
921.282	7768.19
921.593	7624.46
921.903	7590.34
922.214	7630.34
922.525	7573.16
922.835	7540.17
923.146	7518.02
923.456	7513.28
923.767	7392.6
924.077	7442.77
924.387	7392.83
924.697	7335.65
925.008	7329.78
925.318	7226.73
925.628	7257.92
925.938	7239.16
926.248	7170.69
926.558	7090.92
926.867	7123.23
927.177	7102.89
927.487	7061.31
927.796	6966.85
928.106	6963.23
928.416	6931.82
928.725	6934.08
929.034	6845.05
929.344	6924.82
929.653	6851.37
929.962	6811.83
930.271	6771.15
930.581	6697.93
930.89	6720.98
931.199	6642.34
931.508	6672.4
931.817	6621.78
932.125	6579.52
932.434	6561.21
932.743	6490.93
933.051	6462.68
933.36	6437.15
933.669	6427.2
933.977	6389.92
934.286	6327.77
934.594	6347.88
934.902	6344.27
935.21	6362.57
935.519	6283.03
935.827	6250.49
936.135	6209.36
936.443	6161.22
936.751	6151.05
937.059	6153.99
937.367	6081.45
937.674	6045.97
937.982	6083.48
938.29	5996.93
938.597	5984.73
938.905	5964.17
939.213	6003.03
939.52	5961.68
939.827	5899.31
940.135	5837.84
940.442	5819.54
940.749	5765.3
941.056	5830.84
941.363	5730.73
941.67	5741.8
941.977	5713.78
942.284	5723.04
942.591	5645.3
942.898	5613.89
943.205	5602.37
943.511	5593.55
943.818	5549.49
944.125	5526.44
944.431	5471.3
944.738	5482.82
945.044	5500.45
945.35	5444.18
945.657	5359.44
945.963	5377.74
946.269	5340.9
946.575	5294.58
946.881	5300
947.187	5283.73
947.493	5272.43
947.799	5184.3
948.105	5235.37
948.41	5192.21
948.716	5162.38
949.022	5150.63
949.327	5097.97
949.633	5020.46
949.938	5029.5
950.244	5060.46
950.549	4984.08
950.854	5017.75
951.16	4969.62
951.465	4946.56
951.77	4880.13
952.075	4907.92
952.38	4894.81
952.685	4840.35
952.99	4837.19
953.294	4882.39
953.599	4822.05
953.904	4783.41
954.209	4750.19
954.513	4737.08
954.818	4726.68
955.122	4719.68
955.426	4703.86
955.731	4653.69
956.035	4640.13
956.339	4628.61
956.643	4600.13
956.948	4563.52
957.252	4537.99
957.556	4547.25
957.86	4542.28
958.163	4555.84
958.467	4491.89
958.771	4478.33
959.075	4488.72
959.378	4426.58
959.682	4435.39
959.985	4385.68
960.289	4375.73
960.592	4315.4
960.896	4347.71
961.199	4333.02
961.502	4311.1
961.805	4321.04
962.108	4251.89
962.411	4256.87
962.714	4226.36
963.017	4201.73
963.32	4188.17
963.623	4147.04
963.926	4172.8
964.228	4104.33
964.531	4115.17
964.833	4104.55
965.136	4061.16
965.438	4008.28
965.741	4016.42
966.043	4015.06
966.345	3984.56
966.648	3966.48
966.95	3967.61
967.252	3926.93
967.554	3905.91
967.856	3898.91
968.158	3848.29
968.46	3861.17
968.761	3804.9
969.063	3823.66
969.365	3825.24
969.666	3788.86
969.968	3745.47
970.269	3718.12
970.571	3751.34
970.872	3707.28
971.174	3692.81
971.475	3674.51
971.776	3647.16
972.077	3625.92
972.378	3681.74
972.679	3636.54
972.98	3598.8
973.281	3606.49
973.582	3547.05
973.883	3529.65
974.183	3551.12
974.484	3492.37
974.785	3496.89
975.085	3520.84
975.386	3488.3
975.686	3434.74
975.986	3473.16
976.287	3465.47
976.587	3413.72
976.887	3397.45
977.187	3408.3
977.487	3370.56
977.787	3335.08
978.087	3317
978.387	3299.83
978.687	3304.8
978.987	3288.08
979.286	3264.35
979.586	3272.71
979.885	3237.68
980.185	3190.45
980.484	3185.03
980.784	3167.63
981.083	3194.52
981.382	3163.11
981.682	3138.48
981.981	3129.89
982.28	3144.13
982.579	3107.97
982.878	3096.22
983.177	3072.72
983.475	3049.21
983.774	3049.67
984.073	3055.09
984.372	2984.36
984.67	3059.83
984.969	3002.66
985.267	2996.11
985.566	2943.23
985.864	2922.21
986.162	2955.88
986.461	2928.54
986.759	2906.39
987.057	2860.97
987.355	2867.75
987.653	2903
987.951	2867.98
988.249	2853.51
988.547	2794.08
988.844	2831.14
989.142	2790.24
989.44	2766.28
989.737	2744.81
990.035	2759.73
990.332	2760.63
990.63	2733.52
990.927	2707.98
991.224	2684.93
991.521	2646.74
991.819	2663.01
992.116	2664.82
992.413	2638.15
992.71	2620.52
993.006	2632.5
993.303	2596.57
993.6	2601.99
993.897	2602.22
994.193	2587.3
994.49	2519.96
994.787	2543.92
995.083	2534.2
995.379	2526.29
995.676	2502.56
995.972	2521.77
996.268	2467.76
996.565	2461.21
996.861	2433.18
997.157	2435.67
997.453	2418.27
997.749	2399.74
998.044	2413.52
998.34	2413.3
998.636	2375.78
998.932	2369.68
999.227	2327.2
999.523	2336.92
999.818	2325.84
1000.114	2325.39
1000.409	2307.31
1000.704	2281.32
1001	2271.38
1001.295	2293.75
1001.59	2283.13
1001.885	2231.83
1002.18	2246.52
1002.475	2224.38
1002.77	2205.39
1003.065	2189.12
1003.359	2217.37
1003.654	2168.11
1003.949	2155.45
1004.243	2151.38
1004.538	2131.5
1004.832	2112.97
1005.127	2116.13
1005.421	2099.41
1005.715	2114.55
1006.009	2087.66
1006.304	2093.08
1006.598	2062.35
1006.892	2049.01
1007.186	2028.68
1007.48	2029.13
1007.773	1990.03
1008.067	1991.84
1008.361	1992.52
1008.655	1959.52
1008.948	1954.33
1009.242	1933.31
1009.535	1950.71
1009.829	1903.48
1010.122	1902.58
1010.415	1908.45
1010.708	1874.78
1011.001	1861.22
1011.295	1871.17
1011.588	1870.26
1011.881	1861.22
1012.173	1831.62
1012.466	1816.48
1012.759	1805.18
1013.052	1822.58
1013.344	1822.58
1013.637	1812.64
1013.93	1786.42
1014.222	1776.93
1014.514	1772.41
1014.807	1733.77
1015.099	1724.05
1015.391	1717.05
1015.683	1708.46
1015.976	1710.94
1016.268	1669.81
1016.56	1661
1016.851	1692.41
1017.143	1652.64
1017.435	1631.4
1017.727	1634.56
1018.018	1608.57
1018.31	1637.05
1018.602	1614.68
1018.893	1603.6
1019.185	1600.89
1019.476	1579.65
1019.767	1579.87
1020.058	1572.64
1020.35	1542.13
1020.641	1545.75
1020.932	1515.47
1021.223	1523.38
1021.514	1533.1
1021.804	1478.63
1022.095	1463.94
1022.386	1461.23
1022.677	1445.19
1022.967	1442.25
1023.258	1458.97
1023.548	1452.19
1023.839	1432.98
1024.129	1429.6
1024.419	1415.36
1024.709	1373.78
1025	1392.99
1025.29	1369.48
1025.58	1359.99
1025.87	1354.34
1026.16	1374.68
1026.449	1331.29
1026.739	1327.45
1027.029	1321.35
1027.319	1312.76
1027.608	1299.66
1027.898	1304.85
1028.187	1288.36
1028.477	1286.1
1028.766	1273.67
1029.055	1251.07
1029.344	1243.39
1029.634	1257.4
1029.923	1228.7
1030.212	1236.38
1030.501	1212.2
1030.79	1229.15
1031.078	1197.74
1031.367	1199.09
1031.656	1186.21
1031.945	1158.19
1032.233	1162.71
1032.522	1153.22
1032.81	1164.97
1033.099	1138.3
1033.387	1125.87
1033.675	1132.2
1033.963	1114.35
1034.251	1123.39
1034.54	1091.52
1034.828	1097.85
1035.116	1079.77
1035.403	1080.45
1035.691	1051.07
1035.979	1064.41
1036.267	1081.36
1036.554	1059.21
1036.842	1037.74
1037.129	1058.08
1037.417	1015.37
1037.704	1039.55
1037.992	1024.18
1038.279	1005.88
1038.566	1017.63
1038.853	1017.63
1039.14	1017.63
