Data from white_wall_FLMS001491_064.txt Node
Date: Tue Feb 07 11:05:23 GMT 2017
User: dcchb
Spectrometer: FLMS00149
Trigger mode: 0
Integration Time (sec): 2.000000E-2
Scans to average: 10
Electric dark correction enabled: true
Nonlinearity correction enabled: false
Boxcar width: 0
XAxis mode: Wavelengths
Number of Pixels in Spectrum: 2048
>>>>>Begin Spectral Data<<<<<
341.393	4.01
341.776	4.01
342.16	4.01
342.543	-68.53
342.927	-58.59
343.31	-65.82
343.693	-88.19
344.077	-61.07
344.46	-54.07
344.843	-60.17
345.226	-28.08
345.61	-17.23
345.993	-24.01
346.376	-8.64
346.759	16.89
347.142	17.57
347.525	41.07
347.908	69.09
348.291	77.46
348.674	88.08
349.057	97.12
349.44	134.63
349.823	150.45
350.206	160.39
350.588	210.11
350.971	227.73
351.354	242.87
351.737	258.69
352.119	269.31
352.502	285.13
352.884	284
353.267	294.4
353.65	310.67
354.032	319.94
354.414	326.04
354.797	335.98
355.179	364.23
355.562	327.39
355.944	350.89
356.326	334.4
356.709	371.91
357.091	348.18
357.473	363.55
357.855	366.49
358.238	364.91
358.62	345.92
359.002	340.05
359.384	356.32
359.766	349.31
360.148	354.28
360.53	345.47
360.912	365.13
361.294	375.3
361.676	374.62
362.057	376.43
362.439	344.34
362.821	353.61
363.203	356.77
363.584	340.95
363.966	335.98
364.348	348.18
364.729	348.18
365.111	357
365.493	337.34
365.874	356.54
366.256	333.27
366.637	354.96
367.019	348.18
367.4	335.75
367.781	328.75
368.163	324.45
368.544	339.82
368.925	332.82
369.306	364.91
369.688	320.39
370.069	343.89
370.45	330.1
370.831	348.86
371.212	347.05
371.593	356.09
371.974	357
372.355	335.53
372.736	376.2
373.117	347.73
373.498	319.03
373.879	345.47
374.26	352.02
374.641	342.53
375.021	349.09
375.402	354.74
375.783	343.44
376.163	385.24
376.544	368.75
376.925	371.69
377.305	362.19
377.686	382.31
378.066	374.85
378.447	342.08
378.827	367.62
379.208	364.91
379.588	385.24
379.968	370.1
380.349	378.92
380.729	376.88
381.109	376.43
381.489	387.28
381.87	380.95
382.25	397
382.63	391.35
383.01	390.67
383.39	375.75
383.77	411.91
384.15	403.77
384.53	400.16
384.91	411.01
385.29	409.88
385.67	418.24
386.049	406.49
386.429	411.01
386.809	415.3
387.189	418.92
387.568	421.4
387.948	426.6
388.328	447.84
388.707	443.1
389.087	442.42
389.466	450.78
389.846	441.06
390.225	468.41
390.605	457.78
390.984	458.46
391.363	455.52
391.743	458.91
392.122	488.52
392.501	485.58
392.881	499.14
393.26	507.73
393.639	533.26
394.018	498.24
394.397	529.87
394.776	515.18
395.155	531.91
395.534	538.23
395.913	553.38
396.292	543.88
396.671	593.15
397.05	578.69
397.429	572.36
397.808	559.02
398.186	592.92
398.565	581.17
398.944	611.9
399.323	642.19
399.701	655.29
400.08	632.24
400.458	668.4
400.837	657.1
401.215	701.17
401.594	681.96
401.972	716.76
402.351	690.77
402.729	721.05
403.107	753.6
403.486	759.7
403.864	768.74
404.242	780.04
404.62	777.78
404.999	799.92
405.377	835.4
405.755	840.37
406.133	869.07
406.511	868.62
406.889	887.6
407.267	876.53
407.645	920.82
408.023	934.38
408.401	923.08
408.779	991.33
409.156	1008.05
409.534	990.2
409.912	1014.83
410.29	1022.06
410.667	1061.84
411.045	1075.17
411.422	1109.52
411.8	1111.78
412.178	1116.75
412.555	1134.83
412.933	1172.57
413.31	1181.16
413.687	1186.35
414.065	1205.34
414.442	1208.27
414.819	1221.15
415.197	1250.08
415.574	1284.88
415.951	1301.6
416.328	1313.36
416.705	1341.15
417.082	1336.63
417.46	1395.39
417.837	1386.12
418.214	1352.45
418.591	1418.44
418.967	1414.14
419.344	1429.06
419.721	1443.97
420.098	1453.46
420.475	1498.44
420.852	1500.24
421.228	1512.22
421.605	1516.74
421.982	1536.4
422.358	1592.22
422.735	1592.44
423.111	1591.09
423.488	1619.56
423.864	1611.65
424.241	1643.52
424.617	1674.25
424.994	1685.77
425.37	1678.09
425.746	1733.23
426.123	1744.08
426.499	1756.96
426.875	1725.77
427.251	1792.66
427.627	1866.56
428.003	1873.79
428.379	1869.95
428.756	1904.98
429.132	1918.54
429.507	1946.78
429.883	1997.63
430.259	1978.42
430.635	2017.74
431.011	2071.3
431.387	2069.72
431.763	2144.52
432.138	2144.97
432.514	2165.99
432.89	2159.66
433.265	2250.05
433.641	2263.84
434.016	2332.54
434.392	2338.19
434.767	2388.13
435.143	2385.87
435.518	2408.02
435.894	2460.44
436.269	2463.61
436.644	2529.82
437.02	2522.14
437.395	2558.29
437.77	2648.24
438.145	2607.11
438.52	2646.65
438.895	2679.42
439.271	2666.77
439.646	2755.8
440.021	2744.28
440.395	2777.05
440.77	2735.01
441.145	2807.55
441.52	2826.08
441.895	2844.61
442.27	2878.96
442.645	2875.57
443.019	2942.92
443.394	2956.48
443.769	2968
444.143	2964.16
444.518	3036.02
444.892	3027.21
445.267	3069.69
445.641	3125.29
446.016	3097.94
446.39	3157.6
446.764	3170.93
447.139	3145.85
447.513	3223.59
447.887	3210.25
448.262	3264.94
448.636	3267.43
449.01	3337.48
449.384	3351.04
449.758	3398.27
450.132	3449.8
450.506	3450.02
450.88	3506.74
451.254	3487.76
451.628	3554.2
452.002	3586.74
452.376	3629
452.75	3641.66
453.123	3717.59
453.497	3715.55
453.871	3734.99
454.244	3833.97
454.618	3845.72
454.992	3926.39
455.365	3969.33
455.739	4025.37
456.112	4098.59
456.486	4113.73
456.859	4151.47
457.232	4271.47
457.606	4244.8
457.979	4276.44
458.352	4373.61
458.725	4475.08
459.099	4510.79
459.472	4545.59
459.845	4582.87
460.218	4670.33
460.591	4683.66
460.964	4731.57
461.337	4849.99
461.71	4915.07
462.083	4962.98
462.456	5035.29
462.829	5029.64
463.201	5132.46
463.574	5162.75
463.947	5215.17
464.32	5289.07
464.692	5337.66
465.065	5351.89
465.438	5531.55
465.81	5569.74
466.183	5684.77
466.555	5794.37
466.928	5789.62
467.3	5853.35
467.672	5884.08
468.045	6050.86
468.417	6110.74
468.789	6119.56
469.161	6223.28
469.534	6370.85
469.906	6459.66
470.278	6540.11
470.65	6578.98
471.022	6805.64
471.394	6888.58
471.766	6979.42
472.138	7014.9
472.51	7152.3
472.882	7292.18
473.253	7426.64
473.625	7515.68
473.997	7687.42
474.369	7706.86
474.74	7823.47
475.112	8003.8
475.484	8138.26
475.855	8319.27
476.227	8339.39
476.598	8570.11
476.97	8677
477.341	8911.8
477.713	8994.51
478.084	9023.44
478.455	9251.9
478.827	9354.27
479.198	9708.61
479.569	9693.02
479.94	10013.47
480.311	10068.61
480.682	10306.57
481.053	10527.8
481.424	10686.44
481.795	10814.35
482.166	10978.19
482.537	11195.36
482.908	11378.4
483.279	11486.87
483.65	11789.01
484.021	11982.23
484.391	12105.84
484.762	12255.89
485.133	12329.11
485.503	12508.09
485.874	12864.92
486.244	12955.08
486.615	13269.65
486.985	13353.04
487.356	13678.45
487.726	13667.15
488.097	14000.48
488.467	14157.31
488.837	14422.16
489.207	14575.15
489.578	14872.55
489.948	14916.16
490.318	15112.77
490.688	15262.14
491.058	15493.55
491.428	15667.33
491.798	15888.79
492.168	16222.57
492.538	16317.25
492.908	16499.62
493.278	16719.5
493.648	16712.05
494.017	16990.23
494.387	17097.12
494.757	17398.58
495.126	17473.61
495.496	17612.14
495.866	17655.07
496.235	17950.21
496.605	18121.5
496.974	18224.1
497.344	18440.59
497.713	18540.47
498.082	18619.79
498.452	18870.86
498.821	18892.78
499.19	19053.45
499.559	19221.36
499.928	19431.3
500.298	19501.13
500.667	19722.14
501.036	19742.25
501.405	20012.07
501.774	20018.85
502.143	20237.6
502.512	20309.01
502.88	20463.36
503.249	20592.4
503.618	20838.72
503.987	20872.62
504.356	21034.42
504.724	21167.07
505.093	21359.61
505.462	21403.45
505.83	21705.81
506.199	21782.42
506.567	22056.54
506.936	22046.82
507.304	22366.81
507.672	22548.5
508.041	22704.88
508.409	22752.79
508.777	23035.04
509.145	23198.2
509.514	23186.23
509.882	23412.66
510.25	23585.09
510.618	23774.46
510.986	23886.77
511.354	24086.77
511.722	24296.48
512.09	24583.25
512.458	24488.57
512.826	24773.53
513.193	24903.7
513.561	25065.05
513.929	25198.15
514.297	25564.47
514.664	25622.55
515.032	25791.36
515.4	25990.45
515.767	26164.68
516.135	26348.4
516.502	26125.13
516.869	26706.59
517.237	26872.01
517.604	26900.71
517.972	27227.7
518.339	27480.58
518.706	27442.84
519.073	27736.84
519.44	27790.17
519.808	28176.6
520.175	28169.82
520.542	28649.81
520.909	28825.4
521.276	28902.46
521.643	29219.06
522.009	29249.34
522.376	29585.83
522.743	29716.22
523.11	29933.62
523.477	30279.83
523.843	30448.41
524.21	30725.01
524.577	30883.88
524.943	31155.06
525.31	31301.72
525.676	31536.52
526.043	31752.55
526.409	31940.8
526.776	32294.69
527.142	32491.29
527.508	32576.49
527.874	32996.14
528.241	33021.22
528.607	33254.89
528.973	33512.28
529.339	33522.45
529.705	33849
530.071	34088.76
530.437	34375.76
530.803	34499.15
531.169	34761.74
531.535	34610.56
531.901	34820.5
532.267	35100.26
532.632	35427.26
532.998	35453.93
533.364	35662.06
533.73	35664.77
534.095	35983.4
534.461	36093.68
534.826	36346.56
535.192	36527.8
535.557	36704.52
535.923	36734.12
536.288	36893.89
536.653	36998.97
537.019	36907.22
537.384	37149.02
537.749	37396.47
538.114	37684.83
538.479	37683.7
538.845	37817.25
539.21	37672.4
539.575	37968.66
539.94	38191.26
540.305	38363.91
540.67	38306.05
541.034	38531.36
541.399	38790.56
541.764	38896.55
542.129	39173.15
542.494	39189.2
542.858	39320.49
543.223	39419.47
543.587	39540.6
543.952	39655.4
544.316	39736.98
544.681	39809.07
545.045	39968.38
545.41	40408.82
545.774	40610.4
546.138	40406.11
546.503	40828.93
546.867	40650.4
547.231	40962.48
547.595	41088.58
547.959	41297.84
548.324	41392.53
548.688	41444.28
549.052	41610.6
549.416	41766.3
549.779	41911.61
550.143	42122.9
550.507	42267.98
550.871	42460.97
551.235	42474.53
551.599	42828.2
551.962	42962.2
552.326	43152.71
552.689	43281.74
553.053	43199.26
553.417	43441.51
553.78	43982.74
554.143	43929.64
554.507	44123.53
554.87	44355.84
555.234	44676.06
555.597	44568.72
555.96	44769.84
556.323	45003.05
556.686	45037.18
557.05	45437.17
557.413	45560.1
557.776	45619.31
558.139	45932.3
558.502	46012.97
558.865	46228.33
559.228	46339.29
559.59	46477.82
559.953	46624.48
560.316	47121.87
560.679	47199.15
561.041	47425.14
561.404	47474.18
561.767	47810.44
562.129	47765.69
562.492	48152.12
562.854	48026.7
563.217	48210.65
563.579	48397.99
563.941	48624.88
564.304	48747.14
564.666	48902.61
565.028	48930.18
565.39	49258.76
565.753	49500.79
566.115	49404.75
566.477	49666.66
566.839	49790.27
567.201	49984.17
567.563	50069.59
567.925	50176.7
568.287	50272.97
568.648	50356.81
569.01	50617.37
569.372	50832.96
569.734	50808.55
570.095	50939.17
570.457	51102.55
570.819	51141.2
571.18	51194.53
571.542	51422.55
571.903	51461.64
572.265	51586.61
572.626	51646.04
572.987	51732.37
573.349	51847.39
573.71	51950.22
574.071	52046.26
574.432	52163.54
574.794	52336.19
575.155	52336.87
575.516	52182.53
575.877	52399.7
576.238	52488.73
576.599	52598.79
576.96	52646.47
577.32	52618
577.681	52743.42
578.042	52826.35
578.403	52831.55
578.763	52773.92
579.124	52857.54
579.485	53045.1
579.845	53050.98
580.206	52943.64
580.566	53049.85
580.927	53085.78
581.287	53229.05
581.648	53086.23
582.008	53316.51
582.368	53216.17
582.728	53272.44
583.089	53257.07
583.449	53220.47
583.809	53335.49
584.169	53387.24
584.529	53245.78
584.889	53509.27
585.249	53224.08
585.609	53240.35
585.969	53475.37
586.329	53382.04
586.688	53479.22
587.048	53393.12
587.408	53220.24
587.768	53409.39
588.127	53366.22
588.487	53236.96
588.846	53499.33
589.206	53319.22
589.565	53327.81
589.925	53495.94
590.284	53494.58
590.643	53477.18
591.003	53511.76
591.362	53592.21
591.721	53513.11
592.08	53505.2
592.44	53602.83
592.799	53481.93
593.158	53557.18
593.517	53551.76
593.876	53591.08
594.235	53541.59
594.593	53600.79
594.952	53640.34
595.311	53570.29
595.67	53677.63
596.029	53804.18
596.387	53847.34
596.746	53836.95
597.104	53785.42
597.463	53668.81
597.822	53797.85
598.18	53716.27
598.538	53692.54
598.897	53919.2
599.255	53654.8
599.613	54022.03
599.972	53825.42
600.33	53888.24
600.688	53892.54
601.046	53959.88
601.404	54152.42
601.762	53913.55
602.12	54096.15
602.478	54173.89
602.836	54099.54
603.194	53957.39
603.552	54062.93
603.91	53953.33
604.268	54160.55
604.625	54077.17
604.983	54210.95
605.341	54067.45
605.698	54154.45
606.056	54269.93
606.413	54221.79
606.771	54351.96
607.128	54387.44
607.485	54281.68
607.843	54260.21
608.2	54441.9
608.557	54532.75
608.914	54414.78
609.272	54628.56
609.629	54699.07
609.986	54770.48
610.343	54613.65
610.7	54718.05
611.057	54652.29
611.414	54685.06
611.771	54665.62
612.127	54805.73
612.484	54776.36
612.841	54783.36
613.198	54796.47
613.554	54777.94
613.911	54917.37
614.267	54991.49
614.624	54993.98
614.98	54956.46
615.337	55097.7
615.693	55052.73
616.05	55034.88
616.406	55162.79
616.762	55153.52
617.118	55042.34
617.475	55081.21
617.831	55230.81
618.187	55251.15
618.543	55341.09
618.899	55361.65
619.255	55357.36
619.611	55324.36
619.967	55430.8
620.323	55452.27
620.678	55357.13
621.034	55306.96
621.39	55268.55
621.746	55308.32
622.101	55649.55
622.457	55410.24
622.812	55447.98
623.168	55596.9
623.523	55557.58
623.879	55595.32
624.234	55381.31
624.589	55488.88
624.945	55504.92
625.3	55411.37
625.655	55540.86
626.01	55513.74
626.365	55555.32
626.72	55463.34
627.075	55508.77
627.43	55474.42
627.785	55381.31
628.14	55499.73
628.495	55480.97
628.85	55439.16
629.205	55332.27
629.559	55516.45
629.914	55326.17
630.269	55396.45
630.623	55332.5
630.978	55243.24
631.332	55423.8
631.687	55394.87
632.041	55250.69
632.396	55338.38
632.75	55281.43
633.104	55250.47
633.459	55139.51
633.813	55089.12
634.167	55091.83
634.521	55076.91
634.875	55112.39
635.229	55088.44
635.583	54924.6
635.937	55010.7
636.291	54897.94
636.645	55005.28
636.999	54871.72
637.352	54994.2
637.706	54740.43
638.06	54903.58
638.413	54841.67
638.767	54689.13
639.121	54719.86
639.474	54648.68
639.828	54694.55
640.181	54744.04
640.534	54736.36
640.888	54577.04
641.241	54475.57
641.594	54619.52
641.947	54600.77
642.301	54450.94
642.654	54408.91
643.007	54490.26
643.36	54451.62
643.713	54365.29
644.066	54473.99
644.419	54224.96
644.771	54158.07
645.124	53747.46
645.477	53784.97
645.83	53576.84
646.182	53451.65
646.535	53426.34
646.888	53422.27
647.24	53285.55
647.593	53408.48
647.945	53345.89
648.298	53112.9
648.65	53085.33
649.002	53050.07
649.355	53226.57
649.707	53097.76
650.059	53245.1
650.411	53588.36
650.763	53577.74
651.115	53969.15
651.467	53812.31
651.819	53759.21
652.171	53758.98
652.523	53639.21
652.875	53660.91
653.227	53519.44
653.578	53754.69
653.93	53582.26
654.282	53521.7
654.633	53404.42
654.985	53409.61
655.337	53495.94
655.688	53435.15
656.039	53605.09
656.391	53309.95
656.742	53409.61
657.094	53343.63
657.445	53477.86
657.796	53273.57
658.147	53213.46
658.498	53261.59
658.849	53308.15
659.2	53247.36
659.551	53114.03
659.902	53302.72
660.253	53299.11
660.604	53218.88
660.955	53062.28
661.306	53206.68
661.656	53113.8
662.007	52982.73
662.358	53011.21
662.708	52973.69
663.059	52898.21
663.409	52809.63
663.76	52990.64
664.11	52878.55
664.461	53053.46
664.811	53009.17
665.161	52906.12
665.511	52872.9
665.862	52794.71
666.212	52928.27
666.562	52964.43
666.912	52875.16
667.262	52821.61
667.612	52836.75
667.962	52756.52
668.312	52686.69
668.662	52848.05
669.011	52788.16
669.361	52746.13
669.711	52632.91
670.06	52661.61
670.41	52603.53
670.76	52530.77
671.109	52708.39
671.459	52646.69
671.808	52588.84
672.157	52604.66
672.507	52424.1
672.856	52389.3
673.205	52435.17
673.554	52397.21
673.904	52415.51
674.253	52539.58
674.602	52419.58
674.951	51913.83
675.3	51697.57
675.649	52251.68
675.998	52277.89
676.346	52298.46
676.695	52278.57
677.044	52111.57
677.393	52185.92
677.741	52193.15
678.09	52046.03
678.438	51909.31
678.787	52063.21
679.135	52052.81
679.484	51787.06
679.832	52013.04
680.181	51811.46
680.529	51872.93
680.877	51908.86
681.225	51745.48
681.573	52043.09
681.922	51487.63
682.27	51666.38
682.618	51586.16
682.966	51487.18
683.314	51482.88
683.661	51426.39
684.009	51192.27
684.357	51159.73
684.705	51074.08
685.053	51083.12
685.4	50974.65
685.748	50833.18
686.095	50873.41
686.443	50691.94
686.79	50610.36
687.138	50810.36
687.485	50658.27
687.832	50564.72
688.18	50484.72
688.527	50311.84
688.874	50337.38
689.221	50244.95
689.568	50160.66
689.915	50123.15
690.262	50007.89
690.609	49943.26
690.956	49752.99
691.303	49728.35
691.65	49539.43
691.997	49610.62
692.344	49213.56
692.69	49384.86
693.037	49355.03
693.383	48864.87
693.73	49187.12
694.077	48885.89
694.423	48933.57
694.769	48759.79
695.116	48744.42
695.462	48621.72
695.808	48548.72
696.155	48577.2
696.501	48311.22
696.847	48408.61
697.193	47963.88
697.539	48170.65
697.885	47956.2
698.231	47854.73
698.577	47794.17
698.923	47738.35
699.269	47538.13
699.614	47430.79
699.96	47345.37
700.306	47269.89
700.651	47155.77
700.997	46944.7
701.342	47006.17
701.688	46934.08
702.033	46769.56
702.379	46678.49
702.724	46606.85
703.069	46665.16
703.415	46191.95
703.76	46238.95
704.105	46147.66
704.45	46111.05
704.795	45839.87
705.14	45823.6
705.485	45804.16
705.83	45644.85
706.175	45658.63
706.52	45567.33
706.865	45406.66
707.209	45260.45
707.554	45180.22
707.899	45357.85
708.243	44876.5
708.588	44925.32
708.932	44789.27
709.277	44843.06
709.621	44731.87
709.966	44555.38
710.31	44692.33
710.654	44283.3
710.998	44343.64
711.342	44341.15
711.687	44159.91
712.031	44117.43
712.375	43939.35
712.719	43959.24
713.063	43903.65
713.407	44006.02
713.75	43663.2
714.094	43644.67
714.438	43528.52
714.782	43495.52
715.125	43303.21
715.469	43423.21
715.812	42964.24
716.156	42976.67
716.499	43009.66
716.843	42896.22
717.186	42755.66
717.53	42960.17
717.873	42836.33
718.216	42774.41
718.559	42642.44
718.902	42279.28
719.246	42399.96
719.589	42258.27
719.932	42089.46
720.275	42024.38
720.617	42092.62
720.96	41936.02
721.303	41952.51
721.646	42052.85
721.989	41590.71
722.331	41773.99
722.674	41604.73
723.016	41643.37
723.359	41480.43
723.701	41691.95
724.044	41437.72
724.386	41115.7
724.729	41394.34
725.071	41253.1
725.413	41249.03
725.755	41115.25
726.097	41012.88
726.439	40735.6
726.782	40811.53
727.124	40903.05
727.465	40633.68
727.807	40669.83
728.149	40653.34
728.491	40620.34
728.833	40612.43
729.175	40475.04
729.516	40286.12
729.858	40319.11
730.199	40247.47
730.541	40213.12
730.882	40234.82
731.224	40226.91
731.565	40001.83
731.906	40002.73
732.248	39894.94
732.589	39730.88
732.93	39516.87
733.271	39579.92
733.612	39777.88
733.953	39709.41
734.294	39461.73
734.635	39360.49
734.976	39501.73
735.317	39189.87
735.658	39281.62
735.999	39270.78
736.339	39115.07
736.68	39313.26
737.021	39174.51
737.361	38923.44
737.702	39090.89
738.042	38944
738.383	38807.96
738.723	38932.71
739.063	38906.94
739.404	38833.27
739.744	38700.85
740.084	38504.24
740.424	38472.83
740.764	38494.98
741.104	38630.57
741.444	38363.91
741.784	38178.83
742.124	38375.43
742.464	38247.07
742.804	38260.18
743.143	38089.34
743.483	38068.32
743.823	38021.09
744.162	37894.31
744.502	37936.35
744.841	37797.59
745.181	37953.07
745.52	37549.92
745.86	37556.47
746.199	37685.96
746.538	37629.01
746.877	37549.46
747.216	37635.79
747.556	37294.56
747.895	37478.28
748.234	37257.72
748.573	37108.57
748.911	37106.99
749.25	36991.51
749.589	36834.23
749.928	36960.33
750.267	37036.94
750.605	36811.86
750.944	36692.31
751.283	36523.5
751.621	36805.76
751.96	36512.2
752.298	36487.12
752.636	36543.39
752.975	36279.44
753.313	36264.75
753.651	36246.9
753.989	36149.73
754.327	36116.96
754.666	35820.24
755.004	35950.86
755.342	35848.94
755.679	35761.26
756.017	35647.82
756.355	35760.81
756.693	35483.08
757.031	35594.71
757.368	35176.87
757.706	35212.58
758.044	35040.83
758.381	35150.88
758.719	35080.83
759.056	34988.4
759.394	34917.9
759.731	34638.13
760.068	34668.41
760.405	34381.19
760.743	34348.19
761.08	34531.24
761.417	34294.41
761.754	34128.09
762.091	34124.92
762.428	33977.13
762.765	33793.63
763.102	33869.79
763.438	33642.9
763.775	33520.64
764.112	33467.54
764.449	33479.29
764.785	33280.2
765.122	33028.23
765.458	32974.9
765.795	32823.49
766.131	32971.73
766.467	32798.86
766.804	32597.05
767.14	32480.45
767.476	32430.05
767.812	32296.5
768.148	32230.51
768.485	32004.53
768.821	31992.55
769.157	31980.35
769.492	31887.24
769.828	31869.16
770.164	31558.66
770.5	31369.06
770.836	31440.92
771.171	31075.51
771.507	31129.75
771.842	30890.2
772.178	31040.71
772.513	30992.8
772.849	30850.43
773.184	30627.84
773.519	30619.93
773.855	30472.36
774.19	30317.56
774.525	30188.3
774.86	30190.56
775.195	30187.4
775.53	29904.92
775.865	29915.54
776.2	29619.05
776.535	29501.09
776.87	29430.13
777.205	29252.73
777.539	29239.63
777.874	29116.01
778.209	28942.01
778.543	28822.91
778.878	28648.23
779.212	28689.81
779.547	28455.92
779.881	28684.61
780.215	28414.34
780.55	28434
780.884	28245.3
781.218	28173.21
781.552	28174.12
781.886	28025.2
782.22	27891.64
782.554	27806.44
782.888	27528.03
783.222	27415.27
783.556	27312.22
783.889	27242.62
784.223	27057.54
784.557	27079.91
784.89	27178.89
785.224	26978.9
785.557	26770.31
785.891	26638.11
786.224	26673.82
786.558	26554.05
786.891	26323.09
787.224	26224.79
787.557	26281.29
787.891	26102.31
788.224	26215.98
788.557	26088.3
788.89	26044.68
789.223	25842.2
789.556	25639.27
789.888	25618.7
790.221	25446.73
790.554	25423.68
790.887	25344.36
791.219	25249.45
791.552	25161.77
791.884	24968.55
792.217	25013.75
792.549	24889.01
792.882	24743.93
793.214	24693.98
793.546	24761.55
793.879	24642.46
794.211	24491.28
794.543	24445.85
794.875	24398.85
795.207	24511.84
795.539	24172.87
795.871	24250.38
796.203	24029.14
796.535	23934
796.867	23892.65
797.198	23827.57
797.53	23808.81
797.862	23651.07
798.193	23597.74
798.525	23539.21
798.856	23511.19
799.188	23272.55
799.519	23178.54
799.85	23103.52
800.182	22991.66
800.513	23137.87
800.844	22903.07
801.175	22935.39
801.506	22927.7
801.837	22694.94
802.168	22765.67
802.499	22586.47
802.83	22517.09
803.161	22437.77
803.491	22513.93
803.822	22421.5
804.153	22283.65
804.483	22177.67
804.814	22039.82
805.145	22090.21
805.475	22015.18
805.805	21889.09
806.136	21918.92
806.466	21826.71
806.796	21636.21
807.126	21603.67
807.457	21616.55
807.787	21657.45
808.117	21514.41
808.447	21371.13
808.777	21471.7
809.107	21394.18
809.436	21245.49
809.766	21326.16
810.096	21199.39
810.426	21139.73
810.755	21244.13
811.085	21040.75
811.414	20884.59
811.744	20737.7
812.073	20723.01
812.403	20790.58
812.732	20715.78
813.061	20658.38
813.39	20563.24
813.719	20476.02
814.049	20709.91
814.378	20491.61
814.707	20519.4
815.036	20420.42
815.365	20332.52
815.693	20142.92
816.022	20126.19
816.351	19953.09
816.68	19855.01
817.008	20034.44
817.337	19794.9
817.665	19727.11
817.994	19852.98
818.322	19801.23
818.651	19725.53
818.979	19605.76
819.307	19689.6
819.636	19690.5
819.964	19457.96
820.292	19690.95
820.62	19623.16
820.948	19356.72
821.276	19543.61
821.604	19453.9
821.932	19517.4
822.259	19553.78
822.587	19483.95
822.915	19439.66
823.243	19564.4
823.57	19441.24
823.898	19420.68
824.225	19265.2
824.553	19324.41
824.88	19343.39
825.207	19408.7
825.535	19310.4
825.862	19373.45
826.189	19268.82
826.516	19334.8
826.843	19335.48
827.17	19399.43
827.497	19420.68
827.824	19409.38
828.151	19417.96
828.478	19330.28
828.805	19449.38
829.131	19204.86
829.458	19245.54
829.785	19197.18
830.111	19185.65
830.438	19271.75
830.764	19143.85
831.09	19224.52
831.417	19178.87
831.743	19275.82
832.069	19169.38
832.395	19162.83
832.722	19285.99
833.048	19084.19
833.374	19216.16
833.7	19083.51
834.026	19121.93
834.351	19073.11
834.677	19076.73
835.003	19131.64
835.329	19072.21
835.654	19000.35
835.98	18909.73
836.306	19006.45
836.631	18975.26
836.956	19023.4
837.282	18949.95
837.607	18903.18
837.932	18755.38
838.258	18818.21
838.583	18708.6
838.908	18557.42
839.233	18678.55
839.558	18663.41
839.883	18616.86
840.208	18577.53
840.533	18519.91
840.858	18600.81
841.182	18568.95
841.507	18414.83
841.832	18359.01
842.156	18297.77
842.481	18342.74
842.805	18275.4
843.13	18243.76
843.454	18172.12
843.778	18107.49
844.103	18134.61
844.427	18035.4
844.751	18086.25
845.075	17931.45
845.399	18022.52
845.723	17798.8
846.047	17743.43
846.371	17639.03
846.695	17652.13
847.019	17560.61
847.343	17439.94
847.666	17418.24
847.99	17289.43
848.313	17314.06
848.637	17114.07
848.96	17126.95
849.284	17162.2
849.607	17026.84
849.931	16916.79
850.254	16773.29
850.577	16715.89
850.9	16638.6
851.223	16689.67
851.546	16450.13
851.869	16455.33
852.192	16456.91
852.515	16351.6
852.838	16312.06
853.161	16314.32
853.483	16213.75
853.806	16084.94
854.129	16068.22
854.451	16021.67
854.774	16060.54
855.096	16010.6
855.419	15928.56
855.741	15953.2
856.063	15760.89
856.385	15786.42
856.708	15722.69
857.03	15603.83
857.352	15638.4
857.674	15638.63
857.996	15532.19
858.318	15432.08
858.64	15458.75
858.961	15519.99
859.283	15330.39
859.605	15257.62
859.926	15317.73
860.248	15242.03
860.57	15174.46
860.891	15225.76
861.212	15143.5
861.534	15038.87
861.855	14996.39
862.176	15015.14
862.498	14990.96
862.819	15049.94
863.14	14948.25
863.461	14934.24
863.782	14797.07
864.103	14843.4
864.424	14847.91
864.745	14797.97
865.065	14631.88
865.386	14598.43
865.707	14559.33
866.027	14617.64
866.348	14592.33
866.668	14565.21
866.989	14541.03
867.309	14560.01
867.63	14529.96
867.95	14445.21
868.27	14402.05
868.59	14444.08
868.91	14382.84
869.23	14348.72
869.55	14271.43
869.87	14344.88
870.19	14188.27
870.51	14266.24
870.83	14322.73
871.15	14223.98
871.469	14174.71
871.789	14204.99
872.109	14178.33
872.428	14059.46
872.748	14156.18
873.067	14035.73
873.386	14160.48
873.706	14078.9
874.025	14095.39
874.344	13980.59
874.663	13949.18
874.982	13972.23
875.301	13994.6
875.62	13893.59
875.939	13888.17
876.258	13851.1
876.577	13848.84
876.896	13772.91
877.214	13773.37
877.533	13826.47
877.852	13762.07
878.17	13779.24
878.489	13732.01
878.807	13723.88
879.125	13660.83
879.444	13623.77
879.762	13588.06
880.08	13529.98
880.398	13495.63
880.716	13549.19
881.034	13438.46
881.352	13465.13
881.67	13381.51
881.988	13442.75
882.306	13380.61
882.624	13323.21
882.941	13211.12
883.259	13299.03
883.577	13246.83
883.894	13207.96
884.212	13161.41
884.529	13174.29
884.846	13077.79
885.164	13039.37
885.481	13041.63
885.798	13077.57
886.115	12959.38
886.432	12993.5
886.75	12945.59
887.067	12960.05
887.383	12709.67
887.7	12762.32
888.017	12707.86
888.334	12755.31
888.651	12757.8
888.967	12772.94
889.284	12668.31
889.6	12645.71
889.917	12606.17
890.233	12560.52
890.55	12492.95
890.866	12454.98
891.182	12427.64
891.498	12398.26
891.815	12369.56
892.131	12299.51
892.447	12336.34
892.763	12240.53
893.079	12290.02
893.395	12179.06
893.71	12129.12
894.026	12170.92
894.342	12123.24
894.657	12055.22
894.973	12002.57
895.289	11947.88
895.604	11930.7
895.92	11944.26
896.235	11751.05
896.55	11775.23
896.865	11798.28
897.181	11755.57
897.496	11652.74
897.811	11676.92
898.126	11603.93
898.441	11571.62
898.756	11537.04
899.071	11459.98
899.386	11518.96
899.7	11385.41
900.015	11370.72
900.33	11202.13
900.644	11238.52
900.959	11243.04
901.273	11210.95
901.588	11149.93
901.902	11109.26
902.216	11066.09
902.531	11030.61
902.845	11051.63
903.159	10898.64
903.473	10885.76
903.787	10828.36
904.101	10737.97
904.415	10789.49
904.729	10714.24
905.042	10622.94
905.356	10646.44
905.67	10584.52
905.984	10580
906.297	10562.38
906.611	10506.33
906.924	10525.77
907.237	10411.2
907.551	10400.35
907.864	10357.64
908.177	10297.98
908.491	10283.29
908.804	10297.3
909.117	10206.68
909.43	10164.87
909.743	10096.4
910.056	10094.14
910.368	10042.62
910.681	9966.01
910.994	9964.43
911.307	9942.05
911.619	9788.16
911.932	9768.73
912.244	9846.92
912.557	9734.6
912.869	9594.95
913.181	9584.1
913.494	9639.69
913.806	9512.24
914.118	9486.25
914.43	9483.08
914.742	9421.84
915.054	9350.21
915.366	9401.5
915.678	9328.06
915.99	9345.01
916.302	9208.06
916.613	9124.22
916.925	9216.65
917.236	9147.73
917.548	9067.28
917.859	9028.63
918.171	8956.54
918.482	8982.76
918.794	8906.6
919.105	8928.07
919.416	8866.6
919.727	8833.61
920.038	8837.23
920.349	8731.69
920.66	8694.63
920.971	8703.44
921.282	8608.98
921.593	8568.53
921.903	8539.61
922.214	8529.89
922.525	8536.67
922.835	8474.3
923.146	8373.28
923.456	8356.56
923.767	8300.97
924.077	8386.16
924.387	8281.53
924.697	8238.6
925.008	8216
925.318	8167.19
925.628	8182.1
925.938	8110.69
926.248	8045.61
926.558	7983.46
926.867	7997.25
927.177	7971.26
927.487	7909.34
927.796	7858.49
928.106	7853.3
928.416	7831.38
928.725	7793.64
929.034	7744.15
929.344	7763.36
929.653	7710.93
929.962	7680.19
930.271	7585.28
930.581	7605.17
930.89	7583.02
931.199	7521.33
931.508	7475.68
931.817	7462.35
932.125	7444.95
932.434	7446.75
932.743	7317.94
933.051	7311.16
933.36	7289.24
933.669	7246.08
933.977	7191.17
934.286	7236.59
934.594	7172.41
934.902	7107.78
935.21	7139.64
935.519	7088.12
935.827	7018.06
936.135	6982.36
936.443	6930.61
936.751	6903.26
937.059	6878.63
937.367	6835.24
937.674	6855.58
937.982	6826.88
938.29	6823.27
938.597	6743.5
938.905	6692.87
939.213	6679.77
939.52	6607.68
939.827	6663.05
940.135	6603.61
940.442	6546.89
940.749	6488.36
941.056	6528.13
941.363	6434.35
941.67	6441.36
941.977	6393.9
942.284	6391.19
942.591	6393.9
942.898	6320.91
943.205	6257.41
943.511	6274.81
943.818	6237.97
944.125	6218.31
944.431	6199.55
944.738	6172.89
945.044	6179.22
945.35	6141.93
945.657	6074.81
945.963	6067.13
946.269	6016.51
946.575	6007.24
946.881	6025.55
947.187	6005.21
947.493	5901.26
947.799	5883.4
948.105	5871.65
948.41	5829.62
948.716	5868.49
949.022	5731.32
949.327	5769.51
949.633	5689.74
949.938	5651.09
950.244	5698.32
950.549	5638.21
950.854	5635.95
951.16	5686.57
951.465	5558.44
951.77	5613.36
952.075	5528.84
952.38	5499.23
952.685	5492
952.99	5445.22
953.294	5417.2
953.599	5418.78
953.904	5425.11
954.209	5375.17
954.513	5388.73
954.818	5323.65
955.122	5338.56
955.426	5293.59
955.731	5238.22
956.035	5255.62
956.339	5203.87
956.643	5189.41
956.948	5140.6
957.252	5132.24
957.556	5164.55
957.86	5093.37
958.163	5049.75
958.467	5059.47
958.771	5008.85
959.075	5000.26
959.378	5006.37
959.682	4932.92
959.985	4959.36
960.289	4911.23
960.592	4878.01
960.896	4876.88
961.199	4852.7
961.502	4823.77
961.805	4758.01
962.108	4772.25
962.411	4776.99
962.714	4747.84
963.017	4733.83
963.32	4746.71
963.623	4683.21
963.926	4692.25
964.228	4643.66
964.531	4616.77
964.833	4622.19
965.136	4578.35
965.438	4551.01
965.741	4517.79
966.043	4497.45
966.345	4433.95
966.648	4496.55
966.95	4450.9
967.252	4422.43
967.554	4407.06
967.856	4396.66
968.158	4360.73
968.46	4352.15
968.761	4347.63
969.063	4361.41
969.365	4309.89
969.666	4310.11
969.968	4210.68
970.269	4267.18
970.571	4221.98
970.872	4253.17
971.174	4165.48
971.475	4152.83
971.776	4169.78
972.077	4101.53
972.378	4108.54
972.679	4115.77
972.98	4080.51
973.281	4047.07
973.582	4030.35
973.883	4034.19
974.183	4004.13
974.484	3968.43
974.785	3939.27
975.085	3935.66
975.386	3977.24
975.686	3896.79
975.986	3859.28
976.287	3872.61
976.587	3836.68
976.887	3840.29
977.187	3839.16
977.487	3793.97
977.787	3789.45
978.087	3783.57
978.387	3767.98
978.687	3782.44
978.987	3737.47
979.286	3706.51
979.586	3709.68
979.885	3689.56
980.185	3649.79
980.484	3636.46
980.784	3632.16
981.083	3595.1
981.382	3608.66
981.682	3568.21
981.981	3548.78
982.28	3585.61
982.579	3506.52
982.878	3512.62
983.177	3477.59
983.475	3492.96
983.774	3473.07
984.073	3479.17
984.372	3382
984.67	3403.02
984.969	3420.42
985.267	3362.57
985.566	3360.99
985.864	3372.74
986.162	3316.69
986.461	3322.12
986.759	3316.92
987.057	3272.85
987.355	3307.65
987.653	3290.48
987.951	3257.26
988.249	3255.9
988.547	3235.56
988.844	3169.8
989.142	3207.99
989.44	3154.89
989.737	3148.11
990.035	3137.26
990.332	3152.85
990.63	3094.55
990.927	3095
991.224	3091.61
991.521	3069.02
991.819	3037.83
992.116	3008.9
992.413	3029.02
992.71	2988.34
993.006	2974.1
993.303	2997.83
993.6	2961.45
993.897	2975.46
994.193	2939.98
994.49	2936.36
994.787	2879.87
995.083	2906.53
995.379	2892.07
995.676	2868.34
995.972	2837.83
996.268	2809.14
996.565	2824.28
996.861	2798.06
997.157	2807.55
997.453	2770.49
997.749	2752.41
998.044	2721.68
998.34	2720.78
998.636	2749.93
998.932	2681
999.227	2699.53
999.523	2683.94
999.818	2659.53
1000.114	2607.78
1000.409	2635.58
1000.704	2614.34
1001	2591.06
1001.295	2616.82
1001.59	2590.38
1001.885	2575.92
1002.18	2560.33
1002.475	2530.72
1002.77	2507
1003.065	2479.43
1003.359	2495.92
1003.654	2476.26
1003.949	2456.15
1004.243	2440.78
1004.538	2434.46
1004.832	2453.44
1005.127	2408.02
1005.421	2377.96
1005.715	2391.52
1006.009	2346.32
1006.304	2372.31
1006.598	2339.09
1006.892	2338.19
1007.186	2303.84
1007.48	2284.86
1007.773	2277.4
1008.067	2249.6
1008.361	2257.96
1008.655	2247.79
1008.948	2189.94
1009.242	2207.34
1009.535	2191.3
1009.829	2199.43
1010.122	2175.03
1010.415	2186.1
1010.708	2146.55
1011.001	2090.74
1011.295	2125.76
1011.588	2102.49
1011.881	2062.94
1012.173	2107.68
1012.466	2069.95
1012.759	2051.41
1013.052	2037.18
1013.344	2043.51
1013.637	2006.67
1013.93	2022.26
1014.222	1980.91
1014.514	2001.47
1014.807	1984.52
1015.099	1961.93
1015.391	1954.92
1015.683	1947.24
1015.976	1934.58
1016.268	1927.35
1016.56	1918.54
1016.851	1866.11
1017.143	1901.59
1017.435	1873.34
1017.727	1842.61
1018.018	1853.91
1018.31	1834.47
1018.602	1826.11
1018.893	1816.62
1019.185	1818.2
1019.476	1782.27
1019.767	1744.08
1020.058	1732.1
1020.35	1703.63
1020.641	1702.5
1020.932	1705.66
1021.223	1707.92
1021.514	1697.75
1021.804	1672.89
1022.095	1707.47
1022.386	1675.83
1022.677	1654.82
1022.967	1650.52
1023.258	1643.29
1023.548	1618.21
1023.839	1582.95
1024.129	1589.73
1024.419	1560.13
1024.709	1545.89
1025	1578.21
1025.29	1551.99
1025.58	1543.63
1025.87	1526.46
1026.16	1532.56
1026.449	1504.54
1026.739	1483.97
1027.029	1511.99
1027.319	1466.12
1027.608	1478.32
1027.898	1429.96
1028.187	1453.46
1028.477	1419.34
1028.766	1423.18
1029.055	1430.19
1029.344	1432
1029.634	1403.97
1029.923	1399
1030.212	1363.52
1030.501	1394.26
1030.79	1373.47
1031.078	1350.64
1031.367	1347.7
1031.656	1331.21
1031.945	1322.62
1032.233	1305.22
1032.522	1314.03
1032.81	1290.76
1033.099	1306.8
1033.387	1283.98
1033.675	1250.76
1033.963	1242.85
1034.251	1259.12
1034.54	1247.59
1034.828	1222.96
1035.116	1224.54
1035.403	1208.5
1035.691	1207.82
1035.979	1208.5
1036.267	1174.83
1036.554	1186.8
1036.842	1162.85
1037.129	1170.53
1037.417	1180.93
1037.704	1183.42
1037.992	1135.28
1038.279	1126.92
1038.566	1152.23
1038.853	1152.23
1039.14	1152.23
