Data from white_poster_card_FLMS001491_00048.txt Node
Date: Wed Feb 08 11:51:35 GMT 2017
User: dcchb
Spectrometer: FLMS00149
Trigger mode: 0
Integration Time (sec): 2.000000E-2
Scans to average: 10
Electric dark correction enabled: true
Nonlinearity correction enabled: false
Boxcar width: 0
XAxis mode: Wavelengths
Number of Pixels in Spectrum: 2048
>>>>>Begin Spectral Data<<<<<
341.393	-18.93
341.776	-18.93
342.16	-18.93
342.543	-41.75
342.927	-62.09
343.31	-54.41
343.693	-71.35
344.077	-67.06
344.46	-56.67
344.843	-74.52
345.226	-19.6
345.61	-35.87
345.993	-5.37
346.376	-13.05
346.759	15.88
347.142	13.16
347.525	44.8
347.908	46.83
348.291	68.98
348.674	97.46
349.057	110.79
349.44	126.83
349.823	142.2
350.206	166.61
350.588	191.69
350.971	202.31
351.354	246.15
351.737	230.33
352.119	261.07
352.502	267.17
352.884	284.79
353.267	286.6
353.65	298.35
354.032	299.71
354.414	294.29
354.797	332.48
355.179	328.41
355.562	320.05
355.944	330.44
356.326	339.26
356.709	329.77
357.091	332.48
357.473	322.99
357.855	340.84
358.238	355.3
358.62	343.32
359.002	342.42
359.384	327.73
359.766	323.66
360.148	343.32
360.53	340.84
360.912	343.78
361.294	360.95
361.676	337.9
362.057	333.16
362.439	329.99
362.821	335.41
363.203	340.16
363.584	329.31
363.966	333.61
364.348	308.52
364.729	329.54
365.111	324.34
365.493	333.83
365.874	309.2
366.256	325.25
366.637	304
367.019	299.71
367.4	311.23
367.781	337.22
368.163	317.11
368.544	313.72
368.925	307.85
369.306	309.88
369.688	326.38
370.069	337.45
370.45	313.49
370.831	322.99
371.212	314.85
371.593	322.99
371.974	300.84
372.355	331.8
372.736	348.07
373.117	323.44
373.498	322.99
373.879	318.69
374.26	323.21
374.641	311.91
375.021	327.73
375.402	348.97
375.783	334.51
376.163	317.11
376.544	326.6
376.925	348.75
377.305	318.69
377.686	336.32
378.066	321.4
378.447	324.34
378.827	334.96
379.208	322.99
379.588	331.8
379.968	339.48
380.349	347.62
380.729	348.3
381.109	360.95
381.489	337.67
381.87	343.32
382.25	353.04
382.63	341.97
383.01	347.84
383.39	345.36
383.77	347.62
384.15	351.69
384.53	369.54
384.91	356.43
385.29	340.16
385.67	365.02
386.049	369.99
386.429	372.7
386.809	388.52
387.189	344.45
387.568	374.96
387.948	374.96
388.328	379.71
388.707	393.49
389.087	372.7
389.466	384.91
389.846	395.07
390.225	391.46
390.605	386.71
390.984	393.04
391.363	395.53
391.743	406.37
392.122	402.53
392.501	388.07
392.881	412.48
393.26	413.83
393.639	410.67
394.018	420.84
394.397	429.88
394.776	394.17
395.155	393.27
395.534	435.98
395.913	428.52
396.292	425.36
396.671	428.97
397.05	424.45
397.429	431.68
397.808	429.65
398.186	434.62
398.565	454.51
398.944	425.81
399.323	426.49
399.701	454.28
400.08	442.3
400.458	425.36
400.837	468.52
401.215	459.93
401.594	431.68
401.972	468.29
402.351	471.68
402.729	481.17
403.107	469.42
403.486	491.79
403.864	501.96
404.242	481.4
404.62	480.5
404.999	510.55
405.377	496.77
405.755	489.08
406.133	496.54
406.511	518.23
406.889	527.27
407.267	527.27
407.645	514.39
408.023	549.87
408.401	543.55
408.779	544.9
409.156	555.3
409.534	568.18
409.912	591.68
410.29	611.79
410.667	587.61
411.045	609.53
411.422	632.58
411.8	646.59
412.178	647.27
412.555	661.51
412.933	670.32
413.31	688.4
413.687	687.95
414.065	687.04
414.442	734.5
414.819	724.78
415.197	733.82
415.574	765.23
415.951	776.76
416.328	790.09
416.705	792.8
417.082	827.83
417.46	836.19
417.837	815.18
418.214	863.54
418.591	835.29
418.967	880.94
419.344	890.65
419.721	918.45
420.098	931.78
420.475	944.44
420.852	956.42
421.228	988.73
421.605	986.7
421.982	1017.2
422.358	1013.82
422.735	998
423.111	1019.46
423.488	1034.83
423.864	1049.52
424.241	1104.66
424.617	1096.75
424.994	1090.65
425.37	1101.04
425.746	1100.59
426.123	1153.25
426.499	1162.06
426.875	1165.22
427.251	1199.35
427.627	1223.08
428.003	1240.7
428.379	1230.53
428.756	1268.27
429.132	1287.71
429.507	1308.04
429.883	1327.25
430.259	1380.59
430.635	1348.04
431.011	1383.07
431.387	1408.83
431.763	1414.03
432.138	1434.6
432.514	1437.08
432.89	1489.73
433.265	1490.19
433.641	1488.38
434.016	1552.78
434.392	1553.24
434.767	1584.2
435.143	1589.62
435.518	1607.25
435.894	1652.44
436.269	1641.14
436.644	1694.02
437.02	1723.4
437.395	1698.99
437.77	1725.89
438.145	1748.03
438.52	1761.59
438.895	1799.11
439.271	1768.82
439.646	1839.33
440.021	1847.24
440.395	1830.97
440.77	1810.86
441.145	1862.38
441.52	1893.79
441.895	1921.14
442.27	1930.63
442.645	1935.6
443.019	1955.26
443.394	1952.77
443.769	1962.26
444.143	1943.06
444.518	1996.39
444.892	1971.98
445.267	1996.84
445.641	2015.82
446.016	2058.08
446.39	2042.71
446.764	2063.96
447.139	2055.14
447.513	2096.27
447.887	2134.24
448.262	2111.41
448.636	2142.6
449.01	2174.46
449.384	2133.11
449.758	2183.5
450.132	2171.3
450.506	2209.26
450.88	2234.8
451.254	2261.01
451.628	2259.43
452.002	2296.95
452.376	2286.55
452.75	2301.69
453.123	2325.19
453.497	2354.8
453.871	2383.72
454.244	2389.82
454.618	2433.66
454.992	2477.96
455.365	2462.14
455.739	2518.18
456.112	2575.58
456.486	2610.38
456.859	2608.12
457.232	2634.11
457.606	2655.35
457.979	2676.37
458.352	2729.48
458.725	2764.05
459.099	2771.28
459.472	2836.37
459.845	2868.23
460.218	2920.88
460.591	2897.38
460.964	2898.74
461.337	2984.16
461.71	3012.41
462.083	3047.43
462.456	3079.75
462.829	3064.16
463.201	3146.41
463.574	3161.1
463.947	3211.27
464.32	3260.54
464.692	3330.14
465.065	3313.87
465.438	3308.22
465.81	3397.71
466.183	3475.67
466.555	3489.68
466.928	3513.41
467.3	3519.51
467.672	3622.79
468.045	3671.15
468.417	3682.67
468.789	3699.39
469.161	3799.5
469.534	3852.61
469.906	3897.58
470.278	3916.79
470.65	3964.02
471.022	4057.58
471.394	4089.89
471.766	4143.22
472.138	4165.6
472.51	4248.31
472.882	4292.82
473.253	4310
473.625	4433.16
473.997	4490.11
474.369	4522.42
474.74	4570.56
475.112	4677.45
475.484	4736.66
475.855	4787.95
476.227	4858.23
476.598	4996.08
476.97	5014.84
477.341	5127.15
477.713	5172.35
478.084	5226.81
478.455	5341.16
478.827	5439.24
479.198	5518.56
479.569	5598.1
479.94	5718.1
480.311	5760.81
480.682	5835.16
481.053	6011.2
481.424	6078.31
481.795	6131.42
482.166	6218.88
482.537	6308.59
482.908	6485.76
483.279	6450.28
483.65	6638.07
484.021	6721.69
484.391	6785.41
484.762	6860.89
485.133	6966.2
485.503	7066.09
485.874	7231.96
486.244	7313.31
486.615	7367.32
486.985	7477.15
487.356	7607.77
487.726	7643.02
488.097	7882.79
488.467	7864.71
488.837	8045.72
489.207	8096.79
489.578	8243.23
489.948	8338.59
490.318	8454.3
490.688	8547.85
491.058	8639.38
491.428	8752.82
491.798	8922.31
492.168	8993.72
492.538	8990.78
492.908	9154.62
493.278	9273.03
493.648	9225.12
494.017	9397.32
494.387	9534.27
494.757	9535.4
495.126	9660.59
495.496	9721.61
495.866	9850.64
496.235	9923.64
496.605	10037.08
496.974	10154.37
497.344	10149.62
497.713	10239.56
498.082	10322.95
498.452	10445.88
498.821	10485.66
499.19	10535.6
499.559	10685.65
499.928	10684.75
500.298	10731.53
500.667	10889.04
501.036	10889.71
501.405	11006.32
501.774	11078.41
502.143	11111.63
502.512	11192.98
502.88	11321.57
503.249	11300.78
503.618	11440.43
503.987	11445.41
504.356	11549.13
504.724	11616.93
505.093	11660.77
505.462	11775.57
505.83	11840.65
506.199	12004.26
506.567	12037.48
506.936	12078.16
507.304	12271.15
507.672	12379.17
508.041	12343.91
508.409	12545.49
508.777	12595.43
509.145	12645.83
509.514	12721.08
509.882	12785.71
510.25	12881.53
510.618	12955.65
510.986	13037.45
511.354	13282.65
511.722	13248.75
512.09	13406.71
512.458	13419.59
512.826	13541.62
513.193	13518.12
513.561	13732.12
513.929	13820.26
514.297	13916.98
514.664	14070.42
515.032	14137.76
515.4	14239.46
515.767	14284.88
516.135	14368.04
516.502	14370.75
516.869	14647.13
517.237	14662.72
517.604	14598.77
517.972	14815.94
518.339	14886.22
518.706	14998.08
519.073	15110.17
519.44	15256.83
519.808	15358.07
520.175	15379.99
520.542	15582.47
520.909	15679.64
521.276	15759.87
521.643	15936.59
522.009	16031.95
522.376	16176.58
522.743	16276.01
523.11	16422.9
523.477	16574.76
523.843	16659.73
524.21	16860.86
524.577	16982.43
524.943	17118.93
525.31	17165.71
525.676	17315.53
526.043	17354.85
526.409	17567.28
526.776	17758.91
527.142	17826.48
527.508	17876.2
527.874	18038.68
528.241	18162.29
528.607	18212.23
528.973	18487.48
529.339	18490.64
529.705	18664.2
530.071	18763.18
530.437	18870.52
530.803	19000.69
531.169	19071.65
531.535	19151.64
531.901	19178.76
532.267	19258.76
532.632	19469.83
532.998	19450.84
533.364	19622.37
533.73	19682.25
534.095	19897.39
534.461	19927.89
534.826	20040.21
535.192	20144.84
535.557	20295.79
535.923	20243.14
536.288	20338.96
536.653	20486.07
537.019	20483.13
537.384	20585.5
537.749	20667.08
538.114	20851.94
538.479	20773.07
538.845	20978.71
539.21	20839.06
539.575	20997.47
539.94	21181.42
540.305	21288.54
540.67	21336.44
541.034	21378.93
541.399	21597.91
541.764	21544.35
542.129	21641.97
542.494	21623.44
542.858	21783.44
543.223	21790.9
543.587	21964.22
543.952	21966.94
544.316	22051.23
544.681	22084.9
545.045	22236.76
545.41	22241.96
545.774	22345.91
546.138	22388.62
546.503	22484.44
546.867	22570.54
547.231	22742.74
547.595	22697.99
547.959	22844.88
548.324	22878.78
548.688	23006.46
549.052	23001.49
549.416	23190.63
549.779	23029.51
550.143	23170.07
550.507	23391.31
550.871	23475.15
551.235	23491.19
551.599	23645.08
551.962	23708.36
552.326	23721.92
552.689	23894.57
553.053	23883.72
553.417	23881.46
553.78	24212.08
554.143	24305.86
554.507	24282.58
554.87	24381.34
555.234	24680.31
555.597	24527.55
555.96	24606.87
556.323	24852.74
556.686	24882.79
557.05	25031.04
557.413	25065.16
557.776	25176.34
558.139	25331.37
558.502	25449.78
558.865	25598.48
559.228	25737.01
559.59	25648.42
559.953	25829.89
560.316	26178.58
560.679	26156.66
561.041	26288.18
561.404	26387.16
561.767	26648.17
562.129	26485.24
562.492	26860.59
562.854	26708.28
563.217	26792.8
563.579	26940.37
563.941	27188.49
564.304	27367.25
564.666	27424.42
565.028	27470.75
565.39	27502.16
565.753	27755.94
566.115	27879.78
566.477	27978.53
566.839	28041.81
567.201	28235.02
567.563	28170.84
567.925	28370.84
568.287	28377.62
568.648	28373.77
569.01	28694.44
569.372	28881.33
569.734	28746.19
570.095	29044.72
570.457	29175.11
570.819	29164.04
571.18	29267.76
571.542	29373.97
571.903	29394.76
572.265	29568.54
572.626	29674.3
572.987	29575.55
573.349	29836.33
573.71	29950.68
574.071	29913.39
574.432	30135.76
574.794	30185.7
575.155	30165.59
575.516	30079.94
575.877	30242.43
576.238	30403.1
576.599	30443.1
576.96	30551.57
577.32	30577.56
577.681	30585.47
578.042	30788.4
578.403	30782.07
578.763	30842.41
579.124	30797.21
579.485	30893.26
579.845	31096.87
580.206	30911.11
580.566	31080.6
580.927	31026.13
581.287	31184.1
581.648	31083.31
582.008	31240.14
582.368	31180.48
582.728	31229.52
583.089	31229.07
583.449	31289.4
583.809	31297.09
584.169	31342.74
584.529	31147.49
584.889	31572.56
585.249	31171.67
585.609	31203.76
585.969	31383.19
586.329	31259.12
586.688	31328.27
587.048	31347.25
587.408	31327.59
587.768	31348.84
588.127	31320.36
588.487	31240.14
588.846	31511.77
589.206	31342.96
589.565	31368.27
589.925	31568.72
590.284	31387.71
590.643	31553.8
591.003	31408.27
591.362	31657.08
591.721	31554.26
592.08	31565.55
592.44	31630.41
592.799	31595.84
593.158	31549.28
593.517	31631.09
593.876	31653.01
594.235	31527.59
594.593	31538.89
594.952	31603.07
595.311	31475.61
595.67	31659.11
596.029	31835.83
596.387	31798.32
596.746	31969.61
597.104	31694.59
597.463	31694.82
597.822	31784.98
598.18	31747.02
598.538	31797.41
598.897	31898.88
599.255	31680.13
599.613	32057.07
599.972	31935.49
600.33	32078.31
600.688	31888.03
601.046	31960.8
601.404	32238.08
601.762	31992.66
602.12	32197.63
602.478	32246.44
602.836	32173.45
603.194	32084.18
603.552	32238.3
603.91	32071.08
604.268	32383.39
604.625	32145.2
604.983	32224.97
605.341	32209.38
605.698	32254.35
606.056	32364.86
606.413	32353.56
606.771	32369.83
607.128	32581.8
607.485	32317.17
607.843	32385.65
608.2	32483.72
608.557	32656.82
608.914	32550.16
609.272	32778.63
609.629	32729.37
609.986	32958.29
610.343	32648.01
610.7	32877.84
611.057	32793.32
611.414	32819.53
611.771	32880.77
612.127	33030.15
612.484	32955.57
612.841	33164.61
613.198	33066.76
613.554	33004.61
613.911	33184.04
614.267	33168
614.624	33130.26
614.98	33157.15
615.337	33368.9
615.693	33332.51
616.05	33172.97
616.406	33414.09
616.762	33335.23
617.118	33392.4
617.475	33289.35
617.831	33474.88
618.187	33504.26
618.543	33469.23
618.899	33680.53
619.255	33501.77
619.611	33668.1
619.967	33603.69
620.323	33582
620.678	33595.56
621.034	33534.09
621.39	33594.88
621.746	33526.86
622.101	33910.58
622.457	33669.23
622.812	33694.31
623.168	33861.99
623.523	33745.38
623.879	33902.89
624.234	33619.51
624.589	33744.25
624.945	33733.63
625.3	33723.92
625.655	33718.94
626.01	33661.32
626.365	33802.56
626.72	33729.79
627.075	33736.34
627.43	33679.62
627.785	33567.99
628.14	33664.93
628.495	33688.44
628.85	33600.98
629.205	33585.39
629.559	33690.92
629.914	33534.54
630.269	33610.25
630.623	33501.32
630.978	33340.87
631.332	33575.9
631.687	33518.5
632.041	33329.58
632.396	33538.84
632.75	33301.55
633.104	33299.97
633.459	33252.97
633.813	33178.85
634.167	33141.78
634.521	33012.07
634.875	33154.44
635.229	33137.26
635.583	32940.21
635.937	32937.5
636.291	32848.68
636.645	32990.83
636.999	32915.8
637.352	32913.32
637.706	32715.58
638.06	32755.35
638.413	32737.05
638.767	32558.07
639.121	32528.47
639.474	32505.87
639.828	32518.98
640.181	32536.15
640.534	32604.85
640.888	32448.69
641.241	32396.72
641.594	32399.88
641.947	32315.59
642.301	32316.95
642.654	32281.69
643.007	32189.94
643.36	32322.37
643.713	32139.78
644.066	32308.13
644.419	32022.27
644.771	31954.02
645.124	31465.9
645.477	31501.15
645.83	31313.58
646.182	31185.23
646.535	31034.49
646.888	31156.3
647.24	30969.86
647.593	31097.77
647.945	31005.79
648.298	30893.26
648.65	30939.13
649.002	30709.08
649.355	30808.96
649.707	30879.02
650.059	30935.97
650.411	31130.76
650.763	31393.13
651.115	31590.64
651.467	31459.12
651.819	31496.86
652.171	31523.3
652.523	31402.62
652.875	31409.17
653.227	31109.75
653.578	31392.68
653.93	31337.54
654.282	31192.23
654.633	31118.79
654.985	31161.5
655.337	31089.86
655.688	31121.95
656.039	31258.67
656.391	30865.23
656.742	31037.66
657.094	31048.96
657.445	31026.13
657.796	30903.2
658.147	31022.52
658.498	30814.39
658.849	30995.17
659.2	30867.27
659.551	30758.34
659.902	30914.95
660.253	30816.42
660.604	30775.74
660.955	30746.37
661.306	30672.7
661.656	30650.78
662.007	30626.82
662.358	30625.69
662.708	30757.44
663.059	30690.55
663.409	30464.34
663.76	30772.58
664.11	30589.99
664.461	30698.68
664.811	30704.79
665.161	30650.1
665.511	30511.57
665.862	30595.18
666.212	30577.56
666.562	30411.23
666.912	30470.44
667.262	30412.82
667.612	30499.82
667.962	30435.64
668.312	30364.23
668.662	30420.95
669.011	30549.76
669.361	30365.13
669.711	30314.97
670.06	30225.7
670.41	30262.31
670.76	30155.65
671.109	30251.92
671.459	30231.35
671.808	30126.5
672.157	30216.89
672.507	30092.37
672.856	30081.07
673.205	30135.31
673.554	30139.15
673.904	30050.57
674.253	30165.14
674.602	30077.91
674.951	29688.09
675.3	29569.9
675.649	30025.48
675.998	29906.39
676.346	29872.49
676.695	29867.97
677.044	29779.61
677.393	29925.37
677.741	29896.22
678.09	29774.87
678.438	29673.63
678.787	29761.08
679.135	29789.78
679.484	29615.32
679.832	29641.09
680.181	29494.65
680.529	29608.54
680.877	29480.19
681.225	29522.22
681.573	29620.75
681.922	29285.61
682.27	29341.43
682.618	29413.52
682.966	29275.67
683.314	29239.06
683.661	29221.44
684.009	29138.95
684.357	28907.54
684.705	28956.81
685.053	28994.55
685.4	29001.1
685.748	28733.54
686.095	28766.76
686.443	28705.74
686.79	28761.33
687.138	28661.45
687.485	28651.73
687.832	28569.25
688.18	28552.07
688.527	28365.86
688.874	28322.93
689.221	28323.83
689.568	28281.12
689.915	28215.81
690.262	28179.43
690.609	28008.36
690.956	27853.11
691.303	28025.08
691.65	27828.7
691.997	27825.54
692.344	27684.07
692.69	27539.9
693.037	27663.51
693.383	27356.17
693.73	27533.34
694.077	27298.55
694.423	27271.43
694.769	27224.2
695.116	27194.14
695.462	27001.83
695.808	26978.33
696.155	27068.5
696.501	26801.61
696.847	26776.75
697.193	26668.06
697.539	26698.11
697.885	26649.53
698.231	26492.24
698.577	26479.13
698.923	26374.73
699.269	26208.86
699.614	26130.89
699.96	26038.02
700.306	26177.45
700.651	26028.07
700.997	25896.1
701.342	26007.28
701.688	25904.69
702.033	25645.26
702.379	25777.91
702.724	25658.59
703.069	25592.38
703.415	25437.58
703.76	25397.35
704.105	25372.04
704.45	25345.83
704.795	25274.42
705.14	25056.12
705.485	25140.41
705.83	25050.25
706.175	25167.98
706.52	24965.28
706.865	24835.56
707.209	24837.6
707.554	24700.42
707.899	24729.12
708.243	24558.73
708.588	24576.13
708.932	24423.6
709.277	24344.73
709.621	24464.95
709.966	24209.36
710.31	24279.42
710.654	23975.02
710.998	24230.38
711.342	24112.42
711.687	24068.8
712.031	23958.3
712.375	23962.82
712.719	23977.73
713.063	23855.02
713.407	23859.77
713.75	23596.95
714.094	23681.92
714.438	23674.01
714.782	23667.68
715.125	23530.74
715.469	23595.59
715.812	23391.08
716.156	23264.98
716.499	23267.69
716.843	23317.18
717.186	23276.73
717.53	23203.97
717.873	23231.31
718.216	23238.32
718.559	23060.47
718.902	22869.74
719.246	22907.7
719.589	23033.12
719.932	22738.44
720.275	22911.77
720.617	22895.95
720.96	22747.48
721.303	22757.2
721.646	22761.49
721.989	22657.54
722.331	22711.55
722.674	22579.12
723.016	22585.9
723.359	22592
723.701	22541.84
724.044	22364.89
724.386	22210.77
724.729	22382.29
725.071	22315.85
725.413	22259.81
725.755	22163.54
726.097	22072.47
726.439	22098.01
726.782	22015.52
727.124	22069.31
727.465	21927.84
727.807	21957.9
728.149	21948.18
728.491	21868.86
728.833	21825.92
729.175	21738.92
729.516	21698.02
729.858	21645.14
730.199	21632.71
730.541	21641.75
730.882	21623.67
731.224	21660.73
731.565	21558.81
731.906	21558.13
732.248	21487.4
732.589	21423.45
732.93	21446.95
733.271	21339.16
733.612	21343.45
733.953	21364.01
734.294	21287.86
734.635	21159.73
734.976	21301.42
735.317	21053.29
735.658	21104.59
735.999	21143.68
736.339	21088.32
736.68	21131.25
737.021	21057.13
737.361	21003.35
737.702	21046.73
738.042	20980.52
738.383	20886.51
738.723	20912.5
739.063	20856.68
739.404	20926.51
739.744	20755.44
740.084	20750.92
740.424	20768.32
740.764	20658.95
741.104	20659.85
741.444	20631.15
741.784	20557.93
742.124	20505.05
742.464	20492.85
742.804	20485.39
743.143	20369.24
743.483	20418.05
743.823	20370.37
744.162	20254.44
744.502	20348.67
744.841	20257.6
745.181	20294.21
745.52	20131.73
745.86	20285.4
746.199	20159.53
746.538	20051.05
746.877	20105.97
747.216	20120.43
747.556	20009.47
747.895	20032.07
748.234	19913.43
748.573	19927.44
748.911	19862.81
749.25	19804.06
749.589	19824.39
749.928	19810.16
750.267	19690.16
750.605	19687.45
750.944	19621.01
751.283	19539.66
751.621	19520.9
751.96	19465.53
752.298	19522.03
752.636	19501.46
752.975	19366.78
753.313	19346.67
753.651	19350.96
753.989	19340.79
754.327	19240.23
754.666	19222.83
755.004	19262.83
755.342	19138.76
755.679	19066.67
756.017	18969.73
756.355	19083.62
756.693	18966.79
757.031	19042.72
757.368	18880.24
757.706	18852.89
758.044	18779.22
758.381	18788.49
758.719	18734.93
759.056	18702.16
759.394	18650.41
759.731	18572.68
760.068	18516.18
760.405	18455.84
760.743	18376.97
761.08	18325
761.417	18270.54
761.754	18200.03
762.091	18135.4
762.428	18102.41
762.765	18009.75
763.102	18087.49
763.438	18002.52
763.775	17739.7
764.112	17838.23
764.449	17797.33
764.785	17692.25
765.122	17669.2
765.458	17645.24
765.795	17527.28
766.131	17502.42
766.467	17395.53
766.804	17378.36
767.14	17297.23
767.476	17305.59
767.812	17143.79
768.148	17271.92
768.485	17087.52
768.821	17021.08
769.157	17005.49
769.492	16934.53
769.828	16924.36
770.164	16707.41
770.5	16702.44
770.836	16705.15
771.171	16610.02
771.507	16526.85
771.842	16427.2
772.178	16438.04
772.513	16402.34
772.849	16387.2
773.184	16281.66
773.519	16273.07
773.855	16196.01
774.19	16059.52
774.525	16064.27
774.86	16087.32
775.195	16024.04
775.53	15978.85
775.865	15852.97
776.2	15722.81
776.535	15636.48
776.87	15586.31
777.205	15573.88
777.539	15546.09
777.874	15626.54
778.209	15306.32
778.543	15354.46
778.878	15239.66
779.212	15284.63
779.547	15204.4
779.881	15203.05
780.215	15182.26
780.55	15122.82
780.884	15048.25
781.218	15007.57
781.552	14977.97
781.886	14893.68
782.22	14774.13
782.554	14706.34
782.888	14617.98
783.222	14598.77
783.556	14449.17
783.889	14469.05
784.223	14416.4
784.557	14392.67
784.89	14495.95
785.224	14332.34
785.557	14258.21
785.891	14234.26
786.224	14161.94
786.558	14190.87
786.891	13974.38
787.224	13974.83
787.557	13897.32
787.891	13908.62
788.224	13868.39
788.557	13800.15
788.89	13763.54
789.223	13756.08
789.556	13672.69
789.888	13596.08
790.221	13609.19
790.554	13490.32
790.887	13525.12
791.219	13460.27
791.552	13364.45
791.884	13279.71
792.217	13284.45
792.549	13204.68
792.882	13081.52
793.214	13052.82
793.546	13041.97
793.879	13103.44
794.211	12918.59
794.543	13058.7
794.875	12810.34
795.207	12996.55
795.539	12811.25
795.871	12847.63
796.203	12684.02
796.535	12715.88
796.867	12674.07
797.198	12607.86
797.53	12630.68
797.862	12538.26
798.193	12511.82
798.525	12446.06
798.856	12554.08
799.188	12406.06
799.519	12243.8
799.85	12247.64
800.182	12310.02
800.513	12319.05
800.844	12115.9
801.175	12222.33
801.506	12231.15
801.837	12112.28
802.168	12015.33
802.499	12013.07
802.83	11997.71
803.161	11933.53
803.491	11929.01
803.822	11926.52
804.153	11800.88
804.483	11788.9
804.814	11698.05
805.145	11660.99
805.475	11684.04
805.805	11632.52
806.136	11599.3
806.466	11566.31
806.796	11576.48
807.126	11529.24
807.457	11444.05
807.787	11457.16
808.117	11457.16
808.447	11426.2
808.777	11405.63
809.107	11385.07
809.436	11350.72
809.766	11291.29
810.096	11277.27
810.426	11233.66
810.755	11193.89
811.085	11148.01
811.414	11187.78
811.744	11081.35
812.073	11046.77
812.403	11018.3
812.732	11045.64
813.061	10970.62
813.39	10896.72
813.719	10899.43
814.049	10941.24
814.378	10886.1
814.707	10850.17
815.036	10844.07
815.365	10775.59
815.693	10696.05
816.022	10675.93
816.351	10654.01
816.68	10556.62
817.008	10581.93
817.337	10575.82
817.665	10531.31
817.994	10504.41
818.322	10480.68
818.651	10473.68
818.979	10455.37
819.307	10536.73
819.636	10413.34
819.964	10365.89
820.292	10393.23
820.62	10393.46
820.948	10315.04
821.276	10341.93
821.604	10386.45
821.932	10336.96
822.259	10360.91
822.587	10254.48
822.915	10291.31
823.243	10329.73
823.57	10258.77
823.898	10287.02
824.225	10247.47
824.553	10247.92
824.88	10235.27
825.207	10328.15
825.535	10288.83
825.862	10284.31
826.189	10218.77
826.516	10274.59
826.843	10323.17
827.17	10296.73
827.497	10282.05
827.824	10315.27
828.151	10352.55
828.478	10332.67
828.805	10292.89
829.131	10235.49
829.458	10267.36
829.785	10200.92
830.111	10171.54
830.438	10341.03
830.764	10222.84
831.09	10256.74
831.417	10221.26
831.743	10289.5
832.069	10245.44
832.395	10200.69
832.722	10226.45
833.048	10178.09
833.374	10207.25
833.7	10209.73
834.026	10134.93
834.351	10223.29
834.677	10153.24
835.003	10120.69
835.329	10122.5
835.654	10075.27
835.98	10080.47
836.306	10095.16
836.631	10032.11
836.956	10065.1
837.282	10088.15
837.607	10021.94
837.932	9986.01
838.258	10031.21
838.583	9974.94
838.908	9932.22
839.233	10006.57
839.558	9887.48
839.883	9908.27
840.208	9887.71
840.533	9803.87
840.858	9881.83
841.182	9852.23
841.507	9811.55
841.832	9766.58
842.156	9717.09
842.481	9769.29
842.805	9645.68
843.13	9713.25
843.454	9743.76
843.778	9633.48
844.103	9615.17
844.427	9648.84
844.751	9613.59
845.075	9578.56
845.399	9527.94
845.723	9470.09
846.047	9499.47
846.371	9478
846.695	9510.99
847.019	9385.12
847.343	9296.08
847.666	9263.54
847.99	9251.56
848.313	9142.64
848.637	9155.52
848.96	9149.19
849.284	9101.74
849.607	9096.99
849.931	9039.14
850.254	8937
850.577	9035.53
850.9	8873.95
851.223	8900.16
851.546	8784.01
851.869	8794.85
852.192	8838.24
852.515	8742.65
852.838	8716.44
853.161	8706.27
853.483	8673.5
853.806	8572.26
854.129	8602.32
854.451	8601.64
854.774	8505.37
855.096	8547.4
855.419	8526.16
855.741	8498.36
856.063	8413.17
856.385	8452.49
856.708	8314.64
857.03	8384.69
857.352	8324.58
857.674	8325.71
857.996	8285.26
858.318	8282.1
858.64	8235.09
858.961	8219.95
859.283	8192.38
859.605	8150.12
859.926	8207.07
860.248	8148.99
860.57	8078.04
860.891	8125.94
861.212	8051.37
861.534	8058.15
861.855	8008.89
862.176	8012.73
862.498	8083.01
862.819	8001.43
863.14	8022.44
863.461	7970.02
863.782	7929.57
864.103	7944.25
864.424	7939.73
864.745	7958.94
865.065	7886.4
865.386	7847.99
865.707	7905.16
866.027	7864.48
866.348	7853.18
866.668	7791.49
866.989	7732.96
867.309	7760.3
867.63	7773.19
867.95	7761.89
868.27	7702.45
868.59	7773.86
868.91	7742.23
869.23	7656.58
869.55	7659.52
869.87	7651.15
870.19	7678.27
870.51	7695.22
870.83	7614.32
871.15	7589.91
871.469	7578.61
871.789	7606.64
872.109	7551.95
872.428	7556.92
872.748	7525.28
873.067	7534.55
873.386	7534.1
873.706	7539.97
874.025	7458.39
874.344	7439.63
874.663	7446.87
874.982	7467.43
875.301	7469.24
875.62	7459.07
875.939	7439.18
876.258	7412.06
876.577	7388.79
876.896	7384.04
877.214	7386.53
877.533	7325.51
877.852	7366.42
878.17	7332.52
878.489	7293.88
878.807	7360.77
879.125	7337.26
879.444	7297.49
879.762	7307.89
880.08	7287.32
880.398	7291.39
880.716	7317.15
881.034	7233.54
881.352	7188.57
881.67	7205.74
881.988	7192.18
882.306	7204.16
882.624	7136.59
882.941	7113.77
883.259	7145.41
883.577	7061.34
883.894	7071.51
884.212	7022.92
884.529	7146.99
884.846	7025.41
885.164	7013.43
885.481	7003.26
885.798	7026.54
886.115	6943.38
886.432	6942.25
886.75	6900.67
887.067	6950.61
887.383	6867.9
887.7	6882.81
888.017	6831.97
888.334	6856.6
888.651	6825.87
888.967	6795.13
889.284	6731.4
889.6	6789.93
889.917	6714.23
890.233	6759.2
890.55	6681.69
890.866	6687.56
891.182	6610.05
891.498	6651.86
891.815	6671.07
892.131	6583.84
892.447	6586.55
892.763	6591.3
893.079	6516.04
893.395	6560.34
893.71	6525.31
894.026	6510.62
894.342	6496.83
894.657	6427.68
894.973	6464.29
895.289	6399.89
895.604	6407.12
895.92	6408.7
896.235	6339.32
896.55	6355.82
896.865	6342.04
897.181	6278.99
897.496	6319.66
897.811	6268.37
898.126	6259.78
898.441	6234.92
898.756	6152.44
899.071	6168.93
899.386	6178.65
899.7	6107.69
900.015	6067.69
900.33	6036.96
900.644	6031.99
900.959	6116.51
901.273	6067.47
901.588	5978.66
901.902	5940.47
902.216	5962.16
902.531	5920.58
902.845	5902.27
903.159	5896.4
903.473	5870.86
903.787	5851.43
904.101	5809.85
904.415	5814.59
904.729	5805.55
905.042	5753.8
905.356	5797.64
905.67	5736.63
905.984	5717.42
906.297	5738.89
906.611	5700.25
906.924	5646.01
907.237	5642.17
907.551	5645.78
907.864	5611.21
908.177	5583.41
908.491	5570.08
908.804	5544.54
909.117	5516.3
909.43	5483.98
909.743	5438.33
910.056	5421.16
910.368	5390.65
910.681	5391.33
910.994	5427.03
911.307	5394.49
911.619	5351.1
911.932	5285.79
912.244	5302.29
912.557	5271.56
912.869	5214.16
913.181	5230.2
913.494	5227.26
913.806	5199.02
914.118	5150.66
914.43	5157.21
914.742	5155.63
915.054	5100.04
915.366	5077.66
915.678	5074.5
915.99	5020.72
916.302	4984.11
916.613	5046.25
916.925	4996.31
917.236	4971.45
917.548	4945.46
917.859	4921.96
918.171	4964.67
918.482	4902.07
918.794	4902.75
919.105	4877.67
919.416	4781.85
919.727	4854.84
920.038	4782.08
920.349	4777.78
920.66	4773.04
920.971	4726.26
921.282	4741.63
921.593	4694.62
921.903	4679.71
922.214	4673.38
922.525	4606.72
922.835	4653.27
923.146	4572.59
923.456	4592.25
923.767	4570.33
924.077	4553.61
924.387	4515.19
924.697	4519.03
925.008	4507.51
925.318	4518.81
925.628	4474.74
925.938	4426.38
926.248	4402.2
926.558	4428.87
926.867	4375.31
927.177	4382.77
927.487	4334.86
927.796	4312.94
928.106	4333.95
928.416	4298.02
928.725	4309.55
929.034	4239.04
929.344	4263.67
929.653	4252.37
929.962	4209.21
930.271	4226.84
930.581	4176.44
930.89	4130.57
931.199	4161.08
931.508	4124.92
931.817	4119.27
932.125	4105.71
932.434	4096.22
932.743	4042.21
933.051	4039.27
933.36	4031.36
933.669	4028.43
933.977	3985.04
934.286	3948.88
934.594	3967.41
934.902	3902.78
935.21	3929.22
935.519	3951.82
935.827	3900.52
936.135	3877.47
936.443	3826.62
936.751	3852.16
937.059	3806.74
937.367	3787.98
937.674	3843.12
937.982	3811.26
938.29	3762.67
938.597	3751.82
938.905	3709.56
939.213	3689.68
939.52	3672.95
939.827	3652.39
940.135	3683.35
940.442	3688.77
940.749	3644.71
941.056	3667.53
941.363	3593.18
941.67	3586.4
941.977	3576.23
942.284	3559.06
942.591	3549.34
942.898	3524.26
943.205	3554.31
943.511	3468.44
943.818	3494.43
944.125	3462.34
944.431	3488.33
944.738	3458.5
945.044	3469.34
945.35	3424.6
945.657	3424.15
945.963	3379.18
946.269	3352.51
946.575	3360.65
946.881	3348.22
947.187	3323.81
947.493	3312.51
947.799	3309.8
948.105	3306.86
948.41	3263.7
948.716	3249.24
949.022	3257.6
949.327	3208.11
949.633	3219.86
949.938	3217.37
950.244	3203.59
950.549	3151.61
950.854	3168.56
951.16	3138.96
951.465	3127.88
951.77	3125.17
952.075	3154.78
952.38	3137.6
952.685	3131.5
952.99	3101.22
953.294	3098.96
953.599	3042.91
953.904	3045.63
954.209	3027.1
954.513	3014.67
954.818	2978.74
955.122	2984.38
955.426	3005.18
955.731	2979.41
956.035	2945.06
956.339	2930.6
956.643	2987.55
956.948	2920.66
957.252	2910.26
957.556	2877.72
957.86	2883.6
958.163	2874.78
958.467	2874.11
958.771	2860.55
959.075	2826.87
959.378	2825.29
959.682	2811.96
959.985	2818.29
960.289	2749.36
960.592	2751.62
960.896	2761.57
961.199	2722.92
961.502	2734.9
961.805	2718.86
962.108	2680.21
962.411	2675.92
962.714	2715.92
963.017	2705.07
963.32	2648.57
963.623	2660.78
963.926	2648.12
964.228	2619.65
964.531	2636.82
964.833	2619.42
965.136	2592.53
965.438	2617.39
965.741	2574.45
966.043	2567.22
966.345	2551.63
966.648	2586.66
966.95	2563.15
967.252	2522.25
967.554	2532.19
967.856	2523.61
968.158	2507.56
968.46	2525.41
968.761	2466.66
969.063	2459.43
969.365	2472.99
969.666	2439.77
969.968	2421.46
970.269	2435.25
970.571	2415.81
970.872	2427.11
971.174	2397.28
971.475	2372.65
971.776	2382.82
972.077	2369.71
972.378	2368.58
972.679	2372.88
972.98	2313.44
973.281	2367.45
973.582	2348.92
973.883	2315.48
974.183	2282.26
974.484	2311.63
974.785	2317.06
975.085	2298.75
975.386	2254.91
975.686	2207.23
975.986	2246.33
976.287	2273.22
976.587	2238.19
976.887	2237.51
977.187	2223.27
977.487	2185.08
977.787	2186.67
978.087	2205.42
978.387	2194.35
978.687	2169.49
978.987	2154.12
979.286	2152.32
979.586	2132.2
979.885	2138.53
980.185	2110.74
980.484	2083.84
980.784	2094.24
981.083	2113.22
981.382	2092.43
981.682	2101.47
981.981	2075.26
982.28	2072.32
982.579	2037.52
982.878	2049.95
983.177	2048.59
983.475	2039.55
983.774	2027.35
984.073	2005.2
984.372	1986.22
984.67	1994.81
984.969	1984.86
985.267	2005.43
985.566	1969.5
985.864	1986.9
986.162	1944.19
986.461	1978.08
986.759	1948.03
987.057	1930.85
987.355	1911.87
987.653	1935.6
987.951	1895.6
988.249	1910.06
988.547	1921.81
988.844	1853.79
989.142	1859.22
989.44	1848.6
989.737	1854.25
990.035	1856.5
990.332	1843.62
990.63	1814.25
990.927	1796.17
991.224	1828.71
991.521	1778.99
991.819	1823.06
992.116	1811.08
992.413	1781.48
992.71	1776.96
993.006	1768.6
993.303	1741.03
993.6	1742.16
993.897	1774.25
994.193	1712.33
994.49	1751.42
994.787	1709.39
995.083	1721.82
995.379	1718.66
995.676	1710.07
995.972	1694.02
996.268	1708.49
996.565	1673.68
996.861	1666
997.157	1635.95
997.453	1648.15
997.749	1654.25
998.044	1629.84
998.34	1600.24
998.636	1627.58
998.932	1621.93
999.227	1622.61
999.523	1599.11
999.818	1591.2
1000.114	1598.66
1000.409	1590.3
1000.704	1572.22
1001	1527.02
1001.295	1536.97
1001.59	1548.04
1001.885	1536.97
1002.18	1528.83
1002.475	1526.12
1002.77	1511.66
1003.065	1506.68
1003.359	1504.65
1003.654	1477.76
1003.949	1500.81
1004.243	1486.12
1004.538	1474.14
1004.832	1438.21
1005.127	1449.96
1005.421	1441.15
1005.715	1430.75
1006.009	1438.21
1006.304	1422.84
1006.598	1403.41
1006.892	1411.77
1007.186	1414.26
1007.48	1437.08
1007.773	1413.35
1008.067	1382.84
1008.361	1375.84
1008.655	1371.32
1008.948	1358.89
1009.242	1380.81
1009.535	1351.89
1009.829	1339
1010.122	1324.32
1010.415	1327.48
1010.708	1314.37
1011.001	1320.7
1011.295	1304.65
1011.588	1289.06
1011.881	1299.46
1012.173	1297.88
1012.466	1253.36
1012.759	1254.03
1013.052	1263.07
1013.344	1235.96
1013.637	1249.74
1013.93	1234.6
1014.222	1234.15
1014.514	1255.84
1014.807	1238.67
1015.099	1231.66
1015.391	1214.49
1015.683	1197.31
1015.976	1224.88
1016.268	1185.56
1016.56	1196.86
1016.851	1167.94
1017.143	1189.4
1017.435	1165.68
1017.727	1160.48
1018.018	1149.4
1018.31	1185.56
1018.602	1134.94
1018.893	1147.6
1019.185	1118.9
1019.476	1134.94
1019.767	1121.16
1020.058	1130.65
1020.35	1118.67
1020.641	1090.2
1020.932	1050.65
1021.223	1071.67
1021.514	1085
1021.804	1061.05
1022.095	1042.97
1022.386	1054.49
1022.677	1059.01
1022.967	994.83
1023.258	1012.01
1023.548	1008.62
1023.839	1031.44
1024.129	1015.85
1024.419	1031.67
1024.709	1009.3
1025	1005
1025.29	992.57
1025.58	982.4
1025.87	940.6
1026.16	971.1
1026.449	972.23
1026.739	955.51
1027.029	952.12
1027.319	947.83
1027.608	953.7
1027.898	951.22
1028.187	945.12
1028.477	906.02
1028.766	942.63
1029.055	949.41
1029.344	920.03
1029.634	926.59
1029.923	916.87
1030.212	908.96
1030.501	906.47
1030.79	856.98
1031.078	900.82
1031.367	886.81
1031.656	871.67
1031.945	875.29
1032.233	894.27
1032.522	868.51
1032.81	856.76
1033.099	853.82
1033.387	834.38
1033.675	854.27
1033.963	826.7
1034.251	823.54
1034.54	797.78
1034.828	822.86
1035.116	839.81
1035.403	811.56
1035.691	809.07
1035.979	796.65
1036.267	788.74
1036.554	805.23
1036.842	782.63
1037.129	798
1037.417	786.02
1037.704	768.62
1037.992	776.76
1038.279	774.5
1038.566	750.09
1038.853	750.09
1039.14	750.09
