Data from white_wall_FLMS001491_031.txt Node
Date: Tue Feb 07 11:04:17 GMT 2017
User: dcchb
Spectrometer: FLMS00149
Trigger mode: 0
Integration Time (sec): 2.000000E-2
Scans to average: 10
Electric dark correction enabled: true
Nonlinearity correction enabled: false
Boxcar width: 0
XAxis mode: Wavelengths
Number of Pixels in Spectrum: 2048
>>>>>Begin Spectral Data<<<<<
341.393	-18.36
341.776	-18.36
342.16	-18.36
342.543	-49.55
342.927	-67.63
343.31	-72.14
343.693	-64.46
344.077	-56.55
344.46	-63.11
344.843	-73.27
345.226	-54.52
345.61	-27.4
345.993	-21.98
346.376	-14.07
346.759	7.4
347.142	27.97
347.525	48.08
347.908	55.76
348.291	80.62
348.674	103.44
349.057	124.23
349.44	147.96
349.823	140.05
350.206	157.91
350.588	194.97
350.971	236.55
351.354	246.26
351.737	244.91
352.119	259.15
352.502	249.43
352.884	293.95
353.267	304.57
353.65	308.64
354.032	288.52
354.414	338.47
354.797	342.08
355.179	328.3
355.562	351.57
355.944	309.54
356.326	342.76
356.709	358.8
357.091	351.57
357.473	346.15
357.855	337.34
358.238	350.44
358.62	359.26
359.002	344.12
359.384	359.71
359.766	364.23
360.148	353.83
360.53	360.39
360.912	331.46
361.294	346.15
361.676	343.44
362.057	326.94
362.439	366.71
362.821	334.17
363.203	334.62
363.584	357.67
363.966	344.12
364.348	341.4
364.729	340.95
365.111	333.27
365.493	338.69
365.874	348.86
366.256	305.02
366.637	322.19
367.019	326.04
367.4	323.78
367.781	322.19
368.163	334.17
368.544	322.19
368.925	324.91
369.306	352.02
369.688	324.23
370.069	329.88
370.45	345.47
370.831	342.08
371.212	323.55
371.593	335.53
371.974	322.42
372.355	345.02
372.736	331.91
373.117	362.65
373.498	336.88
373.879	330.56
374.26	343.44
374.641	347.05
375.021	331.23
375.402	341.63
375.783	333.49
376.163	351.35
376.544	343.66
376.925	360.16
377.305	340.95
377.686	340.73
378.066	353.38
378.447	357.22
378.827	363.78
379.208	368.3
379.588	347.28
379.968	355.87
380.349	363.32
380.729	390.44
381.109	372.59
381.489	353.15
381.87	385.24
382.25	361.74
382.63	366.04
383.01	382.76
383.39	382.31
383.77	382.53
384.15	369.43
384.53	388.63
384.91	411.68
385.29	370.78
385.67	402.42
386.049	391.35
386.429	398.8
386.809	406.94
387.189	399.26
387.568	413.72
387.948	397.9
388.328	398.13
388.707	411.46
389.087	421.18
389.466	403.77
389.846	418.46
390.225	436.99
390.605	436.32
390.984	441.97
391.363	441.51
391.743	428.86
392.122	458.69
392.501	478.57
392.881	460.72
393.26	472.7
393.639	471.12
394.018	461.4
394.397	466.15
394.776	514.96
395.155	488.29
395.534	503.43
395.913	491
396.292	500.95
396.671	526.48
397.05	536.65
397.429	557.22
397.808	547.27
398.186	560.38
398.565	568.74
398.944	544.79
399.323	598.57
399.701	612.58
400.08	589.76
400.458	599.02
400.837	612.13
401.215	639.93
401.594	626.59
401.972	648.97
402.351	656.65
402.729	667.95
403.107	679.47
403.486	692.81
403.864	686.03
404.242	700.26
404.62	711.56
404.999	720.15
405.377	733.26
405.755	730.32
406.133	763.54
406.511	770.54
406.889	773.26
407.267	825.23
407.645	826.59
408.023	817.32
408.401	840.15
408.779	854.38
409.156	887.38
409.534	896.87
409.912	914.04
410.29	933.25
410.667	926.25
411.045	952.23
411.422	952.69
411.8	982.29
412.178	990.88
412.555	1047.83
412.933	1019.58
413.31	1052.57
413.687	1056.86
414.065	1074.27
414.442	1063.64
414.819	1125.34
415.197	1094.38
415.574	1128.05
415.951	1151.78
416.328	1148.84
416.705	1154.94
417.082	1148.39
417.46	1225
417.837	1169.63
418.214	1224.54
418.591	1213.92
418.967	1219.12
419.344	1241.94
419.721	1267.48
420.098	1273.36
420.475	1270.87
420.852	1288.05
421.228	1334.15
421.605	1329.17
421.982	1337.54
422.358	1356.07
422.735	1365.78
423.111	1377.99
423.488	1402.84
423.864	1428.15
424.241	1418.21
424.617	1437.19
424.994	1455.27
425.37	1495.05
425.746	1473.8
426.123	1510.86
426.499	1525.33
426.875	1552.45
427.251	1599.45
427.627	1581.37
428.003	1605.78
428.379	1623.63
428.756	1668.37
429.132	1687.58
429.507	1695.72
429.883	1712.67
430.259	1732.78
430.635	1759.45
431.011	1767.35
431.387	1824.98
431.763	1844.87
432.138	1859.56
432.514	1854.13
432.89	1875.83
433.265	1911.53
433.641	1960.34
434.016	1957.18
434.392	1994.69
434.767	2036.73
435.143	2048.03
435.518	2068.36
435.894	2091.87
436.269	2118.53
436.644	2170.28
437.02	2142.71
437.395	2157.85
437.77	2198.3
438.145	2230.17
438.52	2287.12
438.895	2309.26
439.271	2299.77
439.646	2347.23
440.021	2370.73
440.395	2406.89
440.77	2390.39
441.145	2407.56
441.52	2439.88
441.895	2425.87
442.27	2462.48
442.645	2484.17
443.019	2522.14
443.394	2549.26
443.769	2543.83
444.143	2498.18
444.518	2583.15
444.892	2587.45
445.267	2615.47
445.641	2648.24
446.016	2638.29
446.39	2718.97
446.764	2695.24
447.139	2699.99
447.513	2689.82
447.887	2777.95
448.262	2791.96
448.636	2772.07
449.01	2827.89
449.384	2837.38
449.758	2892.3
450.132	2915.12
450.506	2919.19
450.88	2941.11
451.254	2906.31
451.628	2994.89
452.002	3026.08
452.376	3038.28
452.75	3069.02
453.123	3114.44
453.497	3189.01
453.871	3227.2
454.244	3221.55
454.618	3285.05
454.992	3353.75
455.365	3334.55
455.739	3400.53
456.112	3488.44
456.486	3470.59
456.859	3548.55
457.232	3595.33
457.606	3591.71
457.979	3657.47
458.352	3725.72
458.725	3718.04
459.099	3791.26
459.472	3853.4
459.845	3875.55
460.218	3942.21
460.591	3948.54
460.964	4006.84
461.337	4063.11
461.71	4170.68
462.083	4226.5
462.456	4200.29
462.829	4247.06
463.201	4297.91
463.574	4337.23
463.947	4440.05
464.32	4516.21
464.692	4530.67
465.065	4560.73
465.438	4620.84
465.81	4701.06
466.183	4781.06
466.555	4860.83
466.928	4903.77
467.3	4931.11
467.672	4979.25
468.045	5129.3
468.417	5108.74
468.789	5221.5
469.161	5261.73
469.534	5337.2
469.906	5432.57
470.278	5489.29
470.65	5550.98
471.022	5670.98
471.394	5816.97
471.766	5849.06
472.138	5907.36
472.51	6080.91
472.882	6143.28
473.253	6209.72
473.625	6215.83
473.997	6385.99
474.369	6513.67
474.74	6562.26
475.112	6672.76
475.484	6787.79
475.855	6895.36
476.227	6968.57
476.598	7160.21
476.97	7242.92
477.341	7407.43
477.713	7500.76
478.084	7553.87
478.455	7823.47
478.827	7838.61
479.198	8151.59
479.569	8164.93
479.94	8326.96
480.311	8396.78
480.682	8633.16
481.053	8818.02
481.424	8976.66
481.795	8989.99
482.166	9199.48
482.537	9355.18
482.908	9496.64
483.279	9664.32
483.65	9747.48
484.021	9956.52
484.391	10098.66
484.762	10244.42
485.133	10287.81
485.503	10503.4
485.874	10727.8
486.244	10858.19
486.615	11034.68
486.985	11090.73
487.356	11312.19
487.726	11477.16
488.097	11727.09
488.467	11732.97
488.837	12023.81
489.207	12058.84
489.578	12328.88
489.948	12455.21
490.318	12702.21
490.688	12694.3
491.058	12849.1
491.428	13070.33
491.798	13156.89
492.168	13453.6
492.538	13462.87
492.908	13723.42
493.278	13906.7
493.648	13911.44
494.017	14104.43
494.387	14302.17
494.757	14355.72
495.126	14537.64
495.496	14601.14
495.866	14721.59
496.235	14914.13
496.605	15107.57
496.974	15093.33
497.344	15341.69
497.713	15432.31
498.082	15455.36
498.452	15689.47
498.821	15816.93
499.19	15801.56
499.559	16042.46
499.928	16142.8
500.298	16310.48
500.667	16419.85
501.036	16455.56
501.405	16683.8
501.774	16712.27
502.143	16942.55
502.512	17003.11
502.88	17107.06
503.249	17164.69
503.618	17377.11
503.987	17454.85
504.356	17591.12
504.724	17720.61
505.093	17868.4
505.462	17919.7
505.83	18079.92
506.199	18240.59
506.567	18432
506.936	18434.49
507.304	18648.72
507.672	18806
508.041	18804.65
508.409	19074.02
508.777	19170.74
509.145	19379.09
509.514	19406.21
509.882	19556.72
510.25	19657.28
510.618	19828.12
510.986	19876.93
511.354	20121.9
511.722	20298.62
512.09	20511.49
512.458	20446.86
512.826	20754.88
513.193	20712.85
513.561	20831.26
513.929	21074.42
514.297	21305.15
514.664	21409.1
515.032	21473.28
515.4	21751.91
515.767	21834.85
516.135	21971.12
516.502	21946.71
516.869	22355.29
517.237	22375.17
517.604	22298.79
517.972	22745.79
518.339	22784.88
518.706	22985.55
519.073	23150.07
519.44	23329.73
519.808	23449.95
520.175	23581.92
520.542	23810.62
520.909	24048.12
521.276	24006.09
521.643	24259.64
522.009	24456.48
522.376	24597.71
522.743	24692.18
523.11	25066.4
523.477	25283.8
523.843	25427.75
524.21	25634.98
524.577	25842.2
524.943	26031.8
525.31	26142.31
525.676	26402.64
526.043	26562.63
526.409	26626.59
526.776	26963.75
527.142	27119.23
527.508	27209.62
527.874	27472.22
528.241	27633.12
528.607	27677.18
528.973	27963.05
529.339	27960.34
529.705	28283.49
530.071	28432.64
530.437	28592.41
530.803	28762.8
531.169	28981.78
531.535	29010.48
531.901	29138.61
532.267	29288.89
532.632	29418.83
532.998	29602.33
533.364	29811.14
533.73	29828.09
534.095	30035.31
534.461	30273.05
534.826	30348.07
535.192	30587.61
535.557	30731.11
535.923	30626.26
536.288	30879.36
536.653	30960.03
537.019	30881.62
537.384	31135.17
537.749	31407.03
538.114	31409.51
538.479	31516.4
538.845	31660.58
539.21	31700.58
539.575	31897.64
539.94	31950.29
540.305	32107.57
540.67	32120.68
541.034	32261.92
541.399	32422.59
541.764	32577.62
542.129	32666.43
542.494	32700.33
542.858	32987.1
543.223	32928.12
543.587	33260.54
543.952	33231.16
544.316	33366.3
544.681	33279.97
545.045	33620.53
545.41	33685.16
545.774	34022.78
546.138	33991.14
546.503	34173.96
546.867	34139.84
547.231	34443.11
547.595	34536.44
547.959	34667.73
548.324	34769.2
548.688	34912.47
549.052	35059.36
549.416	35080.38
549.779	35166.7
550.143	35351.56
550.507	35462.97
550.871	35610.98
551.235	35810.75
551.599	36046.91
551.962	36160.12
552.326	36115.6
552.689	36472.88
553.053	36343.85
553.417	36567.12
553.78	37013.66
554.143	36925.3
554.507	37182.69
554.87	37182.47
555.234	37630.37
555.597	37612.29
555.96	37633.98
556.323	37940.19
556.686	38059.73
557.05	38408.43
557.413	38476.67
557.776	38533.62
558.139	38829.66
558.502	38939.94
558.865	39034.17
559.228	39351.9
559.59	39472.13
559.953	39584.67
560.316	39894.04
560.679	39974.94
561.041	40085.22
561.404	40424.87
561.767	40712.09
562.129	40586.9
562.492	41027.34
562.854	40910.05
563.217	40953.22
563.579	41124.74
563.941	41496.03
564.304	41698.73
564.666	41818.73
565.028	42018.27
565.39	42032.96
565.753	42347.3
566.115	42301.88
566.477	42662.55
566.839	42752.27
567.201	43104.35
567.563	42931.7
567.925	43206.27
568.287	43355.64
568.648	43380.05
569.01	43808.96
569.372	43916.53
569.734	43763.09
570.095	44192.45
570.457	44311.32
570.819	44460.47
571.18	44485.55
571.542	44705.66
571.903	44678.09
572.265	44895.49
572.626	45036.05
572.987	45032.43
573.349	45169.38
573.71	45358.75
574.071	45391.74
574.432	45561.91
574.794	45766.2
575.155	45831.96
575.516	45696.37
575.877	45975.23
576.238	45997.6
576.599	46243.93
576.96	46135.68
577.32	46238.5
577.681	46315.11
578.042	46457.93
578.403	46422.68
578.763	46489.34
579.124	46549.23
579.485	46652.73
579.845	46878.71
580.206	46633.52
580.566	46923.23
580.927	46862.67
581.287	46892.95
581.648	46876.23
582.008	47006.39
582.368	47027.86
582.728	47071.25
583.089	47012.72
583.449	47045.03
583.809	47025.6
584.169	47238.02
584.529	47161.64
584.889	47383.33
585.249	47153.73
585.609	47068.54
585.969	47395.99
586.329	47153.05
586.688	47271.92
587.048	47200.28
587.408	47127.97
587.768	47156.67
588.127	47240.28
588.487	47172.04
588.846	47499.26
589.206	47124.81
589.565	47198.48
589.925	47360.28
590.284	47270.11
590.643	47276.89
591.003	47415.87
591.362	47426.72
591.721	47361.64
592.08	47296.33
592.44	47359.83
592.799	47360.05
593.158	47318.93
593.517	47461.97
593.876	47510.78
594.235	47340.17
594.593	47402.31
594.952	47573.61
595.311	47394.86
595.67	47447.96
596.029	47713.94
596.387	47594.62
596.746	47700.61
597.104	47555.3
597.463	47602.31
597.822	47824.67
598.18	47682.31
598.538	47560.73
598.897	47842.53
599.255	47500.16
599.613	48124.33
599.972	47811.12
600.33	47843.88
600.688	47783.55
601.046	48009.3
601.404	48145.34
601.762	47960.26
602.12	48160.71
602.478	48098.34
602.836	48119.13
603.194	47954.16
603.552	47985.8
603.91	47948.97
604.268	48103.76
604.625	48025.12
604.983	48239.35
605.341	48108.74
605.698	48339.92
606.056	48292.69
606.413	48261.5
606.771	48449.74
607.128	48434.6
607.485	48392.57
607.843	48327.26
608.2	48554.6
608.557	48568.38
608.914	48471.89
609.272	48655.16
609.629	48777.19
609.986	48906.91
610.343	48708.49
610.7	49090.18
611.057	48976.96
611.414	48939.45
611.771	48869.62
612.127	49052.44
612.484	49046.11
612.841	49143.51
613.198	48987.36
613.554	49168.82
613.911	49293.34
614.267	49327.69
614.624	49240
614.98	49322.26
615.337	49522.48
615.693	49375.14
616.05	49280
616.406	49467.34
616.762	49407.23
617.118	49554.35
617.475	49503.05
617.831	49564.29
618.187	49677.06
618.543	49657.85
618.899	49870.5
619.255	49777.84
619.611	49695.13
619.967	49855.58
620.323	49911.63
620.678	49898.52
621.034	49635.02
621.39	49590.5
621.746	49619.43
622.101	49952.75
622.457	49735.13
622.812	49824.4
623.168	49829.37
623.523	49783.72
623.879	49941.23
624.234	49726.32
624.589	49801.35
624.945	49947.78
625.3	49966.77
625.655	49957.05
626.01	49962.02
626.365	50005.86
626.72	49867.56
627.075	49833.89
627.43	49760.44
627.785	49781.91
628.14	49819.88
628.495	49851.06
628.85	49893.09
629.205	49699.43
629.559	49938.97
629.914	49771.52
630.269	49936.48
630.623	49699.43
630.978	49729.94
631.332	49883.38
631.687	49864.4
632.041	49748.01
632.396	49719.09
632.75	49608.58
633.104	49696.94
633.459	49534.01
633.813	49484.29
634.167	49457.63
634.521	49415.37
634.875	49510.51
635.229	49506.21
635.583	49287.69
635.937	49247.24
636.291	49230.29
636.645	49182.15
636.999	49124.53
637.352	49353.22
637.706	49084.08
638.06	49244.75
638.413	49092.21
638.767	48931.76
639.121	49082.49
639.474	48763.18
639.828	48818.77
640.181	48955.49
640.534	49004.08
640.888	48724.76
641.241	48631.43
641.594	48672.34
641.947	48765.21
642.301	48639.57
642.654	48595.5
643.007	48628.72
643.36	48473.25
643.713	48395.96
644.066	48501.72
644.419	48372.91
644.771	48127.94
645.124	47781.96
645.477	47760.27
645.83	47466.49
646.182	47081.64
646.535	47202.09
646.888	47208.87
647.24	46974.75
647.593	47232.37
647.945	47220.62
648.298	46968.43
648.65	46967.97
649.002	46792.16
649.355	46910.12
649.707	46822.22
650.059	47075.09
650.411	47411.35
650.763	47492.25
651.115	47837.1
651.467	47628.07
651.819	47626.04
652.171	47597.56
652.523	47587.17
652.875	47519.15
653.227	47328.42
653.578	47708.07
653.93	47452.71
654.282	47263.56
654.633	47257.68
654.985	47259.72
655.337	47384.69
655.688	47243.67
656.039	47281.64
656.391	47004.58
656.742	47027.63
657.094	47037.12
657.445	47188.76
657.796	47061.53
658.147	47031.25
658.498	47045.03
658.849	46978.37
659.2	46876
659.551	46906.96
659.902	46942.66
660.253	46866.06
660.604	47009.78
660.955	46639.17
661.306	46810.01
661.656	46681.43
662.007	46792.84
662.358	46668.55
662.708	46723.01
663.059	46737.92
663.409	46487.08
663.76	46691.6
664.11	46583.35
664.461	46640.75
664.811	46767.3
665.161	46655.44
665.511	46515.56
665.862	46409.8
666.212	46670.58
666.562	46661.99
666.912	46470.59
667.262	46490.47
667.612	46414.32
667.962	46602.79
668.312	46414.09
668.662	46531.6
669.011	46341.1
669.361	46234.21
669.711	46344.26
670.06	46248.9
670.41	46130.93
670.76	46183.14
671.109	46180.42
671.459	46260.42
671.808	46144.04
672.157	46080.77
672.507	45977.49
672.856	46015
673.205	46183.81
673.554	46188.33
673.904	46036.25
674.253	46191.05
674.602	46019.52
674.951	45388.13
675.3	45220.22
675.649	45827.89
675.998	45817.72
676.346	45872.64
676.695	45939.3
677.044	45644.17
677.393	45665.18
677.741	45751.28
678.09	45559.42
678.438	45432.87
678.787	45620.89
679.135	45648.91
679.484	45281.92
679.832	45458.64
680.181	45175.03
680.529	45344.29
680.877	45246.44
681.225	45114.24
681.573	45370.28
681.922	45034.01
682.27	44946.11
682.618	44908.82
682.966	44813
683.314	45000.57
683.661	44639.22
684.009	44471.09
684.357	44389.74
684.705	44422.05
685.053	44343.86
685.4	44294.15
685.748	44028.62
686.095	44002.18
686.443	43882.63
686.79	43926.7
687.138	43918.11
687.485	43975.06
687.832	43734.39
688.18	43803.31
688.527	43372.36
688.874	43368.29
689.221	43236.32
689.568	43226.6
689.915	43233.38
690.262	43146.61
690.609	42907.06
690.956	42800.17
691.303	42839.04
691.65	42564.7
691.997	42608.09
692.344	42395.21
692.69	42437.7
693.037	42317.93
693.383	42036.8
693.73	42230.02
694.077	42059.85
694.423	41937.82
694.769	41870.71
695.116	41714.1
695.462	41689.24
695.808	41447.22
696.155	41809.47
696.501	41268.24
696.847	41315.92
697.193	41011.29
697.539	41180.33
697.885	40809.27
698.231	40692.88
698.577	40653.79
698.923	40550.29
699.269	40448.6
699.614	40373.8
699.96	40254.48
700.306	40127.48
700.651	39929.06
700.997	39918.67
701.342	39791.89
701.688	39902.85
702.033	39729.29
702.379	39514.61
702.724	39506.02
703.069	39703.08
703.415	39176.09
703.76	39233.49
704.105	39185.81
704.45	39085.02
704.795	38698.81
705.14	38812.03
705.485	38908.98
705.83	38579.27
706.175	38662.2
706.52	38429.89
706.865	38473.96
707.209	38374.08
707.554	38248.88
707.899	38304.93
708.243	38113.97
708.588	38019.51
708.932	37796.92
709.277	37796.69
709.621	37837.82
709.966	37526.19
710.31	37704.49
710.654	37392.63
710.998	37346.98
711.342	37363.25
711.687	37317.83
712.031	37136.59
712.375	37060.44
712.719	37073.09
713.063	36947.22
713.407	37162.36
713.75	36766.89
714.094	36707.45
714.438	36778.41
714.782	36726.21
715.125	36502.03
715.469	36615.7
715.812	36408.03
716.156	36284.19
716.499	36160.57
716.843	36333.68
717.186	36166.9
717.53	36273.11
717.873	36308.82
718.216	36012.33
718.559	36076.74
718.902	35782.28
719.246	35793.8
719.589	35693.47
719.932	35615.5
720.275	35588.16
720.617	35527.37
720.96	35527.14
721.303	35478.33
721.646	35428.16
721.989	35099.13
722.331	35319.47
722.674	35110.88
723.016	35265.68
723.359	35013.94
723.701	35048.74
724.044	34871.57
724.386	34717.67
724.729	34893.49
725.071	34741.4
725.413	34728.3
725.755	34649.65
726.097	34495.76
726.439	34375.76
726.782	34454.18
727.124	34613.04
727.465	34381.64
727.807	34321.07
728.149	34319.04
728.491	34152.72
728.833	34181.42
729.175	33966.96
729.516	34037.24
729.858	33735.55
730.199	33994.76
730.541	33907.3
730.882	33859.17
731.224	33891.48
731.565	33642.67
731.906	33676.35
732.248	33662.79
732.589	33464.15
732.93	33387.99
733.271	33418.27
733.612	33429.57
733.953	33479.52
734.294	33291.72
734.635	33226.19
734.976	33170.82
735.317	33185.51
735.658	33070.71
735.999	33082.46
736.339	32890.6
736.68	33078.62
737.021	32928.34
737.361	32842.92
737.702	32946.87
738.042	32727.67
738.383	32775.13
738.723	32737.16
739.063	32702.81
739.404	32822.58
739.744	32526.32
740.084	32421.46
740.424	32474.34
740.764	32345.99
741.104	32356.61
741.444	32158.65
741.784	32087.01
742.124	32126.33
742.464	31977.63
742.804	32062.15
743.143	32033.68
743.483	32072.77
743.823	31971.98
744.162	31831.42
744.502	31952.32
744.841	31795.72
745.181	31931.76
745.52	31710.97
745.86	31831.65
746.199	31689.28
746.538	31513.47
746.877	31499
747.216	31495.61
747.556	31536.74
747.895	31335.62
748.234	31445.22
748.573	31262.85
748.911	31240.7
749.25	31107.6
749.589	30967.26
749.928	31135.4
750.267	31091.33
750.605	30902.86
750.944	30938.79
751.283	30748.06
751.621	30697.89
751.96	30745.8
752.298	30685.46
752.636	30548.07
752.975	30445.92
753.313	30339.03
753.651	30454.74
753.989	30186.95
754.327	30320.73
754.666	30055.2
755.004	30163.67
755.342	30043.9
755.679	30021.75
756.017	29806.84
756.355	29918.48
756.693	29749.44
757.031	29845.26
757.368	29675.32
757.706	29586.28
758.044	29517.81
758.381	29432.62
758.719	29451.82
759.056	29391.71
759.394	29234.66
759.731	29111.49
760.068	29044.6
760.405	28930.26
760.743	28810.94
761.08	28955.57
761.417	28745.18
761.754	28672.18
762.091	28629.47
762.428	28545.63
762.765	28329.59
763.102	28470.83
763.438	28229.71
763.775	28083.72
764.112	28118.98
764.449	28196.94
764.785	27960.56
765.122	27727.35
765.458	27768.25
765.795	27736.39
766.131	27589.73
766.467	27679.44
766.804	27460.24
767.14	27311.09
767.476	27188.61
767.812	27163.07
768.148	27142.51
768.485	26986.13
768.821	26824.55
769.157	26790.43
769.492	26644.21
769.828	26735.96
770.164	26568.06
770.5	26535.97
770.836	26420.27
771.171	26342.08
771.507	26251.91
771.842	25941.41
772.178	26012.82
772.513	25928.3
772.849	25834.29
773.184	25751.36
773.519	25723.11
773.855	25544.13
774.19	25374.87
774.525	25375.1
774.86	25367.19
775.195	25260.3
775.53	25084.71
775.865	24977.14
776.2	24792.74
776.535	24597.94
776.87	24650.14
777.205	24596.13
777.539	24531.95
777.874	24585.51
778.209	24331.06
778.543	24337.61
778.878	24146.2
779.212	24150.27
779.547	24025.07
779.881	24038.86
780.215	23806.1
780.55	23964.51
780.884	23801.58
781.218	23692.2
781.552	23637.97
781.886	23545.77
782.22	23440.68
782.554	23337.63
782.888	23114.82
783.222	23058.55
783.556	23023.97
783.889	22889.96
784.223	22731.55
784.557	22602.06
784.89	22679.8
785.224	22526.58
785.557	22449.52
785.891	22346.25
786.224	22381.5
786.558	22293.37
786.891	22189.19
787.224	22031.91
787.557	21964.11
787.891	21920.05
788.224	21942.19
788.557	21865.36
788.89	21786.94
789.223	21710.79
789.556	21611.13
789.888	21600.73
790.221	21475.99
790.554	21296.11
790.887	21271.93
791.219	21150.57
791.552	21043.91
791.884	21018.6
792.217	21044.14
792.549	20932.73
792.882	20731.15
793.214	20748.1
793.546	20700.64
793.879	20687.76
794.211	20544.04
794.543	20489.8
794.875	20446.86
795.207	20483.47
795.539	20318.05
795.871	20282.35
796.203	20152.63
796.535	20090.49
796.867	20138.62
797.198	19990.6
797.53	19881.91
797.862	19869.48
798.193	19853.43
798.525	19737.05
798.856	19788.12
799.188	19547
799.519	19523.5
799.85	19373.22
800.182	19350.62
800.513	19263.39
800.844	19240.12
801.175	19325.76
801.506	19120.34
801.837	19038.54
802.168	19107.92
802.499	19067.69
802.83	18874.7
803.161	18811.43
803.491	18871.54
803.822	18787.7
804.153	18753.57
804.483	18543.18
804.814	18475.39
805.145	18543.18
805.475	18512.9
805.805	18394.04
806.136	18403.3
806.466	18378.9
806.796	18329.86
807.126	18166.47
807.457	18187.49
807.787	18208.73
808.117	18116.08
808.447	18049.86
808.777	18069.52
809.107	17936.87
809.436	17932.81
809.766	17849.42
810.096	17854.39
810.426	17704.56
810.755	17831.57
811.085	17624.79
811.414	17657.11
811.744	17462.08
812.073	17485.36
812.403	17549.31
812.732	17361.07
813.061	17340.28
813.39	17239.72
813.719	17312.03
814.049	17359.26
814.378	17250.34
814.707	17120.4
815.036	17094.41
815.365	17046.27
815.693	16846.05
816.022	16830.46
816.351	16853.74
816.68	16749.56
817.008	16860.74
817.337	16609.68
817.665	16648.77
817.994	16686.51
818.322	16679.05
818.651	16542.56
818.979	16428.44
819.307	16550.92
819.636	16486.29
819.964	16370.59
820.292	16450.81
820.62	16476.57
820.948	16331.27
821.276	16435.9
821.604	16437.03
821.932	16351.83
822.259	16422.34
822.587	16345.73
822.915	16355.9
823.243	16341.43
823.57	16252.85
823.898	16285.17
824.225	16307.09
824.553	16210.36
824.88	16322.45
825.207	16313.19
825.535	16223.25
825.862	16274.54
826.189	16220.31
826.516	16250.82
826.843	16322.68
827.17	16267.76
827.497	16430.7
827.824	16267.54
828.151	16284.49
828.478	16227.99
828.805	16333.53
829.131	16225.51
829.458	16171.95
829.785	16132.63
830.111	16179.18
830.438	16249.69
830.764	16231.83
831.09	16235
831.417	16070.26
831.743	16213.53
832.069	16126.07
832.395	16153.19
832.722	16164.49
833.048	16015.57
833.374	16091.27
833.7	15951.84
834.026	16000.43
834.351	16077.49
834.677	15997.04
835.003	16103.7
835.329	16010.14
835.654	15864.84
835.98	15863.26
836.306	15880.2
836.631	15832.52
836.956	15936.25
837.282	15958.39
837.607	15817.15
837.932	15763.6
838.258	15669.14
838.583	15670.72
838.908	15687.67
839.233	15625.52
839.558	15590.49
839.883	15515.02
840.208	15544.85
840.533	15558.18
840.858	15599.53
841.182	15468.46
841.507	15492.42
841.832	15420.78
842.156	15463.94
842.481	15422.14
842.805	15359.54
843.13	15347.56
843.454	15317.05
843.778	15247.45
844.103	15199.09
844.427	15132.43
844.751	15120.68
845.075	15115.7
845.399	15023.05
845.723	14973.34
846.047	14935.37
846.371	14853.79
846.695	14892.66
847.019	14754.58
847.343	14649.05
847.666	14647.24
847.99	14533.57
848.313	14503.74
848.637	14381.49
848.96	14422.62
849.284	14396.18
849.607	14260.81
849.931	14223.75
850.254	14130.19
850.577	14131.55
850.9	13962.74
851.223	13987.37
851.546	13879.35
851.869	13798
852.192	13875.28
852.515	13750.77
852.838	13702.41
853.161	13714.61
853.483	13572.92
853.806	13560.72
854.129	13519.36
854.451	13479.59
854.774	13393.26
855.096	13410.89
855.419	13349.2
855.741	13260.84
856.063	13181.07
856.385	13238.24
856.708	13153.27
857.03	13095.87
857.352	13069.43
857.674	13065.14
857.996	12944.24
858.318	12883.9
858.64	12883.45
858.961	12900.4
859.283	12824.24
859.605	12767.52
859.926	12780.62
860.248	12720.96
860.57	12701.53
860.891	12706.05
861.212	12651.59
861.534	12619.72
861.855	12637.35
862.176	12633.51
862.498	12497.69
862.819	12584.25
863.14	12466.51
863.461	12486.39
863.782	12446.4
864.103	12406.85
864.424	12370.69
864.745	12360.97
865.065	12339.51
865.386	12306.06
865.707	12311.26
866.027	12236.23
866.348	12289.11
866.668	12262.22
866.989	12154.43
867.309	12129.79
867.63	12149.91
867.95	12125.95
868.27	12052.96
868.59	12045.95
868.91	12062.68
869.23	12077.59
869.55	12040.98
869.87	12054.32
870.19	12014.99
870.51	11996.69
870.83	11960.53
871.15	11912.62
871.469	11946.07
871.789	11944.26
872.109	11936.58
872.428	11802.35
872.748	11809.12
873.067	11803.47
873.386	11826.53
873.706	11817.49
874.025	11738.62
874.344	11697.26
874.663	11774.55
874.982	11709.24
875.301	11648.68
875.62	11692.52
875.939	11633.31
876.258	11511.05
876.577	11575.91
876.896	11615.01
877.214	11544.95
877.533	11495.46
877.852	11553.54
878.17	11566.19
878.489	11507.21
878.807	11474.67
879.125	11518.51
879.444	11406.88
879.762	11419.53
880.08	11416.14
880.398	11329.36
880.716	11375.01
881.034	11287.78
881.352	11318.74
881.67	11308.35
881.988	11286.65
882.306	11250.72
882.624	11169.82
882.941	11202.13
883.259	11138.63
883.577	11127.11
883.894	11109.26
884.212	11065.19
884.529	11059.31
884.846	11036.26
885.164	11033.55
885.481	10930.96
885.798	10973.21
886.115	10877.85
886.432	10875.82
886.75	10853.22
887.067	10820.45
887.383	10793.33
887.7	10803.73
888.017	10791.3
888.334	10659.55
888.651	10682.15
888.967	10686.22
889.284	10621.13
889.6	10627.46
889.917	10639.89
890.233	10565.77
890.55	10475.6
890.866	10556.5
891.182	10438.54
891.498	10433.34
891.815	10363.51
892.131	10384.53
892.447	10430.18
892.763	10269.5
893.079	10288.03
893.395	10205.55
893.71	10202.16
894.026	10206.45
894.342	10169.17
894.657	10102.28
894.973	10045.33
895.289	10083.07
895.604	10144.99
895.92	9919.23
896.235	9931.66
896.55	9939.34
896.865	9907.03
897.181	9852.34
897.496	9856.63
897.811	9902.96
898.126	9785
898.441	9728.05
898.756	9741.38
899.071	9689.18
899.386	9644.66
899.7	9636.98
900.015	9549.52
900.33	9448.96
900.644	9448.96
900.959	9488.96
901.273	9485.34
901.588	9385.69
901.902	9337.1
902.216	9373.26
902.531	9293.26
902.845	9279.02
903.159	9253.26
903.473	9180.04
903.787	9144.34
904.101	9119.7
904.415	9122.19
904.729	9107.27
905.042	9039.48
905.356	9031.12
905.67	9013.04
905.984	8968.52
906.297	8886.94
906.611	8785.48
906.924	8845.13
907.237	8842.42
907.551	8781.41
907.864	8702.77
908.177	8688.08
908.491	8673.39
908.804	8611.92
909.117	8609.21
909.43	8576.44
909.743	8535.31
910.056	8464.35
910.368	8353.62
910.681	8422.09
910.994	8348.2
911.307	8347.97
911.619	8334.87
911.932	8317.92
912.244	8228.88
912.557	8253.74
912.869	8119.73
913.181	8146.4
913.494	8190.91
913.806	8097.58
914.118	8003.8
914.43	7948.89
914.742	7962.9
915.054	7907.98
915.366	7932.62
915.678	7897.81
915.99	7908.44
916.302	7757.48
916.613	7801.32
916.925	7752.06
917.236	7696.24
917.548	7691.49
917.859	7628.9
918.171	7621.89
918.482	7619.4
918.794	7571.5
919.105	7494.44
919.416	7392.74
919.727	7441.56
920.038	7422.12
920.349	7380.31
920.66	7336.47
920.971	7307.77
921.282	7312.75
921.593	7274.1
921.903	7246.98
922.214	7197.72
922.525	7204.95
922.835	7249.7
923.146	7049.25
923.456	7103.94
923.767	7046.31
924.077	7031.17
924.387	6950.95
924.697	6941.68
925.008	6949.37
925.318	6956.6
925.628	6914.34
925.938	6863.27
926.248	6813.78
926.558	6786.21
926.867	6700.11
927.177	6739.65
927.487	6732.87
927.796	6589.83
928.106	6622.14
928.416	6592.99
928.725	6519.55
929.034	6509.6
929.344	6530.62
929.653	6550.51
929.962	6445.42
930.271	6415.14
930.581	6404.07
930.89	6370.17
931.199	6368.14
931.508	6280
931.817	6319.55
932.125	6336.95
932.434	6289.5
932.743	6216.28
933.051	6209.27
933.36	6181.02
933.669	6118.88
933.977	6110.29
934.286	6079.11
934.594	6094.02
934.902	6000.92
935.21	5993.46
935.519	6011.08
935.827	5948.04
936.135	5895.16
936.443	5842.05
936.751	5840.47
937.059	5872.78
937.367	5826.46
937.674	5857.87
937.982	5786.68
938.29	5738.55
938.597	5713.92
938.905	5696.29
939.213	5683.18
939.52	5640.93
939.827	5659.91
940.135	5629.4
940.442	5639.57
940.749	5543.53
941.056	5534.26
941.363	5446.81
941.67	5538.1
941.977	5505.79
942.284	5449.29
942.591	5449.52
942.898	5365.68
943.205	5366.36
943.511	5343.76
943.818	5312.8
944.125	5282.06
944.431	5296.08
944.738	5240.03
945.044	5245.91
945.35	5243.65
945.657	5185.12
945.963	5158.23
946.269	5121.62
946.575	5081.84
946.881	5032.81
947.187	5064.9
947.493	5038.91
947.799	4967.04
948.105	4980.15
948.41	4953.26
948.716	4944.22
949.022	4936.76
949.327	4906.71
949.633	4878.23
949.938	4892.92
950.244	4871.91
950.549	4827.16
950.854	4785.81
951.16	4792.13
951.465	4779.7
951.77	4765.24
952.075	4683.89
952.38	4702.19
952.685	4670.33
952.99	4614.29
953.294	4659.71
953.599	4609.09
953.904	4609.09
954.209	4619.26
954.513	4558.92
954.818	4519.6
955.122	4562.54
955.426	4493.84
955.731	4495.42
956.035	4469.66
956.339	4434.4
956.643	4450.22
956.948	4327.29
957.252	4330.9
957.556	4332.26
957.86	4305.37
958.163	4323.67
958.467	4315.76
958.771	4321.64
959.075	4295.88
959.378	4264.01
959.682	4232.83
959.985	4203.45
960.289	4190.12
960.592	4176.1
960.896	4158.93
961.199	4103.56
961.502	4158.7
961.805	4081.19
962.108	4081.87
962.411	4043.68
962.714	4060.4
963.017	4009.33
963.32	4036.67
963.623	3992.83
963.926	3939.95
964.228	3954.87
964.531	3976.34
964.833	3921.42
965.136	3894.98
965.438	3892.95
965.741	3875.55
966.043	3845.72
966.345	3876.45
966.648	3833.97
966.95	3815.89
967.252	3770.69
967.554	3769.79
967.856	3774.31
968.158	3759.84
968.46	3741.09
968.761	3749.22
969.063	3693.41
969.365	3691.37
969.666	3648.66
969.968	3621.54
970.269	3593.07
970.571	3622
970.872	3638.94
971.174	3605.27
971.475	3546.29
971.776	3535.22
972.077	3526.63
972.378	3531.6
972.679	3537.25
972.98	3480.53
973.281	3477.14
973.582	3492.06
973.883	3454.54
974.183	3413.87
974.484	3426.52
974.785	3393.07
975.085	3386.52
975.386	3370.7
975.686	3329.35
975.986	3399.85
976.287	3380.65
976.587	3356.92
976.887	3299.29
977.187	3275.56
977.487	3244.15
977.787	3262.91
978.087	3230.14
978.387	3220.2
978.687	3251.61
978.987	3200.76
979.286	3193.98
979.586	3195.57
979.885	3125.29
980.185	3115.57
980.484	3161.89
980.784	3131.39
981.083	3104.72
981.382	3087.55
981.682	3064.72
981.981	3049.81
982.28	3040.54
982.579	3039.41
982.878	3056.36
983.177	3015.23
983.475	3000.09
983.774	3005.06
984.073	2953.54
984.372	2937.27
984.67	2950.37
984.969	2937.95
985.267	2878.74
985.566	2906.76
985.864	2862.02
986.162	2905.4
986.461	2859.3
986.759	2867.66
987.057	2798.51
987.355	2823.82
987.653	2831.28
987.951	2788.57
988.249	2789.47
988.547	2776.82
988.844	2763.94
989.142	2760.32
989.44	2681.45
989.737	2683.49
990.035	2683.49
990.332	2721.68
990.63	2697.27
990.927	2638.74
991.224	2634.68
991.521	2619.08
991.819	2637.61
992.116	2618.63
992.413	2620.67
992.71	2556.49
993.006	2561.01
993.303	2565.75
993.6	2558.97
993.897	2554
994.193	2499.76
994.49	2471.06
994.787	2484.17
995.083	2492.53
995.379	2453.21
995.676	2483.95
995.972	2452.99
996.268	2448.01
996.565	2404.63
996.861	2392.42
997.157	2404.85
997.453	2389.71
997.749	2367.79
998.044	2363.5
998.34	2357.85
998.636	2309.94
998.932	2333.89
999.227	2318.98
999.523	2306.32
999.818	2295.93
1000.114	2293.22
1000.409	2259.77
1000.704	2274.01
1001	2253.44
1001.295	2223.61
1001.59	2221.58
1001.885	2211.41
1002.18	2212.31
1002.475	2220.9
1002.77	2186.55
1003.065	2166.67
1003.359	2154.24
1003.654	2140
1003.949	2138.87
1004.243	2131.41
1004.538	2107.01
1004.832	2109.72
1005.127	2079.66
1005.421	2045.09
1005.715	2034.92
1006.009	2030.85
1006.304	2046.22
1006.598	2012.77
1006.892	2029.49
1007.186	2005.31
1007.48	1989.72
1007.773	1968.93
1008.067	1931.42
1008.361	1939.1
1008.655	1921.47
1008.948	1970.97
1009.242	1927.35
1009.535	1904.3
1009.829	1907.24
1010.122	1897.07
1010.415	1851.65
1010.708	1857.52
1011.001	1845.09
1011.295	1857.52
1011.588	1840.35
1011.881	1839.67
1012.173	1824.08
1012.466	1812.1
1012.759	1780.69
1013.052	1798.99
1013.344	1774.13
1013.637	1776.17
1013.93	1756.96
1014.222	1739.33
1014.514	1725.1
1014.807	1691.42
1015.099	1709.96
1015.391	1682.16
1015.683	1692.33
1015.976	1686
1016.268	1712.21
1016.56	1652.56
1016.851	1637.87
1017.143	1634.93
1017.435	1634.93
1017.727	1627.25
1018.018	1600.13
1018.31	1627.25
1018.602	1605.55
1018.893	1584.08
1019.185	1543.86
1019.476	1553.8
1019.767	1530.07
1020.058	1540.47
1020.35	1541.82
1020.641	1518.77
1020.932	1511.09
1021.223	1498.89
1021.514	1490.75
1021.804	1463.63
1022.095	1479.9
1022.386	1472.67
1022.677	1459.34
1022.967	1435.61
1023.258	1394.71
1023.548	1417.99
1023.839	1424.76
1024.129	1416.4
1024.419	1381.38
1024.709	1401.26
1025	1373.69
1025.29	1326.91
1025.58	1358.55
1025.87	1347.25
1026.16	1348.16
1026.449	1335.05
1026.739	1317.42
1027.029	1316.75
1027.319	1298.67
1027.608	1286.92
1027.898	1287.82
1028.187	1286.46
1028.477	1293.24
1028.766	1252.11
1029.055	1280.36
1029.344	1224.09
1029.634	1251.44
1029.923	1239.68
1030.212	1220.48
1030.501	1219.57
1030.79	1207.37
1031.078	1195.17
1031.367	1175.05
1031.656	1176.86
1031.945	1185.9
1032.233	1161.95
1032.522	1160.36
1032.81	1132.34
1033.099	1125.11
1033.387	1106.81
1033.675	1128.95
1033.963	1125.34
1034.251	1140.93
1034.54	1086.24
1034.828	1092.57
1035.116	1090.31
1035.403	1056.19
1035.691	1070.88
1035.979	1051.67
1036.267	1068.62
1036.554	1037.88
1036.842	1046.7
1037.129	1024.55
1037.417	1018.45
1037.704	1050.31
1037.992	1037.66
1038.279	1018.22
1038.566	1017.54
1038.853	1017.54
1039.14	1017.54
