Data from White_paper_FLMS001491_020.txt Node
Date: Tue Feb 07 10:34:44 GMT 2017
User: dcchb
Spectrometer: FLMS00149
Trigger mode: 0
Integration Time (sec): 2.000000E-2
Scans to average: 10
Electric dark correction enabled: true
Nonlinearity correction enabled: false
Boxcar width: 0
XAxis mode: Wavelengths
Number of Pixels in Spectrum: 2048
>>>>>Begin Spectral Data<<<<<
341.393	-6.09
341.776	-6.09
342.16	-6.09
342.543	-62.58
342.927	-69.36
343.31	-70.04
343.693	-74.56
344.077	-59.19
344.46	-54.45
344.843	-43.15
345.226	-36.14
345.61	-22.81
345.993	-16.26
346.376	-5.64
346.759	12.67
347.142	24.19
347.525	17.41
347.908	55.38
348.291	74.59
348.674	87.24
349.057	110.75
349.44	116.85
349.823	124.76
350.206	170.41
350.588	226.22
350.971	262.83
351.354	247.01
351.737	254.47
352.119	283.4
352.502	287.01
352.884	297.41
353.267	295.15
353.65	307.58
354.032	320.68
354.414	332.21
354.797	346.22
355.179	362.94
355.562	347.58
355.944	357.29
356.326	349.84
356.709	364.3
357.091	392.32
357.473	362.94
357.855	388.25
358.238	359.1
358.62	364.07
359.002	347.35
359.384	380.57
359.766	378.76
360.148	392.77
360.53	362.04
360.912	388.7
361.294	385.77
361.676	393.9
362.057	377.86
362.439	376.05
362.821	361.36
363.203	371.08
363.584	362.49
363.966	382.6
364.348	378.76
364.729	373.11
365.111	364.98
365.493	367.01
365.874	354.13
366.256	392.55
366.637	346.22
367.019	346.67
367.4	360.68
367.781	364.3
368.163	373.34
368.544	359.33
368.925	360
369.306	364.52
369.688	371.08
370.069	365.2
370.45	360.46
370.831	362.04
371.212	382.6
371.593	352.77
371.974	361.81
372.355	355.03
372.736	363.62
373.117	373.34
373.498	357.74
373.879	376.73
374.26	363.17
374.641	379.44
375.021	382.6
375.402	346.67
375.783	383.73
376.163	393
376.544	380.8
376.925	377.63
377.305	395.03
377.686	374.69
378.066	416.05
378.447	406.78
378.827	401.59
379.208	402.94
379.588	408.59
379.968	388.93
380.349	407.24
380.729	422.38
381.109	411.08
381.489	404.98
381.87	419.21
382.25	413.79
382.63	420.79
383.01	418.76
383.39	422.38
383.77	426.22
384.15	437.06
384.53	433.22
384.91	436.16
385.29	446.1
385.67	451.53
386.049	432.09
386.429	457.63
386.809	449.95
387.189	469.15
387.568	455.37
387.948	469.38
388.328	468.02
388.707	480
389.087	473.67
389.466	482.49
389.846	489.27
390.225	481.58
390.605	513.67
390.984	488.81
391.363	478.87
391.743	499.66
392.122	520.45
392.501	517.97
392.881	522.71
393.26	522.71
393.639	534.92
394.018	530.62
394.397	529.94
394.776	540.56
395.155	545.08
395.534	542.15
395.913	538.98
396.292	562.94
396.671	564.97
397.05	564.07
397.429	562.71
397.808	585.54
398.186	599.77
398.565	592.99
398.944	589.6
399.323	615.37
399.701	600
400.08	618.98
400.458	610.85
400.837	615.14
401.215	643.84
401.594	651.97
401.972	679.77
402.351	679.77
402.729	672.76
403.107	670.28
403.486	691.3
403.864	727
404.242	712.76
404.62	743.05
404.999	752.99
405.377	757.51
405.755	778.3
406.133	766.1
406.511	802.48
406.889	814.68
407.267	841.35
407.645	851.52
408.023	870.05
408.401	877.05
408.779	911.4
409.156	974
409.534	978.75
409.912	981.91
410.29	988.69
410.667	1020.1
411.045	1057.84
411.422	1067.78
411.8	1078.86
412.178	1112.98
412.555	1135.58
412.933	1187.78
413.31	1177.84
413.687	1221.45
414.065	1276.14
414.442	1279.3
414.819	1311.17
415.197	1343.71
415.574	1377.15
415.951	1406.98
416.328	1441.33
416.705	1456.02
417.082	1473.87
417.46	1496.7
417.837	1541.89
418.214	1577.6
418.591	1590.48
418.967	1620.76
419.344	1660.76
419.721	1665.73
420.098	1677.94
420.475	1729.91
420.852	1753.87
421.228	1775.11
421.605	1785.73
421.982	1824.82
422.358	1869.34
422.735	1903.24
423.111	1882.9
423.488	1932.17
423.864	1936.23
424.241	1998.38
424.617	2006.52
424.994	2041.09
425.37	2030.92
425.746	2084.03
426.123	2110.47
426.499	2103.91
426.875	2152.27
427.251	2211.48
427.627	2274.98
428.003	2266.17
428.379	2310.91
428.756	2336
429.132	2368.09
429.507	2431.36
429.883	2447.86
430.259	2489.21
430.635	2487.18
431.011	2526.73
431.387	2619.61
431.763	2657.35
432.138	2641.98
432.514	2721.75
432.89	2696.89
433.265	2769.88
433.641	2890.56
434.016	2860.5
434.392	2890.79
434.767	2955.42
435.143	2991.35
435.518	3000.61
435.894	3048.52
436.269	3069.54
436.644	3131.91
437.02	3178.46
437.395	3196.77
437.77	3239.25
438.145	3297.55
438.52	3325.35
438.895	3341.85
439.271	3359.47
439.646	3453.03
440.021	3487.83
440.395	3484.89
440.77	3453.71
441.145	3491.45
441.52	3601.05
441.895	3576.87
442.27	3596.08
442.645	3625.68
443.019	3656.42
443.394	3683.08
443.769	3736.64
444.143	3705.45
444.518	3765.56
444.892	3763.98
445.267	3783.42
445.641	3853.47
446.016	3842.62
446.39	3883.75
446.764	3878.78
447.139	3918.78
447.513	3918.78
447.887	3978.21
448.262	3980.25
448.636	4004.43
449.01	4030.19
449.384	4101.83
449.758	4152
450.132	4171.2
450.506	4159
450.88	4200.13
451.254	4188.6
451.628	4268.38
452.002	4347.47
452.376	4352.89
452.75	4401.25
453.123	4392.22
453.497	4518.77
453.871	4546.34
454.244	4575.04
454.618	4673.11
454.992	4703.85
455.365	4726.22
455.739	4809.38
456.112	4853.9
456.486	4904.52
456.859	4972.99
457.232	5011.63
457.606	5027.45
457.979	5108.58
458.352	5157.17
458.725	5247.33
459.099	5326.43
459.472	5457.95
459.845	5450.04
460.218	5514.22
460.591	5552.41
460.964	5577.95
461.337	5670.6
461.71	5759.64
462.083	5904.27
462.456	5890.03
462.829	5968.22
463.201	6008.44
463.574	6032.4
463.947	6151.26
464.32	6286.63
464.692	6336.57
465.065	6396.91
465.438	6469.67
465.81	6556
466.183	6569.56
466.555	6756.67
466.928	6812.49
467.3	6806.84
467.672	6914.18
468.045	7114.86
468.417	7126.61
468.789	7186.49
469.161	7270.56
469.534	7442.3
469.906	7569.53
470.278	7604.11
470.65	7728.17
471.022	7897.66
471.394	7969.07
471.766	8093.13
472.138	8173.13
472.51	8284.09
472.882	8466.46
473.253	8506.46
473.625	8664.42
473.997	8879.33
474.369	8933.34
474.74	8997.52
475.112	9144.63
475.484	9328.36
475.855	9473.66
476.227	9568.35
476.598	9785.52
476.97	9837.04
477.341	10100.54
477.713	10304.38
478.084	10374.43
478.455	10704.14
478.827	10709.34
479.198	10956.79
479.569	11002.66
479.94	11323.56
480.311	11403.1
480.682	11662.76
481.053	11923.09
481.424	12118.11
481.795	12214.38
482.166	12438.56
482.537	12553.36
482.908	12894.36
483.279	12919.22
483.65	13182.27
484.021	13368.7
484.391	13569.37
484.762	13671.52
485.133	13797.39
485.503	14045.75
485.874	14305.4
486.244	14414.32
486.615	14729.57
486.985	14833.75
487.356	15051.37
487.726	15247.97
488.097	15485.03
488.467	15617.23
488.837	15917.34
489.207	16069.2
489.578	16213.15
489.948	16353.48
490.318	16762.06
490.688	16727.94
491.058	17012.45
491.428	17233.91
491.798	17402.95
492.168	17750.51
492.538	17867.57
492.908	17994.12
493.278	18201.57
493.648	18220.33
494.017	18423.94
494.387	18655.57
494.757	18750.03
495.126	18930.82
495.496	19007.42
495.866	19299.17
496.235	19473.17
496.605	19570.8
496.974	19685.15
497.344	19795.2
497.713	19857.57
498.082	20110.45
498.452	20257.33
498.821	20386.6
499.19	20569.64
499.559	20601.73
499.928	20778.68
500.298	20926.7
500.667	21119.23
501.036	21046.47
501.405	21320.36
501.774	21313.8
502.143	21488.94
502.512	21635.15
502.88	21891.64
503.249	21937.97
503.618	22126.44
503.987	22270.84
504.356	22358.52
504.724	22519.2
505.093	22591.28
505.462	22648.46
505.83	22868.57
506.199	23092.51
506.567	23376.12
506.936	23301.1
507.304	23506.06
507.672	23682.78
508.041	23726.85
508.409	23876.67
508.777	24040.74
509.145	24305.82
509.514	24287.96
509.882	24581.06
510.25	24613.83
510.618	24805.24
510.986	24851.34
511.354	25198
511.722	25398.89
512.09	25484.32
512.458	25522.51
512.826	25844.08
513.193	25887.02
513.561	25969.05
513.929	26197.52
514.297	26433.44
514.664	26570.84
515.032	26803.15
515.4	26883.6
515.767	27023.03
516.135	27169.24
516.502	27072.07
516.869	27586.86
517.237	27609.91
517.604	27721.09
517.972	27954.08
518.339	28100.97
518.706	28306.16
519.073	28370.57
519.44	28608.08
519.808	28872.48
520.175	28893.72
520.542	29249.19
520.909	29370.77
521.276	29354.5
521.643	29694.83
522.009	29849.85
522.376	30126.91
522.743	30310.63
523.11	30654.8
523.477	30837.4
523.843	31070.84
524.21	31297.5
524.577	31490.03
524.943	31673.31
525.31	31664.49
525.676	32045.05
526.043	32329.56
526.409	32443
526.776	32799.6
527.142	32795.99
527.508	33040.28
527.874	33347.61
528.241	33511.45
528.607	33580.15
528.973	33820.14
529.339	33962.06
529.705	34281.82
530.071	34477.07
530.437	34543.96
530.803	34818.08
531.169	34978.3
531.535	34991.86
531.901	35221.46
532.267	35283.38
532.632	35586.65
532.998	35799.98
533.364	35831.61
533.73	36034.09
534.095	36361.32
534.461	36400.86
534.826	36656.23
535.192	36611.25
535.557	36985.26
535.923	36925.6
536.288	37200.62
536.653	37354.96
537.019	37265.47
537.384	37519.25
537.749	37646.48
538.114	37718.8
538.479	37882.86
538.845	38033.36
539.21	38015.06
539.575	38297.99
539.94	38320.36
540.305	38534.82
540.67	38514.03
541.034	38705.21
541.399	38853.91
541.764	39114.24
542.129	39191.07
542.494	39257.29
542.858	39505.87
543.223	39538.18
543.587	39712.19
543.952	39662.02
544.316	39973.43
544.681	39989.25
545.045	40175.45
545.41	40324.15
545.774	40385.62
546.138	40504.94
546.503	40587.87
546.867	40626.97
547.231	40973.4
547.595	41237.8
547.959	41210
548.324	41251.13
548.688	41441.86
549.052	41488.19
549.416	41644.34
549.779	41749.2
550.143	41884.79
550.507	42084.33
550.871	42151.67
551.235	42204.33
551.599	42504.21
551.962	42667.82
552.326	42696.97
552.689	43031.88
553.053	42896.74
553.417	42993.01
553.78	43456.27
554.143	43251.08
554.507	43474.13
554.87	43521.81
555.234	44033.66
555.597	43736.94
555.96	44132.87
556.323	44212.64
556.686	44211.73
557.05	44554.77
557.413	44671.61
557.776	44806.29
558.139	45062.78
558.502	45058.72
558.865	45164.93
559.228	45453.06
559.59	45532.6
559.953	45657.8
560.316	46098.01
560.679	46100.95
561.041	46332.81
561.404	46324.9
561.767	46627.71
562.129	46525.12
562.492	46995.84
562.854	46934.6
563.217	47064.99
563.579	47231.77
563.941	47479.67
564.304	47566
564.666	47959.43
565.028	47828.36
565.39	47899.32
565.753	48254.11
566.115	48363.26
566.477	48551.96
566.839	48601.67
567.201	48834.44
567.563	48902.23
567.925	49180.64
568.287	49240.98
568.648	49322.56
569.01	49489.33
569.372	49742.21
569.734	49586.96
570.095	49882.54
570.457	50018.59
570.819	50188.3
571.18	50084.12
571.542	50444.11
571.903	50449.08
572.265	50703.31
572.626	50688.17
572.987	50751.22
573.349	50956.87
573.71	51000.03
574.071	51164.77
574.432	51180.36
574.794	51508.49
575.155	51486.57
575.516	51372.45
575.877	51447.93
576.238	51594.59
576.599	51814.92
576.96	51864.64
577.32	51875.03
577.681	51913.9
578.042	52124.97
578.403	52064.18
578.763	52163.16
579.124	52284.52
579.485	52291.52
579.845	52434.12
580.206	52384.85
580.566	52456.26
580.927	52379.2
581.287	52637.95
581.648	52526.77
582.008	52623.49
582.368	52643.15
582.728	52674.56
583.089	52651.06
583.449	52713.88
583.809	52750.94
584.169	52915.46
584.529	52805.18
584.889	53046.08
585.249	52946.87
585.609	52868
585.969	53018.51
586.329	52898.06
586.688	53007.89
587.048	52985.97
587.408	53014.89
587.768	53041.33
588.127	53003.14
588.487	52982.58
588.846	53298.95
589.206	53004.04
589.565	53038.85
589.925	53242
590.284	53133.98
590.643	53233.19
591.003	53268.44
591.362	53397.93
591.721	53356.13
592.08	53255.79
592.44	53372.85
592.799	53372.4
593.158	53236.58
593.517	53410.81
593.876	53401.32
594.235	53321.78
594.593	53434.09
594.952	53391.83
595.311	53423.24
595.67	53458.72
596.029	53636.8
596.387	53618.49
596.746	53762.89
597.104	53556.35
597.463	53615.33
597.822	53690.13
598.18	53604.48
598.538	53605.61
598.897	53764.48
599.255	53625.5
599.613	53979.39
599.972	53797.24
600.33	53895.55
600.688	53755.21
601.046	53865.26
601.404	53910.69
601.762	53944.13
602.12	54118.37
602.478	54111.59
602.836	54019.61
603.194	53841.31
603.552	54027.07
603.91	53939.16
604.268	54128.53
604.625	54048.99
604.983	54162.88
605.341	54139.38
605.698	54302.09
606.056	54179.38
606.413	54201.98
606.771	54269.77
607.128	54281.98
607.485	54202.2
607.843	54328.53
608.2	54482.65
608.557	54442.2
608.914	54422.09
609.272	54484.91
609.629	54611.23
609.986	54654.17
610.343	54530.56
610.7	54662.31
611.057	54634.28
611.414	54660.95
611.771	54663.21
612.127	54803.54
612.484	54767.39
612.841	54867.5
613.198	54709.76
613.554	54762.19
613.911	54862.3
614.267	54849.65
614.624	54806.26
614.98	54867.5
615.337	54976.2
615.693	54883.32
616.05	54851.23
616.406	55046.48
616.762	54870.21
617.118	54961.05
617.475	55061.39
617.831	55086.93
618.187	55029.3
618.543	55040.6
618.899	55154.95
619.255	55146.13
619.611	55202.86
619.967	55248.28
620.323	55341.38
620.678	55171.22
621.034	55109.53
621.39	55232.01
621.746	55067.94
622.101	55417.31
622.457	55228.84
622.812	55242.86
623.168	55352.46
623.523	55277.2
623.879	55375.06
624.234	55117.21
624.589	55305.9
624.945	55339.35
625.3	55309.97
625.655	55282.18
626.01	55260.71
626.365	55318.11
626.72	55317.43
627.075	55300.71
627.43	55266.13
627.785	55192.69
628.14	55328.5
628.495	55332.57
628.85	55255.28
629.205	55249.86
629.559	55431.32
629.914	55232.69
630.269	55350.65
630.623	55265.23
630.978	55138.45
631.332	55324.89
631.687	55272.23
632.041	55245.57
632.396	55274.94
632.75	55126.02
633.104	55199.92
633.459	55078.34
633.813	55146.81
634.167	55044.67
634.521	55119.69
634.875	55131.22
635.229	55191.56
635.583	54983.2
635.937	54988.85
636.291	54965.12
636.645	54978.46
636.999	54909.53
637.352	55030.43
637.706	54856.2
638.06	55032.47
638.413	54954.95
638.767	54856.88
639.121	54911.79
639.474	54813.49
639.828	54700.27
640.181	54835.63
640.534	54788.63
640.888	54795.64
641.241	54530.78
641.594	54753.15
641.947	54764.68
642.301	54700.5
642.654	54750.66
643.007	54731
643.36	54700.72
643.713	54669.99
644.066	54741.4
644.419	54578.01
644.771	54332.14
645.124	54207.4
645.477	54092.6
645.83	53926.05
646.182	53828.43
646.535	53729.22
646.888	53927.41
647.24	53656.68
647.593	53881.08
647.945	53796.11
648.298	53587.98
648.65	53560.87
649.002	53580.07
649.355	53662.33
649.707	53600.86
650.059	53724.25
650.411	54103
650.763	54149.1
651.115	54396.78
651.467	54271.13
651.819	54284.01
652.171	54253.05
652.523	54207.85
652.875	54246.72
653.227	54105.48
653.578	54316.33
653.93	54201.07
654.282	54106.39
654.633	54005.15
654.985	54062.1
655.337	54118.59
655.688	54061.87
656.039	54185.93
656.391	53951.59
656.742	53993.85
657.094	53953.85
657.445	54113.39
657.796	54016.9
658.147	53931.48
658.498	53912.95
658.849	54023.23
659.2	53982.55
659.551	53824.14
659.902	53965.37
660.253	53888.99
660.604	53956.11
660.955	53859.39
661.306	53863.23
661.656	53857.81
662.007	53803.57
662.358	53887.41
662.708	53774.87
663.059	53866.85
663.409	53643.8
663.76	53854.19
664.11	53787.07
664.461	53825.94
664.811	53855.77
665.161	53771.48
665.511	53705.95
665.862	53727.41
666.212	53789.33
666.562	53767.41
666.912	53754.76
667.262	53662.78
667.612	53614.65
667.962	53691.48
668.312	53598.83
668.662	53731.03
669.011	53643.58
669.361	53573.29
669.711	53590.47
670.06	53514.54
670.41	53449.91
670.76	53381.89
671.109	53550.47
671.459	53416.46
671.808	53419.63
672.157	53504.82
672.507	53255.56
672.856	53303.47
673.205	53370.81
673.554	53412.62
673.904	53289.01
674.253	53415.78
674.602	53176.02
674.951	52798.4
675.3	52640.21
675.649	53158.16
675.998	53106.87
676.346	53150.26
676.695	53203.36
677.044	52932.86
677.393	53047.88
677.741	53048.11
678.09	52901.45
678.438	52930.6
678.787	52860.55
679.135	52977.38
679.484	52674.34
679.832	52727.89
680.181	52501.46
680.529	52717.95
680.877	52567.67
681.225	52574
681.573	52612.19
681.922	52447.9
682.27	52402.25
682.618	52404.51
682.966	52315.7
683.314	52348.02
683.661	52290.16
684.009	52149.15
684.357	52101.92
684.705	52003.39
685.053	52102.6
685.4	51933.11
685.748	51705.32
686.095	51813.34
686.443	51640.01
686.79	51567.25
687.138	51693.34
687.485	51628.04
687.832	51459.23
688.18	51483.41
688.527	51346.91
688.874	51257.42
689.221	51133.81
689.568	51093.13
689.915	50994.15
690.262	50896.3
690.609	50891.33
690.956	50764.1
691.303	50715.29
691.65	50551.45
691.997	50594.84
692.344	50381.97
692.69	50383.1
693.037	50291.12
693.383	49997.34
693.73	50112.37
694.077	49961.64
694.423	49967.06
694.769	49831.02
695.116	49695.43
695.462	49641.42
695.808	49520.07
696.155	49621.53
696.501	49307.64
696.847	49396.68
697.193	49050.93
697.539	49087.09
697.885	48816.36
698.231	48741.78
698.577	48821.56
698.923	48743.59
699.269	48565.74
699.614	48325.07
699.96	48324.62
700.306	48227.45
700.651	48100.67
700.997	47930.28
701.342	47965.53
701.688	47848.02
702.033	47837.17
702.379	47628.59
702.724	47673.11
703.069	47615.03
703.415	47254.59
703.76	47259.79
704.105	47238.55
704.45	47166.01
704.795	46953.36
705.14	46914.71
705.485	46862.74
705.83	46564.44
706.175	46731.89
706.52	46665.23
706.865	46478.79
707.209	46427.27
707.554	46343.43
707.899	46381.62
708.243	46041.74
708.588	45945.02
708.932	45743.44
709.277	45735.08
709.621	45696.21
709.966	45479.95
710.31	45683.56
710.654	45296.9
710.998	45439.72
711.342	45471.81
711.687	45239.73
712.031	45050.36
712.375	44880.87
712.719	45077.7
713.063	44955.44
713.407	45075.44
713.75	44842.68
714.094	44820.76
714.438	44602.68
714.782	44586.64
715.125	44409.92
715.469	44501.67
715.812	44160.89
716.156	44056.26
716.499	44166.76
716.843	44144.84
717.186	43887.22
717.53	44064.62
717.873	43913.21
718.216	43865.98
718.559	43589.15
718.902	43363.85
719.246	43653.1
719.589	43314.13
719.932	43224.19
720.275	43244.98
720.617	43201.82
720.96	43176.73
721.303	43159.33
721.646	43025.1
721.989	42920.24
722.331	43116.17
722.674	42727.25
723.016	42857.64
723.359	42722.73
723.701	42679.12
724.044	42485
724.386	42360.48
724.729	42470.54
725.071	42457.43
725.413	42310.31
725.755	42291.11
726.097	42100.83
726.439	41989.87
726.782	42145.57
727.124	42206.81
727.465	41883.43
727.807	41955.75
728.149	41843.43
728.491	41843.66
728.833	41879.59
729.175	41600.05
729.516	41589.43
729.858	41456.1
730.199	41625.36
730.541	41381.07
730.882	41325.93
731.224	41511.24
731.565	41208.42
731.906	41330.9
732.248	41297.01
732.589	40976.79
732.93	40833.97
733.271	40842.1
733.612	40974.98
733.953	40808.66
734.294	40821.31
734.635	40735.21
734.976	40770.47
735.317	40633.75
735.658	40593.98
735.999	40546.52
736.339	40462.23
736.68	40640.75
737.021	40469.01
737.361	40251.39
737.702	40436.69
738.042	40287.09
738.383	40147.43
738.723	40189.24
739.063	40062.92
739.404	40235.11
739.744	40097.72
740.084	39948.79
740.424	40012.97
740.764	39734.56
741.104	39780.44
741.444	39823.83
741.784	39634
742.124	39766.65
742.464	39785.18
742.804	39491.18
743.143	39559.2
743.483	39471.97
743.823	39243.73
744.162	39351.3
744.502	39348.58
744.841	39127.57
745.181	39309.26
745.52	39184.97
745.86	39168.48
746.199	39014.13
746.538	38954.7
746.877	39048.7
747.216	39063.39
747.556	38794.47
747.895	38869.5
748.234	38683.74
748.573	38568.04
748.911	38589.28
749.25	38682.84
749.589	38212.34
749.928	38432.45
750.267	38395.61
750.605	38367.59
750.944	38246.01
751.283	38107.03
751.621	38107.71
751.96	37948.17
752.298	37967.6
752.636	38167.37
752.975	37699.59
753.313	37698.46
753.651	37841.96
753.989	37627.05
754.327	37613.71
754.666	37334.85
755.004	37529.42
755.342	37369.43
755.679	37290.56
756.017	37164.01
756.355	37137.79
756.693	36931.7
757.031	37059.15
757.368	36764.47
757.706	36758.37
758.044	36553.63
758.381	36564.48
758.719	36524.25
759.056	36397.48
759.394	36445.84
759.731	36130.14
760.068	36143.02
760.405	36002.46
760.743	35820.99
761.08	35883.59
761.417	35732.86
761.754	35634.33
762.091	35672.97
762.428	35369.71
762.765	35241.12
763.102	35404.51
763.438	35095.14
763.775	35027.79
764.112	35060.11
764.449	35033.9
764.785	34804.75
765.122	34620.57
765.458	34526.56
765.795	34587.13
766.131	34434.59
766.467	34321.82
766.804	34136.97
767.14	33918.44
767.476	33969.52
767.812	33861.95
768.148	33847.94
768.485	33621.05
768.821	33421.51
769.157	33412.24
769.492	33315.52
769.828	33266.48
770.164	32918.24
770.5	32882.09
770.836	32941.07
771.171	32798.02
771.507	32632.6
771.842	32492.72
772.178	32556.45
772.513	32419.5
772.849	32292.5
773.184	32038.49
773.519	32224.25
773.855	31941.55
774.19	31850.25
774.525	31767.09
774.86	31635.34
775.195	31618.62
775.53	31453.88
775.865	31344.95
776.2	31096.6
776.535	30891.63
776.87	30896.15
777.205	30752.43
777.539	30639.89
777.874	30609.6
778.209	30448.25
778.543	30368.26
778.878	30196.51
779.212	30215.94
779.547	29988.38
779.881	30039
780.215	29738.67
780.55	29917.19
780.884	29582.74
781.218	29665.67
781.552	29496.19
781.886	29407.6
782.22	29137.78
782.554	29180.26
782.888	28905.24
783.222	28768.52
783.556	28683.78
783.889	28556.78
784.223	28446.5
784.557	28330.57
784.89	28495.31
785.224	28305.48
785.557	28227.29
785.891	28089.9
786.224	28035.21
786.558	27914.53
786.891	27702.79
787.224	27660.3
787.557	27648.33
787.891	27554.54
788.224	27491.72
788.557	27440.65
788.89	27280.2
789.223	27219.64
789.556	27145.74
789.888	26982.58
790.221	26902.36
790.554	26633.66
790.887	26741.46
791.219	26590.73
791.552	26538.98
791.884	26460.34
792.217	26367.91
792.549	26256.72
792.882	26008.82
793.214	25981.03
793.546	26055.6
793.879	25892.44
794.211	25740.81
794.543	25871.42
794.875	25640.24
795.207	25771.77
795.539	25425.11
795.871	25458.33
796.203	25284.55
796.535	25266.47
796.867	25131.56
797.198	25027.15
797.53	25089.75
797.862	24894.5
798.193	24970.66
798.525	24748.29
798.856	24738.35
799.188	24471.01
799.519	24395.53
799.85	24311.24
800.182	24415.42
800.513	24291.58
800.844	24074.18
801.175	24179.72
801.506	24162.99
801.837	23992.15
802.168	24033.51
802.499	23837.58
802.83	23792.83
803.161	23679.39
803.491	23739.28
803.822	23568.89
804.153	23533.63
804.483	23290.7
804.814	23206.41
805.145	23228.78
805.475	23276.92
805.805	23069.24
806.136	23106.75
806.466	23075.11
806.796	22956.25
807.126	22854.33
807.457	22804.61
807.787	22707.44
808.117	22605.52
808.447	22572.08
808.777	22673.32
809.107	22605.97
809.436	22501.57
809.766	22436.71
810.096	22377.96
810.426	22219.09
810.755	22319.88
811.085	22238.53
811.414	22056.38
811.744	22043.28
812.073	21971.64
812.403	21947.01
812.732	21790.63
813.061	21902.72
813.39	21635.38
813.719	21630.63
814.049	21756.5
814.378	21594.47
814.707	21536.62
815.036	21573.68
815.365	21347.25
815.693	21189.97
816.022	21326.01
816.351	21148.16
816.68	20961.04
817.008	21042.17
817.337	21011.89
817.665	20866.58
817.994	20982.51
818.322	20891.67
818.651	20807.83
818.979	20704.33
819.307	20818
819.636	20690.32
819.964	20609.42
820.292	20707.27
820.62	20607.83
820.948	20580.04
821.276	20676.98
821.604	20504.33
821.932	20530.77
822.259	20609.64
822.587	20502.75
822.915	20481.96
823.243	20542.07
823.57	20421.62
823.898	20522.41
824.225	20411
824.553	20459.59
824.88	20447.16
825.207	20506.37
825.535	20453.94
825.862	20497.78
826.189	20402.64
826.516	20528.06
826.843	20463.43
827.17	20479.7
827.497	20474.28
827.824	20447.39
828.151	20454.84
828.478	20437.22
828.805	20487.39
829.131	20409.65
829.458	20341.4
829.785	20201.52
830.111	20345.92
830.438	20485.8
830.764	20312.25
831.09	20373.26
831.417	20218.01
831.743	20368.52
832.069	20375.98
832.395	20257.79
832.722	20238.58
833.048	20194.96
833.374	20212.36
833.7	20158.35
834.026	20207.62
834.351	20223.66
834.677	20197.68
835.003	20279.25
835.329	20121.29
835.654	20152.93
835.98	20046.04
836.306	20061.63
836.631	19921.98
836.956	20071.35
837.282	19987.06
837.607	19883.79
837.932	19760.17
838.258	19902.77
838.583	19819.15
838.908	19708.87
839.233	19833.39
839.558	19621.42
839.883	19553.85
840.208	19542.1
840.533	19590.91
840.858	19600.4
841.182	19619.61
841.507	19629.55
841.832	19411.71
842.156	19353.18
842.481	19392.5
842.805	19314.08
843.13	19315.44
843.454	19252.62
843.778	19187.98
844.103	19144.14
844.427	19095.33
844.751	18987.54
845.075	19055.78
845.399	18950.48
845.723	18816.92
846.047	18864.6
846.371	18687.43
846.695	18711.84
847.019	18570.15
847.343	18517.04
847.666	18315.92
847.99	18305.75
848.313	18301
848.637	18094
848.96	18098.07
849.284	18064.17
849.607	18063.72
849.931	17870.05
850.254	17731.07
850.577	17732.88
850.9	17566.33
851.223	17599.33
851.546	17460.12
851.869	17434.58
852.192	17501.02
852.515	17292.67
852.838	17265.55
853.161	17226.91
853.483	17175.83
853.806	17083.86
854.129	17046.8
854.451	17048.83
854.774	17034.82
855.096	16872.11
855.419	16800.7
855.741	16746.47
856.063	16684.77
856.385	16586.92
856.708	16545.34
857.03	16551.44
857.352	16577.43
857.674	16426.47
857.996	16289.08
858.318	16369.3
858.64	16337.66
858.961	16253.15
859.283	16184.9
859.605	16199.81
859.926	16242.52
860.248	16017.67
860.57	16080.95
860.891	16043.66
861.212	15963.44
861.534	15915.3
861.855	15972.48
862.176	15881.63
862.498	15809.54
862.819	15899.48
863.14	15714.4
863.461	15693.39
863.782	15661.3
864.103	15662.65
864.424	15622.88
864.745	15715.08
865.065	15556.22
865.386	15615.42
865.707	15509.21
866.027	15667.85
866.348	15462.43
866.668	15420.4
866.989	15407.07
867.309	15337.24
867.63	15374.75
867.95	15392.38
868.27	15211.59
868.59	15282.78
868.91	15209.11
869.23	15162.33
869.55	15066.06
869.87	15200.52
870.19	15137.47
870.51	15121.2
870.83	15115.32
871.15	15052.27
871.469	14998.26
871.789	15056.57
872.109	15000.3
872.428	14909.9
872.748	14918.94
873.067	14909.68
873.386	14941.99
873.706	14834.43
874.025	14813.86
874.344	14759.63
874.663	14768.21
874.982	14758.5
875.301	14731.6
875.62	14681.66
875.939	14758.04
876.258	14613.19
876.577	14517.15
876.896	14498.39
877.214	14478.5
877.533	14576.58
877.852	14527.54
878.17	14480.99
878.489	14439.63
878.807	14506.53
879.125	14484.38
879.444	14370.26
879.762	14450.71
880.08	14391.95
880.398	14193.77
880.716	14342.01
881.034	14256.14
881.352	14243.26
881.67	14190.38
881.988	14206.65
882.306	14170.71
882.624	14117.16
882.941	14022.47
883.259	14014.79
883.577	13979.99
883.894	13966.2
884.212	13947.44
884.529	13924.17
884.846	13867.67
885.164	13894.34
885.481	13758.07
885.798	13884.85
886.115	13691.86
886.432	13721.69
886.75	13695.02
887.067	13636.27
887.383	13631.29
887.7	13639.43
888.017	13551.3
888.334	13526.89
888.651	13413.9
888.967	13442.82
889.284	13377.29
889.6	13346.78
889.917	13244.41
890.233	13309.72
890.55	13223.17
890.866	13161.25
891.182	13184.98
891.498	13108.37
891.815	13052.1
892.131	13036.51
892.447	12939.79
892.763	12959.45
893.079	12879
893.395	12876.06
893.71	12802.16
894.026	12819.34
894.342	12761.49
894.657	12696.4
894.973	12745.22
895.289	12719.91
895.604	12716.74
895.92	12618.67
896.235	12577.54
896.55	12526.69
896.865	12361.05
897.181	12386.13
897.496	12368.95
897.811	12390.42
898.126	12333.02
898.441	12286.47
898.756	12232.91
899.071	12084.22
899.386	12130.54
899.7	12077.66
900.015	11986.59
900.33	11870.66
900.644	11894.16
900.959	11858.01
901.273	11843.32
901.588	11826.82
901.902	11720.61
902.216	11696.66
902.531	11646.49
902.845	11566.04
903.159	11495.08
903.473	11495.76
903.787	11498.24
904.101	11330.34
904.415	11412.82
904.729	11295.31
905.042	11209.21
905.356	11258.02
905.67	11196.56
905.984	11109.78
906.297	11122.21
906.611	11081.3
906.924	11047.63
907.237	10968.09
907.551	10932.38
907.864	10950.23
908.177	10868.43
908.491	10790.92
908.804	10782.78
909.117	10780.75
909.43	10620.98
909.743	10598.38
910.056	10616.91
910.368	10564.71
910.681	10500.75
910.994	10480.64
911.307	10373.98
911.619	10339.86
911.932	10327.65
912.244	10202.23
912.557	10273.64
912.869	10165.85
913.181	10140.76
913.494	10166.3
913.806	10088.34
914.118	10053.31
914.43	9958.17
914.742	9997.49
915.054	9895.8
915.366	9896.03
915.678	9893.09
915.99	9812.41
916.302	9714.33
916.613	9649.25
916.925	9733.09
917.236	9678.4
917.548	9577.39
917.859	9606.54
918.171	9523.61
918.482	9430.5
918.794	9371.52
919.105	9430.95
919.416	9337.17
919.727	9369.49
920.038	9269.6
920.349	9238.64
920.66	9191.64
920.971	9148.25
921.282	9163.61
921.593	9013.79
921.903	9014.47
922.214	8968.82
922.525	8891.31
922.835	8878.42
923.146	8802.27
923.456	8900.57
923.767	8745.09
924.077	8771.76
924.387	8699.67
924.697	8633.23
925.008	8689.96
925.318	8618.77
925.628	8547.81
925.938	8503.52
926.248	8382.17
926.558	8469.85
926.867	8408.15
927.177	8366.12
927.487	8344.2
927.796	8212.68
928.106	8283.86
928.416	8255.62
928.725	8155.51
929.034	8155.05
929.344	8134.72
929.653	8132.91
929.962	8058.56
930.271	7974.95
930.581	7976.53
930.89	7962.29
931.199	7870.54
931.508	7879.13
931.817	7826.93
932.125	7765.91
932.434	7831.45
932.743	7702.41
933.051	7691.56
933.36	7635.52
933.669	7601.4
933.977	7574.05
934.286	7623.09
934.594	7535.64
934.902	7495.18
935.21	7391.23
935.519	7442.08
935.827	7395.3
936.135	7342.19
936.443	7276.43
936.751	7283.89
937.059	7207.96
937.367	7211.8
937.674	7181.52
937.982	7136.78
938.29	7114.86
938.597	7112.6
938.905	7035.76
939.213	6989.66
939.52	7004.12
939.827	6994.18
940.135	6954.86
940.442	6863.56
940.749	6875.54
941.056	6870.79
941.363	6832.38
941.67	6818.37
941.977	6754.86
942.284	6735.88
942.591	6704.24
942.898	6648.88
943.205	6577.02
943.511	6581.08
943.818	6601.2
944.125	6523.91
944.431	6469
944.738	6460.86
945.044	6408.43
945.35	6401.2
945.657	6415.66
945.963	6349.9
946.269	6282.56
946.575	6339.96
946.881	6362.11
947.187	6222
947.493	6228.55
947.799	6195.33
948.105	6172.28
948.41	6091.15
948.716	6121.89
949.022	6051.38
949.327	6084.37
949.633	5986.3
949.938	5980.87
950.244	5950.59
950.549	5974.55
950.854	5926.64
951.16	5892.51
951.465	5884.15
951.77	5858.39
952.075	5781.33
952.38	5824.72
952.685	5811.39
952.99	5748.56
953.294	5708.79
953.599	5671.96
953.904	5665.18
954.209	5645.97
954.513	5637.61
954.818	5626.31
955.122	5541.34
955.426	5547.44
955.731	5511.28
956.035	5470.83
956.339	5455.01
956.643	5439.19
956.948	5400.32
957.252	5403.94
957.556	5394
957.86	5355.81
958.163	5337.05
958.467	5307.67
958.771	5296.82
959.075	5269.03
959.378	5196.04
959.682	5221.57
959.985	5189.48
960.289	5121.24
960.592	5135.25
960.896	5126.88
961.199	5068.58
961.502	5057.73
961.805	5034.46
962.108	5041.69
962.411	5001.92
962.714	4984.52
963.017	4887.57
963.32	4941.81
963.623	4862.94
963.926	4893.22
964.228	4853.45
964.531	4800.79
964.833	4803.28
965.136	4774.8
965.438	4778.19
965.741	4756.05
966.043	4720.12
966.345	4693.22
966.648	4665.43
966.95	4727.12
967.252	4629.27
967.554	4621.81
967.856	4630.4
968.158	4560.8
968.46	4560.8
968.761	4546.34
969.063	4541.82
969.365	4497.97
969.666	4516.73
969.968	4451.2
970.269	4448.03
970.571	4408.49
970.872	4416.62
971.174	4408.03
971.475	4369.39
971.776	4363.06
972.077	4260.92
972.378	4310.41
972.679	4265.44
972.98	4247.81
973.281	4253.01
973.582	4235.83
973.883	4241.26
974.183	4192.45
974.484	4154.26
974.785	4114.71
975.085	4123.97
975.386	4073.35
975.686	4083.75
975.986	4055.73
976.287	4052.79
976.587	3987.71
976.887	3980.02
977.187	4009.4
977.487	3989.51
977.787	3972.79
978.087	3957.88
978.387	3890.08
978.687	3917.2
978.987	3882.4
979.286	3859.57
979.586	3867.71
979.885	3813.47
980.185	3778.45
980.484	3782.51
980.784	3773.25
981.083	3712.91
981.382	3711.78
981.682	3711.1
981.981	3740.71
982.28	3703.87
982.579	3638.11
982.878	3616.19
983.177	3670.88
983.475	3658.67
983.774	3631.78
984.073	3559.02
984.372	3543.2
984.67	3551.33
984.969	3590.2
985.267	3507.04
985.566	3548.62
985.864	3492.8
986.162	3458
986.461	3464.33
986.759	3411.9
987.057	3430.43
987.355	3408.51
987.653	3370.1
987.951	3393.37
988.249	3353.15
988.547	3337.78
988.844	3349.53
989.142	3321.51
989.44	3259.59
989.737	3284.22
990.035	3269.98
990.332	3268.18
990.63	3243.32
990.927	3227.95
991.224	3211.46
991.521	3185.24
991.819	3173.94
992.116	3155.41
992.413	3139.82
992.71	3113.6
993.006	3112.7
993.303	3112.93
993.6	3093.94
993.897	3071.57
994.193	3044.91
994.49	3055.53
994.787	3023.66
995.083	3008.3
995.379	2963.78
995.676	2965.13
995.972	2947.06
996.268	2913.84
996.565	2922.65
996.861	2966.94
997.157	2892.59
997.453	2877
997.749	2870.9
998.044	2873.16
998.34	2827.06
998.636	2806.04
998.932	2811.69
999.227	2785.03
999.523	2754.74
999.818	2716.78
1000.114	2713.16
1000.409	2739.15
1000.704	2681.53
1001	2697.12
1001.295	2651.02
1001.59	2662.77
1001.885	2669.55
1002.18	2612.83
1002.475	2632.71
1002.77	2602.43
1003.065	2621.19
1003.359	2566.5
1003.654	2566.5
1003.949	2539.38
1004.243	2537.35
1004.538	2501.42
1004.832	2497.58
1005.127	2500.29
1005.421	2490.57
1005.715	2481.08
1006.009	2455.54
1006.304	2385.71
1006.598	2410.12
1006.892	2404.92
1007.186	2360.86
1007.48	2381.87
1007.773	2351.36
1008.067	2334.42
1008.361	2301.2
1008.655	2307.3
1008.948	2303.68
1009.242	2316.34
1009.535	2244.47
1009.829	2267.98
1010.122	2232.27
1010.415	2230.69
1010.708	2242.67
1011.001	2232.95
1011.295	2197.02
1011.588	2152.05
1011.881	2173.29
1012.173	2117.02
1012.466	2147.08
1012.759	2081.99
1013.052	2107.76
1013.344	2102.33
1013.637	2108.21
1013.93	2039.73
1014.222	2087.19
1014.514	2019.85
1014.807	2050.58
1015.099	2006.29
1015.391	1998.38
1015.683	1988.21
1015.976	2004.26
1016.268	1956.35
1016.56	1968.1
1016.851	1965.16
1017.143	1940.08
1017.435	1968.78
1017.727	1888.33
1018.018	1909.57
1018.31	1894.43
1018.602	1869.12
1018.893	1837.93
1019.185	1884.03
1019.476	1824.6
1019.767	1864.6
1020.058	1801.77
1020.35	1813.75
1020.641	1805.16
1020.932	1783.92
1021.223	1768.78
1021.514	1745.28
1021.804	1765.84
1022.095	1731.72
1022.386	1727.43
1022.677	1722.68
1022.967	1678.16
1023.258	1669.12
1023.548	1682.46
1023.839	1649.24
1024.129	1649.01
1024.419	1667.77
1024.709	1621.67
1025	1581.44
1025.29	1581.44
1025.58	1592.06
1025.87	1576.92
1026.16	1555
1026.449	1538.73
1026.739	1543.25
1027.029	1542.57
1027.319	1501.44
1027.608	1497.38
1027.898	1498.28
1028.187	1497.6
1028.477	1479.07
1028.766	1473.42
1029.055	1486.08
1029.344	1462.12
1029.634	1431.16
1029.923	1426.19
1030.212	1437.04
1030.501	1416.47
1030.79	1404.27
1031.078	1344.39
1031.367	1380.32
1031.656	1373.31
1031.945	1348.23
1032.233	1317.72
1032.522	1299.87
1032.81	1344.39
1033.099	1318.85
1033.387	1332.86
1033.675	1321.11
1033.963	1290.38
1034.251	1293.31
1034.54	1272.75
1034.828	1262.35
1035.116	1282.92
1035.403	1238.4
1035.691	1225.29
1035.979	1217.16
1036.267	1213.09
1036.554	1193.66
1036.842	1210.83
1037.129	1215.35
1037.417	1183.94
1037.704	1185.75
1037.992	1175.58
1038.279	1161.11
1038.566	1168.34
1038.853	1168.34
1039.14	1168.34
