Data from white_steel_sheet_FLMS001491_036.txt Node
Date: Tue Feb 07 10:57:46 GMT 2017
User: dcchb
Spectrometer: FLMS00149
Trigger mode: 0
Integration Time (sec): 2.000000E-2
Scans to average: 10
Electric dark correction enabled: true
Nonlinearity correction enabled: false
Boxcar width: 0
XAxis mode: Wavelengths
Number of Pixels in Spectrum: 2048
>>>>>Begin Spectral Data<<<<<
341.393	-12.17
341.776	-12.17
342.16	-12.17
342.543	-53.76
342.927	-42.91
343.31	-76.81
343.693	-70.93
344.077	-55.56
344.46	-70.7
344.843	-46.52
345.226	-37.71
345.61	-33.19
345.993	-6.53
346.376	-13.76
346.759	4.32
347.142	35.51
347.525	44.55
347.908	66.92
348.291	89.74
348.674	61.04
349.057	109.63
349.44	145.56
349.823	166.58
350.206	170.19
350.588	206.8
350.971	215.62
351.354	230.08
351.737	246.12
352.119	261.72
352.502	275.28
352.884	274.6
353.267	293.81
353.65	293.58
354.032	316.86
354.414	328.38
354.797	320.02
355.179	325.44
355.562	339
355.944	339
356.326	332.9
356.709	341.26
357.091	364.09
357.473	360.02
357.855	344.65
358.238	358.66
358.62	366.57
359.002	348.27
359.384	373.13
359.766	331.54
360.148	352.56
360.53	371.09
360.912	342.17
361.294	346.23
361.676	336.29
362.057	341.04
362.439	335.61
362.821	334.26
363.203	338.32
363.584	338.1
363.966	333.8
364.348	332.22
364.729	350.08
365.111	329.06
365.493	347.36
365.874	328.16
366.256	333.8
366.637	314.14
367.019	331.54
367.4	321.38
367.781	344.88
368.163	340.13
368.544	340.58
368.925	326.12
369.306	303.07
369.688	329.06
370.069	323.64
370.45	331.54
370.831	335.61
371.212	322.05
371.593	335.39
371.974	338.78
372.355	327.7
372.736	314.37
373.117	341.04
373.498	350.08
373.879	330.19
374.26	350.98
374.641	324.31
375.021	332.45
375.402	354.14
375.783	347.82
376.163	353.92
376.544	353.01
376.925	349.62
377.305	354.6
377.686	354.37
378.066	358.66
378.447	342.84
378.827	361.6
379.208	366.35
379.588	365.44
379.968	349.62
380.349	365.67
380.729	343.75
381.109	353.24
381.489	353.47
381.87	361.83
382.25	369.74
382.63	372
383.01	378.78
383.39	387.81
383.77	367.93
384.15	359.34
384.53	390.3
384.91	375.84
385.29	385.1
385.67	399.79
386.049	367.02
386.429	377.42
386.809	398.21
387.189	406.8
387.568	406.8
387.948	399.57
388.328	404.76
388.707	418.77
389.087	409.96
389.466	405.89
389.846	416.74
390.225	430.75
390.605	437.3
390.984	440.69
391.363	455.84
391.743	409.06
392.122	431.66
392.501	466.46
392.881	453.58
393.26	439.11
393.639	459.23
394.018	437.08
394.397	466.68
394.776	458.32
395.155	480.69
395.534	476.85
395.913	490.41
396.292	470.07
396.671	476.17
397.05	507.81
397.429	505.33
397.808	498.32
398.186	506.91
398.565	534.7
398.944	530.41
399.323	521.14
399.701	539.45
400.08	550.75
400.458	559.56
400.837	565.21
401.215	567.47
401.594	579.22
401.972	564.53
402.351	573.8
402.729	574.93
403.107	585.78
403.486	626.23
403.864	587.36
404.242	614.25
404.62	642.05
404.999	627.58
405.377	637.53
405.755	651.31
406.133	649.95
406.511	668.49
406.889	685.21
407.267	692.89
407.645	707.58
408.023	711.65
408.401	728.6
408.779	738.09
409.156	770.18
409.534	762.49
409.912	780.8
410.29	787.13
410.667	791.42
411.045	774.47
411.422	816.28
411.8	816.73
412.178	844.98
412.555	851.98
412.933	866.45
413.31	867.35
413.687	888.82
414.065	897.86
414.442	908.25
414.819	917.29
415.197	926.56
415.574	948.7
415.951	952.09
416.328	967.46
416.705	969.95
417.082	978.31
417.46	1006.78
417.837	1001.13
418.214	1009.95
418.591	1046.55
418.967	1044.52
419.344	1062.15
419.721	1065.08
420.098	1060.79
420.475	1066.67
420.852	1093.33
421.228	1081.58
421.605	1131.52
421.982	1087.68
422.358	1138.3
422.735	1143.28
423.111	1147.12
423.488	1153.22
423.864	1158.19
424.241	1173.78
424.617	1208.36
424.994	1199.54
425.37	1241.58
425.746	1239.77
426.123	1257.4
426.499	1262.37
426.875	1278.19
427.251	1307.56
427.627	1340.78
428.003	1331.52
428.379	1341.46
428.756	1364.06
429.132	1390.95
429.507	1395.25
429.883	1432.53
430.259	1452.42
430.635	1465.98
431.011	1456.26
431.387	1503.04
431.763	1501.01
432.138	1524.51
432.514	1529.48
432.89	1568.35
433.265	1592.08
433.641	1610.38
434.016	1658.97
434.392	1628.01
434.767	1695.8
435.143	1677.27
435.518	1689.93
435.894	1707.78
436.269	1769.02
436.644	1759.53
437.02	1775.57
437.395	1799.08
437.77	1807.89
438.145	1857.38
438.52	1853.99
438.895	1868.23
439.271	1910.71
439.646	1935.34
440.021	1945.06
440.395	1950.71
440.77	1959.07
441.145	1985.96
441.52	1997.94
441.895	2020.77
442.27	2020.99
442.645	2019.64
443.019	2071.84
443.394	2079.3
443.769	2086.75
444.143	2110.93
444.518	2119.75
444.892	2117.03
445.267	2134.21
445.641	2181.44
446.016	2183.02
446.39	2213.76
446.764	2224.38
447.139	2201.33
447.513	2263.47
447.887	2267.99
448.262	2282
448.636	2305.73
449.01	2340.53
449.384	2373.07
449.758	2352.73
450.132	2377.59
450.506	2406.52
450.88	2434.77
451.254	2433.86
451.628	2471.83
452.002	2460.3
452.376	2513.18
452.75	2528.1
453.123	2565.38
453.497	2608.1
453.871	2600.86
454.244	2654.87
454.618	2688.32
454.992	2711.82
455.365	2733.74
455.739	2805.38
456.112	2795.66
456.486	2834.53
456.859	2871.59
457.232	2920.4
457.606	2862.1
457.979	2941.42
458.352	3020.97
458.725	3054.41
459.099	3066.84
459.472	3111.58
459.845	3132.83
460.218	3183
460.591	3209.66
460.964	3233.16
461.337	3300.05
461.71	3363.56
462.083	3401.07
462.456	3403.33
462.829	3415.31
463.201	3511.12
463.574	3534.62
463.947	3546.6
464.32	3636.32
464.692	3647.84
465.065	3638.58
465.438	3750.44
465.81	3764.45
466.183	3793.6
466.555	3918.34
466.928	3951.79
467.3	3939.59
467.672	4008.74
468.045	4090.54
468.417	4082.63
468.789	4102.07
469.161	4177.09
469.534	4271.1
469.906	4361.27
470.278	4384.32
470.65	4397.88
471.022	4514.03
471.394	4578.21
471.766	4636.06
472.138	4665.89
472.51	4781.37
472.882	4847.13
473.253	4878.32
473.625	4954.25
473.997	5067.92
474.369	5096.39
474.74	5149.5
475.112	5254.81
475.484	5360.34
475.855	5411.41
476.227	5420.45
476.598	5650.73
476.97	5652.08
477.341	5783.15
477.713	5841.68
478.084	5915.58
478.455	6083.26
478.827	6112.64
479.198	6282.8
479.569	6306.3
479.94	6479.41
480.311	6506.98
480.682	6690.7
481.053	6807.98
481.424	6915.1
481.795	6988.09
482.166	7115.55
482.537	7177.92
482.908	7368.42
483.279	7406.61
483.65	7587.17
484.021	7734.29
484.391	7789.88
484.762	7894.28
485.133	7976.54
485.503	8083.66
485.874	8233.71
486.244	8331.56
486.615	8485.68
486.985	8570.88
487.356	8766.58
487.726	8756.63
488.097	8942.84
488.467	8999.11
488.837	9191.88
489.207	9339.44
489.578	9519.78
489.948	9494.47
490.318	9620.79
490.688	9733.78
491.058	9814.69
491.428	10039.09
491.798	10169.48
492.168	10318.63
492.538	10334.67
492.908	10467.78
493.278	10582.8
493.648	10597.72
494.017	10770.37
494.387	10848.78
494.757	10966.75
495.126	11109.79
495.496	11195.89
495.866	11264.14
496.235	11453.74
496.605	11452.61
496.974	11551.36
497.344	11651.47
497.713	11736.67
498.082	11881.98
498.452	11957.91
498.821	12038.36
499.19	12049.65
499.559	12230.44
499.928	12355.41
500.298	12439.02
500.667	12545.69
501.036	12567.38
501.405	12688.73
501.774	12706.59
502.143	12783.19
502.512	12860.93
502.88	12969.4
503.249	13079.01
503.618	13150.42
503.987	13201.04
504.356	13248.04
504.724	13423.86
505.093	13531.2
505.462	13517.64
505.83	13638.77
506.199	13793.34
506.567	13968.47
506.936	13987.23
507.304	14144.74
507.672	14259.54
508.041	14271.97
508.409	14373.21
508.777	14528.23
509.145	14645.52
509.514	14705.4
509.882	14761.67
510.25	14916.92
510.618	15027.43
510.986	15056.58
511.354	15215.22
511.722	15348.1
512.09	15503.12
512.458	15487.08
512.826	15632.16
513.193	15683.46
513.561	15864.24
513.929	15989.44
514.297	16115.31
514.664	16247.06
515.032	16339.03
515.4	16536.32
515.767	16502.65
516.135	16673.04
516.502	16608.18
516.869	16993.71
517.237	16984.67
517.604	17055.85
517.972	17218.78
518.339	17429.4
518.706	17416.29
519.073	17536.06
519.44	17658.32
519.808	17799.56
520.175	17864.87
520.542	18132.66
520.909	18303.05
521.276	18287.01
521.643	18546.66
522.009	18759.53
522.376	18811.96
522.743	18933.32
523.11	19090.83
523.477	19255.79
523.843	19376.02
524.21	19631.15
524.577	19716.57
524.943	19864.14
525.31	20001.08
525.676	20217.58
526.043	20325.82
526.409	20297.35
526.776	20614.4
527.142	20649.43
527.508	20822.31
527.874	20928.74
528.241	21186.14
528.607	21215.52
528.973	21383.87
529.339	21414.61
529.705	21653.7
530.071	21812.34
530.437	21907.47
530.803	22128.94
531.169	22171.2
531.535	22167.13
531.901	22292.1
532.267	22574.58
532.632	22601.24
532.998	22671.52
533.364	22751.29
533.73	22908.58
534.095	23092.53
534.461	23252.98
534.826	23331.39
535.192	23386.08
535.557	23644.83
535.923	23610.03
536.288	23680.99
536.653	23734.09
537.019	23833.98
537.384	24081.88
537.749	24093.18
538.114	24198.26
538.479	24202.56
538.845	24372.49
539.21	24402.1
539.575	24562.77
539.94	24586.5
540.305	24599.38
540.67	24805.48
541.034	24908.98
541.399	24958.92
541.764	24978.35
542.129	25131.34
542.494	25227.84
542.858	25440.04
543.223	25414.73
543.587	25543.31
543.952	25533.14
544.316	25620.82
544.681	25662.4
545.045	25802.51
545.41	25985.33
545.774	26109.4
546.138	26005.67
546.503	26240.24
546.867	26257.87
547.231	26440.46
547.595	26448.6
547.959	26515.72
548.324	26562.27
548.688	26575.6
549.052	26677.07
549.416	26958.64
549.779	26833.45
550.143	26954.8
550.507	27182.14
550.871	27308.01
551.235	27159.09
551.599	27400.89
551.962	27399.08
552.326	27572.64
552.689	27717.49
553.053	27632.75
553.417	27870.26
553.78	28077.03
554.143	28093.98
554.507	28274.99
554.87	28195.22
555.234	28640.18
555.597	28369.45
555.96	28616.9
556.323	28723.11
556.686	28737.35
557.05	28889.21
557.413	28994.07
557.776	29106.38
558.139	29316.55
558.502	29391.57
558.865	29491.68
559.228	29654.39
559.59	29775.52
559.953	29882.41
560.316	30147.94
560.679	30182.06
561.041	30279.91
561.404	30388.16
561.767	30664.76
562.129	30619.56
562.492	30898.88
562.854	30859.1
563.217	30951.76
563.579	31143.16
563.941	31270.62
564.304	31442.59
564.666	31563.04
565.028	31672.64
565.39	31737.27
565.753	31937.04
566.115	32111.5
566.477	32059.98
566.839	32225.85
567.201	32425.16
567.563	32460.87
567.925	32642.11
568.287	32667.64
568.648	32758.71
569.01	32951.25
569.372	32991.03
569.734	33005.26
570.095	33181.3
570.457	33388.53
570.819	33464.91
571.18	33558.92
571.542	33629.2
571.903	33761.17
572.265	33830.1
572.626	33991.9
572.987	33909.42
573.349	34103.09
573.71	34283.65
574.071	34204.78
574.432	34492.23
574.794	34736.29
575.155	34650.87
575.516	34450.65
575.877	34698.32
576.238	34816.97
576.599	34817.64
576.96	34940.58
577.32	34984.19
577.681	35094.92
578.042	35161.59
578.403	35006.79
578.763	35211.31
579.124	35157.75
579.485	35273.9
579.845	35328.14
580.206	35275.94
580.566	35309.61
580.927	35348.25
581.287	35567.45
581.648	35373.34
582.008	35588.02
582.368	35495.59
582.728	35500.79
583.089	35551.18
583.449	35574.69
583.809	35485.2
584.169	35591.18
584.529	35569.26
584.889	35681.8
585.249	35431.86
585.609	35471.41
585.969	35750.5
586.329	35619.88
586.688	35621.46
587.048	35630.5
587.408	35537.17
587.768	35569.04
588.127	35591.63
588.487	35510.96
588.846	35776.94
589.206	35487
589.565	35498.3
589.925	35806.77
590.284	35625.31
590.643	35792.99
591.003	35780.1
591.362	35767.68
591.721	35581.24
592.08	35730.84
592.44	35670.95
592.799	35700.78
593.158	35733.1
593.517	35717.73
593.876	35850.84
594.235	35633.44
594.593	35727
594.952	35816.71
595.311	35598.64
595.67	35745.08
596.029	36003.15
596.387	35850.84
596.746	35929.03
597.104	35870.05
597.463	35743.72
597.822	36017.16
598.18	35872.08
598.538	35839.99
598.897	35867.56
599.255	35729.26
599.613	36272.29
599.972	36010.38
600.33	36004.96
600.688	35861.91
601.046	36049.7
601.404	36209.02
601.762	36094.9
602.12	36332.86
602.478	36277.72
602.836	36086.09
603.194	35988.69
603.552	36061
603.91	35906.65
604.268	36179.42
604.625	35974.68
604.983	36204.5
605.341	36033.43
605.698	36252.18
606.056	36235.23
606.413	36122.02
606.771	36474.55
607.128	36499.86
607.485	36305.29
607.843	36264.39
608.2	36447.88
608.557	36515.68
608.914	36453.31
609.272	36592.29
609.629	36557.49
609.986	36796.57
610.343	36663.02
610.7	36680.87
611.057	36843.58
611.414	36762.23
611.771	36801.32
612.127	36907.08
612.484	36922
612.841	37000.19
613.198	36802.68
613.554	36874.99
613.911	37171.48
614.267	37159.28
614.624	37141.65
614.98	37093.52
615.337	37292.38
615.693	37331.02
616.05	36977.59
616.406	37419.84
616.762	37378.48
617.118	37353.4
617.475	37394.98
617.831	37390.01
618.187	37473.62
618.543	37430.46
618.899	37735.99
619.255	37486.73
619.611	37442.89
619.967	37549.1
620.323	37713.61
620.678	37533.05
621.034	37556.55
621.39	37514.07
621.746	37469.33
622.101	37877
622.457	37546.16
622.812	37782.31
623.168	37860.95
623.523	37815.98
623.879	37825.25
624.234	37651.92
624.589	37590.9
624.945	37844.68
625.3	37764.46
625.655	37772.37
626.01	37786.61
626.365	37873.61
626.72	37790.45
627.075	37770.79
627.43	37714.52
627.785	37623.22
628.14	37765.81
628.495	37832.93
628.85	37766.49
629.205	37597.91
629.559	37815.98
629.914	37561.07
630.269	37719.71
630.623	37373.28
630.978	37558.14
631.332	37608.53
631.687	37663.67
632.041	37519.72
632.396	37630.23
632.75	37447.18
633.104	37519.95
633.459	37300.06
633.813	37322.66
634.167	37273.85
634.521	37306.62
634.875	37377.12
635.229	37278.6
635.583	37038.6
635.937	37040.41
636.291	36999.73
636.645	37028.66
636.999	36961.09
637.352	37109.79
637.706	36877.48
638.06	36814.2
638.413	36646.97
638.767	36707.09
639.121	36667.99
639.474	36437.26
639.828	36512.51
640.181	36649.91
640.534	36506.64
640.888	36384.38
641.241	36287.66
641.594	36384.83
641.947	36272.29
642.301	36251.5
642.654	36315.68
643.007	36298.06
643.36	36214.22
643.713	36155.01
644.066	36212.41
644.419	35993.21
644.771	35678.41
645.124	35345.77
645.477	35362.04
645.83	35090.63
646.182	34974.93
646.535	34997.07
646.888	35005.44
647.24	34851.09
647.593	35042.5
647.945	34988.49
648.298	34653.35
648.65	34703.07
649.002	34465.79
649.355	34658.78
649.707	34648.61
650.059	34792.79
650.411	35197.29
650.763	35237.07
651.115	35555.48
651.467	35418.08
651.819	35422.6
652.171	35176.96
652.523	35270.74
652.875	35265.77
653.227	35123.85
653.578	35370.17
653.93	35203.4
654.282	35064.19
654.633	35074.13
654.985	35242.04
655.337	35089.95
655.688	35042.95
656.039	35012.21
656.391	34752.56
656.742	34812.9
657.094	35021.48
657.445	34917.3
657.796	34916.85
658.147	34886.57
658.498	34796.85
658.849	34863.97
659.2	34874.37
659.551	34574.71
659.902	34645.22
660.253	34466.01
660.604	34526.13
660.955	34641.15
661.306	34440.7
661.656	34369.75
662.007	34341.27
662.358	34341.27
662.708	34341.95
663.059	34171.33
663.409	34028.51
663.76	34235.74
664.11	34238.9
664.461	34235.06
664.811	33990.77
665.161	34092.01
665.511	33922.75
665.862	33839.82
666.212	33913.49
666.562	33927.27
666.912	33730.21
667.262	33673.04
667.612	33462.2
667.962	33652.25
668.312	33358.93
668.662	33499.71
669.011	33214.52
669.361	33242.54
669.711	33061.53
670.06	33055.88
670.41	32895.21
670.76	32920.29
671.109	32882.78
671.459	32779.28
671.808	32666.06
672.157	32877.81
672.507	32509.91
672.856	32520.76
673.205	32557.82
673.554	32564.6
673.904	32458.38
674.253	32438.5
674.602	32310.82
674.951	31810.27
675.3	31774.56
675.649	32289.57
675.998	32166.87
676.346	32151.95
676.695	32253.42
677.044	32094.33
677.393	32137.26
677.741	32035.8
678.09	31964.61
678.438	31924.39
678.787	31941.34
679.135	31936.14
679.484	31694.79
679.832	31888
680.181	31696.37
680.529	31799.19
680.877	31841
681.225	31701.79
681.573	32010.94
681.922	31814.78
682.27	31727.33
682.618	31713.09
682.966	31803.49
683.314	31769.14
683.661	31726.65
684.009	31657.05
684.357	31543.61
684.705	31562.81
685.053	31588.12
685.4	31654.11
685.748	31461.8
686.095	31570.72
686.443	31462.7
686.79	31518.3
687.138	31494.34
687.485	31671.96
687.832	31621.12
688.18	31742.02
688.527	31464.06
688.874	31541.8
689.221	31630.61
689.568	31531.85
689.915	31443.5
690.262	31323.05
690.609	31331.18
690.956	31268.13
691.303	31300.9
691.65	31081.24
691.997	31293.22
692.344	31089.61
692.69	31206.67
693.037	31140.23
693.383	30933.68
693.73	31153.33
694.077	30886.22
694.423	30937.07
694.769	30881.93
695.116	30848.03
695.462	30879.44
695.808	30703.85
696.155	30730.07
696.501	30448.72
696.847	30495.72
697.193	30386.12
697.539	30458.21
697.885	30308.61
698.231	30231.1
698.577	30251.44
698.923	30057.54
699.269	30063.87
699.614	29950.65
699.96	29965.57
700.306	30057.77
700.651	29689.42
700.997	29671.11
701.342	29667.04
701.688	29636.31
702.033	29563.77
702.379	29553.83
702.724	29414.17
703.069	29469.76
703.415	29133.73
703.76	29078.59
704.105	29171.24
704.45	29205.81
704.795	28937.57
705.14	28764.02
705.485	28784.36
705.83	28730.57
706.175	28762.89
706.52	28676.56
706.865	28603.12
707.209	28537.81
707.554	28583.91
707.899	28548.2
708.243	28414.2
708.588	28306.4
708.932	28100.76
709.277	28176.24
709.621	28230.92
709.966	28110.25
710.31	28162.23
710.654	27836.13
710.998	27946.19
711.342	28031.61
711.687	27887.88
712.031	27735.57
712.375	27611.05
712.719	27629.58
713.063	27628.45
713.407	27641.79
713.75	27332.87
714.094	27392.08
714.438	27335.35
714.782	27423.04
715.125	27155.47
715.469	27392.98
715.812	27128.13
716.156	26999.54
716.499	27023.95
716.843	27054.46
717.186	26840
717.53	27004.97
717.873	26902.82
718.216	26931.07
718.559	26756.84
718.902	26623.06
719.246	26678.87
719.589	26489.28
719.932	26342.16
720.275	26472.78
720.617	26500.12
720.96	26403.85
721.303	26310.07
721.646	26443.17
721.989	26125.89
722.331	26166.35
722.674	26122.96
723.016	26211.99
723.359	26176.29
723.701	26167.93
724.044	25851.33
724.386	25753.93
724.729	25862.4
725.071	25798.22
725.413	25793.02
725.755	25854.04
726.097	25796.86
726.439	25518.91
726.782	25517.1
727.124	25700.14
727.465	25651.11
727.807	25566.36
728.149	25475.97
728.491	25336.09
728.833	25499.92
729.175	25275.3
729.516	25388.29
729.858	25171.34
730.199	25344.22
730.541	25225.81
730.882	25143.32
731.224	25273.26
731.565	25064.68
731.906	25007.51
732.248	24992.37
732.589	24811.81
732.93	24901.75
733.271	24805.93
733.612	24951.24
733.953	24840.73
734.294	24684.8
734.635	24646.61
734.976	24748.08
735.317	24567.97
735.658	24535.88
735.999	24564.81
736.339	24576.11
736.68	24561.64
737.021	24418.14
737.361	24316.23
737.702	24387.41
738.042	24418.14
738.383	24331.14
738.723	24256.11
739.063	24243.23
739.404	24313.29
739.744	24302.44
740.084	24073.75
740.424	24118.26
740.764	24105.38
741.104	24037.59
741.444	23890.93
741.784	23951.49
742.124	24003.92
742.464	24078.94
742.804	23906.07
743.143	23896.35
743.483	23825.62
743.823	23694.77
744.162	23678.05
744.502	23725.73
744.841	23507.66
745.181	23765.51
745.52	23556.92
745.86	23615.68
746.199	23465.85
746.538	23477.38
746.877	23509.69
747.216	23427.43
747.556	23310.15
747.895	23387.21
748.234	23231.06
748.573	23258.63
748.911	23297.95
749.25	23272.41
749.589	23004.85
749.928	23096.82
750.267	23085.75
750.605	23001.01
750.944	22789.71
751.283	22767.57
751.621	22867.68
751.96	22827
752.298	22812.08
752.636	22760.79
752.975	22637.4
753.313	22540.45
753.651	22696.83
753.989	22558.53
754.327	22484.63
754.666	22361.02
755.004	22423.85
755.342	22359.67
755.679	22401.02
756.017	22181.59
756.355	22336.39
756.693	22154.7
757.031	22055.27
757.368	21921.71
757.706	21990.86
758.044	21916.06
758.381	21911.54
758.719	21694.83
759.056	21768.95
759.394	21692.34
759.731	21558.56
760.068	21522.4
760.405	21474.94
760.743	21500.03
761.08	21408.05
761.417	21375.06
761.754	21213.71
762.091	21153.37
762.428	21063.43
762.765	20953.38
763.102	20993.6
763.438	20787.73
763.775	20893.26
764.112	20877.67
764.449	20739.6
764.785	20706.6
765.122	20613.95
765.458	20387.29
765.795	20416.89
766.131	20413.95
766.467	20343.67
766.804	20253.96
767.14	20115.43
767.476	20133.51
767.812	20128.31
768.148	20041.76
768.485	19952.05
768.821	19890.58
769.157	19818.94
769.492	19786.4
769.828	19765.16
770.164	19541.21
770.5	19547.31
770.836	19488.33
771.171	19404.72
771.507	19395.9
771.842	19239.97
772.178	19173.76
772.513	19133.31
772.849	19099.41
773.184	18957.72
773.519	18985.97
773.855	18875.24
774.19	18813.32
774.525	18642.93
774.86	18660.78
775.195	18651.74
775.53	18564.96
775.865	18448.58
776.2	18299.66
776.535	18259.89
776.87	18259.66
777.205	18116.39
777.539	18072.55
777.874	18149.16
778.209	17890.41
778.543	17995.04
778.878	17768.6
779.212	17968.14
779.547	17678.66
779.881	17757.3
780.215	17552.11
780.55	17609.06
780.884	17511.88
781.218	17452.68
781.552	17408.61
781.886	17305.79
782.22	17188.05
782.554	17216.07
782.888	17008.62
783.222	16953.48
783.556	16855.18
783.889	16882.75
784.223	16791.45
784.557	16722.53
784.89	16837.78
785.224	16687.27
785.557	16603.43
785.891	16503.32
786.224	16526.6
786.558	16453.83
786.891	16289.77
787.224	16261.3
787.557	16199.6
787.891	16182.2
788.224	16167.74
788.557	16157.34
788.89	16115.99
789.223	16141.98
789.556	15950.57
789.888	15882.1
790.221	15725.49
790.554	15713.06
790.887	15675.77
791.219	15627.41
791.552	15588.09
791.884	15466.97
792.217	15492.28
792.549	15455.22
792.882	15360.3
793.214	15203.24
793.546	15222
793.879	15176.13
794.211	15090.93
794.543	15168.44
794.875	14979.75
795.207	15094.32
795.539	15055.9
795.871	15003.7
796.203	14786.76
796.535	14849.36
796.867	14789.02
797.198	14709.47
797.53	14691.39
797.862	14539.98
798.193	14560.32
798.525	14526.65
798.856	14501.12
799.188	14420.44
799.519	14264.96
799.85	14241.46
800.182	14268.58
800.513	14294.12
800.844	14100
801.175	14157.62
801.506	14139.54
801.837	14071.75
802.168	13987.23
802.499	13989.94
802.83	13843.28
803.161	13897.97
803.491	13908.59
803.822	13792.66
804.153	13780
804.483	13665.21
804.814	13565.55
805.145	13653
805.475	13562.61
805.805	13607.58
806.136	13549.05
806.466	13504.53
806.796	13531.42
807.126	13374.82
807.457	13340.24
807.787	13311.99
808.117	13305.44
808.447	13181.83
808.777	13276.97
809.107	13215.27
809.436	13092.57
809.766	13113.81
810.096	13058.89
810.426	13007.82
810.755	12999.46
811.085	13028.39
811.414	12939.35
811.744	12876.3
812.073	12819.8
812.403	12822.74
812.732	12709.75
813.061	12698.9
813.39	12701.16
813.719	12615.52
814.049	12672.01
814.378	12686.47
814.707	12611.9
815.036	12545.91
815.365	12482.19
815.693	12388.18
816.022	12359.7
816.351	12340.72
816.68	12290.1
817.008	12310.67
817.337	12288.07
817.665	12220.05
817.994	12213.04
818.322	12245.81
818.651	12140.95
818.979	12131.91
819.307	12215.07
819.636	12078.81
819.964	12004.91
820.292	12129.2
820.62	12045.81
820.948	12010.33
821.276	12011.24
821.604	12047.4
821.932	12048.98
822.259	12008.3
822.587	11969.88
822.915	11916.1
823.243	12009.2
823.57	11941.41
823.898	12004.23
824.225	11946.15
824.553	11905.03
824.88	11928.75
825.207	11959.94
825.535	11916.78
825.862	11932.37
826.189	11961.52
826.516	11947.74
826.843	12019.37
827.17	11997.9
827.497	11998.36
827.824	11931.47
828.151	11944.57
828.478	11902.09
828.805	11886.04
829.131	11896.44
829.458	11926.72
829.785	11805.59
830.111	11861.41
830.438	11914.74
830.764	11846.04
831.09	11874.97
831.417	11902.31
831.743	11838.59
832.069	11852.37
832.395	11872.48
832.722	11864.58
833.048	11774.18
833.374	11801.53
833.7	11744.13
834.026	11807.4
834.351	11810.11
834.677	11726.27
835.003	11791.58
835.329	11728.08
835.654	11628.65
835.98	11692.6
836.306	11717.91
836.631	11620.29
836.956	11719.49
837.282	11671.81
837.607	11606.73
837.932	11535.32
838.258	11572.61
838.583	11601.76
838.908	11446.28
839.233	11554.53
839.558	11506.62
839.883	11381.65
840.208	11433.85
840.533	11331.26
840.858	11376.23
841.182	11381.65
841.507	11390.92
841.832	11342.78
842.156	11349.33
842.481	11334.19
842.805	11337.13
843.13	11237.25
843.454	11246.51
843.778	11138.49
844.103	11136.23
844.427	11084.93
844.751	11093.52
845.075	11055.78
845.399	11029.57
845.723	10941.21
846.047	10989.57
846.371	10964.26
846.695	10822.57
847.019	10809.69
847.343	10791.16
847.666	10777.15
847.99	10709.35
848.313	10690.59
848.637	10688.56
848.96	10647.43
849.284	10536.93
849.607	10558.62
849.931	10488.11
850.254	10459.87
850.577	10398.85
850.9	10297.84
851.223	10291.06
851.546	10306.42
851.869	10191.17
852.192	10252.87
852.515	10138.74
852.838	10127.22
853.161	10075.02
853.483	10018.52
853.806	9947.56
854.129	10017.84
854.451	9963.16
854.774	9869.83
855.096	9910.28
855.419	9793.9
855.741	9828.47
856.063	9814.46
856.385	9821.69
856.708	9694.46
857.03	9684.97
857.352	9688.59
857.674	9631.19
857.996	9603.39
858.318	9582.83
858.64	9590.96
858.961	9477.29
859.283	9534.01
859.605	9464.64
859.926	9486.11
860.248	9421.48
860.57	9412.66
860.891	9339.22
861.212	9391.19
861.534	9331.08
861.855	9301.03
862.176	9305.09
862.498	9313.91
862.819	9235.72
863.14	9221.48
863.461	9225.32
863.782	9166.57
864.103	9125.44
864.424	9140.35
864.745	9174.02
865.065	9101.48
865.386	9072.78
865.707	9075.04
866.027	9065.1
866.348	9080.92
866.668	8979
866.989	8983.97
867.309	8912.34
867.63	8962.5
867.95	8972.9
868.27	8906.91
868.59	8920.25
868.91	8875.95
869.23	8877.76
869.55	8844.54
869.87	8905.33
870.19	8882.05
870.51	8863.07
870.83	8909.62
871.15	8817.65
871.469	8759.12
871.789	8794.15
872.109	8810.19
872.428	8790.98
872.748	8782.17
873.067	8696.97
873.386	8744.21
873.706	8709.18
874.025	8669.4
874.344	8664.66
874.663	8668.5
874.982	8634.6
875.301	8625.34
875.62	8582.18
875.939	8625.56
876.258	8538.79
876.577	8437.55
876.896	8514.15
877.214	8464.21
877.533	8546.7
877.852	8454.27
878.17	8480.03
878.489	8484.78
878.807	8472.8
879.125	8465.57
879.444	8450.65
879.762	8419.47
880.08	8426.25
880.398	8321.39
880.716	8361.16
881.034	8357.32
881.352	8372.24
881.67	8295.4
881.988	8286.36
882.306	8342.86
882.624	8246.59
882.941	8287.27
883.259	8179.47
883.577	8213.15
883.894	8166.82
884.212	8174.73
884.529	8121.17
884.846	8109.42
885.164	8189.19
885.481	8039.59
885.798	8045.47
886.115	7995.3
886.432	8006.37
886.75	7973.15
887.067	8056.77
887.383	7977.67
887.7	7944.68
888.017	7892.48
888.334	7918.69
888.651	7892.02
888.967	7885.92
889.284	7858.35
889.6	7788.75
889.917	7771.12
890.233	7755.08
890.55	7654.52
890.866	7763.67
891.182	7738.36
891.498	7651.13
891.815	7642.77
892.131	7562.77
892.447	7686.38
892.763	7552.15
893.079	7561.86
893.395	7488.87
893.71	7508.98
894.026	7504.46
894.342	7444.58
894.657	7471.02
894.973	7456.78
895.289	7427.4
895.604	7441.87
895.92	7306.28
896.235	7318.93
896.55	7307.18
896.865	7315.99
897.181	7318.03
897.496	7208.43
897.811	7178.37
898.126	7192.61
898.441	7159.84
898.756	7122.78
899.071	7057.7
899.386	7137.02
899.7	7061.31
900.015	7001.43
900.33	7005.04
900.644	6969.56
900.959	6985.16
901.273	6923.69
901.588	6934.08
901.902	6908.1
902.216	6968.43
902.531	6916.23
902.845	6879.85
903.159	6819.74
903.473	6780.87
903.787	6721.89
904.101	6692.28
904.415	6690.25
904.729	6676.69
905.042	6629.68
905.356	6557.37
905.67	6586.52
905.984	6549.23
906.297	6532.06
906.611	6497.48
906.924	6486.41
907.237	6451.38
907.551	6483.93
907.864	6394.44
908.177	6387.66
908.491	6437.6
908.804	6334.1
909.117	6298.62
909.43	6283.48
909.743	6269.47
910.056	6241.22
910.368	6267.21
910.681	6173.2
910.994	6143.6
911.307	6165.06
911.619	6091.62
911.932	6144.73
912.244	6103.37
912.557	6045.74
912.869	6033.32
913.181	6017.05
913.494	6049.13
913.806	5909.93
914.118	5930.04
914.43	5910.38
914.742	5885.3
915.054	5866.99
915.366	5785.86
915.678	5838.74
915.99	5762.14
916.302	5747.22
916.613	5740.44
916.925	5758.07
917.236	5704.74
917.548	5678.52
917.859	5694.34
918.171	5633.78
918.482	5600.11
918.794	5562.14
919.105	5598.3
919.416	5516.04
919.727	5558.98
920.038	5465.65
920.349	5475.82
920.66	5442.6
920.971	5490.28
921.282	5411.41
921.593	5365.08
921.903	5369.6
922.214	5326.22
922.525	5295.71
922.835	5310.62
923.146	5254.81
923.456	5262.04
923.767	5236.95
924.077	5231.53
924.387	5148.37
924.697	5194.02
925.008	5156.5
925.318	5073.12
925.628	5107.46
925.938	5063.62
926.248	5069.73
926.558	5057.97
926.867	5048.71
927.177	5020.91
927.487	5005.32
927.796	4920.8
928.106	4918.99
928.416	4888.71
928.725	4933.23
929.034	4874.7
929.344	4860.24
929.653	4835.38
929.962	4809.39
930.271	4761.26
930.581	4789.05
930.89	4749.51
931.199	4701.15
931.508	4698.66
931.817	4670.64
932.125	4642.39
932.434	4650.98
932.743	4622.96
933.051	4577.31
933.36	4566.46
933.669	4526.01
933.977	4508.84
934.286	4552
934.594	4529.17
934.902	4509.51
935.21	4475.39
935.519	4433.58
935.827	4493.02
936.135	4405.34
936.443	4396.07
936.751	4381.16
937.059	4388.16
937.367	4348.16
937.674	4328.28
937.982	4298.67
938.29	4266.13
938.597	4300.71
938.905	4228.62
939.213	4214.83
939.52	4216.64
939.827	4192.46
940.135	4213.25
940.442	4145.23
940.749	4169.18
941.056	4178
941.363	4074.95
941.67	4081.05
941.977	4054.38
942.284	4030.43
942.591	4046.7
942.898	3991.79
943.205	4034.72
943.511	3989.75
943.818	3946.14
944.125	3969.64
944.431	3970.09
944.738	3914.5
945.044	3895.29
945.35	3916.31
945.657	3860.72
945.963	3851.9
946.269	3837.67
946.575	3816.43
946.881	3777.78
947.187	3806.48
947.493	3771.45
947.799	3743.21
948.105	3760.61
948.41	3728.74
948.716	3698.24
949.022	3663.43
949.327	3683.55
949.633	3607.84
949.938	3607.39
950.244	3665.02
950.549	3620.27
950.854	3574.17
951.16	3588.86
951.465	3545.7
951.77	3552.7
952.075	3574.62
952.38	3525.36
952.685	3533.95
952.99	3464.8
953.294	3490.11
953.599	3418.24
953.904	3431.35
954.209	3425.7
954.513	3397.23
954.818	3400.39
955.122	3371.01
955.426	3350.67
955.731	3362.2
956.035	3319.26
956.339	3295.31
956.643	3341.41
956.948	3295.31
957.252	3288.3
957.556	3274.29
957.86	3250.34
958.163	3254.18
958.467	3245.37
958.771	3220.96
959.075	3222.54
959.378	3180.74
959.682	3158.36
959.985	3157.01
960.289	3131.25
960.592	3124.01
960.896	3159.95
961.199	3110.23
961.502	3090.79
961.805	3117.23
962.108	3015.54
962.411	3068.2
962.714	3021.64
963.017	3008.99
963.32	3008.76
963.623	3002.44
963.926	3020.29
964.228	2980.97
964.531	2957.01
964.833	2972.38
965.136	2934.19
965.438	2929.22
965.741	2912.95
966.043	2911.59
966.345	2924.92
966.648	2924.25
966.95	2885.6
967.252	2845.15
967.554	2830.01
967.856	2845.83
968.158	2821.42
968.46	2826.85
968.761	2791.14
969.063	2757.92
969.365	2790.69
969.666	2768.54
969.968	2722.89
970.269	2716.12
970.571	2736.68
970.872	2729.22
971.174	2664.59
971.475	2661.65
971.776	2689.45
972.077	2684.48
972.378	2656
972.679	2631.37
972.98	2674.53
973.281	2627.76
973.582	2602.67
973.883	2592.28
974.183	2519.51
974.484	2594.31
974.785	2552.5
975.085	2551.37
975.386	2511.6
975.686	2543.92
975.986	2548.21
976.287	2555.44
976.587	2476.12
976.887	2516.57
977.187	2486.06
977.487	2470.92
977.787	2421.21
978.087	2426.18
978.387	2440.19
978.687	2446.97
978.987	2437.25
979.286	2396.12
979.586	2378.27
979.885	2378.04
980.185	2354.09
980.484	2349.8
980.784	2359.51
981.083	2357.25
981.382	2325.39
981.682	2327.88
981.981	2275.22
982.28	2315.9
982.579	2301.44
982.878	2286.52
983.177	2249.46
983.475	2271.15
983.774	2239.74
984.073	2209.46
984.372	2232.74
984.67	2225.28
984.969	2228.22
985.267	2216.92
985.566	2196.81
985.864	2174.66
986.162	2205.17
986.461	2170.82
986.759	2129.69
987.057	2126.98
987.355	2142.8
987.653	2094.89
987.951	2120.2
988.249	2101.67
988.547	2104.15
988.844	2062.35
989.142	2099.63
989.44	2056.92
989.737	2068.67
990.035	2049.24
990.332	2023.25
990.63	2010.6
990.927	2027.55
991.224	2013.99
991.521	2003.82
991.819	2011.73
992.116	2002.24
992.413	1969.02
992.71	1984.16
993.006	1962.69
993.303	1968.11
993.6	1939.41
993.897	1933.54
994.193	1940.77
994.49	1920.88
994.787	1891.96
995.083	1909.36
995.379	1872.07
995.676	1865.06
995.972	1899.87
996.268	1852.18
996.565	1859.64
996.861	1846.53
997.157	1825.29
997.453	1840.88
997.749	1832.07
998.044	1803.82
998.34	1797.5
998.636	1800.21
998.932	1768.57
999.227	1764.05
999.523	1777.38
999.818	1755.46
1000.114	1748.68
1000.409	1748.91
1000.704	1737.61
1001	1741.45
1001.295	1756.37
1001.59	1705.97
1001.885	1679.98
1002.18	1694.22
1002.475	1663.71
1002.77	1703.49
1003.065	1663.71
1003.359	1677.27
1003.654	1689.7
1003.949	1642.24
1004.243	1616.26
1004.538	1638.63
1004.832	1616.26
1005.127	1597.5
1005.421	1604.96
1005.715	1584.62
1006.009	1570.38
1006.304	1573.32
1006.598	1543.49
1006.892	1541.68
1007.186	1543.72
1007.48	1548.91
1007.773	1524.28
1008.067	1514.11
1008.361	1491.06
1008.655	1492.64
1008.948	1498.52
1009.242	1470.72
1009.535	1456.94
1009.829	1463.49
1010.122	1464.62
1010.415	1440.67
1010.708	1433.21
1011.001	1422.82
1011.295	1433.89
1011.588	1444.74
1011.881	1401.8
1012.173	1393.44
1012.466	1390.73
1012.759	1410.16
1013.052	1392.08
1013.344	1398.64
1013.637	1381.01
1013.93	1359.54
1014.222	1358.86
1014.514	1338.52
1014.807	1332.42
1015.099	1333.78
1015.391	1336.72
1015.683	1331.97
1015.976	1291.29
1016.268	1303.72
1016.56	1259.88
1016.851	1237.51
1017.143	1267.34
1017.435	1243.61
1017.727	1268.7
1018.018	1249.49
1018.31	1241.35
1018.602	1228.7
1018.893	1220.56
1019.185	1224.18
1019.476	1163.84
1019.767	1220.56
1020.058	1178.53
1020.35	1176.04
1020.641	1157.06
1020.932	1189.6
1021.223	1170.62
1021.514	1174.01
1021.804	1127.68
1022.095	1130.85
1022.386	1167.46
1022.677	1143.95
1022.967	1167.23
1023.258	1143.05
1023.548	1106.21
1023.839	1105.99
1024.129	1109.15
1024.419	1096.72
1024.709	1070.73
1025	1069.15
1025.29	1050.85
1025.58	1076.61
1025.87	1054.24
1026.16	1046.33
1026.449	1039.55
1026.739	1060.34
1027.029	1046.55
1027.319	1037.06
1027.608	1015.14
1027.898	1027.57
1028.187	1022.83
1028.477	1033.67
1028.766	982.38
1029.055	995.71
1029.344	987.35
1029.634	996.61
1029.923	983.73
1030.212	1002.26
1030.501	938.31
1030.79	952.32
1031.078	936.95
1031.367	915.94
1031.656	923.62
1031.945	938.31
1032.233	919.33
1032.522	964.07
1032.81	926.11
1033.099	920
1033.387	912.77
1033.675	923.17
1033.963	902.15
1034.251	885.43
1034.54	895.6
1034.828	874.13
1035.116	858.31
1035.403	864.64
1035.691	862.6
1035.979	857.18
1036.267	859.89
1036.554	847.92
1036.842	830.74
1037.129	826.45
1037.417	834.13
1037.704	810.63
1037.992	839.1
1038.279	834.81
1038.566	805.2
1038.853	805.2
1039.14	805.2
