Data from White_paper_FLMS001491_005.txt Node
Date: Tue Feb 07 10:34:34 GMT 2017
User: dcchb
Spectrometer: FLMS00149
Trigger mode: 0
Integration Time (sec): 2.000000E-2
Scans to average: 10
Electric dark correction enabled: true
Nonlinearity correction enabled: false
Boxcar width: 0
XAxis mode: Wavelengths
Number of Pixels in Spectrum: 2048
>>>>>Begin Spectral Data<<<<<
341.393	-14.83
341.776	-14.83
342.16	-14.83
342.543	-37.65
342.927	-76.07
343.31	-64.32
343.693	-50.54
344.077	-71.33
344.46	-66.81
344.843	-65.45
345.226	-34.72
345.61	-25.45
345.993	-28.84
346.376	-1.27
346.759	16.81
347.142	32.63
347.525	36.69
347.908	61.55
348.291	80.31
348.674	77.37
349.057	103.36
349.44	118.05
349.823	144.94
350.206	172.06
350.588	210.7
350.971	220.42
351.354	269.23
351.737	264.94
352.119	279.63
352.502	286.4
352.884	311.71
353.267	320.08
353.65	342.22
354.032	334.77
354.414	342.22
354.797	353.97
355.179	362.34
355.562	349.91
355.944	356.69
356.326	371.15
356.709	360.98
357.091	373.41
357.473	389.91
357.855	376.8
358.238	385.39
358.62	374.76
359.002	373.41
359.384	359.85
359.766	381.09
360.148	371.6
360.53	363.92
360.912	359.85
361.294	362.79
361.676	356.46
362.057	365.05
362.439	353.97
362.821	369.34
363.203	359.85
363.584	360.3
363.966	392.39
364.348	366.18
364.729	369.11
365.111	354.65
365.493	367.08
365.874	370.92
366.256	369.34
366.637	377.7
367.019	348.32
367.4	389.91
367.781	386.74
368.163	381.09
368.544	392.84
368.925	375.22
369.306	354.88
369.688	376.8
370.069	348.78
370.45	376.8
370.831	366.85
371.212	378.15
371.593	381.32
371.974	353.97
372.355	377.93
372.736	368.44
373.117	380.41
373.498	380.41
373.879	372.5
374.26	391.03
374.641	372.73
375.021	396.68
375.402	386.52
375.783	385.39
376.163	391.03
376.544	408.89
376.925	401.66
377.305	392.62
377.686	405.05
378.066	400.3
378.447	390.81
378.827	395.33
379.208	407.76
379.588	406.4
379.968	384.71
380.349	403.92
380.729	409.79
381.109	409.79
381.489	393.97
381.87	425.61
382.25	439.85
382.63	407.98
383.01	430.36
383.39	410.7
383.77	433.07
384.15	422.67
384.53	425.61
384.91	432.84
385.29	450.24
385.67	441.88
386.049	450.47
386.429	473.74
386.809	471.94
387.189	473.97
387.568	482.11
387.948	465.38
388.328	477.13
388.707	473.97
389.087	482.11
389.466	490.24
389.846	491.37
390.225	487.76
390.605	507.42
390.984	494.54
391.363	510.13
391.743	518.72
392.122	515.55
392.501	509.9
392.881	518.04
393.26	528.21
393.639	536.12
394.018	540.18
394.397	546.06
394.776	546.51
395.155	574.31
395.534	557.36
395.913	560.75
396.292	567.98
396.671	578.15
397.05	591.26
397.429	602.55
397.808	596.23
398.186	596
398.565	609.56
398.944	618.37
399.323	607.53
399.701	605.04
400.08	632.84
400.458	647.98
400.837	668.32
401.215	671.03
401.594	680.29
401.972	670.35
402.351	672.16
402.729	699.05
403.107	702.89
403.486	719.84
403.864	748.54
404.242	738.37
404.62	749.9
404.999	792.38
405.377	780.4
405.755	797.58
406.133	826.28
406.511	810.23
406.889	845.94
407.267	873.28
407.645	863.56
408.023	898.59
408.401	893.62
408.779	916.9
409.156	949.66
409.534	975.2
409.912	1008.19
410.29	1005.03
410.667	1051.58
411.045	1046.16
411.422	1095.65
411.8	1085.03
412.178	1143.33
412.555	1193.95
412.933	1198.92
413.31	1233.5
413.687	1247.96
414.065	1283.44
414.442	1313.5
414.819	1343.78
415.197	1355.98
415.574	1412.48
415.951	1426.49
416.328	1432.14
416.705	1440.5
417.082	1511.91
417.46	1519.14
417.837	1540.16
418.214	1523.21
418.591	1590.33
418.967	1614.05
419.344	1649.76
419.721	1682.98
420.098	1699.02
420.475	1706.25
420.852	1774.28
421.228	1770.89
421.605	1778.34
421.982	1799.59
422.358	1819.25
422.735	1891.11
423.111	1871.67
423.488	1906.7
423.864	1943.08
424.241	1969.3
424.617	2033.25
424.994	2022.63
425.37	2061.5
425.746	2054.04
426.123	2157.54
426.499	2099.92
426.875	2165.68
427.251	2201.83
427.627	2249.07
428.003	2239.12
428.379	2306.46
428.756	2358.89
429.132	2346.24
429.507	2422.62
429.883	2427.37
430.259	2488.61
430.635	2505.78
431.011	2523.63
431.387	2606.34
431.763	2619.9
432.138	2654.93
432.514	2753.46
432.89	2704.65
433.265	2828.94
433.641	2821.25
434.016	2888.14
434.392	2881.59
434.767	2979.44
435.143	2953.68
435.518	3014.24
435.894	3055.82
436.269	3072.77
436.644	3090.85
437.02	3191.87
437.395	3185.09
437.77	3255.59
438.145	3280.22
438.52	3304.86
438.895	3335.59
439.271	3354.57
439.646	3450.16
440.021	3456.49
440.395	3492.2
440.77	3439.77
441.145	3495.36
441.52	3579.65
441.895	3570.16
442.27	3600.44
442.645	3606.54
443.019	3676.37
443.394	3637.96
443.769	3694.22
444.143	3683.6
444.518	3756.6
444.892	3730.83
445.267	3769.48
445.641	3860.1
446.016	3841.57
446.39	3902.58
446.764	3887.89
447.139	3867.55
447.513	3934.22
447.887	3946.87
448.262	3984.39
448.636	4043.14
449.01	4020.32
449.384	4052.86
449.758	4127.66
450.132	4124.5
450.506	4134.89
450.88	4168.34
451.254	4190.26
451.628	4302.34
452.002	4274.32
452.376	4329.01
452.75	4358.61
453.123	4413.08
453.497	4542.79
453.871	4507.99
454.244	4624.6
454.618	4664.59
454.992	4687.19
455.365	4731.49
455.739	4815.33
456.112	4863.46
456.486	4879.73
456.859	4925.15
457.232	5036.56
457.606	5002.21
457.979	5089.67
458.352	5222.32
458.725	5305.93
459.099	5307.52
459.472	5418.47
459.845	5456.89
460.218	5548.19
460.591	5560.62
460.964	5611.46
461.337	5728.3
461.71	5800.16
462.083	5861.85
462.456	5895.52
462.829	5894.39
463.201	6028.17
463.574	6022.3
463.947	6140.71
464.32	6283.76
464.692	6362.4
465.065	6356.08
465.438	6462.74
465.81	6558.1
466.183	6639.01
466.555	6781.83
466.928	6741.15
467.3	6758.78
467.672	6921.94
468.045	7095.49
468.417	7133.68
468.789	7155.83
469.161	7286.22
469.534	7415.26
469.906	7567.34
470.278	7642.37
470.65	7704.74
471.022	7856.38
471.394	8018.4
471.766	7991.06
472.138	8194.22
472.51	8358.51
472.882	8456.13
473.253	8531.61
473.625	8659.74
473.997	8826.52
474.369	8908.78
474.74	8956.69
475.112	9184.48
475.484	9365.26
475.855	9534.75
476.227	9554.18
476.598	9851.35
476.97	9906.94
477.341	10115.98
477.713	10271.45
478.084	10368.4
478.455	10642.06
478.827	10733.59
479.198	11024.65
479.569	11007.25
479.94	11327.92
480.311	11440.46
480.682	11665.54
481.053	12002.03
481.424	12067.34
481.795	12280.67
482.166	12438.85
482.537	12616.48
482.908	12825.96
483.279	13045.17
483.65	13250.36
484.021	13478.6
484.391	13511.59
484.762	13757.69
485.133	13843.56
485.503	14032.26
485.874	14336.2
486.244	14396.54
486.615	14783.88
486.985	14934.61
487.356	15237.65
487.726	15259.8
488.097	15647.13
488.467	15639.9
488.837	15986.78
489.207	16120.11
489.578	16328.24
489.948	16452.08
490.318	16748.34
490.688	16744.96
491.058	17099.07
491.428	17326.86
491.798	17536.12
492.168	17800.75
492.538	17926.85
492.908	17986.73
493.278	18218.59
493.648	18410
494.017	18596.66
494.387	18701.29
494.757	18904.9
495.126	19165.23
495.496	19139.02
495.866	19254.27
496.235	19466.92
496.605	19670.08
496.974	19774.25
497.344	19863.29
497.713	20022.16
498.082	20182.38
498.452	20357.06
498.821	20472.31
499.19	20567.91
499.559	20793.21
499.928	20938.97
500.298	20984.62
500.667	21282.01
501.036	21109.13
501.405	21460.99
501.774	21454.44
502.143	21714.09
502.512	21747.76
502.88	21930.36
503.249	22083.57
503.618	22059.39
503.987	22234.98
504.356	22393.85
504.724	22532.83
505.093	22672.26
505.462	22864.57
505.83	22954.06
506.199	22988.41
506.567	23423.42
506.936	23482.86
507.304	23730.99
507.672	23787.93
508.041	23916.97
508.409	23992.22
508.777	24337.75
509.145	24349.05
509.514	24331.2
509.882	24676.27
510.25	24641.92
510.618	24880.11
510.986	25013.21
511.354	25132.31
511.722	25322.58
512.09	25644.16
512.458	25655.68
512.826	25880.31
513.193	26047.99
513.561	26095.44
513.929	26390.8
514.297	26594.41
514.664	26761.19
515.032	26797.57
515.4	27070.56
515.767	27215.41
516.135	27334.73
516.502	27192.59
516.869	27736.53
517.237	27744.89
517.604	27719.13
517.972	28200.02
518.339	28248.38
518.706	28287.48
519.073	28441.6
519.44	28712.1
519.808	28903.28
520.175	28847.69
520.542	29407.22
520.909	29572.64
521.276	29607.22
521.643	29847.89
522.009	30084.94
522.376	30185.96
522.743	30476.57
523.11	30739.62
523.477	31012.83
523.843	31203.33
524.21	31542.08
524.577	31690.1
524.943	31800.38
525.31	31998.11
525.676	32315.62
526.043	32492.11
526.409	32530.75
526.776	32889.84
527.142	32949.05
527.508	33157.18
527.874	33539.32
528.241	33570.05
528.607	33719.42
528.973	33975.69
529.339	34001.22
529.705	34485.51
530.071	34648.44
530.437	34811.15
530.803	35002.55
531.169	35169.56
531.535	35175.43
531.901	35440.96
532.267	35439.38
532.632	35743.55
532.998	35842.76
533.364	36036.65
533.73	36278.9
534.095	36515.51
534.461	36556.19
534.826	36814.26
535.192	36784.2
535.557	37233.46
535.923	37323.4
536.288	37332.89
536.653	37543.96
537.019	37515.26
537.384	37595.93
537.749	37948.92
538.114	38054
538.479	37921.8
538.845	38261.23
539.21	38362.01
539.575	38331.28
539.94	38611.05
540.305	38862.79
540.67	38851.49
541.034	38957.25
541.399	39131.94
541.764	39270.69
542.129	39408.09
542.494	39417.58
542.858	39752.94
543.223	39775.08
543.587	39963.55
543.952	40020.95
544.316	40161.74
544.681	40190.21
545.045	40269.53
545.41	40637.21
545.774	40673.82
546.138	40683.31
546.503	40942.74
546.867	40907.03
547.231	41260.69
547.595	41446.23
547.959	41566.45
548.324	41730.96
548.688	41677.63
549.052	41810.51
549.416	41770.06
549.779	41901.58
550.143	42135.25
550.507	42305.87
550.871	42598.29
551.235	42492.53
551.599	42808.9
551.962	42870.37
552.326	42969.12
552.689	43200.08
553.053	42965.73
553.417	43179.06
553.78	43691.59
554.143	43579.28
554.507	43777.01
554.87	43905.37
555.234	44362.53
555.597	44070.79
555.96	44187.4
556.323	44616.99
556.686	44575.64
557.05	44899.7
557.413	44861.5
557.776	45134.94
558.139	45385.33
558.502	45388.95
558.865	45504.2
559.228	45712.1
559.59	45923.85
559.953	45872.78
560.316	46367.91
560.679	46296.49
561.041	46526.77
561.404	46588.46
561.767	46787.78
562.129	46678.41
562.492	47122.91
562.854	47068.23
563.217	47236.36
563.579	47423.92
563.941	47744.37
564.304	47831.6
564.666	48047.63
565.028	48208.99
565.39	48282.66
565.753	48441.52
566.115	48604.68
566.477	48705.7
566.839	48834.05
567.201	49087.61
567.563	49113.14
567.925	49334.15
568.287	49374.15
568.648	49466.58
569.01	49770.98
569.372	49786.8
569.734	49838.77
570.095	50108.82
570.457	50256.62
570.819	50297.75
571.18	50339.33
571.542	50659.09
571.903	50654.57
572.265	50868.35
572.626	50884.17
572.987	50939.31
573.349	51106.99
573.71	51205.29
574.071	51278.51
574.432	51404.83
574.794	51612.96
575.155	51568.67
575.516	51611.61
575.877	51829.46
576.238	51807.08
576.599	51960.75
576.96	51888.66
577.32	52009.56
577.681	52221.31
578.042	52244.36
578.403	52225.83
578.763	52308.09
579.124	52381.98
579.485	52482.09
579.845	52585.14
580.206	52440.97
580.566	52457.46
580.927	52687.51
581.287	52774.29
581.648	52662.43
582.008	52732.94
582.368	52768.87
582.728	52840.73
583.089	52857
583.449	52799.37
583.809	52954.62
584.169	53087.73
584.529	53002.31
584.889	53186.03
585.249	53040.05
585.609	52976.54
585.969	53188.74
586.329	53005.02
586.688	53143.09
587.048	53119.82
587.408	53148.07
587.768	53249.76
588.127	53249.08
588.487	53146.48
588.846	53364.78
589.206	53169.08
589.565	53266.25
589.925	53400.49
590.284	53231.68
590.643	53355.74
591.003	53416.31
591.362	53532.91
591.721	53433.71
592.08	53437.55
592.44	53502.86
592.799	53501.95
593.158	53539.24
593.517	53603.65
593.876	53660.59
594.235	53536.08
594.593	53568.17
594.952	53619.24
595.311	53588.05
595.67	53690.88
596.029	53855.84
596.387	53866.47
596.746	53926.12
597.104	53670.99
597.463	53795.73
597.822	53877.09
598.18	53710.54
598.538	53756.41
598.897	53921.38
599.255	53720.03
599.613	54092.9
599.972	53918.67
600.33	54055.84
600.688	53876.63
601.046	54051.09
601.404	54180.36
601.762	54119.34
602.12	54205.21
602.478	54307.13
602.836	54235.27
603.194	54081.37
603.552	54197.76
603.91	54089.28
604.268	54212.9
604.625	54173.35
604.983	54310.97
605.341	54235.27
605.698	54383.97
606.056	54401.14
606.413	54348.03
606.771	54432.55
607.128	54497.18
607.485	54331.54
607.843	54371.99
608.2	54494.47
608.557	54642.49
608.914	54468.71
609.272	54705.31
609.629	54690.62
609.986	54851.98
610.343	54602.26
610.7	54792.54
611.057	54733.11
611.414	54772.43
611.771	54796.84
612.127	55020.11
612.484	54835.71
612.841	55000.45
613.198	54860.79
613.554	54946.44
613.911	55059.2
614.267	55133.32
614.624	54996.83
614.98	55052.87
615.337	55205.19
615.693	55143.49
616.05	55057.62
616.406	55270.95
616.762	55196.37
617.118	55168.58
617.475	55229.14
617.831	55304.85
618.187	55307.11
618.543	55319.08
618.899	55461.68
619.255	55456.03
619.611	55404.5
619.967	55466.65
620.323	55481.56
620.678	55375.13
621.034	55296.03
621.39	55348.69
621.746	55270.04
622.101	55660.99
622.457	55418.06
622.812	55453.54
623.168	55451.73
623.523	55480.89
623.879	55604.72
624.234	55369.7
624.589	55454.45
624.945	55599.3
625.3	55500.77
625.655	55565.63
626.01	55495.8
626.365	55542.58
626.72	55508.23
627.075	55557.72
627.43	55478.85
627.785	55391.62
628.14	55559.53
628.495	55595.46
628.85	55451.96
629.205	55469.36
629.559	55562.24
629.914	55467.78
630.269	55506.2
630.623	55373.09
630.978	55374
631.332	55509.59
631.687	55545.97
632.041	55396.82
632.396	55540.55
632.75	55305.3
633.104	55377.16
633.459	55236.6
633.813	55308.91
634.167	55342.58
634.521	55310.72
634.875	55309.82
635.229	55284.05
635.583	55126.32
635.937	55173.78
636.291	55148.92
636.645	55147.79
636.999	55136.49
637.352	55176.26
637.706	55025.53
638.06	55235.02
638.413	55166.32
638.767	55005.42
639.121	55131.52
639.474	54959.77
639.828	55003.16
640.181	55051.07
640.534	55047
640.888	54964.74
641.241	54896.95
641.594	54931.07
641.947	54979.2
642.301	54846.1
642.654	54969.03
643.007	54886.1
643.36	54918.87
643.713	54833.45
644.066	54937.4
644.419	54703.05
644.771	54602.72
645.124	54336.06
645.477	54339.22
645.83	54088.15
646.182	54020.36
646.535	53962.73
646.888	54033.47
647.24	53898.78
647.593	54053.35
647.945	53929.06
648.298	53827.82
648.65	53794.38
649.002	53744.21
649.355	53820.82
649.707	53787.15
650.059	53940.14
650.411	54357.07
650.763	54332.22
651.115	54682.49
651.467	54550.06
651.819	54493.34
652.171	54417.86
652.523	54366.34
652.875	54375.38
653.227	54259.45
653.578	54496.5
653.93	54364.53
654.282	54292.89
654.633	54236.85
654.985	54240.92
655.337	54297.19
655.688	54245.44
656.039	54421.7
656.391	54173.12
656.742	54232.33
657.094	54294.93
657.445	54242.27
657.796	54259.68
658.147	54154.82
658.498	54252.67
658.849	54237.53
659.2	54204.31
659.551	54120.92
659.902	54212.22
660.253	54132.67
660.604	54207.47
660.955	53955.95
661.306	54118.44
661.656	54007.7
662.007	54065.56
662.358	54090.64
662.708	53993.02
663.059	54007.93
663.409	53837.77
663.76	54080.02
664.11	54030.98
664.461	54002.28
664.811	54020.59
665.161	54050.64
665.511	53898.1
665.862	53979.23
666.212	54045.22
666.562	54043.41
666.912	53943.75
667.262	53951.89
667.612	53975.16
667.962	53909.85
668.312	53811.33
668.662	54013.58
669.011	53772.46
669.361	53841.38
669.711	53757.99
670.06	53795.05
670.41	53705.11
670.76	53644.1
671.109	53790.08
671.459	53772.91
671.808	53676.41
672.157	53718.45
672.507	53523.88
672.856	53501.73
673.205	53536.98
673.554	53679.8
673.904	53529.98
674.253	53661.72
674.602	53591.67
674.951	53083.21
675.3	52952.36
675.649	53415.63
675.998	53412.92
676.346	53440.49
676.695	53429.64
677.044	53231
677.393	53333.6
677.741	53337.89
678.09	53225.13
678.438	53143.55
678.787	53166.6
679.135	53246.14
679.484	52924.12
679.832	53071.91
680.181	52845.25
680.529	52898.81
680.877	52890.22
681.225	52830.33
681.573	53042.53
681.922	52713.27
682.27	52589.89
682.618	52675.54
682.966	52483.45
683.314	52638.47
683.661	52514.64
684.009	52404.13
684.357	52299.73
684.705	52285.94
685.053	52285.49
685.4	52152.84
685.748	52070.58
686.095	52055.89
686.443	51914.65
686.79	51801.89
687.138	51883.24
687.485	51843.47
687.832	51775.45
688.18	51794.43
688.527	51530.48
688.874	51513.76
689.221	51444.61
689.568	51279.87
689.915	51238.96
690.262	51263.82
690.609	51051.17
690.956	51020.44
691.303	50992.64
691.65	50795.81
691.997	50835.58
692.344	50624.74
692.69	50502.03
693.037	50602.14
693.383	50216.84
693.73	50511.3
694.077	50212.1
694.423	50095.72
694.769	50027.24
695.116	50091.2
695.462	49889.17
695.808	49796.52
696.155	49839
696.501	49680.13
696.847	49566.24
697.193	49346.36
697.539	49495.73
697.885	49169.41
698.231	49114.73
698.577	49071.56
698.923	48953.83
699.269	48809.65
699.614	48642.87
699.96	48736.88
700.306	48604.46
700.651	48473.61
700.997	48334.41
701.342	48194.75
701.688	48228.87
702.033	48147.97
702.379	48175.54
702.724	48050.57
703.069	47997.47
703.415	47491.94
703.76	47601.54
704.105	47536.69
704.45	47422.79
704.795	47234.55
705.14	47098.96
705.485	47058.28
705.83	46995.23
706.175	46898.51
706.52	46787.1
706.865	46831.85
707.209	46696.94
707.554	46581.01
707.899	46615.81
708.243	46343.05
708.588	46358.41
708.932	46088.14
709.277	46174.92
709.621	46058.31
709.966	45868.94
710.31	45956.16
710.654	45590.75
710.998	45682.27
711.342	45688.6
711.687	45529.96
712.031	45376.52
712.375	45294.71
712.719	45309.4
713.063	45202.74
713.407	45345.56
713.75	45073.93
714.094	44967.94
714.438	44885.46
714.782	44816.99
715.125	44632.58
715.469	44749.19
715.812	44548.52
716.156	44278.47
716.499	44297
716.843	44480.72
717.186	44177.45
717.53	44350.56
717.873	44317.56
718.216	44180.84
718.559	44020.17
718.902	43773.85
719.246	43799.39
719.589	43741.53
719.932	43537.25
720.275	43632.84
720.617	43504.7
720.96	43412.5
721.303	43446.17
721.646	43394.88
721.989	43226.07
722.331	43206.41
722.674	43068.78
723.016	43282.79
723.359	43112.62
723.701	43070.82
724.044	42813.2
724.386	42579.3
724.729	42800.09
725.071	42716.02
725.413	42705.85
725.755	42584.5
726.097	42486.65
726.439	42284.17
726.782	42442.36
727.124	42461.57
727.465	42239.65
727.807	42224.74
728.149	42054.57
728.491	42011.64
728.833	42153.1
729.175	41927.57
729.516	41852.32
729.858	41806.67
730.199	41829.27
730.541	41751.53
730.882	41697.29
731.224	41684.64
731.565	41488.26
731.906	41571.42
732.248	41513.57
732.589	41441.71
732.93	41267.7
733.271	41246.01
733.612	41353.35
733.953	41307.02
734.294	41178.44
734.635	41027.93
734.976	41066.35
735.317	40875.17
735.658	40907.71
735.999	40849.41
736.339	40832.68
736.68	40885.79
737.021	40639.24
737.361	40582.75
737.702	40808.28
738.042	40533.71
738.383	40543.65
738.723	40577.1
739.063	40382.07
739.404	40522.18
739.744	40393.82
740.084	40097.56
740.424	40154.06
740.764	40088.52
741.104	40247.39
741.444	39953.38
741.784	39917.45
742.124	40019.37
742.464	39942.31
742.804	39902.31
743.143	39750
743.483	39648.31
743.823	39564.24
744.162	39531.47
744.502	39599.5
744.841	39461.65
745.181	39583.9
745.52	39404.92
745.86	39423.45
746.199	39299.62
746.538	39191.14
746.877	39253.97
747.216	39269.79
747.556	39102.11
747.895	39076.8
748.234	38817.82
748.573	38792.96
748.911	38783.25
749.25	38820.08
749.589	38625.28
749.928	38637.94
750.267	38743.7
750.605	38631.84
750.944	38422.35
751.283	38394.1
751.621	38388.91
751.96	38159.99
752.298	38116.6
752.636	38296.03
752.975	38076.6
753.313	37857.85
753.651	38107.11
753.989	37797.51
754.327	37795.7
754.666	37507.8
755.004	37739.66
755.342	37752.31
755.679	37566.1
756.017	37308.48
756.355	37538.76
756.693	37229.39
757.031	37328.37
757.368	37113.91
757.706	36953.24
758.044	36835.05
758.381	36983.07
758.719	36753.69
759.056	36801.15
759.394	36695.39
759.731	36374.27
760.068	36443.19
760.405	36253.37
760.743	36061.74
761.08	36082.3
761.417	35874.17
761.754	35915.75
762.091	35825.58
762.428	35727.96
762.765	35456.78
763.102	35617.23
763.438	35358.25
763.775	35165.04
764.112	35282.32
764.449	35328.42
764.785	35111.93
765.122	34830.81
765.458	34817.93
765.795	34771.37
766.131	34634.43
766.467	34586.75
766.804	34406.19
767.14	34158.51
767.476	34311.95
767.812	33982.02
768.148	34080.32
768.485	33878.29
768.821	33761
769.157	33730.72
769.492	33670.61
769.828	33589.48
770.164	33270.4
770.5	33217.74
770.836	33170.29
771.171	32883.06
771.507	32876.06
771.842	32697.08
772.178	32760.58
772.513	32705.67
772.849	32516.52
773.184	32500.25
773.519	32489.4
773.855	32115.17
774.19	32072.91
774.525	31909.75
774.86	32003.31
775.195	31789.76
775.53	31637.67
775.865	31548.86
776.2	31355.64
776.535	31177.8
776.87	31249.21
777.205	31045.37
777.539	30881.31
777.874	30927.63
778.209	30663.91
778.543	30644.25
778.878	30513.18
779.212	30411.94
779.547	30181.44
779.881	30326.52
780.215	30144.15
780.55	30245.62
780.884	29827.78
781.218	29869.13
781.552	29797.49
781.886	29661.45
782.22	29553.88
782.554	29416.49
782.888	29107.12
783.222	29105.53
783.556	28933.34
783.889	28929.27
784.223	28759.1
784.557	28753.45
784.89	28622.16
785.224	28437.98
785.557	28327.93
785.891	28189.4
786.224	28209.96
786.558	28226.46
786.891	28026.47
787.224	27835.29
787.557	27773.14
787.891	27688.4
788.224	27710.32
788.557	27678.68
788.89	27565.24
789.223	27376.09
789.556	27238.46
789.888	27224.68
790.221	27063.1
790.554	26881.19
790.887	26881.64
791.219	26908.53
791.552	26776.1
791.884	26623.11
792.217	26529.78
792.549	26375.66
792.882	26215.21
793.214	26211.6
793.546	26317.81
793.879	26035.78
794.211	25926.41
794.543	25934.32
794.875	25971.38
795.207	25882.34
795.539	25730.26
795.871	25683.93
796.203	25548.57
796.535	25411.62
796.867	25327.78
797.198	25204.62
797.53	25225.41
797.862	25004.4
798.193	25030.84
798.525	24834.69
798.856	25048.69
799.188	24629.04
799.519	24645.76
799.85	24511.53
800.182	24554.69
800.513	24447.35
800.844	24224.08
801.175	24426.11
801.506	24357.86
801.837	24106.34
802.168	24182.27
802.499	24045.33
802.83	23973.47
803.161	23858.44
803.491	23839.23
803.822	23827.25
804.153	23725.56
804.483	23458.9
804.814	23448.51
805.145	23522.86
805.475	23427.49
805.805	23335.74
806.136	23336.87
806.466	23216.65
806.796	23221.17
807.126	23006.71
807.457	22914.06
807.787	22961.74
808.117	22909.76
808.447	22796.1
808.777	22828.86
809.107	22688.08
809.436	22557.91
809.766	22575.54
810.096	22549.1
810.426	22438.59
810.755	22385.94
811.085	22410.57
811.414	22285.6
811.744	22186.85
812.073	22075.89
812.403	22086.06
812.732	21909.79
813.061	21961.32
813.39	21782.34
813.719	21806.29
814.049	21970.81
814.378	21700.98
814.707	21679.74
815.036	21607.2
815.365	21583.02
815.693	21397.49
816.022	21330.15
816.351	21293.76
816.68	21156.14
817.008	21290.6
817.337	21016.26
817.665	21042.24
817.994	21067.33
818.322	21123.37
818.651	21004.05
818.979	20894.68
819.307	20927.67
819.636	20860.78
819.964	20833.44
820.292	20807.9
820.62	20764.74
820.948	20732.19
821.276	20848.35
821.604	20723.16
821.932	20796.37
822.259	20795.7
822.587	20686.09
822.915	20579.66
823.243	20651.29
823.57	20647.23
823.898	20724.51
824.225	20546.66
824.553	20613.33
824.88	20640.45
825.207	20750.27
825.535	20602.48
825.862	20584.18
826.189	20531.97
826.516	20625.98
826.843	20692.87
827.17	20665.53
827.497	20696.94
827.824	20693.55
828.151	20648.58
828.478	20690.39
828.805	20703.72
829.131	20718.64
829.458	20539.88
829.785	20463.73
830.111	20515.93
830.438	20628.92
830.764	20574.91
831.09	20626.66
831.417	20475.7
831.743	20458.76
832.069	20513.44
832.395	20470.73
832.722	20394.58
833.048	20477.06
833.374	20381.92
833.7	20297.86
834.026	20321.58
834.351	20476.16
834.677	20419.43
835.003	20387.57
835.329	20204.53
835.654	20244.75
835.98	20195.49
836.306	20170.85
836.631	20128.37
836.956	20222.38
837.282	20116.84
837.607	20077.3
837.932	19914.59
838.258	19943.06
838.583	19954.36
838.908	19778.1
839.233	19898.09
839.558	19920.46
839.883	19749.62
840.208	19704.65
840.533	19699.68
840.858	19659.23
841.182	19713.01
841.507	19690.64
841.832	19558.44
842.156	19446.81
842.481	19532.68
842.805	19437.09
843.13	19432.34
843.454	19342.18
843.778	19321.84
844.103	19287.04
844.427	19225.12
844.751	19243.42
845.075	19184.67
845.399	19096.76
845.723	19026.48
846.047	18984.9
846.371	18745.13
846.695	18842.08
847.019	18712.36
847.343	18607.51
847.666	18581.97
847.99	18395.08
848.313	18442.76
848.637	18266.27
848.96	18318.25
849.284	18180.4
849.607	18132.72
849.931	18072.15
850.254	17901.99
850.577	17771.59
850.9	17723.01
851.223	17695.21
851.546	17569.79
851.869	17595.33
852.192	17594.42
852.515	17504.71
852.838	17366.41
853.161	17364.15
853.483	17380.42
853.806	17128.67
854.129	17166.19
854.451	17066.08
854.774	17005.97
855.096	16963.71
855.419	17001.9
855.741	16950.37
856.063	16836.25
856.385	16798.51
856.708	16765.07
857.03	16598.29
857.352	16595.35
857.674	16543.38
857.996	16477.17
858.318	16536.37
858.64	16396.72
858.961	16422.03
859.283	16255.93
859.605	16251.86
859.926	16315.36
860.248	16222.26
860.57	16137.51
860.891	16130.28
861.212	16108.14
861.534	16099.77
861.855	16048.25
862.176	16040.34
862.498	15913.79
862.819	15983.39
863.14	15888.93
863.461	15883.96
863.782	15868.14
864.103	15862.04
864.424	15749.05
864.745	15725.55
865.065	15682.38
865.386	15567.36
865.707	15585.44
866.027	15686.45
866.348	15565.55
866.668	15588.6
866.989	15522.84
867.309	15477.87
867.63	15397.19
867.95	15448.49
868.27	15285.78
868.59	15382.05
868.91	15314.26
869.23	15278.33
869.55	15257.76
869.87	15250.08
870.19	15206.01
870.51	15279.68
870.83	15280.59
871.15	15109.07
871.469	15154.71
871.789	15157.43
872.109	15101.83
872.428	14997.66
872.748	15092.57
873.067	14967.37
873.386	15070.42
873.706	14998.11
874.025	14981.39
874.344	14886.02
874.663	14967.15
874.982	14934.61
875.301	14864.78
875.62	14866.81
875.939	14677.66
876.258	14763.76
876.577	14698
876.896	14714.27
877.214	14646.93
877.533	14632.69
877.852	14564.9
878.17	14626.82
878.489	14693.71
878.807	14581.17
879.125	14502.75
879.444	14568.52
879.762	14468.63
880.08	14412.59
880.398	14367.16
880.716	14385.7
881.034	14373.94
881.352	14295.75
881.67	14287.39
881.988	14334.85
882.306	14287.62
882.624	14226.15
882.941	14193.38
883.259	14120.17
883.577	14102.99
883.894	14042.2
884.212	13967.85
884.529	14001.3
884.846	14111.13
885.164	13961.07
885.481	13891.7
885.798	13914.75
886.115	13773.06
886.432	13807.63
886.75	13823.9
887.067	13764.92
887.383	13741.42
887.7	13681.76
888.017	13653.29
888.334	13572.16
888.651	13637.92
888.967	13543.01
889.284	13508.43
889.6	13449
889.917	13364.25
890.233	13452.16
890.55	13372.61
890.866	13374.42
891.182	13265.72
891.498	13176.24
891.815	13190.92
892.131	13127.88
892.447	13116.35
892.763	13124.49
893.079	12969.69
893.395	12983.25
893.71	12842.68
894.026	12880.2
894.342	12879.97
894.657	12792.74
894.973	12718.39
895.289	12829.35
895.604	12741.44
895.92	12590.04
896.235	12616.25
896.55	12601.34
896.865	12565.4
897.181	12475.46
897.496	12532.64
897.811	12401.34
898.126	12418.06
898.441	12310.04
898.756	12226.66
899.071	12260.55
899.386	12240.44
899.7	12112.31
900.015	12134.91
900.33	11962.48
900.644	12021.69
900.959	11994.8
901.273	11913.67
901.588	11883.39
901.902	11840.68
902.216	11831.19
902.531	11743.28
902.845	11701.92
903.159	11566.11
903.473	11584.86
903.787	11509.16
904.101	11469.84
904.415	11446.11
904.729	11449.28
905.042	11416.73
905.356	11362.27
905.67	11276.4
905.984	11262.39
906.297	11231.43
906.611	11163.18
906.924	11139.23
907.237	11089.96
907.551	11039.57
907.864	10991.43
908.177	10928.16
908.491	10941.72
908.804	10824.66
909.117	10801.38
909.43	10803.87
909.743	10718.45
910.056	10734.94
910.368	10712.35
910.681	10548.28
910.994	10588.28
911.307	10480.26
911.619	10450.21
911.932	10437.1
912.244	10341.28
912.557	10295.18
912.869	10251.34
913.181	10269.42
913.494	10205.69
913.806	10115.75
914.118	10121.85
914.43	9980.16
914.742	10059.93
915.054	9979.03
915.366	9998.69
915.678	9938.35
915.99	9874.85
916.302	9835.31
916.613	9810
916.925	9747.17
917.236	9782.2
917.548	9722.09
917.859	9640.28
918.171	9488.42
918.482	9548.31
918.794	9522.77
919.105	9449.1
919.416	9360.29
919.727	9417.24
920.038	9328.2
920.349	9330.01
920.66	9242.33
920.971	9214.53
921.282	9191.71
921.593	9120.97
921.903	9075.55
922.214	9055.21
922.525	8938.61
922.835	8953.3
923.146	8894.99
923.456	8898.83
923.767	8869.68
924.077	8879.17
924.387	8813.64
924.697	8690.25
925.008	8714.43
925.318	8697.94
925.628	8599.63
925.938	8550.82
926.248	8558.5
926.558	8484.16
926.867	8491.39
927.177	8469.47
927.487	8399.86
927.796	8294.78
928.106	8332.52
928.416	8260.43
928.725	8259.53
929.034	8184.73
929.344	8217.04
929.653	8198.06
929.962	8139.76
930.271	8034.68
930.581	8006.2
930.89	7941.57
931.199	7928.24
931.508	7939.76
931.817	7968.01
932.125	7860.22
932.434	7822.03
932.743	7793.33
933.051	7754.23
933.36	7763.27
933.669	7739.32
933.977	7612.09
934.286	7609.6
934.594	7509.49
934.902	7506.33
935.21	7498.42
935.519	7455.71
935.827	7495.48
936.135	7440.34
936.443	7358.54
936.751	7331.64
937.059	7318.99
937.367	7243.96
937.674	7278.31
937.982	7197.41
938.29	7139.78
938.597	7217.3
938.905	7083.97
939.213	7090.29
939.52	7065.89
939.827	7081.71
940.135	7047.58
940.442	6922.61
940.749	6942.5
941.056	6967.59
941.363	6869.28
941.67	6851.88
941.977	6846.01
942.284	6761.49
942.591	6746.57
942.898	6730.08
943.205	6690.08
943.511	6694.37
943.818	6631.55
944.125	6563.3
944.431	6534.6
944.738	6519.69
945.044	6523.98
945.35	6466.36
945.657	6425.23
945.963	6418.22
946.269	6387.71
946.575	6399.46
946.881	6316.08
947.187	6328.51
947.493	6236.3
947.799	6237.66
948.105	6243.08
948.41	6158.79
948.716	6161.73
949.022	6091.9
949.327	6121.05
949.633	6010.55
949.938	6069.08
950.244	6010.1
950.549	6009.42
950.854	5964
951.16	5936.43
951.465	5899.36
951.77	5893.26
952.075	5883.32
952.38	5838.58
952.685	5823.21
952.99	5757.67
953.294	5719.26
953.599	5737.34
953.904	5683.55
954.209	5678.13
954.513	5662.99
954.818	5596.32
955.122	5606.94
955.426	5596.77
955.731	5595.64
956.035	5521.52
956.339	5491.24
956.643	5512.93
956.948	5418.93
957.252	5381.86
957.556	5372.82
957.86	5388.42
958.163	5350.68
958.467	5341.64
958.771	5286.95
959.075	5303.67
959.378	5260.51
959.682	5233.85
959.985	5210.8
960.289	5193.17
960.592	5160.63
960.896	5150.23
961.199	5131.93
961.502	5047.18
961.805	5074.53
962.108	5045.6
962.411	5037.92
962.714	5003.79
963.017	4958.82
963.32	4955.43
963.623	4917.02
963.926	4967.19
964.228	4887.19
964.531	4877.92
964.833	4856
965.136	4779.17
965.438	4757.7
965.741	4766.51
966.043	4759.96
966.345	4692.62
966.648	4708.89
966.95	4659.4
967.252	4620.53
967.554	4623.24
967.856	4593.64
968.158	4598.83
968.46	4594.99
968.761	4597.93
969.063	4544.82
969.365	4503.7
969.666	4522.9
969.968	4452.62
970.269	4454.66
970.571	4428.22
970.872	4420.31
971.174	4416.92
971.475	4421.66
971.776	4370.14
972.077	4303.7
972.378	4330.82
972.679	4281.78
972.98	4279.29
973.281	4266.41
973.582	4281.78
973.883	4235.23
974.183	4230.71
974.484	4168.79
974.785	4166.75
975.085	4163.37
975.386	4149.81
975.686	4145.29
975.986	4108.45
976.287	4027.55
976.587	4037.94
976.887	4034.55
977.187	3953.2
977.487	4032.75
977.787	3979.87
978.087	3981.67
978.387	3930.83
978.687	3922.02
978.987	3902.81
979.286	3882.24
979.586	3867.1
979.885	3826.65
980.185	3831.4
980.484	3795.01
980.784	3838.18
981.083	3796.6
981.382	3767.44
981.682	3713.89
981.981	3700.33
982.28	3713.66
982.579	3681.57
982.878	3688.35
983.177	3630.05
983.475	3678.41
983.774	3632.76
984.073	3592.53
984.372	3597.73
984.67	3559.77
984.969	3574.45
985.267	3538.97
985.566	3538.75
985.864	3484.06
986.162	3522.93
986.461	3448.81
986.759	3456.49
987.057	3427.11
987.355	3397.28
987.653	3387.11
987.951	3434.12
988.249	3412.88
988.547	3360.9
988.844	3385.76
989.142	3338.98
989.44	3316.83
989.737	3274.12
990.035	3258.76
990.332	3250.62
990.63	3231.19
990.927	3212.43
991.224	3214.69
991.521	3211.75
991.819	3170.62
992.116	3187.12
992.413	3187.35
992.71	3180.79
993.006	3144.41
993.303	3118.19
993.6	3101.92
993.897	3071.19
994.193	3047.01
994.49	3056.95
994.787	3008.59
995.083	3007.92
995.379	3005.66
995.676	2980.12
995.972	2984.19
996.268	2946.9
996.565	2912.32
996.861	2884.3
997.157	2916.17
997.453	2899.67
997.749	2857.18
998.044	2834.81
998.34	2850.86
998.636	2833.46
998.932	2845.21
999.227	2783.06
999.523	2791.65
999.818	2734.93
1000.114	2763.18
1000.409	2776.06
1000.704	2759.11
1001	2711.65
1001.295	2689.05
1001.59	2697.64
1001.885	2677.75
1002.18	2668.94
1002.475	2620.81
1002.77	2601.15
1003.065	2596.17
1003.359	2602.5
1003.654	2615.61
1003.949	2581.71
1004.243	2561.83
1004.538	2513.01
1004.832	2511.66
1005.127	2520.92
1005.421	2467.36
1005.715	2485.9
1006.009	2491.09
1006.304	2464.2
1006.598	2424.43
1006.892	2432.34
1007.186	2449.51
1007.48	2394.6
1007.773	2382.62
1008.067	2361.6
1008.361	2336.75
1008.655	2338.33
1008.948	2292.45
1009.242	2296.75
1009.535	2253.13
1009.829	2296.75
1010.122	2267.14
1010.415	2261.72
1010.708	2242.74
1011.001	2229.18
1011.295	2218.33
1011.588	2207.26
1011.881	2181.72
1012.173	2197.09
1012.466	2145.11
1012.759	2156.86
1013.052	2153.7
1013.344	2108.5
1013.637	2114.15
1013.93	2087.26
1014.222	2082.74
1014.514	2067.15
1014.807	2042.97
1015.099	2036.19
1015.391	2017.66
1015.683	2037.77
1015.976	2021.95
1016.268	1975.4
1016.56	1970.43
1016.851	1937.21
1017.143	1952.8
1017.435	1953.48
1017.727	1915.06
1018.018	1911.67
1018.31	1911.9
1018.602	1880.26
1018.893	1882.75
1019.185	1866.7
1019.476	1849.53
1019.767	1834.61
1020.058	1804.11
1020.35	1806.59
1020.641	1790.32
1020.932	1798.46
1021.223	1758.68
1021.514	1771.34
1021.804	1759.36
1022.095	1734.95
1022.386	1734.05
1022.677	1724.56
1022.967	1688.63
1023.258	1687.95
1023.548	1681.85
1023.839	1669.87
1024.129	1674.17
1024.419	1642.53
1024.709	1629.42
1025	1607.27
1025.29	1604.11
1025.58	1614.51
1025.87	1597.78
1026.16	1577.67
1026.449	1565.92
1026.739	1530.89
1027.029	1558.01
1027.319	1527.05
1027.608	1512.81
1027.898	1512.36
1028.187	1485.47
1028.477	1476.88
1028.766	1472.81
1029.055	1446.37
1029.344	1458.35
1029.634	1454.06
1029.923	1447.5
1030.212	1445.24
1030.501	1452.48
1030.79	1416.54
1031.078	1419.03
1031.367	1387.17
1031.656	1365.92
1031.945	1365.92
1032.233	1389.88
1032.522	1354.85
1032.81	1342.65
1033.099	1332.93
1033.387	1334.96
1033.675	1322.99
1033.963	1281.41
1034.251	1296.32
1034.54	1294.97
1034.828	1266.27
1035.116	1274.4
1035.403	1258.13
1035.691	1259.26
1035.979	1246.38
1036.267	1250.9
1036.554	1248.87
1036.842	1209.77
1037.129	1221.97
1037.417	1204.12
1037.704	1183.1
1037.992	1209.54
1038.279	1180.84
1038.566	1177
1038.853	1177
1039.14	1177
