Data from white_poster_card_FLMS001491_00041.txt Node
Date: Wed Feb 08 11:51:33 GMT 2017
User: dcchb
Spectrometer: FLMS00149
Trigger mode: 0
Integration Time (sec): 2.000000E-2
Scans to average: 10
Electric dark correction enabled: true
Nonlinearity correction enabled: false
Boxcar width: 0
XAxis mode: Wavelengths
Number of Pixels in Spectrum: 2048
>>>>>Begin Spectral Data<<<<<
341.393	-6.26
341.776	-6.26
342.16	-6.26
342.543	-53.94
342.927	-69.53
343.31	-87.16
343.693	-61.4
344.077	-74.96
344.46	-40.38
344.843	-58.91
345.226	-52.13
345.61	-37.89
345.993	-12.81
346.376	-3.55
346.759	27.87
347.142	35.78
347.525	44.82
347.908	47.08
348.291	85.27
348.674	79.84
349.057	108.54
349.44	148.54
349.823	158.71
350.206	173.63
350.588	202.78
350.971	187.64
351.354	209.56
351.737	242.55
352.119	244.13
352.502	272.38
352.884	281.19
353.267	290.23
353.65	299.27
354.032	308.31
354.414	295.88
354.797	308.31
355.179	325.03
355.562	328.2
355.944	332.49
356.326	334.07
356.709	331.81
357.091	330.91
357.473	358.71
357.855	330.23
358.238	343.11
358.62	350.57
359.002	344.24
359.384	337.46
359.766	343.11
360.148	337.46
360.53	353.28
360.912	348.76
361.294	333.62
361.676	328.88
362.057	334.07
362.439	328.88
362.821	333.17
363.203	321.19
363.584	345.6
363.966	334.98
364.348	334.98
364.729	330.23
365.111	306.28
365.493	334.98
365.874	333.62
366.256	329.1
366.637	323
367.019	323.9
367.4	307.63
367.781	318.71
368.163	319.16
368.544	335.2
368.925	328.42
369.306	315.99
369.688	329.55
370.069	323
370.45	312.83
370.831	310.12
371.212	316.9
371.593	329.1
371.974	316.22
372.355	318.03
372.736	322.32
373.117	319.38
373.498	320.97
373.879	335.2
374.26	316.45
374.641	327.29
375.021	301.98
375.402	320.06
375.783	332.27
376.163	325.94
376.544	311.93
376.925	317.58
377.305	330.91
377.686	332.94
378.066	317.35
378.447	328.88
378.827	336.56
379.208	332.94
379.588	337.69
379.968	349.67
380.349	347.18
380.729	329.1
381.109	345.15
381.489	333.85
381.87	348.99
382.25	345.37
382.63	342.21
383.01	365.94
383.39	348.54
383.77	360.06
384.15	350.57
384.53	356.9
384.91	363.22
385.29	349.89
385.67	365.94
386.049	373.39
386.429	361.19
386.809	390.57
387.189	373.17
387.568	381.98
387.948	365.26
388.328	368.2
388.707	381.98
389.087	400.29
389.466	395.31
389.846	395.54
390.225	380.85
390.605	377.46
390.984	396.9
391.363	383.34
391.743	402.09
392.122	398.7
392.501	394.41
392.881	423.11
393.26	402.55
393.639	408.65
394.018	410.68
394.397	406.39
394.776	412.04
395.155	404.58
395.534	421.75
395.913	419.72
396.292	414.3
396.671	417.91
397.05	404.35
397.429	447.06
397.808	430.57
398.186	420.62
398.565	429.21
398.944	438.93
399.323	424.69
399.701	452.04
400.08	438.93
400.458	443.67
400.837	451.58
401.215	456.1
401.594	453.84
401.972	447.97
402.351	444.8
402.729	479.15
403.107	444.8
403.486	487.74
403.864	476.67
404.242	494.29
404.62	462.43
404.999	489.55
405.377	481.64
405.755	503.11
406.133	503.33
406.511	521.86
406.889	515.31
407.267	535.65
407.645	536.78
408.023	541.53
408.401	560.73
408.779	551.69
409.156	555.76
409.534	586.95
409.912	575.42
410.29	578.36
410.667	601.41
411.045	615.42
411.422	622.2
411.8	653.84
412.178	640.96
412.555	645.93
412.933	642.99
413.31	673.05
413.687	692.71
414.065	707.17
414.442	743.1
414.819	725.25
415.197	727.51
415.574	745.36
415.951	768.19
416.328	800.28
416.705	799.15
417.082	805.25
417.46	837.11
417.837	839.14
418.214	871.46
418.591	884.79
418.967	859.94
419.344	898.58
419.721	906.04
420.098	906.49
420.475	928.41
420.852	965.92
421.228	961.63
421.605	981.97
421.982	1012.02
422.358	1014.96
422.735	1061.96
423.111	1030.78
423.488	1061.96
423.864	1073.71
424.241	1087.73
424.617	1124.33
424.994	1106.71
425.37	1116.2
425.746	1135.86
426.123	1145.8
426.499	1144
426.875	1190.1
427.251	1181.73
427.627	1231
428.003	1215.18
428.379	1240.94
428.756	1254.5
429.132	1301.28
429.507	1315.97
429.883	1314.84
430.259	1313.71
430.635	1343.09
431.011	1358.9
431.387	1402.52
431.763	1434.84
432.138	1458.79
432.514	1480.94
432.89	1449.75
433.265	1487.26
433.641	1496.3
434.016	1547.6
434.392	1565.23
434.767	1595.96
435.143	1593.93
435.518	1613.14
435.894	1639.35
436.269	1684.55
436.644	1697.88
437.02	1653.59
437.395	1661.5
437.77	1726.35
438.145	1743.75
438.52	1775.39
438.895	1763.87
439.271	1777.65
439.646	1829.18
440.021	1862.85
440.395	1841.6
440.77	1838.21
441.145	1859.68
441.52	1882.73
441.895	1879.57
442.27	1908.72
442.645	1912.79
443.019	1939.45
443.394	1986.91
443.769	1966.35
444.143	1950.98
444.518	2012.22
444.892	1987.36
445.267	2013.13
445.641	2016.97
446.016	2079.79
446.39	2050.64
446.764	2054.48
447.139	2059
447.513	2087.93
447.887	2090.19
448.262	2097.42
448.636	2126.12
449.01	2149.39
449.384	2163.86
449.758	2166.12
450.132	2236.4
450.506	2244.98
450.88	2217.87
451.254	2259.45
451.628	2275.49
452.002	2294.7
452.376	2301.48
452.75	2359.56
453.123	2343.06
453.497	2390.06
453.871	2397.75
454.244	2432.1
454.618	2422.83
454.992	2508.25
455.365	2498.76
455.739	2567.69
456.112	2563.39
456.486	2610.85
456.859	2604.3
457.232	2646.55
457.606	2659.21
457.979	2670.28
458.352	2735.37
458.725	2764.74
459.099	2796.83
459.472	2860.79
459.845	2865.08
460.218	2886.55
460.591	2899.2
460.964	2928.58
461.337	2968.35
461.71	3023.49
462.083	3061.69
462.456	3072.31
462.829	3082.02
463.201	3130.38
463.574	3160.67
463.947	3194.11
464.32	3230.95
464.692	3330.38
465.065	3312.75
465.438	3383.71
465.81	3390.49
466.183	3437.49
466.555	3496.02
466.928	3502.8
467.3	3512.97
467.672	3608.11
468.045	3647.66
468.417	3646.53
468.789	3693.31
469.161	3740.54
469.534	3815.79
469.906	3903.02
470.278	3911.38
470.65	3917.03
471.022	4003.58
471.394	4121.77
471.766	4149.11
472.138	4186.85
472.51	4256.68
472.882	4343.46
473.253	4358.37
473.625	4416.9
473.997	4546.62
474.369	4570.12
474.74	4556.33
475.112	4675.65
475.484	4718.36
475.855	4830.9
476.227	4850.56
476.598	4982.09
476.97	5024.57
477.341	5107.73
477.713	5225.7
478.084	5253.49
478.455	5322.64
478.827	5434.28
479.198	5530.32
479.569	5560.6
479.94	5725.12
480.311	5744.1
480.682	5857.09
481.053	6017.77
481.424	6134.6
481.795	6107.93
482.166	6257.99
482.537	6305.89
482.908	6484.87
483.279	6519.22
483.65	6674.92
484.021	6798.54
484.391	6810.51
484.762	6913.79
485.133	7009.6
485.503	7045.99
485.874	7204.17
486.244	7326.88
486.615	7423.6
486.985	7529.82
487.356	7584.5
487.726	7692.07
488.097	7881.9
488.467	7896.59
488.837	8142
489.207	8234.88
489.578	8288.44
489.948	8278.95
490.318	8481.66
490.688	8478.27
491.058	8653.63
491.428	8706.51
491.798	8820.63
492.168	9037.8
492.538	9062.88
492.908	9086.39
493.278	9259.71
493.648	9343.78
494.017	9420.84
494.387	9534.06
494.757	9619.25
495.126	9689.76
495.496	9746.03
495.866	9782.64
496.235	9937.21
496.605	10042.29
496.974	10088.39
497.344	10216.07
497.713	10173.59
498.082	10251.33
498.452	10404.99
498.821	10466.91
499.19	10480.02
499.559	10641.15
499.928	10753.23
500.298	10785.1
500.667	10891.99
501.036	10934.25
501.405	10971.31
501.774	11049.72
502.143	11171.98
502.512	11198.65
502.88	11344.86
503.249	11321.13
503.618	11393.9
503.987	11478.64
504.356	11482.71
504.724	11660.78
505.093	11682.48
505.462	11749.59
505.83	11872.75
506.199	11938.74
506.567	12152.75
506.936	12087.66
507.304	12263.03
507.672	12304.38
508.041	12394.77
508.409	12537.82
508.777	12657.59
509.145	12732.39
509.514	12756.12
509.882	12846.51
510.25	12778.27
510.618	13029.56
510.986	12947.75
511.354	13170.12
511.722	13314.75
512.09	13411.47
512.458	13429.32
512.826	13560.39
513.193	13591.35
513.561	13594.74
513.929	13856.2
514.297	13862.53
514.664	14033.37
515.032	14119.93
515.4	14239.7
515.767	14286.7
516.135	14410.09
516.502	14262.97
516.869	14583.64
517.237	14721.72
517.604	14675.16
517.972	14834.26
518.339	15036.96
518.706	15035.83
519.073	15074.25
519.44	15235.15
519.808	15411.42
520.175	15395.15
520.542	15664.74
520.909	15652.99
521.276	15753.55
521.643	15914.91
522.009	16021.8
522.376	16131.4
522.743	16220.66
523.11	16523.48
523.477	16570.48
523.843	16687.54
524.21	16850.93
524.577	16998.49
524.943	17105.38
525.31	17158.04
525.676	17342.21
526.043	17411.14
526.409	17578.37
526.776	17832.6
527.142	17846.16
527.508	17904.68
527.874	18094.74
528.241	18219.03
528.607	18246.37
528.973	18401.85
529.339	18496.08
529.705	18645.46
530.071	18753.7
530.437	18958.89
530.803	19013.36
531.169	19096.29
531.535	19104.65
531.901	19214.71
532.267	19365.89
532.632	19375.61
532.998	19462.61
533.364	19725.2
533.73	19698.99
534.095	19841.81
534.461	19965.42
534.826	20050.84
535.192	20113.44
535.557	20254.23
535.923	20317.05
536.288	20371.74
536.653	20514.11
537.019	20466.43
537.384	20606.76
537.749	20686.76
538.114	20888.56
538.479	20750.94
538.845	20990.93
539.21	20956.58
539.575	21002.91
539.94	21216.24
540.305	21274.99
540.67	21258.72
541.034	21399.73
541.399	21441.54
541.764	21477.02
542.129	21562.22
542.494	21652.83
542.858	21768.99
543.223	21862.77
543.587	21970.34
543.952	21966.27
544.316	22089.89
544.681	22107.74
545.045	22290.56
545.41	22305.25
545.774	22358.13
546.138	22312.48
546.503	22494.17
546.867	22487.39
547.231	22731.68
547.595	22765.12
547.959	22968.96
548.324	22882.63
548.688	22902.29
549.052	23011.22
549.416	23089.18
549.779	23033.82
550.143	23241.04
550.507	23342.28
550.871	23460.92
551.235	23520.58
551.599	23617.98
551.962	23752.21
552.326	23787.92
552.689	23840.57
553.053	23836.73
553.417	23894.13
553.78	24255.93
554.143	24231.75
554.507	24419.09
554.87	24449.82
555.234	24712.64
555.597	24596.03
555.96	24729.82
556.323	24910.38
556.686	24785.86
557.05	25158.73
557.413	25164.83
557.776	25238.96
558.139	25413.64
558.502	25400.31
558.865	25427.42
559.228	25760.3
559.59	25840.52
559.953	25824.93
560.316	26146.73
560.679	26082.55
561.041	26351.24
561.404	26404.57
561.767	26661.29
562.129	26516.66
562.492	26904.67
562.854	26846.6
563.217	26853.38
563.579	26942.19
563.941	27140.6
564.304	27331.78
564.666	27398.9
565.028	27487.48
565.39	27613.58
565.753	27814.03
566.115	27877.98
566.477	27965.66
566.839	28017.64
567.201	28228.25
567.563	28230.51
567.925	28375.82
568.287	28430.28
568.648	28550.73
569.01	28675.47
569.372	28953.43
569.734	28747.34
570.095	29020.55
570.457	29041.11
570.819	29166.54
571.18	29300.32
571.542	29376.7
571.903	29385.96
572.265	29576.24
572.626	29603.36
572.987	29739.4
573.349	29855.1
573.71	29969.9
574.071	30045.16
574.432	29982.33
574.794	30213.06
575.155	30306.84
575.516	30161.31
575.877	30300.29
576.238	30296.45
576.599	30543
576.96	30516.56
577.32	30500.51
577.681	30778.7
578.042	30810.11
578.403	30711.81
578.763	30743.67
579.124	30797.23
579.485	30905.02
579.845	31038.8
580.206	30846.27
580.566	31015.75
580.927	31124.9
581.287	31139.82
581.648	30999.26
582.008	31249.87
582.368	31251.23
582.728	31321.05
583.089	31312.02
583.449	31191.34
583.809	31288.06
584.169	31380.71
584.529	31309.98
584.889	31553.14
585.249	31300.04
585.609	31278.8
585.969	31510.2
586.329	31226.37
586.688	31480.82
587.048	31455.06
587.408	31247.16
587.768	31305.24
588.127	31391.79
588.487	31461.16
588.846	31548.62
589.206	31329.87
589.565	31358.34
589.925	31495.74
590.284	31260.72
590.643	31542.52
591.003	31596.08
591.362	31650.76
591.721	31545.23
592.08	31633.82
592.44	31742.06
592.799	31681.95
593.158	31585.68
593.517	31521.73
593.876	31671.33
594.235	31405.57
594.593	31615.28
594.952	31570.54
595.311	31561.5
595.67	31737.99
596.029	31716.98
596.387	31778.22
596.746	31928.72
597.104	31738.22
597.463	31728.5
597.822	31762.63
598.18	31741.83
598.538	31711.78
598.897	31848.5
599.255	31688.95
599.613	32187.02
599.972	31888.95
600.33	32049.62
600.688	31787.71
601.046	32084.2
601.404	32253.69
601.762	32103.63
602.12	32280.8
602.478	32278.32
602.836	32325.77
603.194	32118.77
603.552	32162.39
603.91	32241.71
604.268	32217.08
604.625	32145.89
604.983	32225.44
605.341	32173.01
605.698	32306.11
606.056	32379.56
606.413	32240.8
606.771	32477.18
607.128	32477.63
607.485	32433.57
607.843	32534.81
608.2	32587.01
608.557	32697.97
608.914	32707.69
609.272	32769.38
609.629	32813.45
609.986	32808.02
610.343	32683.05
610.7	33001.24
611.057	32863.39
611.414	32824.52
611.771	32840.56
612.127	33062.7
612.484	33113.32
612.841	33231.97
613.198	33027.9
613.554	32998.52
613.911	33211.63
614.267	33151.06
614.624	33252.53
614.98	33132.98
615.337	33481.22
615.693	33286.43
616.05	33250.04
616.406	33435.35
616.762	33324.39
617.118	33346.09
617.475	33286.88
617.831	33526.19
618.187	33567.78
618.543	33585.63
618.899	33705.4
619.255	33628.34
619.611	33554.89
619.967	33782.46
620.323	33697.04
620.678	33508.12
621.034	33608
621.39	33645.97
621.746	33590.37
622.101	33993.3
622.457	33609.81
622.812	33844.38
623.168	33698.17
623.523	33757.6
623.879	33909.46
624.234	33653.87
624.589	33730.94
624.945	33768.22
625.3	33773.65
625.655	33694.1
626.01	33793.53
626.365	33799.63
626.72	33760.99
627.075	33695.68
627.43	33560.54
627.785	33641.67
628.14	33545.63
628.495	33705.4
628.85	33663.59
629.205	33588.11
629.559	33695.23
629.914	33525.52
630.269	33606.64
630.623	33488.68
630.978	33402.36
631.332	33575.46
631.687	33467.89
632.041	33477.83
632.396	33396.93
632.75	33310.38
633.104	33320.55
633.459	33326.2
633.813	33168.69
634.167	33248.91
634.521	33108.58
634.875	33202.81
635.229	33215.24
635.583	32971.18
635.937	32964.4
636.291	33025.64
636.645	33109.26
636.999	32818.42
637.352	32922.59
637.706	32721.92
638.06	32787.23
638.413	32716.27
638.767	32608.03
639.121	32624.98
639.474	32488.48
639.828	32553.11
640.181	32480.35
640.534	32532.1
640.888	32318.99
641.241	32291.65
641.594	32318.32
641.947	32439.44
642.301	32209.85
642.654	32334.14
643.007	32281.71
643.36	32199.22
643.713	32107.25
644.066	32244.19
644.419	32077.42
644.771	31821.83
645.124	31525.8
645.477	31461.16
645.83	31282.19
646.182	31243.09
646.535	31109.08
646.888	31121.74
647.24	30990.67
647.593	31109.76
647.945	31057.11
648.298	30969.2
648.65	30817.11
649.002	30738.7
649.355	30852.37
649.707	30753.16
650.059	30906.6
650.411	31300.72
650.763	31277.21
651.115	31681.05
651.467	31507.72
651.819	31537.09
652.171	31427.94
652.523	31412.58
652.875	31329.87
653.227	31255.29
653.578	31515.85
653.93	31356.08
654.282	31185.01
654.633	31106.82
654.985	31113.83
655.337	31039.71
655.688	31103.66
656.039	31163.09
656.391	30848.98
656.742	31062.3
657.094	31066.37
657.445	31122.42
657.796	30943.44
658.147	30895.3
658.498	30841.29
658.849	30874.29
659.2	30861.86
659.551	30785.48
659.902	30954.96
660.253	30821.86
660.604	30764.91
660.955	30700.51
661.306	30794.29
661.656	30695.08
662.007	30684.01
662.358	30716.78
662.708	30683.33
663.059	30528.08
663.409	30438.82
663.76	30615.54
664.11	30616.44
664.461	30604.01
664.811	30703.67
665.161	30520.17
665.511	30568.53
665.862	30498.7
666.212	30600.17
666.562	30504.35
666.912	30462.77
667.262	30470.68
667.612	30432.72
667.962	30391.14
668.312	30517.23
668.662	30571.7
669.011	30471.81
669.361	30546.16
669.711	30332.38
670.06	30404.24
670.41	30191.59
670.76	30084.48
671.109	30303.68
671.459	30156.34
671.808	30132.61
672.157	30295.32
672.507	30003.12
672.856	30012.16
673.205	30170.58
673.554	30170.12
673.904	30033.86
674.253	30258.94
674.602	30073.86
674.951	29747.54
675.3	29541.44
675.649	30006.06
675.998	29884.26
676.346	29978.49
676.695	30009.23
677.044	29827.31
677.393	29904.82
677.741	29917.02
678.09	29809
678.438	29664.38
678.787	29729.01
679.135	29847.2
679.484	29552.74
679.832	29729.46
680.181	29568.78
680.529	29547.77
680.877	29493.31
681.225	29485.85
681.573	29613.08
681.922	29443.82
682.27	29331.95
682.618	29339.86
682.966	29195.69
683.314	29221.68
683.661	29142.36
684.009	28937.84
684.357	28982.13
684.705	29042.24
685.053	28851.06
685.4	28878.18
685.748	28737.85
686.095	28742.59
686.443	28668.47
686.79	28653.33
687.138	28752.53
687.485	28634.57
687.832	28528.81
688.18	28536.5
688.527	28359.55
688.874	28339.21
689.221	28205.88
689.568	28235.26
689.915	28116.39
690.262	28138.54
690.609	28005.44
690.956	27911.88
691.303	27990.07
691.65	27773.8
691.997	27873.91
692.344	27739.45
692.69	27754.6
693.037	27692.22
693.383	27441.61
693.73	27575.62
694.077	27295.4
694.423	27354.15
694.769	27205.01
695.116	27119.58
695.462	27207.04
695.808	26981.28
696.155	27077.32
696.501	26905.58
696.847	26883.88
697.193	26614.29
697.539	26646.38
697.885	26584
698.231	26511.46
698.577	26465.82
698.923	26469.88
699.269	26333.39
699.614	26112.6
699.96	26167.07
700.306	26071.7
700.651	26000.06
700.997	25878.03
701.342	25958.94
701.688	25751.03
702.033	25631.49
702.379	25703.12
702.724	25668.77
703.069	25634.65
703.415	25326.18
703.76	25403.24
704.105	25450.47
704.45	25243.25
704.795	25229.24
705.14	25221.1
705.485	25108.11
705.83	24956.7
706.175	25001.9
706.52	24967.1
706.865	24928.45
707.209	24828.34
707.554	24761.68
707.899	24799.19
708.243	24601.68
708.588	24566.66
708.932	24394.46
709.277	24424.51
709.621	24393.1
709.966	24258.19
710.31	24391.97
710.654	24155.14
710.998	24094.58
711.342	24172.99
711.687	24161.7
712.031	24005.77
712.375	23893.91
712.719	23921.7
713.063	23868.14
713.407	23886.67
713.75	23703.63
714.094	23736.62
714.438	23576.4
714.782	23554.03
715.125	23460.24
715.469	23521.94
715.812	23331.89
716.156	23287.59
716.499	23234.71
716.843	23368.27
717.186	23167.6
717.53	23313.36
717.873	23229.52
718.216	23181.38
718.559	23036.08
718.902	22940.48
719.246	23084.21
719.589	22832.92
719.932	22823.88
720.275	22837.66
720.617	22685.58
720.96	22797.89
721.303	22832.92
721.646	22657.33
721.989	22558.57
722.331	22722.41
722.674	22570.32
723.016	22607.84
723.359	22560.83
723.701	22595.86
724.044	22368.75
724.386	22277
724.729	22321.29
725.071	22341.4
725.413	22269.54
725.755	22255.76
726.097	22080.39
726.439	22110.68
726.782	22102.77
727.124	22173.5
727.465	21983.45
727.807	22071.81
728.149	21879.95
728.491	21808.31
728.833	21833.62
729.175	21867.52
729.516	21718.82
729.858	21660.52
730.199	21739.61
730.541	21637.69
730.882	21711.59
731.224	21645.15
731.565	21480.86
731.906	21537.81
732.248	21481.99
732.589	21446.29
732.93	21401.09
733.271	21316.8
733.612	21440.41
733.953	21311.15
734.294	21123.58
734.635	21234.99
734.976	21303.92
735.317	21142.57
735.658	20984.83
735.999	21067.09
736.339	21084.94
736.68	21185.95
737.021	20987.77
737.361	20933.98
737.702	21123.36
738.042	20882.23
738.383	20916.36
738.723	20944.83
739.063	20713.42
739.404	20852.86
739.744	20876.58
740.084	20722.69
740.424	20668.91
740.764	20643.6
741.104	20761.33
741.444	20591.39
741.784	20637.72
742.124	20524.73
742.464	20634.78
742.804	20407.9
743.143	20470.94
743.483	20441.79
743.823	20430.27
744.162	20362.7
744.502	20451.51
744.841	20292.19
745.181	20221.01
745.52	20107.56
745.86	20317.05
746.199	20232.98
746.538	20093.55
746.877	20129.71
747.216	20218.52
747.556	19979.66
747.895	19985.76
748.234	19984.18
748.573	19915.48
748.911	19857.18
749.25	19818.98
749.589	19743.28
749.928	19854.69
750.267	19844.52
750.605	19754.81
750.944	19660.34
751.283	19606.33
751.621	19645.66
751.96	19577.86
752.298	19511.42
752.636	19498.77
752.975	19546.45
753.313	19355.27
753.651	19391.65
753.989	19269.85
754.327	19323.86
754.666	19118.89
755.004	19219.68
755.342	19215.84
755.679	19152.11
756.017	19186.68
756.355	19043.64
756.693	18991.66
757.031	19110.75
757.368	18873.7
757.706	18872.34
758.044	18845.68
758.381	18772.68
758.719	18647.94
759.056	18702.86
759.394	18620.6
759.731	18447.72
760.068	18476.65
760.405	18460.6
760.743	18280.27
761.08	18422.41
761.417	18264.68
761.754	18155.98
762.091	18107.17
762.428	18078.47
762.765	17953.27
763.102	18009.09
763.438	17898.13
763.775	17755.31
764.112	17889.54
764.449	17805.03
764.785	17741.3
765.122	17569.55
765.458	17540.85
765.795	17616.78
766.131	17497.46
766.467	17459.27
766.804	17333.85
767.14	17211.14
767.476	17298.15
767.812	17160.98
768.148	17178.38
768.485	17109.45
768.821	17030.58
769.157	17008.21
769.492	16960.08
769.828	16875.79
770.164	16712.4
770.5	16649.8
770.836	16716.69
771.171	16602.35
771.507	16604.83
771.842	16428.34
772.178	16394.44
772.513	16361.45
772.849	16312.86
773.184	16326.42
773.519	16231.06
773.855	16123.04
774.19	16088.01
774.525	15992.42
774.86	15962.59
775.195	16035.36
775.53	16009.59
775.865	15784.51
776.2	15784.97
776.535	15620
776.87	15647.12
777.205	15512.43
777.539	15514.69
777.874	15605.99
778.209	15345.43
778.543	15262.95
778.878	15269.27
779.212	15303.4
779.547	15171.42
779.881	15248.48
780.215	15142.27
780.55	15168.03
780.884	15022.95
781.218	15015.04
781.552	15002.16
781.886	14898.44
782.22	14815.73
782.554	14773.92
782.888	14673.81
783.222	14560.37
783.556	14533.7
783.889	14405.34
784.223	14476.75
784.557	14450.09
784.89	14341.16
785.224	14322.18
785.557	14210.77
785.891	14249.87
786.224	14165.8
786.558	14146.37
786.891	13983.43
787.224	13956.54
787.557	13961.74
787.891	13858.69
788.224	13862.53
788.557	13809.43
788.89	13778.47
789.223	13775.53
789.556	13683.1
789.888	13643.33
790.221	13580.96
790.554	13482.43
790.887	13427.51
791.219	13352.26
791.552	13341.41
791.884	13296.22
792.217	13324.24
792.549	13213.06
792.882	13154.98
793.214	13000.18
793.546	13099.61
793.879	13082.21
794.211	12907.75
794.543	12978.94
794.875	12856.23
795.207	12936
795.539	12827.53
795.871	12919.28
796.203	12738.72
796.535	12762.67
796.867	12669.57
797.198	12657.14
797.53	12583.69
797.862	12544.6
798.193	12643.35
798.525	12395
798.856	12465.05
799.188	12382.57
799.519	12336.7
799.85	12252.63
800.182	12272.29
800.513	12258.51
800.844	12070.94
801.175	12190.71
801.506	12185.51
801.837	12132.86
802.168	12012.18
802.499	11965.41
802.83	11974.22
803.161	11895.8
803.491	11946.42
803.822	11902.13
804.153	11848.8
804.483	11706.43
804.814	11767.67
805.145	11734
805.475	11697.84
805.805	11692.87
806.136	11688.12
806.466	11651.52
806.796	11627.11
807.126	11500.11
807.457	11494.68
807.787	11504.63
808.117	11485.19
808.447	11379.66
808.777	11428.47
809.107	11349.6
809.436	11363.16
809.766	11273.22
810.096	11290.4
810.426	11255.37
810.755	11163.84
811.085	11268.02
811.414	11093.79
811.744	11009.72
812.073	11041.59
812.403	11116.39
812.732	10968.6
813.061	10941.7
813.39	10903.29
813.719	10904.64
814.049	10919.56
814.378	10925.66
814.707	10838.43
815.036	10804.98
815.365	10828.49
815.693	10701.26
816.022	10690.86
816.351	10671.65
816.68	10584.65
817.008	10699
817.337	10529.74
817.665	10506.91
817.994	10599.79
818.322	10515.05
818.651	10431.89
818.979	10426.24
819.307	10503.52
819.636	10414.94
819.964	10347.14
820.292	10415.39
820.62	10413.81
820.948	10359.12
821.276	10385.56
821.604	10296.75
821.932	10424.2
822.259	10329.74
822.587	10315.96
822.915	10258.78
823.243	10414.71
823.57	10300.59
823.898	10381.49
824.225	10265.79
824.553	10255.39
824.88	10310.08
825.207	10286.81
825.535	10302.62
825.862	10325.45
826.189	10213.36
826.516	10297.65
826.843	10351.89
827.17	10282.51
827.497	10381.94
827.824	10338.78
828.151	10268.73
828.478	10260.37
828.805	10333.58
829.131	10235.96
829.458	10286.81
829.785	10225.79
830.111	10252.23
830.438	10304.66
830.764	10241.84
831.09	10309.4
831.417	10202.29
831.743	10279.35
832.069	10247.26
832.395	10197.32
832.722	10253.81
833.048	10171.78
833.374	10211.33
833.7	10170.88
834.026	10140.37
834.351	10201.16
834.677	10139.01
835.003	10183.08
835.329	10135.85
835.654	10166.36
835.98	10084.78
836.306	10153.02
836.631	10039.58
836.956	10068.05
837.282	10143.76
837.607	10047.26
837.932	9952.8
838.258	9990.32
838.583	9956.42
838.908	9913.26
839.233	9947.83
839.558	9920.04
839.883	9874.16
840.208	9839.59
840.533	9855.4
840.858	9885.91
841.182	9797.33
841.507	9826.25
841.832	9851.11
842.156	9790.55
842.481	9758.46
842.805	9725.01
843.13	9763.43
843.454	9678.69
843.778	9645.92
844.103	9707.16
844.427	9607.05
844.751	9629.87
845.075	9546.26
845.399	9497.67
845.723	9485.24
846.047	9509.88
846.371	9455.42
846.695	9394.63
847.019	9353.5
847.343	9334.97
847.666	9247.96
847.99	9233.95
848.313	9212.94
848.637	9172.26
848.96	9177.91
849.284	9181.98
849.607	9095.65
849.931	9038.7
850.254	8999.38
850.577	8945.82
850.9	8862.44
851.223	8878.48
851.546	8886.16
851.869	8808.88
852.192	8811.82
852.515	8744.02
852.838	8754.42
853.161	8715.32
853.483	8629.9
853.806	8634.42
854.129	8629.67
854.451	8544.48
854.774	8547.19
855.096	8575.21
855.419	8519.39
855.741	8538.6
856.063	8409.12
856.385	8420.64
856.708	8387.19
857.03	8348.55
857.352	8382.9
857.674	8362.34
857.996	8306.52
858.318	8242.57
858.64	8241.89
858.961	8235.79
859.283	8176.13
859.605	8208.22
859.926	8240.31
860.248	8154.88
860.57	8090.25
860.891	8153.08
861.212	8121.89
861.534	8067.43
861.855	8061.1
862.176	8068.11
862.498	8024.72
862.819	8037.15
863.14	8002.57
863.461	8025.62
863.782	7935.91
864.103	7916.47
864.424	7885.51
864.745	7872.18
865.065	7878.96
865.386	7848.9
865.707	7831.28
866.027	7878.73
866.348	7882.58
866.668	7765.29
866.989	7823.82
867.309	7777.27
867.63	7817.04
867.95	7820.66
868.27	7736.59
868.59	7731.84
868.91	7737.27
869.23	7738.4
869.55	7616.14
869.87	7733.43
870.19	7640.77
870.51	7727.1
870.83	7637.61
871.15	7598.51
871.469	7596.93
871.789	7607.33
872.109	7659.76
872.428	7533.66
872.748	7575.01
873.067	7541.12
873.386	7561.91
873.706	7534.11
874.025	7478.74
874.344	7495.69
874.663	7466.09
874.982	7414.34
875.301	7422.93
875.62	7416.37
875.939	7462.02
876.258	7411.18
876.577	7353.32
876.896	7420.44
877.214	7311.29
877.533	7346.32
877.852	7362.36
878.17	7349.93
878.489	7347.45
878.807	7332.08
879.125	7344.96
879.444	7318.97
879.762	7315.58
880.08	7290.73
880.398	7192.65
880.716	7249.6
881.034	7213.67
881.352	7266.77
881.67	7137.51
881.988	7188.58
882.306	7163.05
882.624	7108.36
882.941	7091.86
883.259	7086.66
883.577	7105.42
883.894	7087.12
884.212	7068.59
884.529	7018.19
884.846	6953.11
885.164	7016.38
885.481	7039.43
885.798	7013.9
886.115	6973.67
886.432	6933.45
886.75	6967.57
887.067	6981.36
887.383	6915.14
887.7	6900
888.017	6868.14
888.334	6887.8
888.651	6823.62
888.967	6825.65
889.284	6798.54
889.6	6758.31
889.917	6777.97
890.233	6705.21
890.55	6702.72
890.866	6728.93
891.182	6701.14
891.498	6663.62
891.815	6621.82
892.131	6617.75
892.447	6584.08
892.763	6585.66
893.079	6558.09
893.395	6520.13
893.71	6528.26
894.026	6506.34
894.342	6481.26
894.657	6457.75
894.973	6491.2
895.289	6436.06
895.604	6422.27
895.92	6375.72
896.235	6327.14
896.55	6321.71
896.865	6306.35
897.181	6300.47
897.496	6353.58
897.811	6302.28
898.126	6176.86
898.441	6217.31
898.756	6170.08
899.071	6159.46
899.386	6123.07
899.7	6106.8
900.015	6095.5
900.33	6062.74
900.644	6022.29
900.959	6013.92
901.273	6011.89
901.588	5994.72
901.902	5933.47
902.216	5946.35
902.531	5938.45
902.845	5939.8
903.159	5922.4
903.473	5861.16
903.787	5871.55
904.101	5760.6
904.415	5866.58
904.729	5844.21
905.042	5796.53
905.356	5763.08
905.67	5782.97
905.984	5741.39
906.297	5739.58
906.611	5644.44
906.924	5702.97
907.237	5645.12
907.551	5650.32
907.864	5567.83
908.177	5617.55
908.491	5566.25
908.804	5580.26
909.117	5560.83
909.43	5521.73
909.743	5517.44
910.056	5481.73
910.368	5439.25
910.681	5406.71
910.994	5387.27
911.307	5371.45
911.619	5359.93
911.932	5352.7
912.244	5337.11
912.557	5312.47
912.869	5234.51
913.181	5214.62
913.494	5237.9
913.806	5152.25
914.118	5182.53
914.43	5144.57
914.742	5152.7
915.054	5107.96
915.366	5075.42
915.678	5062.99
915.99	5053.5
916.302	5001.07
916.613	4992.71
916.925	4992.26
917.236	4990.67
917.548	4946.61
917.859	4936.21
918.171	4890.11
918.482	4841.07
918.794	4898.47
919.105	4880.62
919.416	4833.16
919.727	4765.6
920.038	4819.6
920.349	4767.18
920.66	4744.58
920.971	4776.67
921.282	4693.28
921.593	4649.67
921.903	4623
922.214	4679.95
922.525	4596.56
922.835	4643.11
923.146	4561.76
923.456	4582.55
923.767	4542.78
924.077	4578.26
924.387	4520.86
924.697	4521.76
925.008	4500.74
925.318	4480.4
925.628	4444.25
925.938	4472.5
926.248	4377.81
926.558	4390.69
926.867	4421.88
927.177	4323.8
927.487	4342.56
927.796	4350.92
928.106	4308.21
928.416	4319.73
928.725	4315.66
929.034	4235.89
929.344	4266.63
929.653	4252.61
929.962	4220.07
930.271	4178.27
930.581	4157.48
930.89	4178.49
931.199	4162.67
931.508	4119.74
931.817	4093.97
932.125	4094.88
932.434	4116.57
932.743	4074.09
933.051	4032.28
933.36	4036.57
933.669	4073.86
933.977	3965.62
934.286	4007.65
934.594	3957.25
934.902	3923.58
935.21	3941.66
935.519	3952.28
935.827	3897.6
936.135	3865.73
936.443	3886.97
936.751	3818.5
937.059	3863.47
937.367	3790.71
937.674	3839.29
937.982	3783.02
938.29	3767.66
938.597	3776.02
938.905	3743.93
939.213	3742.57
939.52	3678.84
939.827	3674.1
940.135	3704.15
940.442	3631.61
940.749	3614.89
941.056	3649.92
941.363	3598.85
941.67	3597.49
941.977	3572.63
942.284	3537.38
942.591	3559.3
942.898	3507.1
943.205	3523.14
943.511	3503.48
943.818	3483.14
944.125	3414.44
944.431	3449.7
944.738	3437.49
945.044	3481.79
945.35	3418.51
945.657	3380.77
945.963	3390.26
946.269	3345.29
946.575	3379.87
946.881	3362.02
947.187	3345.07
947.493	3298.74
947.799	3354.33
948.105	3279.53
948.41	3276.82
948.716	3271.62
949.022	3258.97
949.327	3233.43
949.633	3222.81
949.938	3228.01
950.244	3221.68
950.549	3188.46
950.854	3142.13
951.16	3172.64
951.465	3131.97
951.77	3169.48
952.075	3141.91
952.38	3126.77
952.685	3101.46
952.99	3084.06
953.294	3059.2
953.599	3048.13
953.904	2999.77
954.209	3030.5
954.513	3020.78
954.818	3020.33
955.122	2987.56
955.426	2976.04
955.731	2978.07
956.035	2957.51
956.339	2946.66
956.643	2936.49
956.948	2905.53
957.252	2930.84
957.556	2914.57
957.86	2895.36
958.163	2844.52
958.467	2834.8
958.771	2846.78
959.075	2817.62
959.378	2775.14
959.682	2823.27
959.985	2787.79
960.289	2827.79
960.592	2782.37
960.896	2793.67
961.199	2742.6
961.502	2751.18
961.805	2718.87
962.108	2694.46
962.411	2705.99
962.714	2680.23
963.017	2677.29
963.32	2676.84
963.623	2687.23
963.926	2651.98
964.228	2616.5
964.531	2627.8
964.833	2639.78
965.136	2588.48
965.438	2569.04
965.741	2595.26
966.043	2581.47
966.345	2550.29
966.648	2564.3
966.95	2565.43
967.252	2536.95
967.554	2548.48
967.856	2532.43
968.158	2465.77
968.46	2469.61
968.761	2475.03
969.063	2473.45
969.365	2491.3
969.666	2452.66
969.968	2441.14
970.269	2445.2
970.571	2471.64
970.872	2421.25
971.174	2369.73
971.475	2388.48
971.776	2394.36
972.077	2336.05
972.378	2404.98
972.679	2347.58
972.98	2351.2
973.281	2313.68
973.582	2342.16
973.883	2348.03
974.183	2326.56
974.484	2287.24
974.785	2275.72
975.085	2270.29
975.386	2314.81
975.686	2256.06
975.986	2250.18
976.287	2226.9
976.587	2228.71
976.887	2186.45
977.187	2200.92
977.487	2205.44
977.787	2172.44
978.087	2154.82
978.387	2162.27
978.687	2168.6
978.987	2165.89
979.286	2125.66
979.586	2151.88
979.885	2134.48
980.185	2133.57
980.484	2106.91
980.784	2067.81
981.083	2099.45
981.382	2069.39
981.682	2070.07
981.981	2081.15
982.28	2045.67
982.579	2071.43
982.878	2047.47
983.177	1993.24
983.475	2030.98
983.774	1999.57
984.073	1982.84
984.372	2007.02
984.67	1979
984.969	1980.58
985.267	1959.34
985.566	1966.12
985.864	1964.99
986.162	1985.33
986.461	1933.58
986.759	1946.69
987.057	1940.36
987.355	1904.2
987.653	1932.68
987.951	1903.07
988.249	1904.43
988.547	1910.53
988.844	1837.31
989.142	1882.28
989.44	1859.91
989.737	1880.02
990.035	1849.06
990.332	1800.93
990.63	1827.59
990.927	1835.73
991.224	1809.29
991.521	1811.32
991.819	1800.25
992.116	1802.51
992.413	1794.83
992.71	1755.96
993.006	1774.26
993.303	1779.91
993.6	1755.5
993.897	1749.4
994.193	1717.31
994.49	1753.7
994.787	1711.21
995.083	1746.24
995.379	1686.81
995.676	1695.17
995.972	1663.98
996.268	1670.54
996.565	1687.71
996.861	1628.95
997.157	1659.01
997.453	1639.35
997.749	1638.45
998.044	1628.73
998.34	1651.1
998.636	1602.06
998.932	1630.31
999.227	1616.53
999.523	1567.49
999.818	1584.44
1000.114	1594.83
1000.409	1571.78
1000.704	1538.56
1001	1573.59
1001.295	1536.75
1001.59	1561.84
1001.885	1560.03
1002.18	1533.59
1002.475	1530.2
1002.77	1506.25
1003.065	1511.44
1003.359	1503.76
1003.654	1498.79
1003.949	1486.81
1004.243	1470.99
1004.538	1465.12
1004.832	1480.03
1005.127	1456.76
1005.421	1438.68
1005.715	1445.91
1006.009	1414.27
1006.304	1405.68
1006.598	1416.3
1006.892	1429.64
1007.186	1391.22
1007.48	1401.39
1007.773	1391.22
1008.067	1374.05
1008.361	1356.65
1008.655	1367.49
1008.948	1348.96
1009.242	1362.07
1009.535	1373.82
1009.829	1381.73
1010.122	1323.88
1010.415	1336.08
1010.708	1306.25
1011.001	1318
1011.295	1288.85
1011.588	1300.83
1011.881	1287.27
1012.173	1278.68
1012.466	1265.8
1012.759	1251.34
1013.052	1287.72
1013.344	1254.95
1013.637	1240.94
1013.93	1246.82
1014.222	1221.51
1014.514	1231.9
1014.807	1226.48
1015.099	1205.91
1015.391	1221.73
1015.683	1197.1
1015.976	1184.45
1016.268	1195.97
1016.56	1175.18
1016.851	1164.33
1017.143	1158.23
1017.435	1207.95
1017.727	1156.2
1018.018	1157.78
1018.31	1139.25
1018.602	1143.54
1018.893	1129.53
1019.185	1132.7
1019.476	1112.58
1019.767	1109.87
1020.058	1104.45
1020.35	1097.89
1020.641	1082.3
1020.932	1095.86
1021.223	1099.48
1021.514	1075.75
1021.804	1037.78
1022.095	1065.58
1022.386	1041.4
1022.677	1070.55
1022.967	1043.21
1023.258	1040.04
1023.548	1024.22
1023.839	1035.07
1024.129	1019.03
1024.419	1030.33
1024.709	1019.93
1025	1009.99
1025.29	1007.5
1025.58	1004.79
1025.87	978.12
1026.16	985.36
1026.449	959.59
1026.739	983.1
1027.029	953.49
1027.319	972.93
1027.608	961.4
1027.898	930.22
1028.187	938.8
1028.477	911.91
1028.766	931.35
1029.055	933.38
1029.344	917.11
1029.634	907.39
1029.923	896.32
1030.212	887.5
1030.501	898.58
1030.79	884.12
1031.078	861.52
1031.367	869.88
1031.656	880.5
1031.945	895.87
1032.233	871.91
1032.522	868.52
1032.81	849.54
1033.099	828.75
1033.387	860.16
1033.675	855.19
1033.963	872.14
1034.251	832.59
1034.54	840.73
1034.828	806.38
1035.116	809.99
1035.403	833.72
1035.691	836.66
1035.979	792.14
1036.267	814.29
1036.554	819.03
1036.842	792.37
1037.129	770.9
1037.417	768.86
1037.704	780.62
1037.992	765.93
1038.279	774.97
1038.566	770.22
1038.853	770.22
1039.14	770.22
