Data from white_steel_sheet_FLMS001491_042.txt Node
Date: Tue Feb 07 10:57:54 GMT 2017
User: dcchb
Spectrometer: FLMS00149
Trigger mode: 0
Integration Time (sec): 2.000000E-2
Scans to average: 10
Electric dark correction enabled: true
Nonlinearity correction enabled: false
Boxcar width: 0
XAxis mode: Wavelengths
Number of Pixels in Spectrum: 2048
>>>>>Begin Spectral Data<<<<<
341.393	0.54
341.776	0.54
342.16	0.54
342.543	-64.55
342.927	-75.85
343.31	-60.48
343.693	-78.11
344.077	-58.9
344.46	-63.64
344.843	-48.95
345.226	-54.83
345.61	-37.43
345.993	-18.67
346.376	-7.6
346.759	13.19
347.142	23.13
347.525	51.38
347.908	43.25
348.291	88.44
348.674	109.91
349.057	99.29
349.44	129.35
349.823	138.84
350.206	179.97
350.588	181.32
350.971	194.43
351.354	232.17
351.737	249.8
352.119	262.68
352.502	268.33
352.884	263.58
353.267	288.21
353.65	290.7
354.032	306.07
354.414	314.65
354.797	315.78
355.179	315.1
355.562	337.03
355.944	354.65
356.326	331.6
356.709	331.15
357.091	322.56
357.473	311.04
357.855	342
358.238	348.55
358.62	332.96
359.002	335.44
359.384	358.95
359.766	348.32
360.148	356.01
360.53	361.21
360.912	340.87
361.294	357.36
361.676	323.01
362.057	353.75
362.439	332.28
362.821	342.9
363.203	342.45
363.584	338.15
363.966	342
364.348	324.6
364.729	361.43
365.111	325.95
365.493	339.96
365.874	336.12
366.256	321.88
366.637	307.65
367.019	328.44
367.4	332.96
367.781	326.4
368.163	319.62
368.544	321.66
368.925	329.12
369.306	337.93
369.688	320.98
370.069	329.79
370.45	322.56
370.831	336.12
371.212	318.72
371.593	319.62
371.974	332.73
372.355	345.39
372.736	321.21
373.117	329.79
373.498	346.06
373.879	336.35
374.26	323.24
374.641	335.44
375.021	314.88
375.402	344.48
375.783	351.94
376.163	339.28
376.544	356.01
376.925	348.55
377.305	367.53
377.686	339.74
378.066	332.51
378.447	369.57
378.827	343.13
379.208	346.52
379.588	344.26
379.968	371.37
380.349	370.92
380.729	354.43
381.109	355.1
381.489	372.28
381.87	358.27
382.25	364.14
382.63	374.99
383.01	375.89
383.39	361.88
383.77	352.17
384.15	381.32
384.53	369.79
384.91	390.81
385.29	391.71
385.67	402.56
386.049	392.84
386.429	394.88
386.809	378.61
387.189	379.51
387.568	397.36
387.948	405.05
388.328	399.85
388.707	407.76
389.087	421.09
389.466	434.88
389.846	422.67
390.225	403.46
390.605	432.62
390.984	412.73
391.363	443.01
391.743	430.81
392.122	425.16
392.501	445.27
392.881	450.47
393.26	449.11
393.639	457.47
394.018	447.3
394.397	480.3
394.776	466.97
395.155	463.8
395.534	457.25
395.913	480.3
396.292	483.91
396.671	476
397.05	472.39
397.429	476.68
397.808	519.62
398.186	514.87
398.565	522.56
398.944	536.57
399.323	530.69
399.701	538.15
400.08	535.66
400.458	529.56
400.837	575.44
401.215	567.08
401.594	569.11
401.972	554.19
402.351	563.23
402.729	604.81
403.107	578.6
403.486	619.96
403.864	601.65
404.242	618.6
404.62	655.66
404.999	637.13
405.377	634.42
405.755	677.13
406.133	657.02
406.511	655.43
406.889	680.97
407.267	705.38
407.645	695.66
408.023	715.77
408.401	739.5
408.779	733.4
409.156	760.97
409.534	737.92
409.912	763.23
410.29	768.88
410.667	804.81
411.045	829.89
411.422	819.95
411.8	814.75
412.178	833.06
412.555	853.62
412.933	836.22
413.31	864.92
413.687	868.76
414.065	909.21
414.442	874.19
414.819	925.48
415.197	923.68
415.574	946.95
415.951	954.64
416.328	943.79
416.705	981.53
417.082	978.36
417.46	981.3
417.837	997.35
418.214	992.6
418.591	999.15
418.967	1021.98
419.344	1036.22
419.721	1028.76
420.098	1026.05
420.475	1063.56
420.852	1076.44
421.228	1088.64
421.605	1104.46
421.982	1111.69
422.358	1125.7
422.735	1111.24
423.111	1146.04
423.488	1155.76
423.864	1154.86
424.241	1179.94
424.617	1200.28
424.994	1192.6
425.37	1204.35
425.746	1224.46
426.123	1231.24
426.499	1269.43
426.875	1271.69
427.251	1296.1
427.627	1317.79
428.003	1306.94
428.379	1334.74
428.756	1360.73
429.132	1376.09
429.507	1388.75
429.883	1391.01
430.259	1431.46
430.635	1455.41
431.011	1466.71
431.387	1477.11
431.763	1523.43
432.138	1523.89
432.514	1544
432.89	1564.56
433.265	1589.42
433.641	1591.46
434.016	1638.23
434.392	1610.21
434.767	1656.09
435.143	1686.14
435.518	1705.58
435.894	1707.61
436.269	1752.36
436.644	1779.25
437.02	1793.94
437.395	1771.34
437.77	1817.21
438.145	1830.09
438.52	1842.52
438.895	1849.3
439.271	1860.6
439.646	1920.03
440.021	1928.85
440.395	1938.79
440.77	1913.25
441.145	1950.77
441.52	1987.83
441.895	1973.82
442.27	2024.44
442.645	2052.46
443.019	2072.35
443.394	2049.3
443.769	2058.79
444.143	2047.49
444.518	2143.53
444.892	2101.72
445.267	2140.59
445.641	2126.58
446.016	2161.84
446.39	2182.17
446.764	2181.95
447.139	2190.31
447.513	2256.07
447.887	2239.35
448.262	2257.65
448.636	2285.67
449.01	2316.41
449.384	2336.52
449.758	2337.42
450.132	2347.14
450.506	2390.98
450.88	2404.54
451.254	2421.26
451.628	2403.64
452.002	2469.62
452.376	2497.65
452.75	2497.42
453.123	2535.61
453.497	2589.4
453.871	2576.06
454.244	2625.1
454.618	2657.19
454.992	2724.31
455.365	2683.4
455.739	2783.06
456.112	2803.63
456.486	2796.85
456.859	2830.97
457.232	2911.87
457.606	2874.81
457.979	2920.46
458.352	2979.44
458.725	2977.86
459.099	3055.6
459.472	3081.59
459.845	3132.21
460.218	3167.91
460.591	3193.67
460.964	3189.83
461.337	3303.5
461.71	3277.29
462.083	3338.3
462.456	3369.49
462.829	3409.71
463.201	3475.7
463.574	3477.06
463.947	3531.52
464.32	3590.72
464.692	3634.79
465.065	3648.35
465.438	3710.04
465.81	3752.53
466.183	3755.01
466.555	3866.42
466.928	3915.91
467.3	3873.43
467.672	3968.34
468.045	4048.57
468.417	4058.51
468.789	4087.21
469.161	4124.5
469.534	4187.09
469.906	4290.14
470.278	4327.88
470.65	4392.29
471.022	4453.75
471.394	4565.84
471.766	4565.39
472.138	4657.36
472.51	4697.59
472.882	4796.34
473.253	4860.75
473.625	4953.17
473.997	5019.84
474.369	5056.22
474.74	5065.71
475.112	5207.41
475.484	5262.77
475.855	5367.85
476.227	5408.98
476.598	5550
476.97	5577.79
477.341	5733.72
477.713	5794.96
478.084	5874.28
478.455	6018.91
478.827	6023.88
479.198	6225.01
479.569	6244.67
479.94	6344.32
480.311	6459.8
480.682	6619.35
481.053	6767.82
481.424	6876.74
481.795	6921.26
482.166	7055.49
482.537	7116.51
482.908	7212.55
483.279	7325.54
483.65	7496.84
484.021	7621.35
484.391	7719.2
484.762	7794
485.133	7861.35
485.503	8028.57
485.874	8187.89
486.244	8278.74
486.615	8367.32
486.985	8482.8
487.356	8614.1
487.726	8717.82
488.097	8923.69
488.467	8940.64
488.837	9134.31
489.207	9233.74
489.578	9404.36
489.948	9460.63
490.318	9590.12
490.688	9666.95
491.058	9840.5
491.428	9875.76
491.798	10001.86
492.168	10235.07
492.538	10292.7
492.908	10380.6
493.278	10560.26
493.648	10602.52
494.017	10674.38
494.387	10777.43
494.757	10845.22
495.126	11027.37
495.496	11048.83
495.866	11147.14
496.235	11279.11
496.605	11384.87
496.974	11424.19
497.344	11473.68
497.713	11649.5
498.082	11707.8
498.452	11887.46
498.821	11961.35
499.19	11939.43
499.559	12091.07
499.928	12215.36
500.298	12214.45
500.667	12427.1
501.036	12401.11
501.405	12441.11
501.774	12518.4
502.143	12635.23
502.512	12744.83
502.88	12928.11
503.249	12863.02
503.618	13055.33
503.987	13101.66
504.356	13080.42
504.724	13237.93
505.093	13324.93
505.462	13383.46
505.83	13522.67
506.199	13604.47
506.567	13771.7
506.936	13716.33
507.304	13971.47
507.672	14111.13
508.041	14089.21
508.409	14189.77
508.777	14363.32
509.145	14500.49
509.514	14526.93
509.882	14577.78
510.25	14669.98
510.618	14854.84
510.986	14903.42
511.354	15084.89
511.722	15227.25
512.09	15334.82
512.458	15304.54
512.826	15487.59
513.193	15522.39
513.561	15741.82
513.929	15669.28
514.297	15909.5
514.664	16067.91
515.032	16071.3
515.4	16227.91
515.767	16375.25
516.135	16503.61
516.502	16463.38
516.869	16805.07
517.237	16859.3
517.604	16765.29
517.972	17062.91
518.339	17156.24
518.706	17238.73
519.073	17319.63
519.44	17409.8
519.808	17596.01
520.175	17724.14
520.542	17936.34
520.909	18014.53
521.276	18028.54
521.643	18238.48
522.009	18419.94
522.376	18580.16
522.743	18627.17
523.11	18859.93
523.477	19114.38
523.843	19140.82
524.21	19425.34
524.577	19451.78
524.943	19635.27
525.31	19794.82
525.676	19901.48
526.043	20129.05
526.409	20089.05
526.776	20414.24
527.142	20472.77
527.508	20629.15
527.874	20652.42
528.241	20922.92
528.607	20986.65
528.973	21243.82
529.339	21221.9
529.705	21434.78
530.071	21636.58
530.437	21607.88
530.803	21796.12
531.169	21880.41
531.535	21871.6
531.901	22090.58
532.267	22177.58
532.632	22442.21
532.998	22462.32
533.364	22655.08
533.73	22671.58
534.095	22841.74
534.461	22855.08
534.826	23066.37
535.192	23200.6
535.557	23239.7
535.923	23306.14
536.288	23319.7
536.653	23467.04
537.019	23530.54
537.384	23673.36
537.749	23756.97
538.114	23862.51
538.479	23977.31
538.845	24094.59
539.21	24062.5
539.575	24266.79
539.94	24271.76
540.305	24376.62
540.67	24308.82
541.034	24550.63
541.399	24778.87
541.764	24771.18
542.129	24843.05
542.494	25017.96
542.858	24984.51
543.223	25016.83
543.587	25176.37
543.952	25314.45
544.316	25307.67
544.681	25246.88
545.045	25431.96
545.41	25634.44
545.774	25671.05
546.138	25695
546.503	25903.36
546.867	25799.18
547.231	26068.33
547.595	26053.86
547.959	26144.48
548.324	26205.05
548.688	26346.51
549.052	26493.85
549.416	26518.26
549.779	26533.17
550.143	26678.71
550.507	26819.72
550.871	26890.23
551.235	26944.69
551.599	27136.32
551.962	27069.2
552.326	27307.16
552.689	27390.55
553.053	27333.15
553.417	27357.11
553.78	27732.46
554.143	27728.62
554.507	27772.01
554.87	27863.98
555.234	28148.5
555.597	28059.46
555.96	28228.04
556.323	28389.17
556.686	28449.73
557.05	28556.17
557.413	28717.52
557.776	28810.17
558.139	29075.48
558.502	29126.1
558.865	29125.65
559.228	29328.35
559.59	29369.93
559.953	29409.03
560.316	29830.26
560.679	29797.95
561.041	29842.92
561.404	30162.68
561.767	30301.43
562.129	30219.4
562.492	30615.32
562.854	30556.12
563.217	30595.44
563.579	30715.66
563.941	30919.27
564.304	31040.4
564.666	31208.98
565.028	31262.09
565.39	31424.57
565.753	31489.65
566.115	31658.46
566.477	31776.42
566.839	31888.96
567.201	32110.2
567.563	32134.16
567.925	32219.8
568.287	32352.45
568.648	32417.31
569.01	32545.67
569.372	32735.72
569.734	32563.75
570.095	32942.04
570.457	33122.15
570.819	33089.16
571.18	33052.77
571.542	33239.89
571.903	33366.67
572.265	33545.19
572.626	33520.79
572.987	33621.12
573.349	33657.05
573.71	33872.64
574.071	34024.05
574.432	34050.04
574.794	34358.73
575.155	34185.63
575.516	34192.86
575.877	34234.21
576.238	34431.27
576.599	34544.94
576.96	34483.7
577.32	34620.19
577.681	34599.4
578.042	34767.08
578.403	34668.1
578.763	34628.1
579.124	34763.46
579.485	34911.48
579.845	35043.68
580.206	34770.92
580.566	34904.7
580.927	34982.67
581.287	35150.12
581.648	35013.18
582.008	35087.75
582.368	35114.42
582.728	35096.79
583.089	35127.07
583.449	34883.69
583.809	35190.35
584.169	35301.98
584.529	35021.99
584.889	35398.48
585.249	35128.2
585.609	35088.65
585.969	35308.53
586.329	35216.79
586.688	35248.2
587.048	35274.64
587.408	35080.97
587.768	35188.09
588.127	35060.63
588.487	35196.9
588.846	35462.2
589.206	35125.49
589.565	35250.23
589.925	35344.92
590.284	35320.29
590.643	35358.25
591.003	35321.19
591.362	35391.02
591.721	35271.02
592.08	35292.72
592.44	35438.25
592.799	35380.17
593.158	35257.69
593.517	35338.59
593.876	35374.07
594.235	35245.71
594.593	35241.19
594.952	35342.88
595.311	35382.88
595.67	35415.65
596.029	35603.44
596.387	35536.1
596.746	35584.46
597.104	35441.64
597.463	35490.68
597.822	35560.96
598.18	35468.53
598.538	35401.19
598.897	35627.85
599.255	35349.89
599.613	35743.33
599.972	35523.67
600.33	35729.54
600.688	35490.9
601.046	35588.53
601.404	35681.18
601.762	35504.91
602.12	35821.29
602.478	35650.9
602.836	35689.09
603.194	35645.02
603.552	35655.64
603.91	35677.11
604.268	35600.96
604.625	35633.27
604.983	35852.25
605.341	35685.25
605.698	35802.53
606.056	35917.11
606.413	35863.55
606.771	35953.04
607.128	36003.88
607.485	35880.72
607.843	35836.2
608.2	36053.83
608.557	36024.67
608.914	35969.08
609.272	36155.97
609.629	36282.52
609.986	36417.21
610.343	36073.26
610.7	36325.23
611.057	36377.43
611.414	36347.38
611.771	36304.44
612.127	36492.46
612.484	36546.69
612.841	36552.12
613.198	36591.89
613.554	36639.35
613.911	36711.21
614.267	36636.64
614.624	36658.56
614.98	36615.62
615.337	36852.9
615.693	36794.82
616.05	36683.19
616.406	36978.77
616.762	36929.28
617.118	36827.14
617.475	36946.68
617.831	37087.25
618.187	37100.13
618.543	37091.31
618.899	37320.69
619.255	37270.74
619.611	37102.84
619.967	37331.76
620.323	37415.6
620.678	37237.07
621.034	37117.75
621.39	37124.08
621.746	37075.27
622.101	37491.53
622.457	37186.68
622.812	37367.92
623.168	37418.99
623.523	37476.39
623.879	37389.61
624.234	37183.97
624.589	37359.78
624.945	37414.47
625.3	37444.52
625.655	37399.1
626.01	37480.68
626.365	37460.79
626.72	37340.35
627.075	37386.45
627.43	37343.96
627.785	37228.26
628.14	37328.59
628.495	37318.88
628.85	37298.31
629.205	37285.43
629.559	37437.74
629.914	37043.63
630.269	37247.69
630.623	37128.83
630.978	37103.52
631.332	37220.8
631.687	37233
632.041	36995.27
632.396	37145.77
632.75	36950.53
633.104	36993.69
633.459	36745.79
633.813	36712.11
634.167	36882.73
634.521	36770.64
634.875	36802.05
635.229	36737.88
635.583	36451.56
635.937	36468.28
636.291	36489.75
636.645	36539.24
636.999	36390.77
637.352	36587.15
637.706	36304.89
638.06	36510.54
638.413	36307.6
638.767	36198.23
639.121	36296.31
639.474	36082.98
639.828	36054.5
640.181	36108.51
640.534	36154.61
640.888	35926.6
641.241	35871.23
641.594	35986.26
641.947	35931.12
642.301	35782.65
642.654	35774.06
643.007	35839.82
643.36	35636.21
643.713	35598.92
644.066	35699.49
644.419	35513.73
644.771	35292.94
645.124	34954.87
645.477	34854.99
645.83	34580.87
646.182	34480.31
646.535	34410.03
646.888	34640.08
647.24	34259.52
647.593	34410.03
647.945	34322.12
648.298	34261.56
648.65	34389.24
649.002	34115.35
649.355	34097.49
649.707	34157.83
650.059	34230.6
650.411	34579.74
650.763	34658.61
651.115	34968.66
651.467	34953.52
651.819	34811.15
652.171	34717.36
652.523	34709.68
652.875	34804.82
653.227	34642.56
653.578	34746.52
653.93	34819.06
654.282	34544.04
654.633	34403.7
654.985	34587.42
655.337	34572.74
655.688	34569.8
656.039	34608.21
656.391	34264.95
656.742	34378.16
657.094	34411.38
657.445	34513.53
657.796	34443.02
658.147	34308.79
658.498	34357.6
658.849	34230.15
659.2	34164.16
659.551	33992.19
659.902	34170.94
660.253	34099.3
660.604	34098.17
660.955	33818.63
661.306	33985.41
661.656	33998.96
662.007	33819.76
662.358	33737.73
662.708	33870.61
663.059	33793.32
663.409	33572.31
663.76	33707.22
664.11	33762.36
664.461	33801.23
664.811	33647.79
665.161	33637.17
665.511	33463.84
665.862	33410.28
666.212	33582.03
666.562	33493.44
666.912	33285.54
667.262	33157.41
667.612	33121.02
667.962	33270.85
668.312	32958.09
668.662	33072.89
669.011	32943.4
669.361	32753.35
669.711	32668.38
670.06	32558.32
670.41	32532.11
670.76	32394.04
671.109	32539.79
671.459	32413.47
671.808	32385.45
672.157	32391.32
672.507	32089.86
672.856	31986.59
673.205	32031.11
673.554	32211.44
673.904	31963.99
674.253	32171.22
674.602	31959.92
674.951	31446.26
675.3	31210.56
675.649	31789.76
675.998	31825.24
676.346	31800.6
676.695	31874.27
677.044	31495.75
677.393	31731.68
677.741	31684.22
678.09	31660.04
678.438	31485.36
678.787	31627.28
679.135	31533.49
679.484	31369.66
679.832	31556.09
680.181	31257.12
680.529	31374.4
680.877	31401.74
681.225	31332.59
681.573	31459.6
681.922	31248.53
682.27	31273.61
682.618	31283.1
682.966	31358.58
683.314	31417.79
683.661	31299.37
684.009	31220.28
684.357	31167.63
684.705	31291.47
685.053	31288.53
685.4	31149.77
685.748	31116.78
686.095	31207.85
686.443	31176.67
686.79	31046.95
687.138	31158.59
687.485	31186.38
687.832	30965.82
688.18	31181.86
688.527	30977.58
688.874	31131.02
689.221	30972.15
689.568	31001.3
689.915	31063.45
690.262	30868.65
690.609	30892.61
690.956	30824.13
691.303	30840.86
691.65	30687.64
691.997	30633.63
692.344	30596.57
692.69	30592.27
693.037	30735.32
693.383	30386.4
693.73	30607.42
694.077	30432.5
694.423	30418.95
694.769	30366.29
695.116	30330.36
695.462	30303.69
695.808	30238.61
696.155	30223.47
696.501	30104.83
696.847	30138.05
697.193	29948.9
697.539	30064.6
697.885	29884.5
698.231	29789.36
698.577	29836.36
698.923	29872.07
699.269	29689.02
699.614	29493.32
699.96	29459.42
700.306	29420.78
700.651	29352.08
700.997	29297.39
701.342	29298.98
701.688	29156.38
702.033	29009.94
702.379	28991.19
702.724	28944.41
703.069	29016.72
703.415	28835.71
703.76	28541.48
704.105	28637.07
704.45	28517.53
704.795	28432.56
705.14	28448.6
705.485	28331.54
705.83	28219
706.175	28331.09
706.52	28142.4
706.865	28147.59
707.209	28080.25
707.554	28087.48
707.899	28047.48
708.243	27889.75
708.588	27888.39
708.932	27765
709.277	27587.61
709.621	27670.77
709.966	27488.18
710.31	27658.11
710.654	27405.01
710.998	27383.77
711.342	27392.58
711.687	27199.82
712.031	27249.99
712.375	27092.25
712.719	27195.75
713.063	27054.97
713.407	27129.54
713.75	26819.72
714.094	26916.21
714.438	26839.61
714.782	27034.4
715.125	26609.78
715.469	26837.12
715.812	26736.33
716.156	26431.25
716.499	26548.54
716.843	26533.85
717.186	26322.78
717.53	26500.4
717.873	26407.07
718.216	26375.44
718.559	26261.09
718.902	25997.37
719.246	26114.2
719.589	25979.97
719.932	25881.21
720.275	25873.3
720.617	25825.62
720.96	25856.35
721.303	25863.36
721.646	25887.77
721.989	25657.49
722.331	25762.57
722.674	25543.37
723.016	25643.93
723.359	25648
723.701	25640.99
724.044	25415.24
724.386	25344.5
724.729	25446.65
725.071	25393.09
725.413	25375.91
725.755	25319.42
726.097	25257.05
726.439	25168.01
726.782	25042.59
727.124	25212.53
727.465	25162.81
727.807	24963.5
728.149	24942.93
728.491	24921.46
728.833	24989.71
729.175	24851.63
729.516	24875.81
729.858	24695.48
730.199	24879.88
730.541	24732.54
730.882	24622.94
731.224	24825.65
731.565	24457.29
731.906	24596.27
732.248	24545.88
732.589	24344.76
732.93	24376.17
733.271	24293.01
733.612	24382.72
733.953	24417.52
734.294	24238.32
734.635	24278.99
734.976	24297.98
735.317	24096.63
735.658	24016.4
735.999	24047.81
736.339	24021.15
736.68	24007.14
737.021	23996.74
737.361	23811.89
737.702	24029.51
738.042	23809.18
738.383	23833.36
738.723	23852.11
739.063	23766.69
739.404	23766.24
739.744	23643.76
740.084	23665.45
740.424	23615.28
740.764	23535.96
741.104	23678.56
741.444	23519.69
741.784	23428.62
742.124	23460.48
742.464	23412.58
742.804	23450.09
743.143	23280.83
743.483	23274.28
743.823	23163.32
744.162	23257.1
744.502	23222.52
744.841	23130.32
745.181	23213.26
745.52	23041.29
745.86	23021.17
746.199	23081.74
746.538	22983.44
746.877	22964.68
747.216	22900.27
747.556	22862.76
747.895	22870.44
748.234	22829.09
748.573	22718.58
748.911	22708.41
749.25	22712.48
749.589	22625.25
749.928	22637.68
750.267	22628.42
750.605	22615.76
750.944	22384.13
751.283	22243.34
751.621	22471.58
751.96	22257.8
752.298	22185.26
752.636	22206.51
752.975	22143.23
753.313	22038.15
753.651	22107.53
753.989	22028.43
754.327	21939.39
754.666	21938.72
755.004	21823.24
755.342	21877.7
755.679	21906.63
756.017	21718.84
756.355	21835.22
756.693	21451.27
757.031	21620.08
757.368	21576.24
757.706	21449.01
758.044	21436.81
758.381	21409.69
758.719	21223.03
759.056	21389.8
759.394	21170.38
759.731	21159.53
760.068	21063.26
760.405	20964.28
760.743	20782.14
761.08	20962.25
761.417	20810.39
761.754	20766.32
762.091	20717.96
762.428	20647.68
762.765	20500.11
763.102	20576.72
763.438	20419.89
763.775	20330.85
764.112	20313
764.449	20226.22
764.785	20254.02
765.122	20069.16
765.458	20025.09
765.795	19894.48
766.131	19968.37
766.467	19820.58
766.804	19805.89
767.14	19718.66
767.476	19816.74
767.812	19557.99
768.148	19568.84
768.485	19488.61
768.821	19391.44
769.157	19362.29
769.492	19313.7
769.828	19395.28
770.164	19168.39
770.5	19202.07
770.836	19009.75
771.171	18930.89
771.507	18924.11
771.842	18793.94
772.178	18850.66
772.513	18704.9
772.849	18664
773.184	18507.39
773.519	18492.71
773.855	18451.8
774.19	18447.51
774.525	18322.99
774.86	18263.33
775.195	18201.41
775.53	18186.95
775.865	18005.04
776.2	17963.68
776.535	17813.4
776.87	17911.93
777.205	17827.19
777.539	17645.72
777.874	17732.95
778.209	17613.63
778.543	17518.95
778.878	17380.87
779.212	17389.23
779.547	17282.57
779.881	17406.63
780.215	17173.64
780.55	17256.35
780.884	17056.59
781.218	17000.54
781.552	17069.24
781.886	16940.43
782.22	16767.55
782.554	16853.65
782.888	16599.42
783.222	16512.87
783.556	16487.79
783.889	16497.5
784.223	16385.64
784.557	16296.15
784.89	16373.89
785.224	16271.3
785.557	16137.74
785.891	16107.46
786.224	16085.99
786.558	16088.48
786.891	15914.69
787.224	15908.82
787.557	15877.18
787.891	15724.87
788.224	15758.09
788.557	15767.35
788.89	15686
789.223	15678.77
789.556	15491.88
789.888	15494.37
790.221	15499.56
790.554	15306.57
790.887	15241.04
791.219	15293.92
791.552	15277.2
791.884	15155.39
792.217	15154.71
792.549	14984.1
792.882	14959.92
793.214	14856.42
793.546	14881.5
793.879	14806.48
794.211	14680.15
794.543	14777.55
794.875	14676.99
795.207	14719.25
795.539	14581.17
795.871	14658.68
796.203	14500.04
796.535	14436.54
796.867	14278.35
797.198	14327.84
797.53	14338.46
797.862	14164.68
798.193	14259.82
798.525	14155.19
798.856	14125.82
799.188	14074.97
799.519	13998.36
799.85	13884.69
800.182	13919.04
800.513	13925.14
800.844	13832.94
801.175	13823.22
801.506	13854.64
801.837	13759.27
802.168	13720.63
802.499	13726.96
802.83	13627.98
803.161	13525.83
803.491	13503.46
803.822	13502.55
804.153	13438.6
804.483	13329
804.814	13340.75
805.145	13293.97
805.475	13236.57
805.805	13274.99
806.136	13212.39
806.466	13189.79
806.796	13212.39
807.126	13041.78
807.457	13107.54
807.787	13008.1
808.117	13006.07
808.447	12928.56
808.777	13009.46
809.107	12839.07
809.436	12750.94
809.766	12855.11
810.096	12700.09
810.426	12616.7
810.755	12662.12
811.085	12709.58
811.414	12706.64
811.744	12519.53
812.073	12564.73
812.403	12439.98
812.732	12440.66
813.061	12448.35
813.39	12429.36
813.719	12332.64
814.049	12373.77
814.378	12416.71
814.707	12290.84
815.036	12275.47
815.365	12186.88
815.693	12054.91
816.022	12152.99
816.351	12099.43
816.68	12022.82
817.008	12066.43
817.337	11867.12
817.665	11879.55
817.994	11988.47
818.322	11913.9
818.651	11801.36
818.979	11766.78
819.307	11843.16
819.636	11748.48
819.964	11639.33
820.292	11735.14
820.62	11724.75
820.948	11648.14
821.276	11698.31
821.604	11716.39
821.932	11676.84
822.259	11792.54
822.587	11659.21
822.915	11635.49
823.243	11657.18
823.57	11638.42
823.898	11627.8
824.225	11628.93
824.553	11566.79
824.88	11684.3
825.207	11573.34
825.535	11620.34
825.862	11615.15
826.189	11490.63
826.516	11634.81
826.843	11683.85
827.17	11571.31
827.497	11656.73
827.824	11620.8
828.151	11654.69
828.478	11651.08
828.805	11674.58
829.131	11541.25
829.458	11522.72
829.785	11567.92
830.111	11609.5
830.438	11686.78
830.764	11494.02
831.09	11576.73
831.417	11475.26
831.743	11553
832.069	11564.98
832.395	11482.72
832.722	11491.08
833.048	11477.75
833.374	11458.77
833.7	11426.68
834.026	11397.75
834.351	11514.58
834.677	11470.29
835.003	11443.63
835.329	11458.99
835.654	11441.37
835.98	11400.91
836.306	11337.64
836.631	11342.61
836.956	11331.31
837.282	11355.27
837.607	11270.75
837.932	11246.12
838.258	11315.72
838.583	11274.82
838.908	11200.47
839.233	11298.77
839.558	11241.15
839.883	11223.29
840.208	11151.43
840.533	11155.05
840.858	11164.76
841.182	11176.74
841.507	11030.53
841.832	10977.2
842.156	10992.56
842.481	11029.85
842.805	10974.26
843.13	10969.97
843.454	10926.13
843.778	10855.17
844.103	10893.36
844.427	10793.93
844.751	10857.2
845.075	10787.82
845.399	10792.34
845.723	10715.74
846.047	10694.49
846.371	10655.85
846.695	10604.33
847.019	10552.8
847.343	10454.5
847.666	10483.2
847.99	10541.05
848.313	10416.08
848.637	10334.5
848.96	10345.58
849.284	10234.62
849.607	10210.21
849.931	10149.2
850.254	10139.93
850.577	10080.5
850.9	9971.12
851.223	10004.12
851.546	9941.74
851.869	9894.29
852.192	9904.23
852.515	9840.05
852.838	9785.14
853.161	9819.71
853.483	9760.28
853.806	9682.77
854.129	9677.34
854.451	9670.11
854.774	9616.1
855.096	9593.5
855.419	9610.23
855.741	9537.46
856.063	9442.77
856.385	9465.37
856.708	9448.42
857.03	9366.84
857.352	9412.49
857.674	9361.19
857.996	9334.08
858.318	9359.61
858.64	9226.51
858.961	9300.18
859.283	9253.63
859.605	9218.37
859.926	9140.86
860.248	9121.65
860.57	9164.36
860.891	9103.35
861.212	9056.57
861.534	9021.99
861.855	8996.68
862.176	8997.59
862.498	8976.35
862.819	9043.46
863.14	8959.17
863.461	8970.47
863.782	8880.3
864.103	8897.93
864.424	8852.73
864.745	8900.19
865.065	8873.75
865.386	8835.11
865.707	8840.08
866.027	8836.91
866.348	8777.48
866.668	8789.46
866.989	8758.05
867.309	8646.64
867.63	8705.17
867.95	8683.25
868.27	8624.04
868.59	8650.25
868.91	8610.03
869.23	8596.24
869.55	8591.95
869.87	8654.55
870.19	8597.37
870.51	8538.17
870.83	8534.1
871.15	8518.96
871.469	8516.25
871.789	8584.27
872.109	8520.31
872.428	8433.31
872.748	8508.34
873.067	8490.48
873.386	8491.84
873.706	8457.72
874.025	8361.22
874.344	8354.44
874.663	8419.52
874.982	8431.28
875.301	8445.96
875.62	8344.5
875.939	8358.28
876.258	8307.44
876.577	8300.43
876.896	8268.57
877.214	8307.89
877.533	8257.49
877.852	8261.34
878.17	8246.42
878.489	8210.26
878.807	8279.19
879.125	8227.21
879.444	8173.66
879.762	8172.98
880.08	8187.89
880.398	8096.37
880.716	8093.88
881.034	8076.26
881.352	8101.11
881.67	8051.62
881.988	8055.47
882.306	8059.31
882.624	8026.99
882.941	7971.63
883.259	8026.77
883.577	7941.8
883.894	7939.54
884.212	7924.4
884.529	7886.88
884.846	7931.18
885.164	7888.24
885.481	7884.85
885.798	7843.72
886.115	7794
886.432	7754.91
886.75	7738.19
887.067	7797.39
887.383	7705.64
887.7	7738.64
888.017	7664.06
888.334	7735.7
888.651	7644.86
888.967	7617.51
889.284	7597.85
889.6	7542.26
889.917	7554.91
890.233	7503.62
890.55	7560.34
890.866	7534.8
891.182	7478.08
891.498	7436.5
891.815	7433.34
892.131	7404.18
892.447	7374.58
892.763	7420.23
893.079	7311.76
893.395	7302.72
893.71	7291.42
894.026	7320.34
894.342	7263.17
894.657	7216.62
894.973	7214.81
895.289	7207.8
895.604	7216.39
895.92	7137.07
896.235	7094.14
896.55	7135.72
896.865	7075.38
897.181	7087.58
897.496	7031.76
897.811	7030.63
898.126	6947.92
898.441	6957.19
898.756	6940.69
899.071	6884.2
899.386	6895.72
899.7	6851.88
900.015	6787.02
900.33	6778.21
900.644	6821.15
900.959	6843.29
901.273	6722.85
901.588	6731.89
901.902	6642.85
902.216	6681.72
902.531	6662.73
902.845	6598.78
903.159	6565.56
903.473	6553.81
903.787	6585
904.101	6461.61
904.415	6549.07
904.729	6445.56
905.042	6434.72
905.356	6379.13
905.67	6433.36
905.984	6342.97
906.297	6318.11
906.611	6340.48
906.924	6315.4
907.237	6290.54
907.551	6259.81
907.864	6216.19
908.177	6230.2
908.491	6179.13
908.804	6153.82
909.117	6126.48
909.43	6083.09
909.743	6057.1
910.056	6117.44
910.368	6011.23
910.681	6040.83
910.994	5989.98
911.307	5973.94
911.619	5951.34
911.932	5936.43
912.244	5878.35
912.557	5820.04
912.869	5929.87
913.181	5828.18
913.494	5835.64
913.806	5778.92
914.118	5782.08
914.43	5710.44
914.742	5741.63
915.054	5740.72
915.366	5676.55
915.678	5624.8
915.99	5645.36
916.302	5550.9
916.613	5550.67
916.925	5551.58
917.236	5513.16
917.548	5530.79
917.859	5522.2
918.171	5484.46
918.482	5510.9
918.794	5431.13
919.105	5422.99
919.416	5332.6
919.727	5380.51
920.038	5321.07
920.349	5282.88
920.66	5251.02
920.971	5260.51
921.282	5273.17
921.593	5209.67
921.903	5187.52
922.214	5156.11
922.525	5110.68
922.835	5091.93
923.146	5154.75
923.456	5104.58
923.767	5060.06
924.077	5060.52
924.387	5068.88
924.697	4981.2
925.008	4990.01
925.318	5001.99
925.628	4947.98
925.938	4950.92
926.248	4869.34
926.558	4875.44
926.867	4868.88
927.177	4892.61
927.487	4837.7
927.796	4793.63
928.106	4798.83
928.416	4743.24
928.725	4756.8
929.034	4715.89
929.344	4766.51
929.653	4677.7
929.962	4624.6
930.271	4621.21
930.581	4613.07
930.89	4564.26
931.199	4567.65
931.508	4584.6
931.817	4543.24
932.125	4500.31
932.434	4522.68
932.743	4489.68
933.051	4478.39
933.36	4410.14
933.669	4360.42
933.977	4394.32
934.286	4372.17
934.594	4359.97
934.902	4355.45
935.21	4325.85
935.519	4322.01
935.827	4313.87
936.135	4305.73
936.443	4226.87
936.751	4237.26
937.059	4227.54
937.367	4174.89
937.674	4171.05
937.982	4159.75
938.29	4159.52
938.597	4146.19
938.905	4081.79
939.213	4057.83
939.52	4098.28
939.827	4089.69
940.135	4019.87
940.442	4032.07
940.749	4046.98
941.056	4013.99
941.363	3959.75
941.67	3952.07
941.977	3926.99
942.284	3881.11
942.591	3915.01
942.898	3900.77
943.205	3909.81
943.511	3889.47
943.818	3856.71
944.125	3822.36
944.431	3821.68
944.738	3736.48
945.044	3796.14
945.35	3821.45
945.657	3711.85
945.963	3719.31
946.269	3683.6
946.575	3744.85
946.881	3662.81
947.187	3672.08
947.493	3639.09
947.799	3659.65
948.105	3637.05
948.41	3608.13
948.716	3585.75
949.022	3593.66
949.327	3574.68
949.633	3548.01
949.938	3531.07
950.244	3567.67
950.549	3500.33
950.854	3486.77
951.16	3434.12
951.465	3479.77
951.77	3435.93
952.075	3430.28
952.38	3394.57
952.685	3385.31
952.99	3326.1
953.294	3354.57
953.599	3327.45
953.904	3328.58
954.209	3278.64
954.513	3336.95
954.818	3274.8
955.122	3286.55
955.426	3269.83
955.731	3259.21
956.035	3228.93
956.339	3186.67
956.643	3203.39
956.948	3196.61
957.252	3178.08
957.556	3174.69
957.86	3132.88
958.163	3111.19
958.467	3083.62
958.771	3084.98
959.075	3093.56
959.378	3101.92
959.682	3079.55
959.985	3070.51
960.289	3053.56
960.592	3043.85
960.896	3010.18
961.199	3016.05
961.502	3025.09
961.805	2987.8
962.108	2935.37
962.411	2914.58
962.714	2934.92
963.017	2954.13
963.32	2937.63
963.623	2925.43
963.926	2895.38
964.228	2863.51
964.531	2913
964.833	2866.45
965.136	2849.05
965.438	2827.58
965.741	2824.87
966.043	2802.5
966.345	2814.93
966.648	2774.25
966.95	2739.9
967.252	2753.01
967.554	2770.41
967.856	2735.83
968.158	2724.76
968.46	2715.72
968.761	2722.95
969.063	2662.84
969.365	2691.09
969.666	2702.16
969.968	2694.25
970.269	2640.47
970.571	2611.99
970.872	2608.38
971.174	2636.63
971.475	2580.36
971.776	2581.26
972.077	2576.74
972.378	2569.51
972.679	2546.01
972.98	2557.31
973.281	2529.74
973.582	2495.16
973.883	2547.36
974.183	2488.83
974.484	2466.46
974.785	2450.87
975.085	2468.72
975.386	2491.09
975.686	2453.81
975.986	2384.88
976.287	2415.39
976.587	2399.8
976.887	2386.91
977.187	2409.29
977.487	2399.57
977.787	2386.69
978.087	2362.51
978.387	2339.91
978.687	2355.5
978.987	2339.46
979.286	2284.77
979.586	2310.53
979.885	2294.71
980.185	2291.32
980.484	2281.15
980.784	2273.7
981.083	2226.69
981.382	2259.23
981.682	2264.66
981.981	2255.17
982.28	2230.31
982.579	2217.2
982.878	2211.33
983.177	2176.52
983.475	2218.11
983.774	2172.01
984.073	2155.73
984.372	2157.99
984.67	2131.78
984.969	2118.9
985.267	2136.53
985.566	2129.29
985.864	2090.88
986.162	2090.65
986.461	2086.81
986.759	2071.22
987.057	2061.5
987.355	2053.14
987.653	2041.61
987.951	2041.84
988.249	2064.66
988.547	2035.74
988.844	2036.64
989.142	2011.78
989.44	2020.37
989.737	1972.91
990.035	1966.13
990.332	1962.97
990.63	1991.44
990.927	1973.82
991.224	1957.55
991.521	1921.62
991.819	1953.25
992.116	1916.64
992.413	1951.22
992.71	1889.98
993.006	1918.23
993.303	1910.32
993.6	1901.28
993.897	1858.34
994.193	1878.68
994.49	1830.32
994.787	1846.59
995.083	1808.4
995.379	1804.11
995.676	1823.77
995.972	1795.74
996.268	1828.74
996.565	1794.84
996.861	1802.52
997.157	1736.54
997.453	1769.53
997.749	1746.03
998.044	1743.09
998.34	1745.35
998.636	1742.64
998.932	1733.15
999.227	1740.15
999.523	1690.66
999.818	1721.85
1000.114	1717.1
1000.409	1708.29
1000.704	1702.19
1001	1649.76
1001.295	1674.62
1001.59	1619.7
1001.885	1628.52
1002.18	1635.52
1002.475	1646.6
1002.77	1637.78
1003.065	1608.18
1003.359	1601.85
1003.654	1566.6
1003.949	1600.49
1004.243	1565.24
1004.538	1596.2
1004.832	1525.24
1005.127	1549.2
1005.421	1546.26
1005.715	1501.29
1006.009	1532.25
1006.304	1517.33
1006.598	1486.15
1006.892	1502.42
1007.186	1509.88
1007.48	1506.94
1007.773	1489.09
1008.067	1479.59
1008.361	1470.33
1008.655	1461.52
1008.948	1453.38
1009.242	1441.63
1009.535	1424
1009.829	1404.34
1010.122	1433.95
1010.415	1406.6
1010.708	1419.71
1011.001	1381.97
1011.295	1396.43
1011.588	1398.69
1011.881	1383.33
1012.173	1354.17
1012.466	1344.91
1012.759	1368.64
1013.052	1355.76
1013.344	1322.54
1013.637	1317.79
1013.93	1305.36
1014.222	1325.47
1014.514	1316.66
1014.807	1279.6
1015.099	1268.3
1015.391	1280.96
1015.683	1285.25
1015.976	1295.42
1016.268	1258.13
1016.56	1269.66
1016.851	1232.82
1017.143	1200.51
1017.435	1218.58
1017.727	1218.36
1018.018	1219.71
1018.31	1208.64
1018.602	1203.89
1018.893	1200.96
1019.185	1212.48
1019.476	1192.6
1019.767	1168.19
1020.058	1184.91
1020.35	1135.65
1020.641	1133.84
1020.932	1160.51
1021.223	1137.23
1021.514	1140.62
1021.804	1121.41
1022.095	1103.11
1022.386	1109.66
1022.677	1067.85
1022.967	1086.38
1023.258	1080.96
1023.548	1087.74
1023.839	1087.97
1024.129	1054.07
1024.419	1071.02
1024.709	1055.42
1025	1064.92
1025.29	1032.15
1025.58	1049.77
1025.87	1035.99
1026.16	1038.02
1026.449	1011.13
1026.739	1007.97
1027.029	1032.37
1027.319	1015.65
1027.608	1023.11
1027.898	992.15
1028.187	998.25
1028.477	955.77
1028.766	974.75
1029.055	969.32
1029.344	960.96
1029.634	949.44
1029.923	931.59
1030.212	951.7
1030.501	977.01
1030.79	932.04
1031.078	918.03
1031.367	910.8
1031.656	905.37
1031.945	913.73
1032.233	921.19
1032.522	923
1032.81	915.54
1033.099	880.97
1033.387	872.6
1033.675	860.63
1033.963	878.48
1034.251	857.01
1034.54	875.77
1034.828	845.26
1035.116	853.62
1035.403	829.89
1035.691	825.15
1035.979	840.29
1036.267	832.38
1036.554	830.57
1036.842	831.25
1037.129	830.8
1037.417	814.75
1037.704	827.86
1037.992	803.23
1038.279	797.13
1038.566	790.12
1038.853	790.12
1039.14	790.12
