Data from white_poster_card_FLMS001491_00021.txt Node
Date: Wed Feb 08 11:51:16 GMT 2017
User: dcchb
Spectrometer: FLMS00149
Trigger mode: 0
Integration Time (sec): 2.000000E-2
Scans to average: 10
Electric dark correction enabled: true
Nonlinearity correction enabled: false
Boxcar width: 0
XAxis mode: Wavelengths
Number of Pixels in Spectrum: 2048
>>>>>Begin Spectral Data<<<<<
341.393	-4.18
341.776	-4.18
342.16	-4.18
342.543	-69.49
342.927	-80.34
343.31	-57.06
343.693	-61.58
344.077	-49.83
344.46	-69.26
344.843	-62.03
345.226	-55.93
345.61	-29.04
345.993	-27.23
346.376	-0.56
346.759	-6.67
347.142	21.36
347.525	41.92
347.908	64.07
348.291	92.31
348.674	94.8
349.057	104.74
349.44	122.6
349.823	143.84
350.206	173.22
350.588	200.11
350.971	188.58
351.354	235.14
351.737	254.8
352.119	243.72
352.502	233.33
352.884	294.12
353.267	281.46
353.65	280.78
354.032	295.47
354.414	320.78
354.797	332.31
355.179	310.16
355.562	317.84
355.944	330.73
356.326	353.1
356.709	333.89
357.091	329.37
357.473	335.7
357.855	343.38
358.238	335.92
358.62	336.83
359.002	329.14
359.384	338.41
359.766	319.43
360.148	345.64
360.53	357.84
360.912	339.31
361.294	336.6
361.676	331.4
362.057	313.55
362.439	330.73
362.821	309.48
363.203	308.58
363.584	322.82
363.966	335.92
364.348	329.6
364.729	326.66
365.111	346.32
365.493	324.85
365.874	317.39
366.256	312.65
366.637	338.18
367.019	303.83
367.4	305.19
367.781	309.26
368.163	315.13
368.544	300.22
368.925	319.43
369.306	332.08
369.688	313.1
370.069	299.31
370.45	317.17
370.831	325.3
371.212	327.79
371.593	332.53
371.974	309.71
372.355	317.84
372.736	333.66
373.117	318.3
373.498	332.08
373.879	318.75
374.26	319.65
374.641	327.34
375.021	312.87
375.402	318.97
375.783	330.5
376.163	335.7
376.544	327.11
376.925	322.59
377.305	320.1
377.686	339.54
378.066	326.88
378.447	329.14
378.827	318.07
379.208	328.01
379.588	331.18
379.968	334.34
380.349	330.05
380.729	347
381.109	349.48
381.489	333.89
381.87	359.43
382.25	333.89
382.63	361.01
383.01	341.8
383.39	346.54
383.77	340.89
384.15	348.8
384.53	345.41
384.91	371.4
385.29	370.27
385.67	344.96
386.049	362.14
386.429	342.7
386.809	375.47
387.189	345.87
387.568	364.85
387.948	365.75
388.328	374.11
388.707	376.6
389.087	363.72
389.466	362.14
389.846	369.82
390.225	382.93
390.605	371.18
390.984	384.96
391.363	368.24
391.743	391.74
392.122	369.37
392.501	381.57
392.881	377.05
393.26	376.15
393.639	404.17
394.018	399.88
394.397	411.4
394.776	401.23
395.155	402.81
395.534	409.37
395.913	411.63
396.292	428.58
396.671	424.06
397.05	409.37
397.429	411.4
397.808	410.05
398.186	419.76
398.565	439.88
398.944	430.16
399.323	408.24
399.701	421.8
400.08	427.67
400.458	440.33
400.837	415.02
401.215	453.89
401.594	447.33
401.972	449.59
402.351	435.36
402.729	464.51
403.107	463.38
403.486	429.93
403.864	468.8
404.242	461.8
404.62	469.48
404.999	466.09
405.377	487.11
405.755	479.42
406.133	486.2
406.511	488.46
406.889	509.7
407.267	504.05
407.645	516.26
408.023	520.1
408.401	539.76
408.779	535.92
409.156	534.11
409.534	535.92
409.912	559.19
410.29	570.95
410.667	589.25
411.045	587.89
411.422	590.38
411.8	625.41
412.178	598.97
412.555	623.83
412.933	637.84
413.31	654.33
413.687	672.41
414.065	666.99
414.442	668.57
414.819	692.3
415.197	733.88
415.574	733.65
415.951	748.57
416.328	740.66
416.705	764.16
417.082	771.17
417.46	785.4
417.837	815.91
418.214	818.17
418.591	845.29
418.967	837.83
419.344	862.01
419.721	869.02
420.098	889.36
420.475	903.59
420.852	886.64
421.228	949.69
421.605	939.75
421.982	962.35
422.358	999.41
422.735	993.08
423.111	989.69
423.488	1003.7
423.864	1019.07
424.241	1050.03
424.617	1059.29
424.994	1044.61
425.37	1076.02
425.746	1063.81
426.123	1095.23
426.499	1100.42
426.875	1099.75
427.251	1131.83
427.627	1123.02
428.003	1156.24
428.379	1194.88
428.756	1238.27
429.132	1250.93
429.507	1243.02
429.883	1261.77
430.259	1273.3
430.635	1287.54
431.011	1285.28
431.387	1323.47
431.763	1389
432.138	1366.4
432.514	1369.57
432.89	1410.92
433.265	1445.05
433.641	1465.39
434.016	1485.5
434.392	1490.92
434.767	1536.57
435.143	1486.18
435.518	1575.89
435.894	1537.93
436.269	1574.53
436.644	1627.19
437.02	1635.55
437.395	1608.66
437.77	1647.53
438.145	1667.19
438.52	1700.86
438.895	1669.67
439.271	1729.11
439.646	1729.56
440.021	1759.16
440.395	1760.97
440.77	1783.34
441.145	1765.94
441.52	1787.41
441.895	1799.61
442.27	1838.93
442.645	1807.52
443.019	1829.67
443.394	1851.82
443.769	1890.01
444.143	1869.67
444.518	1886.62
444.892	1878.03
445.267	1918.93
445.641	1919.61
446.016	1961.42
446.39	1945.6
446.764	1930.68
447.139	1989.44
447.513	1994.86
447.887	1973.39
448.262	2005.26
448.636	2000.96
449.01	2041.87
449.384	2066.73
449.758	2060.17
450.132	2105.59
450.506	2068.31
450.88	2113.96
451.254	2104.46
451.628	2126.16
452.002	2175.42
452.376	2192.6
452.75	2207.29
453.123	2241.86
453.497	2283.22
453.871	2250.68
454.244	2314.63
454.618	2322.09
454.992	2351.69
455.365	2359.6
455.739	2394.85
456.112	2441.63
456.486	2459.48
456.859	2505.81
457.232	2494.51
457.606	2500.61
457.979	2551.68
458.352	2632.59
458.725	2577.22
459.099	2647.5
459.472	2696.09
459.845	2699.48
460.218	2704.45
460.591	2755.97
460.964	2761.62
461.337	2782.64
461.71	2868.29
462.083	2920.94
462.456	2904.67
462.829	2908.74
463.201	2948.28
463.574	2985.35
463.947	3040.26
464.32	3097.66
464.692	3084.55
465.065	3103.76
465.438	3209.29
465.81	3216.98
466.183	3212.23
466.555	3331.55
466.928	3315.73
467.3	3324.09
467.672	3386.69
468.045	3451.77
468.417	3478.67
468.789	3552.11
469.161	3515.5
469.534	3588.04
469.906	3663.75
470.278	3714.82
470.65	3735.83
471.022	3821.48
471.394	3859.9
471.766	3896.96
472.138	3891.31
472.51	3995.04
472.882	4049.27
473.253	4114.36
473.625	4129.5
473.997	4222.15
474.369	4289.04
474.74	4320.9
475.112	4375.59
475.484	4447.45
475.855	4515.47
476.227	4532.2
476.598	4700.33
476.97	4715.7
477.341	4849.93
477.713	4877.5
478.084	4924.96
478.455	5081.34
478.827	5092.18
479.198	5244.49
479.569	5283.36
479.94	5302.12
480.311	5444.04
480.682	5536.46
481.053	5651.72
481.424	5743.24
481.795	5804.25
482.166	5799.73
482.537	5896
482.908	6060.07
483.279	6126.51
483.65	6227.75
484.021	6348.42
484.391	6432.49
484.762	6491.69
485.133	6587.28
485.503	6637.9
485.874	6765.36
486.244	6783.44
486.615	6971.46
486.985	6989.53
487.356	7154.95
487.726	7213.71
488.097	7359.92
488.467	7401.05
488.837	7517.43
489.207	7622.96
489.578	7703.64
489.948	7783.86
490.318	7930.3
490.688	8001.48
491.058	8131.65
491.428	8143.4
491.798	8291.19
492.168	8439.44
492.538	8470.62
492.908	8577.29
493.278	8703.61
493.648	8691.86
494.017	8770.96
494.387	8935.25
494.757	8984.06
495.126	9030.16
495.496	9146.31
495.866	9210.04
496.235	9278.51
496.605	9358.06
496.974	9450.49
497.344	9513.31
497.713	9610.71
498.082	9721.89
498.452	9815.22
498.821	9832.85
499.19	9880.53
499.559	9954.2
499.928	10011.38
500.298	10116.68
500.667	10246.85
501.036	10242.33
501.405	10278.71
501.774	10386.28
502.143	10414.3
502.512	10401.65
502.88	10643.9
503.249	10631.25
503.618	10730
503.987	10715.09
504.356	10779.49
504.724	10896.55
505.093	10987.17
505.462	11058.81
505.83	11102.42
506.199	11187.62
506.567	11341.96
506.936	11382.41
507.304	11560.71
507.672	11451.56
508.041	11612.24
508.409	11672.57
508.777	11781.95
509.145	11906.01
509.514	11927.03
509.882	12034.15
510.25	12097.42
510.618	12160.47
510.986	12216.06
511.354	12374.7
511.722	12452.21
512.09	12604.08
512.458	12566.79
512.826	12668.71
513.193	12750.29
513.561	12813.11
513.929	12990.51
514.297	13066.89
514.664	13202.48
515.032	13212.42
515.4	13375.58
515.767	13353.89
516.135	13451.96
516.502	13407.22
516.869	13728.79
517.237	13801.56
517.604	13756.81
517.972	13991.38
518.339	14006.98
518.706	14063.02
519.073	14170.59
519.44	14234.77
519.808	14428.21
520.175	14422.78
520.542	14672.95
520.909	14732.61
521.276	14795.2
521.643	14964.01
522.009	15038.14
522.376	15121.98
522.743	15220.05
523.11	15421.85
523.477	15554.28
523.843	15606.71
524.21	15704.78
524.577	16005.34
524.943	16163.3
525.31	16081.5
525.676	16273.58
526.043	16317.2
526.409	16521.26
526.776	16678.54
527.142	16694.82
527.508	16850.52
527.874	16985.2
528.241	16992.43
528.607	17127.35
528.973	17330.28
529.339	17333.67
529.705	17553.32
530.071	17619.31
530.437	17730.95
530.803	17823.83
531.169	17902.24
531.535	17949.92
531.901	18009.58
532.267	18205.96
532.632	18192.85
532.998	18339.97
533.364	18512.62
533.73	18466.07
534.095	18598.95
534.461	18711.71
534.826	18891.14
535.192	18884.14
535.557	19075.32
535.923	19067.18
536.288	19069.89
536.653	19238.93
537.019	19167.07
537.384	19301.98
537.749	19413.39
538.114	19465.36
538.479	19596.66
538.845	19600.05
539.21	19687.5
539.575	19732.48
539.94	19807.28
540.305	19935.63
540.67	19983.77
541.034	20021.06
541.399	20163.65
541.764	20250.43
542.129	20353.25
542.494	20351.22
542.858	20420.82
543.223	20570.19
543.587	20654.49
543.952	20588.95
544.316	20688.61
544.681	20726.57
545.045	20818.32
545.41	21016.96
545.774	21117.98
546.138	21148.71
546.503	21260.8
546.867	21228.26
547.231	21326.56
547.595	21418.76
547.959	21472.54
548.324	21484.97
548.688	21570.39
549.052	21710.95
549.416	21656.94
549.779	21773.33
550.143	21856.49
550.507	22068.91
550.871	22101.9
551.235	22075.24
551.599	22264.16
551.962	22322.01
552.326	22423.7
552.689	22552.29
553.053	22450.14
553.417	22541.44
553.78	22812.85
554.143	22775.79
554.507	22996.57
554.87	22962.9
555.234	23202.21
555.597	23022.33
555.96	23255.55
556.323	23389.33
556.686	23348.2
557.05	23651.02
557.413	23645.14
557.776	23719.49
558.139	23959.93
558.502	23900.05
558.865	23942.31
559.228	24156.54
559.59	24266.37
559.953	24297.1
560.316	24642.4
560.679	24475.4
561.041	24585.23
561.404	24902.96
561.767	24939.12
562.129	24910.64
562.492	25210.98
562.854	25154.48
563.217	25344.98
563.579	25423.85
563.941	25461.59
564.304	25657.07
564.666	25749.72
565.028	25921.01
565.39	25962.14
565.753	26178.86
566.115	26108.35
566.477	26191.29
566.839	26471.51
567.201	26453.88
567.563	26572.07
567.925	26813.19
568.287	26887.32
568.648	26884.83
569.01	27062.45
569.372	27270.81
569.734	27202.34
570.095	27346.06
570.457	27424.93
570.819	27498.15
571.18	27548.54
571.542	27682.77
571.903	27758.48
572.265	27942.88
572.626	28067.4
572.987	28051.8
573.349	28048.42
573.71	28155.76
574.071	28306.71
574.432	28447.05
574.794	28551.23
575.155	28511.91
575.516	28476.2
575.877	28527.5
576.238	28644.11
576.599	28711
576.96	28788.96
577.32	28733.82
577.681	28955.28
578.042	28921.39
578.403	29038.22
578.763	29016.3
579.124	29000.71
579.485	29306.46
579.845	29279.12
580.206	29241.38
580.566	29300.36
580.927	29382.62
581.287	29498.55
581.648	29211.55
582.008	29532.67
582.368	29377.65
582.728	29477.08
583.089	29432.33
583.449	29507.59
583.809	29494.93
584.169	29553.69
584.529	29448.38
584.889	29617.41
585.249	29457.42
585.609	29443.41
585.969	29717.07
586.329	29524.31
586.688	29676.39
587.048	29484.08
587.408	29515.72
587.768	29451.99
588.127	29510.3
588.487	29518.43
588.846	29745.09
589.206	29423.75
589.565	29590.75
589.925	29814.24
590.284	29566.79
590.643	29519.34
591.003	29727.92
591.362	29858.76
591.721	29702.38
592.08	29729.5
592.44	29809.72
592.799	29861.7
593.158	29783.96
593.517	29767.69
593.876	29848.82
594.235	29778.54
594.593	29902.6
594.952	29954.58
595.311	29810.18
595.67	29970.4
596.029	29961.59
596.387	30109.38
596.746	30135.37
597.104	29907.12
597.463	29962.94
597.822	30029.38
598.18	29941.92
598.538	29993.22
598.897	30112.54
599.255	29836.39
599.613	30219.66
599.972	30237.06
600.33	30313.89
600.688	30084.75
601.046	30179.21
601.404	30175.36
601.762	30297.62
602.12	30409.48
602.478	30338.75
602.836	30376.94
603.194	30239.54
603.552	30393.21
603.91	30339.2
604.268	30352.54
604.625	30230.05
604.983	30403.83
605.341	30198.87
605.698	30484.74
606.056	30564.96
606.413	30550.5
606.771	30644.05
607.128	30689.02
607.485	30566.77
607.843	30576.94
608.2	30814.67
608.557	30765.86
608.914	30690.15
609.272	30744.16
609.629	30964.04
609.986	30953.88
610.343	30905.06
610.7	31067.77
611.057	31105.96
611.414	30979.64
611.771	31006.3
612.127	31163.36
612.484	31116.36
612.841	31321.55
613.198	31037.26
613.554	31143.25
613.911	31451.94
614.267	31266.86
614.624	31292.85
614.98	31423.92
615.337	31539.85
615.693	31396.8
616.05	31304.83
616.406	31606.97
616.762	31436.12
617.118	31472.96
617.475	31515.67
617.831	31588.43
618.187	31530.36
618.543	31560.87
618.899	31766.06
619.255	31750.01
619.611	31710.69
619.967	31786.17
620.323	31809.45
620.678	31702.33
621.034	31659.17
621.39	31815.32
621.746	31639.06
622.101	32021.19
622.457	31674.08
622.812	31806.06
623.168	31671.82
623.523	31764.93
623.879	31867.3
624.234	31752.05
624.589	31894.19
624.945	31721.99
625.3	31807.41
625.655	31835.43
626.01	31748.66
626.365	31797.47
626.72	31825.04
627.075	31771.26
627.43	31804.93
627.785	31688.32
628.14	31730.35
628.495	31762.89
628.85	31730.13
629.205	31561.09
629.559	31822.78
629.914	31575.1
630.269	31620.07
630.623	31610.58
630.978	31489.23
631.332	31718.38
631.687	31667.08
632.041	31451.94
632.396	31396.12
632.75	31426.63
633.104	31459.62
633.459	31251.95
633.813	31342.34
634.167	31234.77
634.521	31325.17
634.875	31284.94
635.229	31300.08
635.583	31213.3
635.937	31050.6
636.291	31105.51
636.645	31182.12
636.999	30983.25
637.352	31008.11
637.706	30811.73
638.06	30952.97
638.413	30900.09
638.767	30863.26
639.121	30833.65
639.474	30586.2
639.828	30620.32
640.181	30663.94
640.534	30692.87
640.888	30582.59
641.241	30518.86
641.594	30425.53
641.947	30571.96
642.301	30577.61
642.654	30499.88
643.007	30313.89
643.36	30337.85
643.713	30342.82
644.066	30365.42
644.419	30205.19
644.771	30087.68
645.124	29796.84
645.477	29724.53
645.83	29447.7
646.182	29350.98
646.535	29410.19
646.888	29299.91
647.24	29173.13
647.593	29355.27
647.945	29197.09
648.298	28983.53
648.65	29121.16
649.002	28933.82
649.355	29028.95
649.707	28995.51
650.059	29159.35
650.411	29380.13
650.763	29515.5
651.115	29722.27
651.467	29617.87
651.819	29590.07
652.171	29620.13
652.523	29515.27
652.875	29437.76
653.227	29310.08
653.578	29536.74
653.93	29457.42
654.282	29340.36
654.633	29286.8
654.985	29356.18
655.337	29302.39
655.688	29283.41
656.039	29362.96
656.391	29101.04
656.742	29159.57
657.094	29206.58
657.445	29258.78
657.796	29204.99
658.147	29189.18
658.498	29056.98
658.849	29147.82
659.2	29143.08
659.551	29068.05
659.902	29162.51
660.253	29019.24
660.604	29005.68
660.955	28944.21
661.306	28976.07
661.656	28795.29
662.007	28857.89
662.358	28853.37
662.708	28871.9
663.059	28903.08
663.409	28759.13
663.76	28859.24
664.11	28795.74
664.461	28921.61
664.811	28824.89
665.161	28834.84
665.511	28672.81
665.862	28894.27
666.212	28808.4
666.562	28768.62
666.912	28668.51
667.262	28661.51
667.612	28644.33
667.962	28684.33
668.312	28582.19
668.662	28769.3
669.011	28601.39
669.361	28706.25
669.711	28463.32
670.06	28410.21
670.41	28444.56
670.76	28507.16
671.109	28550.32
671.459	28545.58
671.808	28501.51
672.157	28527.27
672.507	28253.16
672.856	28325.24
673.205	28413.83
673.554	28451.79
673.904	28128.19
674.253	28574.5
674.602	28315.3
674.951	27894.75
675.3	27676
675.649	28174.97
675.998	28159.82
676.346	28294.06
676.695	28377.67
677.044	28092.93
677.393	28249.99
677.741	28112.59
678.09	28086.83
678.438	28152.82
678.787	28034.86
679.135	28095.19
679.484	27875.99
679.832	27967.51
680.181	27766.84
680.529	27934.07
680.877	27848.19
681.225	27805.48
681.573	27920.96
681.922	27664.92
682.27	27571.59
682.618	27638.71
682.966	27597.35
683.314	27685.71
683.661	27546.06
684.009	27346.74
684.357	27473.29
684.705	27219.51
685.053	27331.82
685.4	27353.52
685.748	27110.36
686.095	27149
686.443	27153.52
686.79	26946.75
687.138	26989.23
687.485	27040.08
687.832	26897.94
688.18	26963.92
688.527	26720.54
688.874	26728.9
689.221	26741.78
689.568	26630.83
689.915	26450.49
690.262	26568
690.609	26356.48
690.956	26400.32
691.303	26297.5
691.65	26119.2
691.997	26205.3
692.344	26093.89
692.69	26036.26
693.037	26001.01
693.383	25787.01
693.73	25737.74
694.077	25760.34
694.423	25678.76
694.769	25608.03
695.116	25536.39
695.462	25451.42
695.808	25361.93
696.155	25469.95
696.501	25327.58
696.847	25284.42
697.193	25061.6
697.539	25202.39
697.885	24885.79
698.231	24854.83
698.577	24959.68
698.923	24875.84
699.269	24730.54
699.614	24662.06
699.96	24540.94
700.306	24545.46
700.651	24514.95
700.997	24361.28
701.342	24416.19
701.688	24349.3
702.033	24162.64
702.379	24215.3
702.724	24136.43
703.069	24127.61
703.415	23860.28
703.76	23841.97
704.105	23893.5
704.45	23847.17
704.795	23770.34
705.14	23609.66
705.485	23630.9
705.83	23434.07
706.175	23539.16
706.52	23393.62
706.865	23351.59
707.209	23345.94
707.554	23282.89
707.899	23249.67
708.243	23068.88
708.588	23120.86
708.932	22980.53
709.277	23057.13
709.621	23062.56
709.966	22813.07
710.31	22913.63
710.654	22765.62
710.998	22804.94
711.342	22716.35
711.687	22558.84
712.031	22548.9
712.375	22581.21
712.719	22587.77
713.063	22399.98
713.407	22550.25
713.75	22353.2
714.094	22314.33
714.438	22162.69
714.782	22277.49
715.125	22232.97
715.469	22154.11
715.812	22140.77
716.156	21945.75
716.499	21991.4
716.843	22000.66
717.186	21818.97
717.53	21942.13
717.873	21922.7
718.216	21856.94
718.559	21711.86
718.902	21627.11
719.246	21560.68
719.589	21548.02
719.932	21493.56
720.275	21484.52
720.617	21486.55
720.96	21309.84
721.303	21404.07
721.646	21418.76
721.989	21204.98
722.331	21260.57
722.674	21357.97
723.016	21209.27
723.359	21212.66
723.701	21162.49
724.044	20970.64
724.386	20953.46
724.729	21040.92
725.071	20995.49
725.413	20977.64
725.755	20906.46
726.097	20841.15
726.439	20734.26
726.782	20774.71
727.124	20851.99
727.465	20676.18
727.807	20616.52
728.149	20693.13
728.491	20534.71
728.833	20608.61
729.175	20576.52
729.516	20422.85
729.858	20470.99
730.199	20415.85
730.541	20357.09
730.882	20269.18
731.224	20424.89
731.565	20300.37
731.906	20289.75
732.248	20318.45
732.589	20158
732.93	20110.77
733.271	20106.7
733.612	20160.49
733.953	20094.95
734.294	20044.78
734.635	19934.28
734.976	20138.79
735.317	19856.09
735.658	19947.61
735.999	19851.12
736.339	19896.99
736.68	19912.13
737.021	19801.63
737.361	19854.05
737.702	19825.13
738.042	19759.14
738.383	19624.91
738.723	19653.61
739.063	19601.86
739.404	19556.21
739.744	19561.18
740.084	19518.02
740.424	19511.69
740.764	19461.3
741.104	19519.6
741.444	19375.65
741.784	19270.79
742.124	19353.28
742.464	19300.17
742.804	19323.45
743.143	19312.15
743.483	19247.52
743.823	19047.3
744.162	19118.25
744.502	19153.06
744.841	19079.61
745.181	19082.55
745.52	18933.63
745.86	18996.45
746.199	18952.38
746.538	18864.02
746.877	19043.45
747.216	18955.09
747.556	18824.02
747.895	18911.25
748.234	18777.25
748.573	18710.13
748.911	18718.94
749.25	18700.64
749.589	18544.94
749.928	18560.3
750.267	18636.91
750.605	18557.59
750.944	18498.16
751.283	18380.42
751.621	18446.86
751.96	18340.65
752.298	18333.19
752.636	18338.39
752.975	18188.56
753.313	18185.17
753.651	18279.63
753.989	18104.27
754.327	18153.99
754.666	18017.04
755.004	18011.84
755.342	17940.43
755.679	17947.21
756.017	17864.73
756.355	17903.37
756.693	17788.12
757.031	17793.54
757.368	17613.44
757.706	17711.51
758.044	17692.98
758.381	17706.77
758.719	17548.58
759.056	17562.36
759.394	17501.12
759.731	17385.87
760.068	17331.86
760.405	17298.64
760.743	17304.06
761.08	17281.24
761.417	17163.05
761.754	17090.51
762.091	17055.71
762.428	17029.27
762.765	16885.09
763.102	16984.07
763.438	16814.59
763.775	16798.09
764.112	16775.49
764.449	16812.33
764.785	16720.58
765.122	16595.83
765.458	16490.53
765.795	16524.88
766.131	16466.57
766.467	16397.2
766.804	16418.89
767.14	16255.73
767.476	16314.49
767.812	16215.96
768.148	16152.68
768.485	16107.49
768.821	16036.53
769.157	16012.35
769.492	15971.44
769.828	15925.8
770.164	15756.53
770.5	15765.12
770.836	15761.73
771.171	15604.22
771.507	15569.42
771.842	15510.89
772.178	15491.68
772.513	15394.06
772.849	15380.73
773.184	15306.6
773.519	15307.96
773.855	15230
774.19	15188.41
774.525	15178.92
774.86	15117.23
775.195	15057.57
775.53	15018.25
775.865	14921.98
776.2	14824.36
776.535	14626.62
776.87	14722.21
777.205	14654.87
777.539	14518.83
777.874	14552.95
778.209	14423.46
778.543	14472.27
778.878	14411.26
779.212	14351.15
779.547	14204.26
779.881	14300.08
780.215	14199.29
780.55	14198.16
780.884	14088.33
781.218	14054.88
781.552	14081.1
781.886	13977.6
782.22	13817.6
782.554	13864.16
782.888	13842.91
783.222	13633.43
783.556	13668.23
783.889	13592.07
784.223	13457.61
784.557	13470.72
784.89	13500.32
785.224	13556.82
785.557	13391.17
785.891	13320.21
786.224	13236.83
786.558	13311.18
786.891	13220.78
787.224	13101.01
787.557	13132.65
787.891	13152.31
788.224	13086.32
788.557	13078.64
788.89	12994.8
789.223	12985.76
789.556	12830.74
789.888	12756.61
790.221	12797.74
790.554	12684.07
790.887	12599.1
791.219	12608.37
791.552	12604.75
791.884	12564.53
792.217	12476.4
792.549	12454.47
792.882	12416.28
793.214	12339.68
793.546	12340.35
793.879	12284.76
794.211	12169.51
794.543	12165.22
794.875	12199.34
795.207	12167.48
795.539	12034.15
795.871	12078.89
796.203	11995.28
796.535	11989.4
796.867	11905.79
797.198	11872.12
797.53	11861.72
797.862	11729.97
798.193	11848.84
798.525	11802.97
798.856	11788.73
799.188	11647.26
799.519	11633.48
799.85	11470.55
800.182	11506.93
800.513	11489.98
800.844	11435.74
801.175	11515.52
801.506	11452.47
801.837	11407.72
802.168	11335.18
802.499	11273.49
802.83	11242.53
803.161	11226.94
803.491	11142.64
803.822	11177.45
804.153	11089.76
804.483	11097.22
804.814	11095.41
805.145	11076.21
805.475	10956.21
805.805	10917.57
806.136	11026.49
806.466	10960.5
806.796	10955.08
807.126	10838.92
807.457	10764.58
807.787	10840.96
808.117	10807.74
808.447	10719.61
808.777	10743.11
809.107	10656.78
809.436	10622.88
809.766	10659.95
810.096	10644.35
810.426	10558.93
810.755	10513.73
811.085	10578.59
811.414	10479.39
811.744	10432.38
812.073	10395.77
812.403	10385.15
812.732	10355.32
813.061	10339.73
813.39	10248.21
813.719	10312.16
814.049	10261.76
814.378	10191.71
814.707	10208.21
815.036	10241.65
815.365	10156.46
815.693	9959.17
816.022	10097.02
816.351	10105.38
816.68	9963.92
817.008	10008.21
817.337	9891.83
817.665	9869.23
817.994	9923.92
818.322	9894.09
818.651	9871.72
818.979	9847.76
819.307	9913.52
819.636	9821.78
819.964	9739.97
820.292	9766.86
820.62	9767.77
820.948	9761.66
821.276	9786.07
821.604	9832.4
821.932	9738.84
822.259	9725.96
822.587	9672.85
822.915	9630.82
823.243	9698.62
823.57	9656.58
823.898	9638.28
824.225	9626.98
824.553	9661.33
824.88	9645.51
825.207	9697.94
825.535	9740.2
825.862	9740.42
826.189	9713.3
826.516	9739.29
826.843	9704.72
827.17	9739.97
827.497	9745.85
827.824	9706.52
828.151	9707.65
828.478	9673.98
828.805	9690.03
829.131	9675.34
829.458	9706.3
829.785	9626.75
830.111	9635.34
830.438	9648.67
830.764	9671.95
831.09	9674.89
831.417	9596.24
831.743	9650.48
832.069	9673.76
832.395	9644.83
832.722	9668.56
833.048	9604.15
833.374	9591.5
833.7	9531.39
834.026	9630.82
834.351	9583.82
834.677	9620.2
835.003	9591.05
835.329	9540.65
835.654	9544.95
835.98	9509.92
836.306	9545.17
836.631	9490.94
836.956	9584.72
837.282	9487.77
837.607	9456.59
837.932	9441.45
838.258	9393.76
838.583	9406.65
838.908	9353.09
839.233	9353.09
839.558	9372.97
839.883	9326.2
840.208	9281.9
840.533	9306.31
840.858	9353.99
841.182	9313.09
841.507	9248.01
841.832	9229.25
842.156	9212.75
842.481	9205.75
842.805	9211.62
843.13	9168.69
843.454	9107.44
843.778	9116.26
844.103	9084.17
844.427	9006.2
844.751	9073.55
845.075	9041.91
845.399	9007.11
845.723	8994.23
846.047	8964.85
846.371	8938.41
846.695	8908.35
847.019	8851.41
847.343	8832.42
847.666	8705.42
847.99	8674.69
848.313	8691.18
848.637	8661.81
848.96	8636.5
849.284	8599.43
849.607	8576.61
849.931	8571.41
850.254	8425.65
850.577	8412.1
850.9	8337.75
851.223	8324.19
851.546	8311.98
851.869	8282.38
852.192	8254.36
852.515	8236.05
852.838	8228.15
853.161	8191.54
853.483	8155.15
853.806	8131.2
854.129	8076.06
854.451	8179.33
854.774	7991.54
855.096	8010.52
855.419	7940.24
855.741	7975.95
856.063	7935.72
856.385	7962.16
856.708	7835.84
857.03	7814.82
857.352	7863.86
857.674	7763.3
857.996	7722.62
858.318	7696.63
858.64	7757.2
858.961	7736.41
859.283	7691.21
859.605	7673.36
859.926	7689.18
860.248	7648.95
860.57	7613.25
860.891	7594.04
861.212	7571.44
861.534	7557.88
861.855	7523.76
862.176	7594.72
862.498	7545.9
862.819	7567.37
863.14	7500.93
863.461	7521.27
863.782	7478.11
864.103	7481.05
864.424	7441.27
864.745	7461.61
865.065	7412.12
865.386	7393.59
865.707	7367.15
866.027	7411.9
866.348	7343.87
866.668	7328.73
866.989	7326.02
867.309	7288.96
867.63	7291.9
867.95	7256.42
868.27	7296.19
868.59	7278.11
868.91	7266.36
869.23	7250.54
869.55	7269.07
869.87	7209.87
870.19	7214.39
870.51	7200.83
870.83	7195.86
871.15	7182.52
871.469	7154.5
871.789	7192.24
872.109	7173.71
872.428	7104.56
872.748	7122.41
873.067	7147.5
873.386	7131.45
873.706	7115.63
874.025	7092.13
874.344	7065.69
874.663	7060.27
874.982	7047.39
875.301	7055.07
875.62	7031.79
875.939	6975.97
876.258	7003.54
876.577	6992.7
876.896	6980.95
877.214	6945.69
877.533	6981.85
877.852	6954.73
878.17	6956.31
878.489	6899.37
878.807	6924.45
879.125	6893.94
879.444	6870.44
879.762	6887.62
880.08	6833.61
880.398	6765.13
880.716	6827.28
881.034	6808.52
881.352	6778.69
881.67	6714.96
881.988	6811.91
882.306	6825.24
882.624	6771.23
882.941	6684.91
883.259	6711.12
883.577	6700.95
883.894	6681.75
884.212	6667.73
884.529	6667.73
884.846	6655.53
885.164	6638.58
885.481	6587.51
885.798	6629.32
886.115	6543.9
886.432	6525.82
886.75	6518.36
887.067	6515.2
887.383	6487.4
887.7	6517
888.017	6475.87
888.334	6457.57
888.651	6427.51
888.967	6405.37
889.284	6397.01
889.6	6345.26
889.917	6329.66
890.233	6344.8
890.55	6348.42
890.866	6367.63
891.182	6311.13
891.498	6267.07
891.815	6253.28
892.131	6268.87
892.447	6264.36
892.763	6212.15
893.079	6195.2
893.395	6179.84
893.71	6173.96
894.026	6154.98
894.342	6124.92
894.657	6094.19
894.973	6057.13
895.289	6093.29
895.604	6093.74
895.92	6031.82
896.235	6023.23
896.55	5923.8
896.865	5961.09
897.181	5942.56
897.496	5902.1
897.811	5901.2
898.126	5884.7
898.441	5874.99
898.756	5915.66
899.071	5812.84
899.386	5847.87
899.7	5788.66
900.015	5777.81
900.33	5734.43
900.644	5754.54
900.959	5735.78
901.273	5698.04
901.588	5707.99
901.902	5611.26
902.216	5599.29
902.531	5612.39
902.845	5537.82
903.159	5565.84
903.473	5581.21
903.787	5560.19
904.101	5509.57
904.415	5497.14
904.729	5500.53
905.042	5450.14
905.356	5452.85
905.67	5394.1
905.984	5400.87
906.297	5397.26
906.611	5387.32
906.924	5351.84
907.237	5322.68
907.551	5268.68
907.864	5317.71
908.177	5275.91
908.491	5258.05
908.804	5240.2
909.117	5199.07
909.43	5183.25
909.743	5152.97
910.056	5187.1
910.368	5133.76
910.681	5104.61
910.994	5056.25
911.307	5008.12
911.619	4999.98
911.932	5016.03
912.244	4955.69
912.557	4969.93
912.869	4935.8
913.181	4928.57
913.494	4910.49
913.806	4898.97
914.118	4919.53
914.43	4847.9
914.742	4853.32
915.054	4805.86
915.366	4768.8
915.678	4799.53
915.99	4809.25
916.302	4730.38
916.613	4689.03
916.925	4721.8
917.236	4678.86
917.548	4659.2
917.859	4626.43
918.171	4663.72
918.482	4611.97
918.794	4556.6
919.105	4552.99
919.416	4540.56
919.727	4564.51
920.038	4515.93
920.349	4478.19
920.66	4470.05
920.971	4441.35
921.282	4456.49
921.593	4428.7
921.903	4424.4
922.214	4433.67
922.525	4395.7
922.835	4356.61
923.146	4360
923.456	4339.43
923.767	4346.21
924.077	4276.38
924.387	4276.38
924.697	4270.96
925.008	4223.73
925.318	4247.68
925.628	4213.79
925.938	4172.88
926.248	4144.41
926.558	4140.57
926.867	4110.51
927.177	4120.46
927.487	4086.56
927.796	4042.27
928.106	4053.11
928.416	4035.26
928.725	4056.05
929.034	4018.54
929.344	4044.07
929.653	4033.23
929.962	3983.96
930.271	3949.84
930.581	3956.85
930.89	3913
931.199	3888.82
931.508	3915.04
931.817	3881.59
932.125	3894.7
932.434	3854.02
932.743	3798.88
933.051	3825.55
933.36	3787.81
933.669	3784.65
933.977	3777.41
934.286	3764.99
934.594	3769.73
934.902	3713.24
935.21	3712.11
935.519	3717.98
935.827	3699.45
936.135	3650.64
936.443	3614.93
936.751	3616.29
937.059	3616.74
937.367	3579
937.674	3607.48
937.982	3593.46
938.29	3548.49
938.597	3565.67
938.905	3487.25
939.213	3508.95
939.52	3509.85
939.827	3488.61
940.135	3507.82
940.442	3463.52
940.749	3458.55
941.056	3441.83
941.363	3435.28
941.67	3410.87
941.977	3448.38
942.284	3355.5
942.591	3382.17
942.898	3357.99
943.205	3333.13
943.511	3301.95
943.818	3280.7
944.125	3295.85
944.431	3284.55
944.738	3266.47
945.044	3290.42
945.35	3269.63
945.657	3191.22
945.963	3247.49
946.269	3208.16
946.575	3182.63
946.881	3166.13
947.187	3175.62
947.493	3185.57
947.799	3161.39
948.105	3142.18
948.41	3089.3
948.716	3068.51
949.022	3114.61
949.327	3057.66
949.633	3008.17
949.938	3021.05
950.244	3035.51
950.549	2985.57
950.854	3030.54
951.16	2952.35
951.465	2992.12
951.77	2930.88
952.075	2943.54
952.38	2948.74
952.685	2921.84
952.99	2883.43
953.294	2895.18
953.599	2892.01
953.904	2915.97
954.209	2856.99
954.513	2858.34
954.818	2864.9
955.122	2850.43
955.426	2836.65
955.731	2845.91
956.035	2818.8
956.339	2768.85
956.643	2783.99
956.948	2745.13
957.252	2751
957.556	2742.41
957.86	2720.72
958.163	2707.39
958.467	2715.97
958.771	2715.52
959.075	2689.08
959.378	2667.84
959.682	2702.19
959.985	2644.56
960.289	2648.86
960.592	2647.5
960.896	2635.07
961.199	2626.03
961.502	2613.15
961.805	2581.74
962.108	2569.76
962.411	2581.06
962.714	2544.45
963.017	2562.53
963.32	2538.13
963.623	2507.39
963.926	2504.91
964.228	2505.13
964.531	2482.53
964.833	2498.13
965.136	2432.59
965.438	2414.06
965.741	2433.5
966.043	2423.55
966.345	2419.03
966.648	2411.35
966.95	2434.63
967.252	2406.6
967.554	2402.99
967.856	2385.59
968.158	2370.9
968.46	2365.93
968.761	2377.45
969.063	2341.52
969.365	2330.45
969.666	2337.45
969.968	2325.7
970.269	2317.57
970.571	2297
970.872	2299.49
971.174	2349.66
971.475	2277.34
971.776	2257.68
972.077	2268.08
972.378	2242.54
972.679	2243.44
972.98	2211.81
973.281	2216.78
973.582	2214.74
973.883	2193.95
974.183	2208.87
974.484	2183.56
974.785	2195.08
975.085	2163.45
975.386	2154.86
975.686	2139.04
975.986	2128.87
976.287	2139.72
976.587	2147.18
976.887	2145.59
977.187	2106.27
977.487	2089.78
977.787	2088.42
978.087	2064.69
978.387	2082.77
978.687	2040.29
978.987	2011.13
979.286	2050.68
979.586	2026.73
979.885	2027.86
980.185	2008.65
980.484	1990.57
980.784	1981.08
981.083	1965.94
981.382	1977.46
981.682	1973.85
981.981	1974.75
982.28	1968.2
982.579	1951.25
982.878	1951.25
983.177	1901.31
983.475	1926.62
983.774	1922.1
984.073	1915.77
984.372	1891.59
984.67	1904.47
984.969	1899.72
985.267	1887.07
985.566	1862.21
985.864	1857.47
986.162	1852.04
986.461	1817.69
986.759	1843.45
987.057	1822.21
987.355	1825.15
987.653	1816.11
987.951	1778.82
988.249	1787.41
988.547	1812.49
988.844	1803.91
989.142	1770.69
989.44	1797.35
989.737	1772.04
990.035	1747.86
990.332	1749.22
990.63	1742.67
990.927	1732.5
991.224	1711.03
991.521	1717.58
991.819	1714.19
992.116	1718.03
992.413	1699.96
992.71	1685.49
993.006	1669.22
993.303	1678.03
993.6	1647.3
993.897	1639.39
994.193	1651.59
994.49	1667.19
994.787	1626.74
995.083	1644.59
995.379	1607.75
995.676	1605.27
995.972	1623.12
996.268	1585.61
996.565	1592.39
996.861	1569.79
997.157	1561.43
997.453	1572.28
997.749	1562.11
998.044	1521.88
998.34	1553.97
998.636	1557.59
998.932	1535.67
999.227	1536.8
999.523	1497.25
999.818	1497.93
1000.114	1524.59
1000.409	1486.4
1000.704	1504.25
1001	1466.52
1001.295	1460.19
1001.59	1458.15
1001.885	1467.65
1002.18	1476.23
1002.475	1448.21
1002.77	1446.18
1003.065	1430.13
1003.359	1418.15
1003.654	1415.67
1003.949	1414.31
1004.243	1397.82
1004.538	1403.92
1004.832	1395.78
1005.127	1374.77
1005.421	1365.95
1005.715	1373.86
1006.009	1340.64
1006.304	1369.57
1006.598	1339.96
1006.892	1356.69
1007.186	1334.09
1007.48	1348.33
1007.773	1346.29
1008.067	1322.34
1008.361	1315.78
1008.655	1305.39
1008.948	1303.81
1009.242	1274.66
1009.535	1294.77
1009.829	1267.42
1010.122	1285.05
1010.415	1255.45
1010.708	1259.51
1011.001	1255.45
1011.295	1229.69
1011.588	1217.03
1011.881	1240.08
1012.173	1215.45
1012.466	1227.2
1012.759	1223.81
1013.052	1200.76
1013.344	1191.04
1013.637	1177.03
1013.93	1198.73
1014.222	1216.58
1014.514	1191.72
1014.807	1170.48
1015.099	1168.9
1015.391	1148.78
1015.683	1172.29
1015.976	1168.9
1016.268	1124.6
1016.56	1155.11
1016.851	1125.73
1017.143	1106.52
1017.435	1116.47
1017.727	1099.07
1018.018	1080.99
1018.31	1084.15
1018.602	1080.76
1018.893	1080.76
1019.185	1086.41
1019.476	1091.16
1019.767	1025.85
1020.058	1057.71
1020.35	1017.49
1020.641	1041.89
1020.932	1053.19
1021.223	1040.09
1021.514	1032.4
1021.804	1037.15
1022.095	1019.07
1022.386	994.21
1022.677	1001.22
1022.967	1010.93
1023.258	989.01
1023.548	967.09
1023.839	1015.68
1024.129	981.56
1024.419	958.28
1024.709	965.51
1025	976.36
1025.29	943.82
1025.58	946.3
1025.87	928.22
1026.16	951.95
1026.449	947.88
1026.739	926.87
1027.029	932.07
1027.319	902.91
1027.608	906.53
1027.898	903.82
1028.187	895.91
1028.477	896.36
1028.766	882.8
1029.055	883.25
1029.344	885.29
1029.634	886.87
1029.923	871.95
1030.212	844.84
1030.501	856.14
1030.79	854.78
1031.078	862.24
1031.367	854.78
1031.656	837.83
1031.945	831.28
1032.233	852.97
1032.522	817.94
1032.81	801.9
1033.099	813.42
1033.387	814.78
1033.675	821.79
1033.963	803.48
1034.251	793.76
1034.54	787.44
1034.828	804.16
1035.116	795.12
1035.403	788.11
1035.691	742.69
1035.979	760.09
1036.267	752.86
1036.554	760.32
1036.842	747.89
1037.129	745.18
1037.417	742.24
1037.704	736.14
1037.992	758.51
1038.279	742.69
1038.566	725.29
1038.853	725.29
1039.14	725.29
