Data from White_paper_FLMS001491_060.txt Node
Date: Tue Feb 07 10:35:17 GMT 2017
User: dcchb
Spectrometer: FLMS00149
Trigger mode: 0
Integration Time (sec): 2.000000E-2
Scans to average: 10
Electric dark correction enabled: true
Nonlinearity correction enabled: false
Boxcar width: 0
XAxis mode: Wavelengths
Number of Pixels in Spectrum: 2048
>>>>>Begin Spectral Data<<<<<
341.393	-37.67
341.776	-37.67
342.16	-37.67
342.543	-76.09
342.927	-50.78
343.31	-86.25
343.693	-73.37
344.077	-44.45
344.46	-58.01
344.843	-57.33
345.226	-46.93
345.61	-40.83
345.993	-10.1
346.376	0.07
346.759	13.4
347.142	14.76
347.525	56.57
347.908	48.66
348.291	77.36
348.674	94.08
349.057	112.38
349.44	112.84
349.823	125.72
350.206	165.72
350.588	202.78
350.971	247.52
351.354	245.94
351.737	272.15
352.119	281.87
352.502	278.26
352.884	316.45
353.267	315.54
353.65	311.93
354.032	322.55
354.414	327.75
354.797	340.17
355.179	340.63
355.562	357.8
355.944	345.15
356.326	343.79
356.709	386.5
357.091	370.46
357.473	354.19
357.855	380.63
358.238	374.98
358.62	380.85
359.002	385.82
359.384	368.87
359.766	377.46
360.148	383.79
360.53	380.85
360.912	379.27
361.294	364.58
361.676	363.45
362.057	373.39
362.439	369.33
362.821	357.35
363.203	369.33
363.584	367.74
363.966	352.6
364.348	379.5
364.729	369.1
365.111	364.81
365.493	368.2
365.874	359.61
366.256	364.58
366.637	375.88
367.019	361.42
367.4	356.22
367.781	357.12
368.163	377.46
368.544	348.99
368.925	340.85
369.306	374.52
369.688	362.55
370.069	378.82
370.45	353.28
370.831	377.01
371.212	354.41
371.593	381.76
371.974	361.64
372.355	363.45
372.736	387.41
373.117	365.03
373.498	364.13
373.879	374.52
374.26	380.4
374.641	373.39
375.021	365.03
375.402	377.69
375.783	382.89
376.163	372.49
376.544	390.57
376.925	389.44
377.305	376.33
377.686	405.94
378.066	403.9
378.447	400.74
378.827	396.22
379.208	379.95
379.588	412.49
379.968	403.9
380.349	403.45
380.729	433.73
381.109	408.2
381.489	415.88
381.87	431.7
382.25	428.99
382.63	432.83
383.01	422.21
383.39	423.79
383.77	429.66
384.15	430.57
384.53	437.57
384.91	436.22
385.29	443.45
385.67	438.03
386.049	461.3
386.429	438.25
386.809	445.93
387.189	461.08
387.568	468.53
387.948	482.09
388.328	495.2
388.707	479.38
389.087	464.92
389.466	484.13
389.846	509.89
390.225	496.33
390.605	487.52
390.984	499.94
391.363	496.55
391.743	504.01
392.122	526.84
392.501	525.25
392.881	523.45
393.26	515.31
393.639	552.82
394.018	539.94
394.397	549.21
394.776	532.94
395.155	568.19
395.534	560.51
395.913	560.73
396.292	574.29
396.671	588.98
397.05	605.03
397.429	603.67
397.808	607.06
398.186	627.85
398.565	606.61
398.944	611.58
399.323	611.35
399.701	626.49
400.08	633.73
400.458	647.74
400.837	660.84
401.215	661.52
401.594	675.76
401.972	662.43
402.351	673.05
402.729	704.01
403.107	709.88
403.486	733.16
403.864	745.14
404.242	746.72
404.62	768.41
404.999	774.97
405.377	788.07
405.755	775.87
406.133	815.19
406.511	819.03
406.889	842.99
407.267	858.13
407.645	888.18
408.023	906.49
408.401	934.51
408.779	922.53
409.156	956.2
409.534	981.29
409.912	1025.81
410.29	1023.32
410.667	1043.66
411.045	1046.82
411.422	1097.22
411.8	1123.43
412.178	1162.3
412.555	1175.63
412.933	1209.76
413.31	1214.28
413.687	1285.91
414.065	1306.25
414.442	1347.61
414.819	1373.59
415.197	1397.55
415.574	1408.17
415.951	1442.52
416.328	1465.79
416.705	1492.23
417.082	1515.74
417.46	1553.25
417.837	1586.47
418.214	1602.29
418.591	1617.66
418.967	1648.61
419.344	1670.08
419.721	1736.97
420.098	1722.06
420.475	1758.22
420.852	1791.66
421.228	1835.73
421.605	1847.03
421.982	1855.16
422.358	1866.69
422.735	1932.9
423.111	1916.63
423.488	1978.55
423.864	2016.51
424.241	2017.19
424.617	2041.82
424.994	2062.16
425.37	2086.12
425.746	2133.35
426.123	2151.88
426.499	2145.1
426.875	2182.61
427.251	2286.56
427.627	2303.96
428.003	2321.59
428.379	2351.65
428.756	2369.95
429.132	2419.22
429.507	2428.48
429.883	2495.37
430.259	2502.15
430.635	2570.4
431.011	2580.57
431.387	2636.61
431.763	2678.87
432.138	2715.25
432.514	2778.75
432.89	2790.73
433.265	2861.69
433.641	2900.33
434.016	2897.62
434.392	2951.86
434.767	3020.56
435.143	3048.35
435.518	3086.77
435.894	3116.82
436.269	3179.65
436.644	3135.13
437.02	3233.21
437.395	3237.73
437.77	3313.2
438.145	3383.03
438.52	3380.32
438.895	3446.53
439.271	3424.61
439.646	3520.88
440.021	3534.67
440.395	3541.9
440.77	3513.2
441.145	3595.91
441.52	3621.44
441.895	3637.72
442.27	3660.99
442.645	3670.03
443.019	3764.27
443.394	3760.42
443.769	3786.64
444.143	3736.7
444.518	3810.59
444.892	3823.92
445.267	3864.83
445.641	3923.58
446.016	3926.07
446.39	3930.36
446.764	4005.84
447.139	3936.01
447.513	4022.79
447.887	4057.14
448.262	4067.99
448.636	4084.03
449.01	4165.16
449.384	4195.67
449.758	4205.84
450.132	4300.52
450.506	4258.26
450.88	4280.18
451.254	4288.09
451.628	4383.01
452.002	4445.38
452.376	4477.02
452.75	4481.99
453.123	4515.21
453.497	4612.83
453.871	4616.22
454.244	4694.86
454.618	4749.1
454.992	4801.07
455.365	4804.69
455.739	4950.9
456.112	4990.22
456.486	4999.49
456.859	5057.11
457.232	5141.86
457.606	5170.1
457.979	5265.92
458.352	5313.83
458.725	5438.12
459.099	5465.69
459.472	5551.56
459.845	5574.39
460.218	5598.12
460.591	5707.27
460.964	5719.02
461.337	5881.95
461.71	5926.24
462.083	6002.4
462.456	5996.3
462.829	6092.11
463.201	6181.38
463.574	6171.43
463.947	6327.59
464.32	6427.92
464.692	6468.38
465.065	6551.99
465.438	6642.61
465.81	6676.51
466.183	6765.77
466.555	6994.69
466.928	6967.35
467.3	6983.16
467.672	7066.33
468.045	7274.46
468.417	7335.7
468.789	7393.77
469.161	7467.22
469.534	7600.1
469.906	7770.26
470.278	7820.66
470.65	7881.67
471.022	8093.64
471.394	8222
471.766	8326.18
472.138	8414.09
472.51	8587.87
472.882	8701.54
473.253	8791.25
473.625	8912.6
473.997	9114.41
474.369	9140.4
474.74	9241.18
475.112	9461.06
475.484	9557.11
475.855	9756.2
476.227	9871
476.598	10147.37
476.97	10201.38
477.341	10397.09
477.713	10578.55
478.084	10621.03
478.455	10918.43
478.827	10992.55
479.198	11305.99
479.569	11364.97
479.94	11680.67
480.311	11769.03
480.682	11972.64
481.053	12298.05
481.424	12533.53
481.795	12546.18
482.166	12791.6
482.537	12964.7
482.908	13232.49
483.279	13386.61
483.65	13548.87
484.021	13846.94
484.391	13960.61
484.762	14158.57
485.133	14186.59
485.503	14479.92
485.874	14752
486.244	14821.38
486.615	15174.81
486.985	15330.06
487.356	15607.34
487.726	15744.97
488.097	16006.88
488.467	16110.83
488.837	16485.96
489.207	16633.08
489.578	16891.83
489.948	17006.4
490.318	17277.13
490.688	17269.45
491.058	17550.8
491.428	17758.7
491.798	17888.87
492.168	18347.16
492.538	18370.89
492.908	18582.41
493.278	18825.79
493.648	18870.31
494.017	19169.51
494.387	19296.29
494.757	19442.27
495.126	19621.48
495.496	19682.49
495.866	19908.25
496.235	20042.03
496.605	20202.25
496.974	20436.14
497.344	20519.31
497.713	20625.29
498.082	20830.71
498.452	21041.1
498.821	21221.66
499.19	21224.37
499.559	21423.24
499.928	21623.91
500.298	21695.55
500.667	21855.77
501.036	21844.92
501.405	22020.96
501.774	22068.87
502.143	22293.04
502.512	22354.06
502.88	22754.73
503.249	22665.92
503.618	22887.15
503.987	22975.06
504.356	23112.23
504.724	23250.76
505.093	23374.6
505.462	23428.38
505.83	23713.57
506.199	23772.78
506.567	24149.49
506.936	23975.49
507.304	24335.93
507.672	24521.91
508.041	24612.08
508.409	24804.84
508.777	25008
509.145	25138.17
509.514	25105.63
509.882	25380.65
510.25	25433.98
510.618	25637.14
510.986	25782.44
511.354	25938.15
511.722	26158.93
512.09	26386.27
512.458	26392.6
512.826	26647.51
513.193	26876.43
513.561	26779.03
513.929	27151.67
514.297	27402.51
514.664	27495.84
515.032	27630.98
515.4	27873.46
515.767	27969.28
516.135	28078.43
516.502	28011.99
516.869	28576.95
517.237	28614.69
517.604	28558.42
517.972	29037.05
518.339	29258.96
518.706	29163.37
519.073	29263.26
519.44	29571.72
519.808	29847.87
520.175	29855.33
520.542	30299.84
520.909	30421.19
521.276	30373.06
521.643	30661.19
522.009	30920.39
522.376	31184.56
522.743	31359.92
523.11	31686.47
523.477	32097.08
523.843	32028.61
524.21	32489.39
524.577	32575.03
524.943	32761.24
525.31	32835.37
525.676	33138.86
526.043	33357.61
526.409	33593.76
526.776	33786.75
527.142	33859.07
527.508	34184.71
527.874	34513.51
528.241	34643
528.607	34673.74
528.973	34994.4
529.339	35051.35
529.705	35512.81
530.071	35741.96
530.437	35797.55
530.803	36042.74
531.169	36104.66
531.535	36234.37
531.901	36407.7
532.267	36635.94
532.632	36760.69
532.998	36930.4
533.364	37167.91
533.73	37252.88
534.095	37443.15
534.461	37655.35
534.826	37854.89
535.192	37972.86
535.557	38297.37
535.923	38269.57
536.288	38442.45
536.653	38635.66
537.019	38715.21
537.384	38754.31
537.749	38976.67
538.114	39085.82
538.479	39175.76
538.845	39371.24
539.21	39298.02
539.575	39628.41
539.94	39589.99
540.305	39835.86
540.67	39832.7
541.034	40046.02
541.399	40311.55
541.764	40542.06
542.129	40496.18
542.494	40709.06
542.858	40949.73
543.223	40875.15
543.587	41129.84
543.952	41298.42
544.316	41316.72
544.681	41244.18
545.045	41560.79
545.41	41782.25
545.774	41817.73
546.138	41918.29
546.503	42038.74
546.867	42067.44
547.231	42403.48
547.595	42539.52
547.959	42583.58
548.324	42572.74
548.688	42830.36
549.052	42946.06
549.416	43003.69
549.779	43139.28
550.143	43229.89
550.507	43532.49
550.871	43667.85
551.235	43706.49
551.599	44075.97
551.962	44192.81
552.326	44294.27
552.689	44326.81
553.053	44241.17
553.417	44524.32
553.78	44999.34
554.143	44713.25
554.507	44955.72
554.87	45053.8
555.234	45552.77
555.597	45191.42
555.96	45381.25
556.323	45714.57
556.686	45635.03
557.05	46094.45
557.413	46145.3
557.776	46213.54
558.139	46456.93
558.502	46643.14
558.865	46649.24
559.228	46917.26
559.59	47078.61
559.953	46971.49
560.316	47448.31
560.679	47406.06
561.041	47866.61
561.404	47887.85
561.767	48178.92
562.129	48086.04
562.492	48362.64
562.854	48419.59
563.217	48435.86
563.579	48660.49
563.941	48971.89
564.304	49049.85
564.666	49173.47
565.028	49197.2
565.39	49415.04
565.753	49574.13
566.115	49784.75
566.477	49808.03
566.839	49934.35
567.201	50198.98
567.563	50256.38
567.925	50471.29
568.287	50439.2
568.648	50661.79
569.01	50843.03
569.372	50996.24
569.734	50840.54
570.095	51164.38
570.457	51302.22
570.819	51393.97
571.18	51434.42
571.542	51611.59
571.903	51664.93
572.265	51796.67
572.626	51926.61
572.987	51883
573.349	52059.04
573.71	52223.78
574.071	52207.29
574.432	52435.3
574.794	52643.43
575.155	52554.17
575.516	52505.58
575.877	52722.98
576.238	52767.5
576.599	52945.8
576.96	52957.32
577.32	52979.47
577.681	53084.32
578.042	53134.72
578.403	53126.13
578.763	53181.05
579.124	53318.89
579.485	53521.38
579.845	53541.26
580.206	53466.69
580.566	53513.01
580.927	53597.76
581.287	53704.42
581.648	53642.5
582.008	53819.67
582.368	53670.98
582.728	53741.93
583.089	53782.61
583.449	53837.75
583.809	53842.04
584.169	53900.35
584.529	53819.45
584.889	54153.67
585.249	53936.05
585.609	53913.23
585.969	54004.98
586.329	53973.79
586.688	54075.26
587.048	54017.18
587.408	54091.3
587.768	53992.55
588.127	54079.78
588.487	54039.78
588.846	54291.3
589.206	54010.63
589.565	54126.11
589.925	54236.16
590.284	54190.06
590.643	54209.49
591.003	54332.43
591.362	54403.39
591.721	54374.69
592.08	54319.55
592.44	54396.83
592.799	54404.52
593.158	54418.3
593.517	54417.62
593.876	54469.82
594.235	54420.79
594.593	54522.03
594.952	54505.08
595.311	54454.46
595.67	54559.31
596.029	54677.05
596.387	54664.17
596.746	54771.29
597.104	54554.34
597.463	54679.99
597.822	54768.12
598.18	54638.86
598.538	54651.29
598.897	54807.9
599.255	54617.17
599.613	55015.57
599.972	54801.79
600.33	54938.29
600.688	54786.65
601.046	54892.64
601.404	55052.41
601.762	54966.31
602.12	55121.79
602.478	55080.88
602.836	55114.33
603.194	54949.13
603.552	55044.05
603.91	54960.89
604.268	55105.74
604.625	55042.01
604.983	55157.94
605.341	55098.51
605.698	55252.63
606.056	55192.07
606.413	55186.87
606.771	55342.12
607.128	55321.33
607.485	55220.09
607.843	55264.15
608.2	55359.07
608.557	55415.11
608.914	55315.9
609.272	55430.48
609.629	55537.59
609.986	55564.49
610.343	55453.3
610.7	55711.6
611.057	55600.64
611.414	55591.83
611.771	55662.79
612.127	55693.07
612.484	55686.74
612.841	55794.54
613.198	55705.05
613.554	55676.12
613.911	55867.98
614.267	55855.33
614.624	55809.9
614.98	55909.34
615.337	55901.43
615.693	55909.11
616.05	55914.08
616.406	56024.81
616.762	55915.44
617.118	55941.88
617.475	55960.86
617.831	56063.91
618.187	56085.83
618.543	56002.89
618.899	56218.03
619.255	56120.18
619.611	56100.06
619.967	56159.95
620.323	56213.96
620.678	56079.95
621.034	56106.17
621.39	56116.11
621.746	56112.04
622.101	56408.08
622.457	56102.32
622.812	56215.54
623.168	56239.72
623.523	56318.14
623.879	56344.35
624.234	56136.67
624.589	56265.48
624.945	56295.99
625.3	56310.91
625.655	56275.65
626.01	56314.07
626.365	56388.87
626.72	56259.16
627.075	56258.7
627.43	56267.29
627.785	56168.99
628.14	56307.29
628.495	56333.5
628.85	56292.15
629.205	56205.15
629.559	56374.41
629.914	56200.4
630.269	56234.98
630.623	56161.08
630.978	56066.84
631.332	56261.64
631.687	56310.23
632.041	56198.14
632.396	56145.49
632.75	56134.87
633.104	56201.53
633.459	56057.81
633.813	56086.05
634.167	56056
634.521	56046.05
634.875	56065.04
635.229	56062.1
635.583	55947.98
635.937	55966.06
636.291	55913.18
636.645	55995.89
636.999	55807.64
637.352	55976.45
637.706	55879.96
638.06	55944.59
638.413	55857.36
638.767	55825.5
639.121	55893.52
639.474	55781.43
639.828	55799.28
640.181	55879.96
640.534	55797.7
640.888	55757.7
641.241	55638.16
641.594	55679.28
641.947	55769.68
642.301	55684.26
642.654	55785.27
643.007	55695.33
643.36	55565.84
643.713	55546.86
644.066	55702.56
644.419	55446.97
644.771	55284.94
645.124	55127.89
645.477	55040.88
645.83	54924.05
646.182	54837.05
646.535	54728.58
646.888	54849.93
647.24	54660.55
647.593	54801.12
647.945	54789.82
648.298	54637.96
648.65	54622.14
649.002	54526.77
649.355	54610.39
649.707	54641.35
650.059	54743.72
650.411	55082.46
650.763	55109.13
651.115	55344.83
651.467	55250.6
651.819	55275.23
652.171	55234.1
652.523	55142.58
652.875	55184.61
653.227	55017.38
653.578	55272.29
653.93	55143.48
654.282	55077.72
654.633	55063.71
654.985	55083.82
655.337	55068
655.688	55124.27
656.039	55142.8
656.391	54970.15
656.742	54944.39
657.094	55074.55
657.445	55095.57
657.796	54989.13
658.147	54878.18
658.498	54941.22
658.849	54956.59
659.2	54973.31
659.551	54903.03
659.902	54934.45
660.253	54901.45
660.604	54930.6
660.955	54872.75
661.306	54937.16
661.656	54840.89
662.007	54891.73
662.358	54825.3
662.708	54858.97
663.059	54796.37
663.409	54679.99
663.76	54847.89
664.11	54828.91
664.461	54833.21
664.811	54803.83
665.161	54814.45
665.511	54698.07
665.862	54713.21
666.212	54785.07
666.562	54791.17
666.912	54652.64
667.262	54693.32
667.612	54688.12
667.962	54673.21
668.312	54662.36
668.662	54708.69
669.011	54672.31
669.361	54561.8
669.711	54567.45
670.06	54594.79
670.41	54454.01
670.76	54439.09
671.109	54586.66
671.459	54450.62
671.808	54435.93
672.157	54493.33
672.507	54245.42
672.856	54348.25
673.205	54290.39
673.554	54351.18
673.904	54265.99
674.253	54458.98
674.602	54348.25
674.951	53916.17
675.3	53771.09
675.649	54209.72
675.998	54140.57
676.346	54154.58
676.695	54197.29
677.044	54061.47
677.393	54148.7
677.741	54110.29
678.09	54007.69
678.438	53921.14
678.787	54075.26
679.135	53887.47
679.484	53773.8
679.832	53798.43
680.181	53733.12
680.529	53782.39
680.877	53646.34
681.225	53671.65
681.573	53738.54
681.922	53582.62
682.27	53448.16
682.618	53478.66
682.966	53385.56
683.314	53396.63
683.661	53305.34
684.009	53141.27
684.357	53177.88
684.705	53115.28
685.053	53126.58
685.4	53074.38
685.748	52884.33
686.095	52845.23
686.443	52749.87
686.79	52670.55
687.138	52805.24
687.485	52668.52
687.832	52560.04
688.18	52594.17
688.527	52386.49
688.874	52439.6
689.221	52274.63
689.568	52252.03
689.915	52176.33
690.262	52135.87
690.609	52040.06
690.956	51997.12
691.303	51943.11
691.65	51654.31
691.997	51757.58
692.344	51516
692.69	51493.86
693.037	51448.89
693.383	51206.18
693.73	51356.91
694.077	51091.38
694.423	51173.64
694.769	50979.07
695.116	50892.97
695.462	50850.26
695.808	50780.88
696.155	50709.47
696.501	50489.14
696.847	50536.37
697.193	50346.77
697.539	50490.49
697.885	50156.27
698.231	50053.22
698.577	50116.27
698.923	50013.22
699.269	49877.63
699.614	49604.87
699.96	49574.13
700.306	49510.41
700.651	49435.83
700.997	49267.93
701.342	49318.32
701.688	49159.23
702.033	49120.81
702.379	49050.76
702.724	48947.26
703.069	48924.89
703.415	48621.17
703.76	48622.75
704.105	48635.85
704.45	48479.47
704.795	48179.59
705.14	48186.6
705.485	48147.28
705.83	48105.02
706.175	48184.79
706.52	47960.84
706.865	47874.97
707.209	47699.16
707.554	47619.16
707.899	47706.39
708.243	47393.85
708.588	47468.65
708.932	47231.15
709.277	47223.46
709.621	47272.95
709.966	46876.8
710.31	47106.4
710.654	46677.71
710.998	46851.27
711.342	46730.37
711.687	46760.87
712.031	46460.32
712.375	46285.41
712.719	46418.06
713.063	46282.02
713.407	46391.39
713.75	46094.45
714.094	46139.87
714.438	45952.99
714.782	46025.08
715.125	45856.27
715.469	45798.41
715.812	45743.05
716.156	45511.42
716.499	45490.4
716.843	45476.16
717.186	45330.18
717.53	45435.94
717.873	45496.95
718.216	45228.49
718.559	45117.53
718.902	44799.57
719.246	45124.99
719.589	44715.96
719.932	44656.07
720.275	44655.17
720.617	44720.7
720.96	44584.21
721.303	44536.53
721.646	44473.03
721.989	44254.05
722.331	44492.91
722.674	44330.66
723.016	44251.79
723.359	44190.32
723.701	44202.07
724.044	43879.59
724.386	43803.66
724.729	43954.4
725.071	43708.75
725.413	43648.41
725.755	43562.09
726.097	43508.53
726.439	43491.58
726.782	43435.09
727.124	43620.17
727.465	43319.16
727.807	43180.86
728.149	43131.59
728.491	43078.03
728.833	43099.5
729.175	42811.83
729.516	42846.85
729.858	42756.91
730.199	42807.76
730.541	42844.37
730.882	42762.34
731.224	42807.08
731.565	42580.19
731.906	42599.18
732.248	42574.09
732.589	42420.88
732.93	42248.45
733.271	42387.43
733.612	42455.23
733.953	42423.59
734.294	42139.75
734.635	42153.76
734.976	42233.54
735.317	41945.18
735.658	41896.14
735.999	41825.86
736.339	41833.77
736.68	41824.06
737.021	41650.5
737.361	41589.71
737.702	41814.34
738.042	41589.49
738.383	41545.42
738.723	41562.82
739.063	41356.72
739.404	41395.37
739.744	41388.81
740.084	41285.76
740.424	41348.81
740.764	41186.56
741.104	41203.28
741.444	41045.77
741.784	40959.67
742.124	41029.73
742.464	40906.11
742.804	40818.88
743.143	40597.65
743.483	40795.16
743.823	40562.62
744.162	40526.46
744.502	40558.78
744.841	40400.59
745.181	40526.01
745.52	40555.61
745.86	40449.85
746.199	40218.22
746.538	40274.94
746.877	40307.03
747.216	40220.26
747.556	40082.86
747.895	40137.55
748.234	39811
748.573	39829.08
748.911	39978.23
749.25	39847.38
749.589	39752.02
749.928	39710.44
750.267	39889.64
750.605	39626.83
750.944	39499.6
751.283	39433.84
751.621	39463.89
751.96	39272.94
752.298	39189.55
752.636	39199.27
752.975	38928.54
753.313	38868.88
753.651	39042.43
753.989	38900.52
754.327	38723.8
754.666	38642.67
755.004	38637.02
755.342	38705.27
755.679	38569
756.017	38271.61
756.355	38474.54
756.693	38142.8
757.031	38379.17
757.368	37938.96
757.706	37980.09
758.044	37809.02
758.381	37924.95
758.719	37637.5
759.056	37763.6
759.394	37573.32
759.731	37383.49
760.068	37301.24
760.405	37304.17
760.743	37035.93
761.08	37115.7
761.417	36901.02
761.754	36811.08
762.091	36840.68
762.428	36664.64
762.765	36527.7
763.102	36460.35
763.438	36298.78
763.775	36163.64
764.112	36292.22
764.449	36247.48
764.785	36031.44
765.122	35902.63
765.458	35719.36
765.795	35721.84
766.131	35712.35
766.467	35435.07
766.804	35344.45
767.14	35084.12
767.476	35239.6
767.812	35053.16
768.148	35023.56
768.485	34721.87
768.821	34595.09
769.157	34573.62
769.492	34409.11
769.828	34450.46
770.164	34149.46
770.5	34062.9
770.836	34097.25
771.171	33864.94
771.507	33772.97
771.842	33677.38
772.178	33638.51
772.513	33366.65
772.849	33370.04
773.184	33293.88
773.519	33145.64
773.855	33063.83
774.19	32972.09
774.525	32789.49
774.86	32692.54
775.195	32744.52
775.53	32547.69
775.865	32252.33
776.2	32060.7
776.535	31919.23
776.87	31933.92
777.205	31762.17
777.539	31673.81
777.874	31914.94
778.209	31450.54
778.543	31431.11
778.878	31141.85
779.212	31120.83
779.547	30978.92
779.881	31168.74
780.215	30862.76
780.55	30888.75
780.884	30753.84
781.218	30638.81
781.552	30600.17
781.886	30418.93
782.22	30251.03
782.554	30229.78
782.888	29932.16
783.222	29911.37
783.556	29703.02
783.889	29685.17
784.223	29491.72
784.557	29359.3
784.89	29412.86
785.224	29128.57
785.557	29161.79
785.891	28965.41
786.224	28933.55
786.558	28882.02
786.891	28626.21
787.224	28614.91
787.557	28564.97
787.891	28324.75
788.224	28343.51
788.557	28358.65
788.89	28188.26
789.223	28093.57
789.556	27981.48
789.888	27940.58
790.221	27776.74
790.554	27619.68
790.887	27698.78
791.219	27537.43
791.552	27383.76
791.884	27240.94
792.217	27183.08
792.549	27037.1
792.882	26879.59
793.214	26831.23
793.546	26917.78
793.879	26636.43
794.211	26617.68
794.543	26635.08
794.875	26473.05
795.207	26592.14
795.539	26311.7
795.871	26364.58
796.203	26119.84
796.535	26081.42
796.867	25879.16
797.198	25856.79
797.53	25938.6
797.862	25702.9
798.193	25780.86
798.525	25520.3
798.856	25620.41
799.188	25395.79
799.519	25158.05
799.85	25102.01
800.182	25065.63
800.513	25154.66
800.844	24978.17
801.175	25026.08
801.506	24878.06
801.837	24873.54
802.168	24796.25
802.499	24735.24
802.83	24569.82
803.161	24422.25
803.491	24456.15
803.822	24380.9
804.153	24356.72
804.483	24285.76
804.814	24114.01
805.145	24040.34
805.475	23927.35
805.805	23914.02
806.136	23843.51
806.466	23827.92
806.796	23910.85
807.126	23575.27
807.457	23509.96
807.787	23641.03
808.117	23508.38
808.447	23349.06
808.777	23482.62
809.107	23275.84
809.436	23234.71
809.766	23162.17
810.096	23085.79
810.426	23101.38
810.755	23010.99
811.085	22919.47
811.414	22879.7
811.744	22680.83
812.073	22649.87
812.403	22705.24
812.732	22593.15
813.061	22610.55
813.39	22416.2
813.719	22329.2
814.049	22373.04
814.378	22240.84
814.707	22174.4
815.036	22213.05
815.365	22059.38
815.693	21802.66
816.022	21925.82
816.351	21847.18
816.68	21762.89
817.008	21817.58
817.337	21660.52
817.665	21581.65
817.994	21625.26
818.322	21631.37
818.651	21586.4
818.979	21487.87
819.307	21497.81
819.636	21416.68
819.964	21203.81
820.292	21297.36
820.62	21274.09
820.948	21263.92
821.276	21351.37
821.604	21211.49
821.932	21275.9
822.259	21300.53
822.587	21179.17
822.915	21195.45
823.243	21302.11
823.57	21210.36
823.898	21136.01
824.225	21039.97
824.553	21023.92
824.88	21158.61
825.207	21140.76
825.535	21162
825.862	21201.32
826.189	21060.53
826.516	21119.97
826.843	21270.92
827.17	21152.51
827.497	21173.3
827.824	21084.71
828.151	21118.84
828.478	21126.75
828.805	21228.44
829.131	21158.84
829.458	21032.29
829.785	21014.21
830.111	21044.26
830.438	21098.72
830.764	21008.11
831.09	21112.28
831.417	20938.5
831.743	21094.21
832.069	20971.5
832.395	20898.73
832.722	21039.52
833.048	20923.81
833.374	20960.42
833.7	20794.33
834.026	20792.07
834.351	20972.63
834.677	20764.95
835.003	20894.21
835.329	20851.05
835.654	20797.04
835.98	20750.03
836.306	20680.66
836.631	20662.35
836.956	20698.51
837.282	20715.46
837.607	20604.05
837.932	20626.87
838.258	20563.6
838.583	20516.59
838.908	20317.28
839.233	20372.87
839.558	20338.29
839.883	20244.74
840.208	20277.05
840.533	20362.02
840.858	20300.1
841.182	20286.09
841.507	20254.23
841.832	20082.48
842.156	20117.28
842.481	20121.8
842.805	19904.86
843.13	20028.24
843.454	19932.88
843.778	19817.63
844.103	19792.32
844.427	19732.66
844.751	19679.33
845.075	19639.78
845.399	19578.09
845.723	19485.21
846.047	19560.01
846.371	19346.23
846.695	19365.44
847.019	19095.61
847.343	19144.2
847.666	18958.22
847.99	18982.17
848.313	18939.01
848.637	18766.13
848.96	18802.29
849.284	18685.68
849.607	18607.72
849.931	18551.67
850.254	18442.3
850.577	18339.25
850.9	18276.43
851.223	18207.28
851.546	18035.98
851.869	18000.28
852.192	18085.02
852.515	17875.98
852.838	17887.51
853.161	17844.12
853.483	17714.63
853.806	17549.21
854.129	17648.42
854.451	17469.67
854.774	17507.18
855.096	17388.77
855.419	17321.42
855.741	17443.91
856.063	17234.19
856.385	17180.64
856.708	17121.43
857.03	17028.32
857.352	17039.62
857.674	16976.57
857.996	16943.13
858.318	16858.61
858.64	16857.25
858.961	16865.84
859.283	16826.29
859.605	16697.26
859.926	16623.81
860.248	16640.76
860.57	16565.74
860.891	16486.87
861.212	16519.18
861.534	16458.62
861.855	16338.85
862.176	16484.16
862.498	16425.18
862.819	16282.81
863.14	16239.87
863.461	16247.33
863.782	16180.44
864.103	16200.32
864.424	16108.35
864.745	16079.2
865.065	16035.81
865.386	16046.2
865.707	15986.32
866.027	15953.78
866.348	15922.82
866.668	15926.21
866.989	15930.95
867.309	15822.03
867.63	15783.38
867.95	15735.02
868.27	15707
868.59	15642.37
868.91	15761.46
869.23	15642.15
869.55	15664.97
869.87	15680.34
870.19	15724.85
870.51	15650.73
870.83	15634.01
871.15	15502.94
871.469	15503.84
871.789	15504.52
872.109	15542.49
872.428	15436.5
872.748	15451.42
873.067	15472.66
873.386	15437.18
873.706	15369.84
874.025	15387.69
874.344	15209.39
874.663	15329.16
874.982	15248.94
875.301	15243.51
875.62	15254.13
875.939	15135.04
876.258	15122.38
876.577	15122.16
876.896	15105.21
877.214	14938.21
877.533	14951.99
877.852	15035.16
878.17	15029.51
878.489	14923.75
878.807	14958.77
879.125	14970.98
879.444	14972.11
879.762	14794.26
880.08	14773.47
880.398	14711.55
880.716	14783.41
881.034	14678.33
881.352	14684.66
881.67	14625
881.988	14657.99
882.306	14622.06
882.624	14551.78
882.941	14626.8
883.259	14471.78
883.577	14491.67
883.894	14376.42
884.212	14430.43
884.529	14410.99
884.846	14309.07
885.164	14375.96
885.481	14282.18
885.798	14269.75
886.115	14213.48
886.432	14133.26
886.75	14100.72
887.067	14117.89
887.383	14052.58
887.7	14013.04
888.017	13965.35
888.334	13882.64
888.651	13830.67
888.967	13826.83
889.284	13812.59
889.6	13791.57
889.917	13698.02
890.233	13675.64
890.55	13639.71
890.866	13634.29
891.182	13545.03
891.498	13549.54
891.815	13503.67
892.131	13433.39
892.447	13440.85
892.763	13324.24
893.079	13299.61
893.395	13263.9
893.71	13172.38
894.026	13217.35
894.342	13168.99
894.657	12992.05
894.973	13059.61
895.289	13096.9
895.604	13056.9
895.92	12960.18
896.235	12931.93
896.55	12949.33
896.865	12857.36
897.181	12824.37
897.496	12841.99
897.811	12716.35
898.126	12696.91
898.441	12560.19
898.756	12657.59
899.071	12547.31
899.386	12585.5
899.7	12375.11
900.015	12438.39
900.33	12308
900.644	12293.76
900.959	12283.82
901.273	12274.78
901.588	12165.4
901.902	12095.35
902.216	11973.99
902.531	12021
902.845	11970.6
903.159	11858.06
903.473	11870.27
903.787	11853.77
904.101	11769.03
904.415	11769.7
904.729	11708.46
905.042	11665.98
905.356	11565.87
905.67	11575.13
905.984	11591.4
906.297	11554.34
906.611	11482.48
906.924	11396.16
907.237	11466.21
907.551	11367.68
907.864	11268.7
908.177	11259.44
908.491	11150.29
908.804	11138.99
909.117	11077.75
909.43	11009.95
909.743	11044.98
910.056	10973.79
910.368	10912.33
910.681	10843.63
910.994	10824.42
911.307	10809.28
911.619	10603.18
911.932	10702.39
912.244	10565.44
912.557	10568.15
912.869	10521.15
913.181	10493.35
913.494	10489.06
913.806	10393.24
914.118	10390.98
914.43	10337.2
914.742	10355.73
915.054	10268.73
915.366	10222.85
915.678	10156.87
915.99	10103.53
916.302	10023.31
916.613	9963.42
916.925	9933.59
917.236	9933.59
917.548	9917.1
917.859	9896.31
918.171	9787.61
918.482	9791.23
918.794	9709.87
919.105	9697.44
919.416	9674.84
919.727	9636.2
920.038	9566.82
920.349	9545.36
920.66	9481.18
920.971	9441.63
921.282	9455.87
921.593	9360.95
921.903	9275.76
922.214	9239.38
922.525	9256.55
922.835	9198.92
923.146	9133.39
923.456	9134.97
923.767	9075.31
924.077	9053.39
924.387	8945.82
924.697	8953.06
925.008	8895.88
925.318	8941.3
925.628	8865.37
925.938	8800.74
926.248	8742.89
926.558	8724.59
926.867	8697.47
927.177	8662.44
927.487	8640.07
927.796	8506.74
928.106	8465.61
928.416	8477.81
928.725	8465.61
929.034	8412.28
929.344	8439.4
929.653	8366.63
929.962	8372.28
930.271	8292.06
930.581	8208.67
930.89	8201.21
931.199	8185.62
931.508	8087.09
931.817	8153.98
932.125	8091.38
932.434	8085.96
932.743	8025.62
933.051	7953.99
933.36	7877.38
933.669	7852.52
933.977	7853.65
934.286	7779.08
934.594	7782.24
934.902	7664.05
935.21	7750.6
935.519	7739.3
935.827	7680.55
936.135	7658.4
936.443	7535.92
936.751	7524.84
937.059	7526.88
937.367	7482.81
937.674	7488.24
937.982	7413.66
938.29	7324.85
938.597	7335.02
938.905	7306.09
939.213	7214.8
939.52	7134.57
939.827	7211.41
940.135	7114.46
940.442	7089.83
940.749	7044.63
941.056	7120.79
941.363	7024.97
941.67	7012.32
941.977	6957.85
942.284	6852.09
942.591	6925.99
942.898	6871.53
943.205	6850.74
943.511	6851.87
943.818	6757.18
944.125	6720.35
944.431	6722.83
944.738	6685.54
945.044	6629.5
945.35	6628.82
945.657	6579.11
945.963	6560.35
946.269	6590.63
946.575	6548.6
946.881	6503.63
947.187	6424.53
947.493	6454.36
947.799	6381.6
948.105	6339.34
948.41	6312.67
948.716	6303.63
949.022	6293.24
949.327	6285.78
949.633	6183.18
949.938	6178.67
950.244	6138.44
950.549	6108.16
950.854	6107.03
951.16	6088.95
951.465	6093.47
951.77	6043.98
952.075	5948.16
952.38	5987.26
952.685	5934.15
952.99	5896.41
953.294	5881.95
953.599	5860.26
953.904	5792.01
954.209	5795.62
954.513	5788.62
954.818	5778
955.122	5762.18
955.426	5714.72
955.731	5672.01
956.035	5674.05
956.339	5629.3
956.643	5608.06
956.948	5553.14
957.252	5550.43
957.556	5542.98
957.86	5465.24
958.163	5478.34
958.467	5461.17
958.771	5451.23
959.075	5464.11
959.378	5376.88
959.682	5412.36
959.985	5384.56
960.289	5339.59
960.592	5275.19
960.896	5248.52
961.199	5196.32
961.502	5200.16
961.805	5206.49
962.108	5151.57
962.411	5138.47
962.714	5102.54
963.017	5137.79
963.32	5050.33
963.623	5040.39
963.926	5043.55
964.228	4970.56
964.531	4974.86
964.833	5027.28
965.136	4930.79
965.438	4900.96
965.741	4884.46
966.043	4867.74
966.345	4772.15
966.648	4777.57
966.95	4815.31
967.252	4766.05
967.554	4750.91
967.856	4759.49
968.158	4693.05
968.46	4708.87
968.761	4698.93
969.063	4647.18
969.365	4585.49
969.666	4605.15
969.968	4539.84
970.269	4572.15
970.571	4553.17
970.872	4537.8
971.174	4502.78
971.475	4522.21
971.776	4472.95
972.077	4464.59
972.378	4375.32
972.679	4400.86
972.98	4357.7
973.281	4395.44
973.582	4364.48
973.883	4334.42
974.183	4288.09
974.484	4295.55
974.785	4260.75
975.085	4260.98
975.386	4267.76
975.686	4216.91
975.986	4166.06
976.287	4150.47
976.587	4178.94
976.887	4127.87
977.187	4074.77
977.487	4103.92
977.787	4078.16
978.087	4046.97
978.387	4023.02
978.687	4095.78
978.987	3991.6
979.286	3946.63
979.586	3986.86
979.885	3934.88
980.185	3927.2
980.484	3892.85
980.784	3887.88
981.083	3863.02
981.382	3875
981.682	3821.21
981.981	3824.6
982.28	3792.29
982.579	3738.5
982.878	3756.81
983.177	3764.72
983.475	3727.88
983.774	3715.23
984.073	3688.34
984.372	3666.19
984.67	3695.79
984.969	3686.53
985.267	3609.24
985.566	3615.34
985.864	3586.19
986.162	3527.44
986.461	3539.41
986.759	3522.92
987.057	3558.17
987.355	3531.96
987.653	3510.26
987.951	3474.78
988.249	3442.69
988.547	3463.26
988.844	3372.86
989.142	3437.95
989.44	3413.99
989.737	3359.76
990.035	3342.36
990.332	3296.03
990.63	3322.24
990.927	3280.89
991.224	3280.66
991.521	3279.31
991.819	3289.7
992.116	3225.07
992.413	3247.67
992.71	3218.74
993.006	3199.76
993.303	3193.43
993.6	3161.8
993.897	3152.53
994.193	3152.3
994.49	3138.52
994.787	3104.17
995.083	3096.26
995.379	3070.27
995.676	3037.73
995.972	3053.32
996.268	3013.1
996.565	3011.06
996.861	2985.08
997.157	2984.17
997.453	2960.67
997.749	2962.48
998.044	2910.95
998.34	2933.78
998.636	2863.05
998.932	2901.46
999.227	2823.73
999.523	2828.24
999.818	2854.01
1000.114	2803.84
1000.409	2836.15
1000.704	2777.17
1001	2751.64
1001.295	2734.69
1001.59	2764.07
1001.885	2731.07
1002.18	2717.51
1002.475	2695.82
1002.77	2665.76
1003.065	2708.02
1003.359	2653.79
1003.654	2641.13
1003.949	2614.24
1004.243	2594.58
1004.538	2584.18
1004.832	2559.55
1005.127	2529.95
1005.421	2510.97
1005.715	2524.3
1006.009	2499.67
1006.304	2503.28
1006.598	2485.2
1006.892	2472.77
1007.186	2433.68
1007.48	2456.05
1007.773	2425.32
1008.067	2395.26
1008.361	2382.38
1008.655	2377.18
1008.948	2361.82
1009.242	2355.26
1009.535	2340.12
1009.829	2321.59
1010.122	2315.04
1010.415	2277.98
1010.708	2291.31
1011.001	2254.7
1011.295	2242.05
1011.588	2228.03
1011.881	2214.02
1012.173	2207.7
1012.466	2177.41
1012.759	2184.19
1013.052	2167.25
1013.344	2162.27
1013.637	2129.96
1013.93	2126.12
1014.222	2114.14
1014.514	2115.04
1014.807	2078.89
1015.099	2087.25
1015.391	2091.99
1015.683	2054.03
1015.976	2064.88
1016.268	2049.96
1016.56	2028.72
1016.851	2020.36
1017.143	1971.32
1017.435	1978.32
1017.727	1946.23
1018.018	1939.68
1018.31	1955.5
1018.602	1940.13
1018.893	1890.87
1019.185	1915.73
1019.476	1883.86
1019.767	1890.64
1020.058	1864.2
1020.35	1843.86
1020.641	1827.82
1020.932	1808.61
1021.223	1794.37
1021.514	1808.84
1021.804	1757.99
1022.095	1767.48
1022.386	1744.66
1022.677	1775.62
1022.967	1728.61
1023.258	1723.42
1023.548	1707.37
1023.839	1705.34
1024.129	1677.09
1024.419	1694.72
1024.709	1662.4
1025	1666.92
1025.29	1609.29
1025.58	1607.49
1025.87	1630.76
1026.16	1599.12
1026.449	1584.44
1026.739	1567.04
1027.029	1610.2
1027.319	1574.49
1027.608	1547.6
1027.898	1520.26
1028.187	1522.06
1028.477	1535.4
1028.766	1552.35
1029.055	1509.41
1029.344	1457.89
1029.634	1455.17
1029.923	1468.73
1030.212	1479.81
1030.501	1475.29
1030.79	1447.04
1031.078	1436.19
1031.367	1404.33
1031.656	1390.99
1031.945	1388.96
1032.233	1386.02
1032.522	1398
1032.81	1366.59
1033.099	1368.85
1033.387	1363.2
1033.675	1356.19
1033.963	1329.08
1034.251	1306.02
1034.54	1296.53
1034.828	1311.45
1035.116	1281.62
1035.403	1290.66
1035.691	1269.19
1035.979	1277.1
1036.267	1269.42
1036.554	1254.27
1036.842	1230.32
1037.129	1242.3
1037.417	1239.81
1037.704	1203.43
1037.992	1221.96
1038.279	1215.41
1038.566	1179.7
1038.853	1179.7
1039.14	1179.7
