Data from whiteboard_FLMS001491_00055.txt Node
Date: Wed Feb 08 11:27:06 GMT 2017
User: dcchb
Spectrometer: FLMS00149
Trigger mode: 0
Integration Time (sec): 2.000000E-2
Scans to average: 10
Electric dark correction enabled: true
Nonlinearity correction enabled: false
Boxcar width: 0
XAxis mode: Wavelengths
Number of Pixels in Spectrum: 2048
>>>>>Begin Spectral Data<<<<<
341.393	-14.46
341.776	-14.46
342.16	-14.46
342.543	-73.67
342.927	-67.34
343.31	-72.54
343.693	-70.28
344.077	-53.33
344.46	-77.74
344.843	-42.94
345.226	-28.02
345.61	-25.99
345.993	-15.59
346.376	-11.98
346.759	16.72
347.142	23.28
347.525	37.29
347.908	34.8
348.291	82.94
348.674	89.04
349.057	114.35
349.44	150.28
349.823	143.5
350.206	172.88
350.588	214.23
350.971	224.17
351.354	233.21
351.737	278.18
352.119	271.41
352.502	279.77
352.884	300.33
353.267	310.73
353.65	328.13
354.032	312.53
354.414	325.19
354.797	323.38
355.179	351.86
355.562	370.16
355.944	367.9
356.326	348.47
356.709	360.67
357.091	370.84
357.473	371.97
357.855	369.71
358.238	378.52
358.62	377.62
359.002	376.71
359.384	392.08
359.766	364.96
360.148	346.88
360.53	371.74
360.912	354.79
361.294	371.06
361.676	371.52
362.057	374.23
362.439	360.22
362.821	375.58
363.203	371.29
363.584	389.59
363.966	358.63
364.348	354.11
364.729	354.57
365.111	379.2
365.493	379.88
365.874	376.94
366.256	370.61
366.637	349.37
367.019	364.06
367.4	348.69
367.781	367.9
368.163	367
368.544	373.78
368.925	352.53
369.306	358.63
369.688	377.62
370.069	348.69
370.45	365.19
370.831	355.24
371.212	383.72
371.593	372.19
371.974	387.33
372.355	365.87
372.736	378.3
373.117	387.11
373.498	361.35
373.879	381.46
374.26	385.3
374.641	365.19
375.021	369.03
375.402	378.07
375.783	404.74
376.163	422.59
376.544	388.01
376.925	390.27
377.305	410.38
377.686	383.49
378.066	382.14
378.447	403.83
378.827	424.62
379.208	427.79
379.588	425.07
379.968	416.03
380.349	396.83
380.729	421.46
381.109	422.36
381.489	430.05
381.87	427.56
382.25	434.79
382.63	442.93
383.01	446.32
383.39	428.24
383.77	450.16
384.15	422.81
384.53	452.19
384.91	435.69
385.29	446.09
385.67	459.65
386.049	452.42
386.429	475.47
386.809	456.71
387.189	462.36
387.568	503.04
387.948	500.78
388.328	498.07
388.707	510.04
389.087	484.96
389.466	509.82
389.846	519.53
390.225	534.9
390.605	520.44
390.984	532.19
391.363	556.14
391.743	552.08
392.122	540.55
392.501	571.28
392.881	559.53
393.26	561.79
393.639	582.81
394.018	586.88
394.397	589.82
394.776	609.7
395.155	624.84
395.534	613.32
395.913	603.37
396.292	612.19
396.671	622.81
397.05	651.96
397.429	674.33
397.808	653.99
398.186	688.8
398.565	693.09
398.944	699.42
399.323	697.38
399.701	699.19
400.08	719.08
400.458	730.15
400.837	748.68
401.215	761.79
401.594	764.73
401.972	783.48
402.351	774.89
402.729	790.49
403.107	841.33
403.486	838.4
403.864	855.57
404.242	835.23
404.62	889.92
404.999	851.96
405.377	873.88
405.755	893.31
406.133	917.04
406.511	933.08
406.889	948.45
407.267	989.13
407.645	1003.36
408.023	1052.85
408.401	1028
408.779	1042.01
409.156	1085.85
409.534	1114.32
409.912	1107.99
410.29	1117.26
410.667	1160.65
411.045	1160.2
411.422	1211.72
411.8	1227.31
412.178	1249.23
412.555	1274.77
412.933	1307.54
413.31	1315.67
413.687	1339.85
414.065	1344.82
414.442	1369
414.819	1417.36
415.197	1438.61
415.574	1446.52
415.951	1451.94
416.328	1504.14
416.705	1489.68
417.082	1525.16
417.46	1518.15
417.837	1539.39
418.214	1586.4
418.591	1603.8
418.967	1606.51
419.344	1644.48
419.721	1654.65
420.098	1691.03
420.475	1703.46
420.852	1716.34
421.228	1695.55
421.605	1772.16
421.982	1790.24
422.358	1790.46
422.735	1825.04
423.111	1837.92
423.488	1884.47
423.864	1860.06
424.241	1903
424.617	1919.95
424.994	1970.34
425.37	2002.66
425.746	1999.04
426.123	1994.07
426.499	2048.53
426.875	2053.05
427.251	2119.04
427.627	2146.16
428.003	2147.51
428.379	2203.33
428.756	2211.24
429.132	2247.4
429.507	2300.96
429.883	2317.68
430.259	2378.92
430.635	2371.92
431.011	2433.83
431.387	2500.05
431.763	2490.33
432.138	2535.75
432.514	2569.42
432.89	2605.36
433.265	2635.41
433.641	2693.49
434.016	2682.42
434.392	2772.13
434.767	2836.31
435.143	2818.23
435.518	2832.69
435.894	2912.92
436.269	2976.64
436.644	2969.64
437.02	3000.15
437.395	3008.73
437.77	3090.09
438.145	3120.6
438.52	3129.86
438.895	3144.32
439.271	3179.13
439.646	3256.41
440.021	3300.25
440.395	3314.49
440.77	3298.22
441.145	3356.97
441.52	3388.16
441.895	3389.06
442.27	3426.58
442.645	3435.16
443.019	3516.29
443.394	3515.61
443.769	3548.83
444.143	3493.47
444.518	3623.18
444.892	3610.3
445.267	3627.02
445.641	3671.32
446.016	3709.96
446.39	3704.54
446.764	3753.12
447.139	3769.84
447.513	3802.61
447.887	3799.67
448.262	3809.62
448.636	3910.18
449.01	3973
449.384	3983.4
449.758	3996.28
450.132	4034.7
450.506	4108.82
450.88	4153.56
451.254	4132.55
451.628	4209.15
452.002	4220.23
452.376	4244.63
452.75	4338.87
453.123	4371.41
453.497	4466.55
453.871	4507.23
454.244	4601.23
454.618	4584.06
454.992	4667
455.365	4679.42
455.739	4779.54
456.112	4866.76
456.486	4901.57
456.859	4913.77
457.232	5039.64
457.606	4980.89
457.979	5096.59
458.352	5200.99
458.725	5295.45
459.099	5282.57
459.472	5437.82
459.845	5434.89
460.218	5468.56
460.591	5578.16
460.964	5618.84
461.337	5713.07
461.71	5844.82
462.083	5956.23
462.456	5910.13
462.829	5918.49
463.201	6096.79
463.574	6127.75
463.947	6160.52
464.32	6338.36
464.692	6394.18
465.065	6421.07
465.438	6469.66
465.81	6669.88
466.183	6706.49
466.555	6838.69
466.928	6917.78
467.3	6937.9
467.672	7000.95
468.045	7223.09
468.417	7247.49
468.789	7341.5
469.161	7462.85
469.534	7559.12
469.906	7696.07
470.278	7782.17
470.65	7886.8
471.022	8011.99
471.394	8191.42
471.766	8220.12
472.138	8344.87
472.51	8571.75
472.882	8664.4
473.253	8830.73
473.625	8900.78
473.997	9101.68
474.369	9153.43
474.74	9252.41
475.112	9422.8
475.484	9544.61
475.855	9719.07
476.227	9871.15
476.598	10133.97
476.97	10180.3
477.341	10388.65
477.713	10623.22
478.084	10719.94
478.455	11050.33
478.827	11098.92
479.198	11362.41
479.569	11399.7
479.94	11658.22
480.311	11892.34
480.682	12107.03
481.053	12369.84
481.424	12604.87
481.795	12657.29
482.166	12918.3
482.537	13071.75
482.908	13358.29
483.279	13471.06
483.65	13692.52
484.021	14120.08
484.391	14163.7
484.762	14348.55
485.133	14425.16
485.503	14586.74
485.874	14912.83
486.244	15100.62
486.615	15459.93
486.985	15564.56
487.356	15929.75
487.726	16009.97
488.097	16393.47
488.467	16420.59
488.837	16861.03
489.207	16929.05
489.578	17184.41
489.948	17407.68
490.318	17614.68
490.688	17680.44
491.058	18017.61
491.428	18263.93
491.798	18454.88
492.168	18841.76
492.538	18853.06
492.908	19108.88
493.278	19467.96
493.648	19586.38
494.017	19743.44
494.387	19941.85
494.757	20018.91
495.126	20268.85
495.496	20338.67
495.866	20526.01
496.235	20784.99
496.605	21013.68
496.974	21007.81
497.344	21321.47
497.713	21334.58
498.082	21610.51
498.452	21759.43
498.821	21854.11
499.19	21956.26
499.559	22239.19
499.928	22283.48
500.298	22507.2
500.667	22670.82
501.036	22671.04
501.405	22901.32
501.774	22995.78
502.143	23203.46
502.512	23415.66
502.88	23590.34
503.249	23493.85
503.618	23678.93
503.987	23835.31
504.356	24090.67
504.724	24152.81
505.093	24351
505.462	24418.34
505.83	24736.52
506.199	24806.81
506.567	25285.66
506.936	24990.76
507.304	25436.17
507.672	25514.13
508.041	25702.38
508.409	25998.86
508.777	26129.48
509.145	26375.58
509.514	26449.47
509.882	26652.86
510.25	26718.85
510.618	26922.68
510.986	27050.81
511.354	27391.6
511.722	27569.22
512.09	27813.96
512.458	27880.62
512.826	28210.11
513.193	28293.95
513.561	28339.59
513.929	28581.62
514.297	28940.03
514.664	29077.65
515.032	29224.77
515.4	29384.31
515.767	29600.8
516.135	29937.97
516.502	29660.69
516.869	30267
517.237	30378.18
517.604	30403.72
517.972	30824.95
518.339	30983.82
518.706	31059.97
519.073	31362.57
519.44	31573.18
519.808	31934.75
520.175	31978.14
520.542	32385.14
520.909	32474.17
521.276	32467.39
521.643	32849.08
522.009	32970.88
522.376	33360.25
522.743	33514.6
523.11	33943.51
523.477	34171.76
523.843	34392.54
524.21	34597.06
524.577	34883.38
524.943	35150.26
525.31	35312.07
525.676	35677.71
526.043	35653.98
526.409	35923.12
526.776	36394.52
527.142	36550.23
527.508	36725.81
527.874	36909.99
528.241	37149.31
528.607	37280.15
528.973	37614.6
529.339	37585.23
529.705	37986.57
530.071	38271.54
530.437	38376.62
530.803	38715.59
531.169	38786.32
531.535	38726.89
531.901	39106.54
532.267	39239.19
532.632	39496.59
532.998	39661.56
533.364	39867.43
533.73	39827.43
534.095	40223.35
534.461	40249.34
534.826	40546.28
535.192	40777.68
535.557	40972.93
535.923	41072.59
536.288	41392.13
536.653	41404.79
537.019	41338.57
537.384	41562.97
537.749	41941.95
538.114	42014.04
538.479	42194.6
538.845	42397.98
539.21	42242.05
539.575	42505.55
539.94	42649.27
540.305	42949.38
540.67	42870.29
541.034	43145.98
541.399	43425.3
541.764	43446.54
542.129	43721.34
542.494	43923.36
542.858	44055.56
543.223	44002.68
543.587	44474.76
543.952	44400.87
544.316	44565.38
544.681	44655.32
545.045	44808.09
545.41	44942.55
545.774	45137.57
546.138	45235.65
546.503	45425.92
546.867	45462.76
547.231	45809.64
547.595	45917.89
547.959	45949.53
548.324	45998.34
548.688	46091.44
549.052	46204.89
549.416	46294.38
549.779	46256.41
550.143	46440.81
550.507	46753.12
550.871	46718.09
551.235	46822.5
551.599	47088.03
551.962	47085.77
552.326	47163.51
552.689	47470.62
553.053	47248.48
553.417	47421.8
553.78	47958.06
554.143	47741.57
554.507	47958.74
554.87	48102.01
555.234	48360.76
555.597	48203.7
555.96	48507.2
556.323	48618.61
556.686	48707.42
557.05	48852.05
557.413	49034.64
557.776	49046.39
558.139	49360.96
558.502	49280.51
558.865	49414.07
559.228	49714.17
559.59	49773.61
559.953	49932.02
560.316	50202.75
560.679	50303.99
561.041	50509.41
561.404	50638.44
561.767	50894.26
562.129	50757.99
562.492	51151.2
562.854	51146.9
563.217	51272.32
563.579	51437.29
563.941	51614.24
564.304	51629.15
564.666	51947.79
565.028	51952.98
565.39	52105.52
565.753	52285.63
566.115	52395.01
566.477	52508.45
566.839	52600.42
567.201	52851.27
567.563	52959.51
567.925	53155.21
568.287	53166.96
568.648	53271.14
569.01	53436.56
569.372	53533.51
569.734	53580.96
570.095	53762.2
570.457	53822.09
570.819	53869.32
571.18	53927.62
571.542	54152.7
571.903	54160.84
572.265	54257.78
572.626	54354.95
572.987	54406.03
573.349	54512.01
573.71	54648.73
574.071	54712.69
574.432	54755.85
574.794	54991.32
575.155	54918.1
575.516	54885.79
575.877	55084.43
576.238	55077.65
576.599	55226.8
576.96	55301.37
577.32	55240.13
577.681	55343.4
578.042	55430.63
578.403	55356.51
578.763	55452.1
579.124	55442.16
579.485	55523.74
579.845	55567.35
580.206	55592.44
580.566	55567.13
580.927	55606
581.287	55691.87
581.648	55534.36
582.008	55697.74
582.368	55720.79
582.728	55787.91
583.089	55715.82
583.449	55743.85
583.809	55723.28
584.169	55740.91
584.529	55694.13
584.889	55931.64
585.249	55708.14
585.609	55700.68
585.969	55800.11
586.329	55762.38
586.688	55748.82
587.048	55695.48
587.408	55652.32
587.768	55718.31
588.127	55730.74
588.487	55664.53
588.846	55829.27
589.206	55586.34
589.565	55659.33
589.925	55750.85
590.284	55620.23
590.643	55704.75
591.003	55734.58
591.362	55843.96
591.721	55769.83
592.08	55767.35
592.44	55849.83
592.799	55857.97
593.158	55845.09
593.517	55730.29
593.876	55899.1
594.235	55774.35
594.593	55866.78
594.952	55895.25
595.311	55808.93
595.67	55898.87
596.029	55974.57
596.387	55980.9
596.746	56095.02
597.104	55956.27
597.463	55996.49
597.822	56127.56
598.18	56056.83
598.538	56115.81
598.897	56259.31
599.255	56101.12
599.613	56528.23
599.972	56249.14
600.33	56376.37
600.688	56271.97
601.046	56376.82
601.404	56470.15
601.762	56384.96
602.12	56633.31
602.478	56595.57
602.836	56527.55
603.194	56391.51
603.552	56522.36
603.91	56391.96
604.268	56569.13
604.625	56527.78
604.983	56651.39
605.341	56546.08
605.698	56652.07
606.056	56698.4
606.413	56729.81
606.771	56836.25
607.128	56765.06
607.485	56623.37
607.843	56719.19
608.2	56878.96
608.557	56974.32
608.914	56801.44
609.272	56978.61
609.629	56942.23
609.986	56984.49
610.343	56834.44
610.7	57051.38
611.057	56968.9
611.414	56927.32
611.771	57032.62
612.127	57102.68
612.484	57065.17
612.841	57148.78
613.198	57036.24
613.554	57076.01
613.911	57193.07
614.267	57116.92
614.624	57102
614.98	57193.3
615.337	57219.06
615.693	57209.8
616.05	57170.93
616.406	57294.09
616.762	57171.38
617.118	57130.02
617.475	57116.24
617.831	57156.01
618.187	57253.18
618.543	57206.86
618.899	57308.1
619.255	57326.18
619.611	57246.63
619.967	57330.02
620.323	57412.73
620.678	57224.26
621.034	57206.18
621.39	57239.62
621.746	57104.04
622.101	57397.59
622.457	57151.72
622.812	57160.3
623.168	57266.29
623.523	57251.15
623.879	57274.65
624.234	57181.32
624.589	57222.9
624.945	57244.82
625.3	57226.29
625.655	57188.55
626.01	57265.61
626.365	57292.28
626.72	57216.35
627.075	57150.36
627.43	57148.78
627.785	57143.13
628.14	57188.78
628.495	57136.35
628.85	57079.18
629.205	57047.54
629.559	57156.46
629.914	57054.09
630.269	57068.1
630.623	57002.57
630.978	56989.91
631.332	57093.64
631.687	57095.9
632.041	57048.44
632.396	57036.92
632.75	56994.66
633.104	57030.59
633.459	56893.42
633.813	56947.66
634.167	56885.28
634.521	56914.89
634.875	56917.83
635.229	56915.79
635.583	56788.11
635.937	56822.01
636.291	56860.2
636.645	56849.8
636.999	56780.65
637.352	56864.27
637.706	56736.81
638.06	56864.72
638.413	56742.24
638.767	56675.57
639.121	56664.95
639.474	56601.22
639.828	56613.43
640.181	56606.65
640.534	56618.62
640.888	56500.89
641.241	56404.17
641.594	56486.65
641.947	56560.09
642.301	56457.05
642.654	56544.05
643.007	56474.22
643.36	56539.3
643.713	56445.97
644.066	56486.2
644.419	56254.57
644.771	56156.04
645.124	55892.32
645.477	55737.29
645.83	55568.71
646.182	55479.22
646.535	55337.53
646.888	55456.62
647.24	55261.37
647.593	55370.52
647.945	55295.27
648.298	55174.82
648.65	55174.14
649.002	55038.1
649.355	55124.88
649.707	55026.35
650.059	55146.57
650.411	55452.1
650.763	55494.59
651.115	55769.38
651.467	55584.08
651.819	55535.49
652.171	55499.11
652.523	55435.15
652.875	55473.34
653.227	55388.6
653.578	55536.39
653.93	55405.55
654.282	55273.8
654.633	55166.91
654.985	55214.37
655.337	55183.63
655.688	55207.14
656.039	55228.15
656.391	55025.22
656.742	55021.38
657.094	55060.02
657.445	55116.74
657.796	55025.45
658.147	54969.85
658.498	54948.61
658.849	54908.84
659.2	54955.84
659.551	54853.47
659.902	54899.8
660.253	54845.79
660.604	54907.26
660.955	54737.77
661.306	54842.85
661.656	54667.49
662.007	54788.16
662.358	54723.76
662.708	54682.86
663.059	54644.21
663.409	54558.57
663.76	54716.53
664.11	54634.72
664.461	54707.71
664.811	54588.85
665.161	54602.18
665.511	54488.51
665.862	54542.07
666.212	54545.01
666.562	54517.89
666.912	54535.97
667.262	54447.16
667.612	54444.22
667.962	54430.89
668.312	54330.77
668.662	54469.3
669.011	54382.98
669.361	54286.71
669.711	54335.52
670.06	54248.74
670.41	54228.63
670.76	54164.68
671.109	54308.85
671.459	54213.04
671.808	54129.65
672.157	54130.1
672.507	53929.2
672.856	53983.67
673.205	53943.44
673.554	54089.2
673.904	53953.61
674.253	54168.07
674.602	53979.37
674.951	53682.43
675.3	53432.72
675.649	53814.86
675.998	53829.77
676.346	53802.65
676.695	53872.48
677.044	53672.94
677.393	53830.9
677.741	53795.65
678.09	53736.67
678.438	53676.33
678.787	53726.95
679.135	53720.85
679.484	53521.08
679.832	53672.49
680.181	53477.01
680.529	53560.63
680.877	53525.37
681.225	53546.16
681.573	53611.92
681.922	53307.98
682.27	53241.09
682.618	53301.2
682.966	53234.31
683.314	53329.22
683.661	53169.68
684.009	53108.89
684.357	53101.65
684.705	53106.85
685.053	53110.69
685.4	53024.59
685.748	52921.55
686.095	52940.53
686.443	52828.89
686.79	52841.55
687.138	52910.02
687.485	52797.03
687.832	52698.95
688.18	52763.13
688.527	52538.96
688.874	52493.99
689.221	52406.53
689.568	52456.47
689.915	52331.73
690.262	52285.86
690.609	52136.03
690.956	52059.2
691.303	52020.33
691.65	51958.18
691.997	51837.96
692.344	51749.6
692.69	51732.43
693.037	51663.05
693.383	51342.38
693.73	51480
694.077	51156.62
694.423	51200.91
694.769	51160.91
695.116	51003.63
695.462	50942.62
695.808	50729.51
696.155	50833.92
696.501	50539.46
696.847	50499.01
697.193	50135.4
697.539	50230.09
697.885	50132.02
698.231	49998.23
698.577	49899.7
698.923	49906.71
699.269	49530.22
699.614	49417.23
699.96	49274.64
700.306	49335.88
700.651	48996.68
700.997	48888.21
701.342	48840.52
701.688	48738.83
702.033	48644.6
702.379	48557.37
702.724	48397.15
703.069	48553.07
703.415	47963.26
703.76	47930.72
704.105	47883.03
704.45	47883.94
704.795	47568.24
705.14	47486.89
705.485	47369.6
705.83	47141.59
706.175	47265.2
706.52	47058.42
706.865	47035.83
707.209	46900.69
707.554	46749.73
707.899	46891.87
708.243	46640.36
708.588	46615.27
708.932	46259.12
709.277	46149.52
709.621	46184.1
709.966	45953.37
710.31	46194.04
710.654	45620.72
710.998	45871.11
711.342	45718.12
711.687	45496.43
712.031	45352.25
712.375	45340.28
712.719	45256.44
713.063	45287.4
713.407	45346.6
713.75	45015.09
714.094	45075.65
714.438	44911.36
714.782	44906.62
715.125	44704.81
715.469	44743
715.812	44662.78
716.156	44448.32
716.499	44346.4
716.843	44493.29
717.186	44236.13
717.53	44448.32
717.873	44319.06
718.216	44279.29
718.559	44030.03
718.902	43812.63
719.246	44062.57
719.589	43763.37
719.932	43756.59
720.275	43738.96
720.617	43606.76
720.96	43592.98
721.303	43560.89
721.646	43689.47
721.989	43415.81
722.331	43433.43
722.674	43385.3
723.016	43289.94
723.359	43329.26
723.701	43173.33
724.044	43004.29
724.386	42840.46
724.729	43110.05
725.071	42839.78
725.413	42718.65
725.755	42673.91
726.097	42640.46
726.439	42389.17
726.782	42488.6
727.124	42584.19
727.465	42353.69
727.807	42382.16
728.149	42205.67
728.491	42227.59
728.833	42136.29
729.175	42070.76
729.516	42033.25
729.858	41915.73
730.199	41920.25
730.541	41828.28
730.882	41670.54
731.224	41834.38
731.565	41633.71
731.906	41501.51
732.248	41582.18
732.589	41537.44
732.93	41398.46
733.271	41441.62
733.612	41400.04
733.953	41237.79
734.294	41087.28
734.635	41063.1
734.976	41133.16
735.317	40920.73
735.658	40791.02
735.999	40848.19
736.339	40799.38
736.68	40878.25
737.021	40595.99
737.361	40468.54
737.702	40656.11
738.042	40543.79
738.383	40421.31
738.723	40578.82
739.063	40336.34
739.404	40299.96
739.744	40187.87
740.084	40054.99
740.424	40194.65
740.764	39964.15
741.104	40067.2
741.444	39896.13
741.784	39589.47
742.124	39803.02
742.464	39716.24
742.804	39721.22
743.143	39497.72
743.483	39619.98
743.823	39340.21
744.162	39245.52
744.502	39235.13
744.841	39159.2
745.181	39200.1
745.52	39083.04
745.86	39121.01
746.199	38974.79
746.538	38901.58
746.877	39028.35
747.216	38853.22
747.556	38687.57
747.895	38595.14
748.234	38486.67
748.573	38427.92
748.911	38311.08
749.25	38266.56
749.589	38096.4
749.928	38119.22
750.267	38063.86
750.605	38037.64
750.944	37872.9
751.283	37667.71
751.621	37777.54
751.96	37465.91
752.298	37453.25
752.636	37487.15
752.975	37222.75
753.313	36947.5
753.651	37159.47
753.989	36925.36
754.327	36746.6
754.666	36654.4
755.004	36622.09
755.342	36615.76
755.679	36530.11
756.017	36303.9
756.355	36315.66
756.693	36233.17
757.031	36208.54
757.368	36004.7
757.706	35888.1
758.044	35697.59
758.381	35660.08
758.719	35577.6
759.056	35515.22
759.394	35375.57
759.731	35058.29
760.068	35075.01
760.405	34861
760.743	34972.19
761.08	34782.36
761.417	34723.61
761.754	34575.14
762.091	34389.83
762.428	34325.43
762.765	34100.57
763.102	34184.86
763.438	33957.07
763.775	33953.91
764.112	33884.76
764.449	33808.38
764.785	33610.87
765.122	33426.24
765.458	33286.13
765.795	33216.08
766.131	33182.86
766.467	32948.96
766.804	32947.61
767.14	32723.21
767.476	32703.32
767.812	32562.08
768.148	32633.49
768.485	32349.21
768.821	32205.25
769.157	32180.62
769.492	32121.42
769.828	31953.06
770.164	31694.53
770.5	31621.54
770.836	31639.39
771.171	31420.42
771.507	31458.61
771.842	31192.4
772.178	31091.61
772.513	31200.31
772.849	30927.32
773.184	30846.87
773.519	30834.67
773.855	30666.76
774.19	30539.76
774.525	30527.56
774.86	30502.93
775.195	30368.02
775.53	30318.98
775.865	30122.82
776.2	30028.36
776.535	29855.03
776.87	29844.64
777.205	29705.43
777.539	29587.7
777.874	29479.9
778.209	29348.83
778.543	29320.13
778.878	29079.69
779.212	29124.21
779.547	28862.29
779.881	28955.85
780.215	28822.97
780.55	28872.24
780.884	28699.36
781.218	28699.58
781.552	28499.36
781.886	28347.96
782.22	28135.98
782.554	28175.53
782.888	28017.12
783.222	28014.18
783.556	27843.56
783.889	27794.3
784.223	27597.69
784.557	27554.3
784.89	27533.51
785.224	27445.61
785.557	27329
785.891	27313.18
786.224	27213.07
786.558	27227.76
786.891	26820.99
787.224	26835.45
787.557	26613.31
787.891	26600.88
788.224	26587.55
788.557	26669.58
788.89	26479.76
789.223	26334.9
789.556	26253.32
789.888	26040.22
790.221	26036.38
790.554	25859.89
790.887	25790.73
791.219	25719.55
791.552	25709.38
791.884	25612.43
792.217	25534.7
792.549	25550.29
792.882	25275.95
793.214	25167.93
793.546	25210.41
793.879	25070.08
794.211	25063.75
794.543	25013.35
794.875	24913.02
795.207	24898.78
795.539	24779.69
795.871	24601.61
796.203	24550.77
796.535	24346.93
796.867	24481.62
797.198	24249.08
797.53	24294.73
797.862	24211.11
798.193	24230.78
798.525	23901.74
798.856	24032.36
799.188	23704.01
799.519	23676.21
799.85	23521.19
800.182	23487.07
800.513	23535.43
800.844	23300.18
801.175	23337.01
801.506	23224.93
801.837	23204.81
802.168	23036.91
802.499	23041.2
802.83	22986.97
803.161	22887.53
803.491	22913.3
803.822	22737.71
804.153	22658.16
804.483	22538.39
804.814	22405.96
805.145	22257.27
805.475	22311.05
805.805	22240.09
806.136	22341.33
806.466	22224.27
806.796	22090.72
807.126	22040.1
807.457	21873.32
807.787	21768.24
808.117	21766.21
808.447	21708.81
808.777	21812.31
809.107	21718.3
809.436	21629.71
809.766	21490.28
810.096	21452.09
810.426	21384.52
810.755	21351.75
811.085	21174.81
811.414	21160.8
811.744	21085.32
812.073	20985.66
812.403	21037.19
812.732	20864.08
813.061	20839.68
813.39	20771.43
813.719	20722.17
814.049	20675.39
814.378	20596.29
814.707	20522.62
815.036	20506.81
815.365	20373.25
815.693	20216.87
816.022	20058.46
816.351	20086.7
816.68	19985.01
817.008	20152.46
817.337	19956.09
817.665	19832.02
817.994	19858.69
818.322	19639.48
818.651	19695.75
818.979	19633.61
819.307	19688.3
819.636	19470.9
819.964	19405.37
820.292	19395.2
820.62	19467.51
820.948	19332.37
821.276	19373.28
821.604	19376.89
821.932	19340.73
822.259	19298.93
822.587	19286.95
822.915	19187.52
823.243	19212.15
823.57	19174.64
823.898	19283.11
824.225	19113.17
824.553	19146.62
824.88	19174.86
825.207	19119.95
825.535	19093.96
825.862	19113.4
826.189	18941.87
826.516	19156.56
826.843	19125.6
827.17	19060.74
827.497	19132.38
827.824	19123.34
828.151	19033.4
828.478	19037.47
828.805	19074.98
829.131	18980.97
829.458	18833.63
829.785	18786.85
830.111	18936
830.438	19004.25
830.764	18916.79
831.09	18963.34
831.417	18813.52
831.743	18858.71
832.069	18952.95
832.395	18756.12
832.722	18836.34
833.048	18727.19
833.374	18801.77
833.7	18771.71
834.026	18823.01
834.351	18859.62
834.677	18830.01
835.003	18866.85
835.329	18754.99
835.654	18720.86
835.98	18611.04
836.306	18663.92
836.631	18614.2
836.956	18651.04
837.282	18662.33
837.607	18656.46
837.932	18575.56
838.258	18543.47
838.583	18554.09
838.908	18395.22
839.233	18503.92
839.558	18411.72
839.883	18354.55
840.208	18358.16
840.533	18465.05
840.858	18406.75
841.182	18351.61
841.507	18363.36
841.832	18230.93
842.156	18251.72
842.481	18229.35
842.805	18263.7
843.13	18186.19
843.454	18136.25
843.778	18063.71
844.103	18119.52
844.427	17960.43
844.751	18093.76
845.075	17940.77
845.399	17948
845.723	17812.19
846.047	17877.04
846.371	17765.63
846.695	17727.44
847.019	17618.97
847.343	17563.15
847.666	17473.44
847.99	17286.1
848.313	17337.17
848.637	17360
848.96	17262.37
849.284	17189.15
849.607	17120.23
849.931	17080
850.254	17007.01
850.577	16936.5
850.9	16826
851.223	16801.59
851.546	16664.87
851.869	16599.56
852.192	16786.23
852.515	16488.83
852.838	16482.28
853.161	16450.64
853.483	16353.24
853.806	16235.73
854.129	16295.62
854.451	16192.12
854.774	16075.06
855.096	16119.12
855.419	16040.26
855.741	16051.1
856.063	15902.18
856.385	15814.95
856.708	15724.56
857.03	15746.7
857.352	15791.68
857.674	15640.94
857.996	15698.57
858.318	15570.44
858.64	15552.13
858.961	15511.91
859.283	15533.15
859.605	15367.96
859.926	15489.08
860.248	15404.11
860.57	15322.08
860.891	15241.86
861.212	15270.11
861.534	15256.32
861.855	15155.08
862.176	15163.22
862.498	15141.3
862.819	15153.95
863.14	14987.18
863.461	15022.2
863.782	14884.81
864.103	15064.46
864.424	14888.87
864.745	14940.17
865.065	14858.14
865.386	14784.47
865.707	14836.9
866.027	14791.93
866.348	14729.33
866.668	14737.47
866.989	14781.31
867.309	14629.45
867.63	14611.37
867.95	14562.78
868.27	14389.45
868.59	14491.6
868.91	14420.41
869.23	14381.77
869.55	14393.07
869.87	14367.31
870.19	14381.77
870.51	14323.47
870.83	14318.04
871.15	14245.95
871.469	14222
871.789	14232.17
872.109	14188.33
872.428	14109.01
872.748	14222.22
873.067	14127.31
873.386	14166.86
873.706	14157.82
874.025	13990.37
874.344	13932.74
874.663	13958.5
874.982	14006.64
875.301	13933.19
875.62	13840.99
875.939	13882.12
876.258	13885.28
876.577	13744.72
876.896	13737.72
877.214	13663.37
877.533	13703.59
877.852	13734.33
878.17	13694.33
878.489	13642.81
878.807	13659.3
879.125	13567.78
879.444	13641.22
879.762	13506.99
880.08	13485.75
880.398	13474
880.716	13454.34
881.034	13413.43
881.352	13353.32
881.67	13244.85
881.988	13346.54
882.306	13248.92
882.624	13234.45
882.941	13123.5
883.259	13138.64
883.577	13097.96
883.894	13142.93
884.212	13042.37
884.529	13055.48
884.846	13011.86
885.164	12969.83
885.481	12874.46
885.798	12951.52
886.115	12778.42
886.432	12813.45
886.75	12784.3
887.067	12707.24
887.383	12709.27
887.7	12694.13
888.017	12620.69
888.334	12719.67
888.651	12598.76
888.967	12631.53
889.284	12499.56
889.6	12435.38
889.917	12371.43
890.233	12454.36
890.55	12335.95
890.866	12316.96
891.182	12330.98
891.498	12227.02
891.815	12116.29
892.131	12143.64
892.447	12136.4
892.763	12036.97
893.079	11989.52
893.395	11953.13
893.71	12001.49
894.026	11963.75
894.342	11862.06
894.657	11745.45
894.973	11839.01
895.289	11744.32
895.604	11736.64
895.92	11618.23
896.235	11478.12
896.55	11457.1
896.865	11480.6
897.181	11452.35
897.496	11447.38
897.811	11444.44
898.126	11419.36
898.441	11286.48
898.756	11144.57
899.071	11235.64
899.386	11127.62
899.7	11039.48
900.015	11006.72
900.33	10864.57
900.644	10934.63
900.959	10955.19
901.273	10899.37
901.588	10816.66
901.902	10807.85
902.216	10771.47
902.531	10749.32
902.845	10652.6
903.159	10580.51
903.473	10542.77
903.787	10587.97
904.101	10494.64
904.415	10502.1
904.729	10440.4
905.042	10437.69
905.356	10406.96
905.67	10292.38
905.984	10284.25
906.297	10277.47
906.611	10210.58
906.924	10136.91
907.237	10067.53
907.551	10002.45
907.864	9997.48
908.177	9956.8
908.491	9983.47
908.804	9865.05
909.117	9841.1
909.43	9788.67
909.743	9762.68
910.056	9730.14
910.368	9729.01
910.681	9671.16
910.994	9609.24
911.307	9636.81
911.619	9579.64
911.932	9540.09
912.244	9411.96
912.557	9462.12
912.869	9456.25
913.181	9369.02
913.494	9312.75
913.806	9229.59
914.118	9247.44
914.43	9195.46
914.742	9172.41
915.054	9116.6
915.366	9069.59
915.678	9027.11
915.99	9049.71
916.302	8925.87
916.613	8922.93
916.925	8960.44
917.236	8922.7
917.548	8861.46
917.859	8844.29
918.171	8738.3
918.482	8722.26
918.794	8737.4
919.105	8661.69
919.416	8637.06
919.727	8570.4
920.038	8597.74
920.349	8490.4
920.66	8502.15
920.971	8437.74
921.282	8454.24
921.593	8408.59
921.903	8351.19
922.214	8402.72
922.525	8348.48
922.835	8291.31
923.146	8264.64
923.456	8236.85
923.767	8258.54
924.077	8226.22
924.387	8245.21
924.697	8161.14
925.008	8111.43
925.318	8101.93
925.628	8102.16
925.938	8020.81
926.248	7955.27
926.558	7924.54
926.867	7917.31
927.177	7910.98
927.487	7863.75
927.796	7815.84
928.106	7894.48
928.416	7781.94
928.725	7774.94
929.034	7712.34
929.344	7779.68
929.653	7755.05
929.962	7661.95
930.271	7612.91
930.581	7565.22
930.89	7541.5
931.199	7494.72
931.508	7547.6
931.817	7503.98
932.125	7379.24
932.434	7457.66
932.743	7351.9
933.051	7374.5
933.36	7346.7
933.669	7344.44
933.977	7306.93
934.286	7275.51
934.594	7222.63
934.902	7169.75
935.21	7194.39
935.519	7194.61
935.827	7124.33
936.135	7075.97
936.443	7000.04
936.751	7017.89
937.059	7020.38
937.367	6967.5
937.674	6947.39
937.982	6894.06
938.29	6923.21
938.597	6881.63
938.905	6844.34
939.213	6831.01
939.52	6733.61
939.827	6737.68
940.135	6693.38
940.442	6680.73
940.749	6703.78
941.056	6660.39
941.363	6601.18
941.67	6578.58
941.977	6515.76
942.284	6457.23
942.591	6492.71
942.898	6506.5
943.205	6440.28
943.511	6382.88
943.818	6292.72
944.125	6304.02
944.431	6319.38
944.738	6228.76
945.044	6205.49
945.35	6203
945.657	6171.59
945.963	6163.45
946.269	6103.12
946.575	6101.53
946.881	6135.21
947.187	6032.38
947.493	5953.29
947.799	5976.34
948.105	5958.26
948.41	5927.98
948.716	5921.2
949.022	5830.58
949.327	5868.77
949.633	5785.38
949.938	5760.98
950.244	5806.85
950.549	5697.03
950.854	5721.66
951.16	5635.33
951.465	5673.75
951.77	5590.36
952.075	5599.63
952.38	5542.68
952.685	5538.39
952.99	5524.37
953.294	5454.77
953.599	5434.66
953.904	5441.44
954.209	5398.73
954.513	5368.67
954.818	5331.84
955.122	5248.68
955.426	5278.51
955.731	5281.44
956.035	5246.42
956.339	5192.41
956.643	5209.81
956.948	5153.76
957.252	5151.73
957.556	5116.7
957.86	5064.95
958.163	5080.77
958.467	5007.1
958.771	5021.79
959.075	4949.93
959.378	4965.29
959.682	4926.2
959.985	4887.78
960.289	4853.88
960.592	4887.33
960.896	4825.64
961.199	4794.45
961.502	4776.15
961.805	4737.5
962.108	4680.33
962.411	4703.83
962.714	4618.18
963.017	4612.08
963.32	4676.71
963.623	4589.26
963.926	4555.36
964.228	4540.45
964.531	4496.38
964.833	4526.89
965.136	4485.53
965.438	4445.76
965.741	4454.35
966.043	4411.41
966.345	4405.08
966.648	4415.03
966.95	4356.27
967.252	4361.92
967.554	4274.46
967.856	4262.26
968.158	4233.11
968.46	4291.41
968.761	4256.39
969.063	4204.64
969.365	4166.22
969.666	4154.02
969.968	4120.12
970.269	4136.39
970.571	4095.94
970.872	4081.47
971.174	4008.26
971.475	4020.69
971.776	4033.11
972.077	3991.31
972.378	3975.26
972.679	3985.88
972.98	3969.61
973.281	3953.34
973.582	3865.21
973.883	3945.88
974.183	3873.34
974.484	3890.97
974.785	3838.09
975.085	3804.42
975.386	3819.11
975.686	3798.77
975.986	3816.85
976.287	3715.83
976.587	3715.16
976.887	3710.64
977.187	3678.77
977.487	3698.21
977.787	3652.11
978.087	3601.49
978.387	3632.45
978.687	3585.67
978.987	3566.69
979.286	3557.19
979.586	3582.28
979.885	3557.19
980.185	3508.16
980.484	3515.16
980.784	3487.37
981.083	3486.91
981.382	3444.66
981.682	3437.42
981.981	3405.56
982.28	3421.38
982.579	3405.33
982.878	3387.71
983.177	3359.91
983.475	3348.16
983.774	3362.17
984.073	3285.11
984.372	3283.76
984.67	3246.02
984.969	3260.25
985.267	3251.44
985.566	3235.62
985.864	3197.43
986.162	3178.9
986.461	3171.89
986.759	3170.76
987.057	3137.77
987.355	3149.97
987.653	3128.96
987.951	3132.57
988.249	3090.77
988.547	3049.86
988.844	3036.98
989.142	3090.99
989.44	3079.47
989.737	3002.86
990.035	3025.68
990.332	2972.8
990.63	2996.76
990.927	2957.89
991.224	2952.24
991.521	2933.26
991.819	2951.11
992.116	2915.18
992.413	2865.91
992.71	2910.88
993.006	2862.3
993.303	2839.25
993.6	2889.42
993.897	2855.29
994.193	2831.34
994.49	2815.07
994.787	2832.47
995.083	2785.46
995.379	2761.28
995.676	2762.64
995.972	2754.05
996.268	2753.6
996.565	2752.7
996.861	2693.71
997.157	2719.7
997.453	2705.92
997.749	2702.53
998.044	2663.21
998.34	2670.21
998.636	2659.37
998.932	2644
999.227	2578.01
999.523	2598.8
999.818	2578.01
1000.114	2545.24
1000.409	2546.6
1000.704	2548.41
1001	2566.03
1001.295	2530.33
1001.59	2541.18
1001.885	2483.1
1002.18	2495.08
1002.475	2456.21
1002.77	2418.02
1003.065	2389.99
1003.359	2427.73
1003.654	2404.91
1003.949	2376.21
1004.243	2388.41
1004.538	2335.76
1004.832	2352.93
1005.127	2341.41
1005.421	2308.41
1005.715	2305.48
1006.009	2327.17
1006.304	2275.65
1006.598	2241.52
1006.892	2273.61
1007.186	2230.68
1007.48	2270.67
1007.773	2214.18
1008.067	2231.81
1008.361	2184.12
1008.655	2211.92
1008.948	2164.91
1009.242	2135.09
1009.535	2123.11
1009.829	2154.07
1010.122	2147.29
1010.415	2138.02
1010.708	2109.32
1011.001	2088.08
1011.295	2091.02
1011.588	2106.16
1011.881	2058.02
1012.173	2052.38
1012.466	2052.15
1012.759	2029.1
1013.052	2016.44
1013.344	2009.21
1013.637	1996.11
1013.93	1978.93
1014.222	1969.89
1014.514	1943.68
1014.807	1944.58
1015.099	1923.57
1015.391	1924.47
1015.683	1870.01
1015.976	1905.71
1016.268	1865.71
1016.56	1870.69
1016.851	1868.88
1017.143	1848.54
1017.435	1846.28
1017.727	1853.51
1018.018	1789.78
1018.31	1810.8
1018.602	1779.16
1018.893	1798.14
1019.185	1790.24
1019.476	1779.16
1019.767	1773.96
1020.058	1743.23
1020.35	1693.06
1020.641	1738.71
1020.932	1729.22
1021.223	1701.2
1021.514	1691.93
1021.804	1675.21
1022.095	1689.45
1022.386	1655.32
1022.677	1656.91
1022.967	1609.68
1023.258	1622.33
1023.548	1635.66
1023.839	1621.65
1024.129	1614.87
1024.419	1600.41
1024.709	1584.82
1025	1566.74
1025.29	1548.21
1025.58	1529.68
1025.87	1537.13
1026.16	1545.04
1026.449	1518.15
1026.739	1471.83
1027.029	1512.73
1027.319	1482.45
1027.608	1500.98
1027.898	1496.68
1028.187	1480.41
1028.477	1457.14
1028.766	1433.18
1029.055	1384.6
1029.344	1444.26
1029.634	1412.84
1029.923	1404.26
1030.212	1371.04
1030.501	1390.47
1030.79	1363.13
1031.078	1366.52
1031.367	1344.82
1031.656	1343.47
1031.945	1342.34
1032.233	1319.06
1032.522	1311.15
1032.81	1301.43
1033.099	1320.42
1033.387	1300.98
1033.675	1320.64
1033.963	1284.71
1034.251	1266.63
1034.54	1279.29
1034.828	1239.74
1035.116	1254.43
1035.403	1219.4
1035.691	1203.36
1035.979	1211.27
1036.267	1210.59
1036.554	1183.7
1036.842	1181.66
1037.129	1190.03
1037.417	1155.68
1037.704	1180.08
1037.992	1166.75
1038.279	1164.49
1038.566	1146.64
1038.853	1146.64
1039.14	1146.64
