Data from whiteboard_FLMS001491_00100.txt Node
Date: Wed Feb 08 11:28:46 GMT 2017
User: dcchb
Spectrometer: FLMS00149
Trigger mode: 0
Integration Time (sec): 2.000000E-2
Scans to average: 10
Electric dark correction enabled: true
Nonlinearity correction enabled: false
Boxcar width: 0
XAxis mode: Wavelengths
Number of Pixels in Spectrum: 2048
>>>>>Begin Spectral Data<<<<<
341.393	-19.9
341.776	-19.9
342.16	-19.9
342.543	-60.8
342.927	-83.85
343.31	-58.32
343.693	-75.04
344.077	-50.63
344.46	-81.14
344.843	-50.63
345.226	-38.88
345.61	-9.28
345.993	-12.44
346.376	7.67
346.759	-23.74
347.142	18.29
347.525	42.92
347.908	43.83
348.291	85.41
348.674	98.29
349.057	103.71
349.44	136.03
349.823	145.74
350.206	180.55
350.588	217.83
350.971	239.3
351.354	252.63
351.737	262.8
352.119	269.58
352.502	314.33
352.884	307.55
353.267	308.23
353.65	318.62
354.032	333.08
354.414	319.75
354.797	333.99
355.179	360.65
355.562	370.15
355.944	348.45
356.326	386.64
356.709	360.43
357.091	375.34
357.473	380.77
357.855	358.85
358.238	378.28
358.62	371.5
359.002	377.38
359.384	395.46
359.766	379.86
360.148	359.98
360.53	368.34
360.912	401.11
361.294	377.83
361.676	396.13
362.057	382.57
362.439	380.77
362.821	378.06
363.203	364.27
363.584	362.91
363.966	368.11
364.348	351.16
364.729	347.32
365.111	347.32
365.493	357.72
365.874	353.42
366.256	358.62
366.637	357.26
367.019	333.76
367.4	356.59
367.781	366.53
368.163	361.33
368.544	345.97
368.925	350.71
369.306	360.65
369.688	360.43
370.069	354.55
370.45	355.68
370.831	364.04
371.212	347.1
371.593	366.76
371.974	364.5
372.355	371.05
372.736	370.6
373.117	368.56
373.498	350.71
373.879	369.92
374.26	378.51
374.641	390.94
375.021	375.12
375.402	362.24
375.783	383.03
376.163	397.49
376.544	397.26
376.925	391.61
377.305	382.8
377.686	416.92
378.066	406.75
378.447	382.57
378.827	406.75
379.208	412.18
379.588	407.43
379.968	397.94
380.349	413.99
380.729	432.97
381.109	418.73
381.489	419.41
381.87	403.59
382.25	449.92
382.63	436.13
383.01	442.46
383.39	419.18
383.77	431.16
384.15	449.47
384.53	455.34
384.91	445.85
385.29	470.03
385.67	441.78
386.049	461.22
386.429	454.89
386.809	477.94
387.189	454.89
387.568	469.58
387.948	484.94
388.328	477.49
388.707	468.22
389.087	463.02
389.466	497.15
389.846	513.42
390.225	475
390.605	507.09
390.984	519.29
391.363	520.65
391.743	512.51
392.122	535.57
392.501	550.25
392.881	540.99
393.26	574.21
393.639	563.81
394.018	555.45
394.397	568.11
394.776	582.34
395.155	588.44
395.534	598.84
395.913	605.85
396.292	602.68
396.671	620.99
397.05	658.5
397.429	606.75
397.808	621.66
398.186	655.79
398.565	645.62
398.944	692.4
399.323	669.8
399.701	684.71
400.08	736.69
400.458	723.58
400.837	736.46
401.215	735.33
401.594	748.21
401.972	785.95
402.351	772.39
402.729	773.52
403.107	809
403.486	810.81
403.864	817.14
404.242	847.87
404.62	842.68
404.999	874.99
405.377	900.08
405.755	869.57
406.133	925.84
406.511	933.75
406.889	949.57
407.267	966.97
407.645	969
408.023	1009.45
408.401	1039.05
408.779	1037.7
409.156	1068.21
409.534	1072.5
409.912	1078.6
410.29	1128.77
410.667	1160.63
411.045	1184.14
411.422	1203.12
411.8	1223.91
412.178	1273.4
412.555	1262.33
412.933	1281.99
413.31	1321.08
413.687	1320.4
414.065	1344.81
414.442	1379.61
414.819	1398.14
415.197	1447.18
415.574	1427.29
415.951	1460.29
416.328	1496.67
416.705	1501.19
417.082	1465.26
417.46	1569.21
417.837	1554.75
418.214	1560.4
418.591	1581.41
418.967	1616.21
419.344	1644.46
419.721	1657.57
420.098	1676.33
420.475	1674.29
420.852	1693.95
421.228	1724.46
421.605	1748.41
421.982	1794.06
422.358	1793.39
422.735	1821.18
423.111	1836.77
423.488	1865.47
423.864	1869.54
424.241	1934.17
424.617	1956.32
424.994	1945.47
425.37	1983.21
425.746	2010.1
426.123	2005.13
426.499	2016.88
426.875	2068.63
427.251	2101.17
427.627	2131.91
428.003	2166.03
428.379	2197.89
428.756	2214.62
429.132	2278.57
429.507	2293.94
429.883	2306.82
430.259	2357.66
430.635	2385.23
431.011	2414.84
431.387	2505.46
431.763	2504.55
432.138	2514.72
432.514	2571.44
432.89	2588.39
433.265	2638.56
433.641	2699.8
434.016	2694.6
434.392	2752
434.767	2825.9
435.143	2822.28
435.518	2822.28
435.894	2848.95
436.269	2900.93
436.644	2938.67
437.02	2972.11
437.395	3014.14
437.77	3050.08
438.145	3095.05
438.52	3140.24
438.895	3151.99
439.271	3170.52
439.646	3241.48
440.021	3276.74
440.395	3257.75
440.77	3290.29
441.145	3327.58
441.52	3387.02
441.895	3359.9
442.27	3407.81
442.645	3413.68
443.019	3528.48
443.394	3469.5
443.769	3525.09
444.143	3485.09
444.518	3562.38
444.892	3539.55
445.267	3582.49
445.641	3653.9
446.016	3650.74
446.39	3710.17
446.764	3726.89
447.139	3710.85
447.513	3782.94
447.887	3760.79
448.262	3810.06
448.636	3818.64
449.01	3911.75
449.384	3939.54
449.758	3928.02
450.132	3978.64
450.506	3989.26
450.88	4017.96
451.254	4065.87
451.628	4133.89
452.002	4220.67
452.376	4218.63
452.75	4242.81
453.123	4256.6
453.497	4389.7
453.871	4387.89
454.244	4513.31
454.618	4494.56
454.992	4600.32
455.365	4585.63
455.739	4759.63
456.112	4772.74
456.486	4782.46
456.859	4839.18
457.232	4925.51
457.606	4934.77
457.979	5027.2
458.352	5158.27
458.725	5215.22
459.099	5215.22
459.472	5274.88
459.845	5395.1
460.218	5431.48
460.591	5531.14
460.964	5475.55
461.337	5667.41
461.71	5733.39
462.083	5732.26
462.456	5847.52
462.829	5871.47
463.201	6004.35
463.574	6011.13
463.947	6063.33
464.32	6227.39
464.692	6251.35
465.065	6314.85
465.438	6419.25
465.81	6495.63
466.183	6621.73
466.555	6714.84
466.928	6759.36
467.3	6703.54
467.672	6879.35
468.045	7109.86
468.417	7085.68
468.789	7126.58
469.161	7251.32
469.534	7367.48
469.906	7559.34
470.278	7570.41
470.65	7682.27
471.022	7877.07
471.394	8017.4
471.766	8048.59
472.138	8124.29
472.51	8234.57
472.882	8473.21
473.253	8515.69
473.625	8726.31
473.997	8899.86
474.369	8967.89
474.74	8986.42
475.112	9123.14
475.484	9337.14
475.855	9526.97
476.227	9580.98
476.598	9868.88
476.97	9929.67
477.341	10118.14
477.713	10306.38
478.084	10347.96
478.455	10653.72
478.827	10706.37
479.198	11086.7
479.569	11088.06
479.94	11377.54
480.311	11526.01
480.682	11695.27
481.053	12081.7
481.424	12216.16
481.795	12350.85
482.166	12504.52
482.537	12744.74
482.908	12945.86
483.279	13073.54
483.65	13366.41
484.021	13588.78
484.391	13720.76
484.762	13836.23
485.133	14069.22
485.503	14200.06
485.874	14533.84
486.244	14666.49
486.615	14946.49
486.985	15221.28
487.356	15474.16
487.726	15579.69
488.097	15901.94
488.467	15969.28
488.837	16314.36
489.207	16447.46
489.578	16681.58
489.948	16807.45
490.318	17079.08
490.688	17098.52
491.058	17443.82
491.428	17581.44
491.798	17746.19
492.168	18117.7
492.538	18232.73
492.908	18420.52
493.278	18647.63
493.648	18729.21
494.017	19020.28
494.387	19129.2
494.757	19246.71
495.126	19591.79
495.496	19514.95
495.866	19736.42
496.235	19834.49
496.605	20183.18
496.974	20294.82
497.344	20537.75
497.713	20592.89
498.082	20708.59
498.452	20951.53
498.821	21164.4
499.19	21145.64
499.559	21328.46
499.928	21565.97
500.298	21651.85
500.667	21870.6
501.036	21972.74
501.405	22114.43
501.774	22128.44
502.143	22390.36
502.512	22503.57
502.88	22692.27
503.249	22753.96
503.618	23014.3
503.987	23039.61
504.356	23154.63
504.724	23329.32
505.093	23440.95
505.462	23549.65
505.83	23599.14
506.199	23856.76
506.567	24252.23
506.936	24074.61
507.304	24469.85
507.672	24482.05
508.041	24641.37
508.409	24882.95
508.777	25006.56
509.145	25174.47
509.514	25307.12
509.882	25428.24
510.25	25476.83
510.618	25674.79
510.986	25866.65
511.354	26111.16
511.722	26257.83
512.09	26597.03
512.458	26524.71
512.826	26872.5
513.193	27030.24
513.561	27220.97
513.929	27401.3
514.297	27664.34
514.664	27726.49
515.032	27952.7
515.4	28146.36
515.767	28230.88
516.135	28423.19
516.502	28441.27
516.869	29055.27
517.237	29107.7
517.604	29055.27
517.972	29481.24
518.339	29600.56
518.706	29688.02
519.073	29786.77
519.44	30023.83
519.808	30420.88
520.175	30403.71
520.542	30805.5
520.909	30882.79
521.276	30881.21
521.643	31254.98
522.009	31541.76
522.376	31713.5
522.743	31900.84
523.11	32286.59
523.477	32460.38
523.843	32544.67
524.21	32984.88
524.577	33260.81
524.943	33364.08
525.31	33546.45
525.676	33849.27
526.043	33984.4
526.409	34217.62
526.776	34528.34
527.142	34632.75
527.508	34846.75
527.874	35182.11
528.241	35326.06
528.607	35432.05
528.973	35915.88
529.339	35952.26
529.705	36350.44
530.071	36488.52
530.437	36693.94
530.803	36920.6
531.169	37179.57
531.535	37165.79
531.901	37348.38
532.267	37619.34
532.632	37847.58
532.998	37924.41
533.364	38137.06
533.73	38291.86
534.095	38515.36
534.461	38677.84
534.826	38838.96
535.192	38967.77
535.557	39364.37
535.923	39276.02
536.288	39524.37
536.653	39660.86
537.019	39586.97
537.384	39848.2
537.749	40059.95
538.114	40047.29
538.479	40239.83
538.845	40360.28
539.21	40341.52
539.575	40519.15
539.94	40734.51
540.305	40918.68
540.67	40846.6
541.034	40954.16
541.399	41209.07
541.764	41229.64
542.129	41481.61
542.494	41501.95
542.858	41748.27
543.223	41933.8
543.587	41871.43
543.952	42032.33
544.316	42067.35
544.681	42032.33
545.045	42328.36
545.41	42707.34
545.774	42710.73
546.138	42744.85
546.503	42983.04
546.867	43118.63
547.231	43226.87
547.595	43325.4
547.959	43664.37
548.324	43659.4
548.688	43758.16
549.052	43931.94
549.416	44015.33
549.779	44160.41
550.143	44282.21
550.507	44673.16
550.871	44743.44
551.235	44696.44
551.599	45084.68
551.962	45213.94
552.326	45276.31
552.689	45509.75
553.053	45391.79
553.417	45550.43
553.78	45997.87
554.143	45910.42
554.507	46176.85
554.87	46218.21
555.234	46676.95
555.597	46309.95
555.96	46583.39
556.323	46873.33
556.686	46822.03
557.05	47136.83
557.413	47192.19
557.776	47346.09
558.139	47627.66
558.502	47444.84
558.865	47674.66
559.228	47906.3
559.59	47951.95
559.953	47991.94
560.316	48351.26
560.679	48412.5
561.041	48578.82
561.404	48720.74
561.767	49059.49
562.129	48831.92
562.492	49242.08
562.854	49260.39
563.217	49274.62
563.579	49451.57
563.941	49723.42
564.304	49933.36
564.666	50133.36
565.028	50175.16
565.39	50145.79
565.753	50352.79
566.115	50435.27
566.477	50663.96
566.839	50762.04
567.201	51080.45
567.563	51033.67
567.925	51341.01
568.287	51487.67
568.648	51509.59
569.01	51701
569.372	52028.22
569.734	51889.02
570.095	52166.75
570.457	52304.83
570.819	52283.13
571.18	52353.64
571.542	52519.51
571.903	52680.86
572.265	52742.78
572.626	52883.79
572.987	52936.22
573.349	52954.98
573.71	53135.99
574.071	53230
574.432	53348.41
574.794	53462.31
575.155	53466.38
575.516	53384.34
575.877	53621.17
576.238	53632.02
576.599	53820.94
576.96	53842.86
577.32	53803.77
577.681	53946.82
578.042	53878.12
578.403	53999.92
578.763	53831.79
579.124	53943.65
579.485	54040.15
579.845	54154.49
580.206	54017.55
580.566	54003.99
580.927	54050.99
581.287	54127.6
581.648	54038.79
582.008	54115.63
582.368	54059.81
582.728	54194.27
583.089	54105.23
583.449	54088.73
583.809	54107.26
584.169	54210.31
584.529	54136.42
584.889	54404.66
585.249	54289.18
585.609	54192.23
585.969	54329.4
586.329	54124.21
586.688	54227.03
587.048	54206.02
587.408	54211.44
587.768	54234.49
588.127	54286.24
588.487	54220.48
588.846	54438.78
589.206	54318.33
589.565	54338.44
589.925	54447.82
590.284	54457.76
590.643	54458.21
591.003	54598.78
591.362	54650.3
591.721	54636.06
592.08	54688.49
592.44	54763.97
592.799	54792.22
593.158	54764.87
593.517	54759
593.876	54794.25
594.235	54769.62
594.593	54819.34
594.952	54880.35
595.311	54813.01
595.67	54823.63
596.029	54940.24
596.387	54939.11
596.746	55051.65
597.104	54879.45
597.463	54938.65
597.822	55046.22
598.18	54896.4
598.538	54893.01
598.897	55013.68
599.255	54776.85
599.613	55140
599.972	54889.16
600.33	54991.76
600.688	54870.18
601.046	54993.79
601.404	55011.87
601.762	54854.81
602.12	54980.46
602.478	54982.72
602.836	54998.54
603.194	54802.61
603.552	54852.55
603.91	54729.17
604.268	54876.28
604.625	54752.22
604.983	54917.64
605.341	54715.38
605.698	54911.54
606.056	54922.16
606.413	54921.03
606.771	54947.69
607.128	54956.05
607.485	54948.37
607.843	54957.86
608.2	55102.94
608.557	55154.69
608.914	55059.56
609.272	55250.28
609.629	55241.92
609.986	55356.04
610.343	55252.09
610.7	55456.61
611.057	55374.58
611.414	55364.41
611.771	55439.88
612.127	55563.27
612.484	55547.9
612.841	55635.13
613.198	55638.75
613.554	55697.28
613.911	55818.63
614.267	55774.34
614.624	55756.71
614.98	55902.7
615.337	56102.24
615.693	56019.53
616.05	55986.76
616.406	56166.42
616.762	55982.24
617.118	56159.87
617.475	56173.42
617.831	56172.52
618.187	56153.09
618.543	56229.47
618.899	56337.94
619.255	56243.25
619.611	56264.72
619.967	56345.85
620.323	56320.76
620.678	56225.85
621.034	56100.66
621.39	56197.6
621.746	56184.72
622.101	56427.88
622.457	56178.62
622.812	56210.03
623.168	56186.76
623.523	56133.43
623.879	56205.51
624.234	55933.43
624.589	56054.78
624.945	56115.57
625.3	56142.01
625.655	56056.82
626.01	56029.25
626.365	56071.73
626.72	55962.36
627.075	55905.63
627.43	55793.32
627.785	55802.13
628.14	55864.05
628.495	55848.91
628.85	55798.07
629.205	55717.62
629.559	55847.11
629.914	55690.72
630.269	55707.9
630.623	55612.53
630.978	55525.08
631.332	55629.71
631.687	55743.15
632.041	55516.04
632.396	55537.06
632.75	55508.58
633.104	55503.84
633.459	55440.11
633.813	55427.23
634.167	55453.67
634.521	55398.3
634.875	55518.75
635.229	55474.23
635.583	55385.87
635.937	55399.21
636.291	55406.89
636.645	55363.95
636.999	55379.77
637.352	55482.37
637.706	55229.49
638.06	55351.52
638.413	55349.04
638.767	55307.68
639.121	55273.56
639.474	55187.69
639.828	55207.12
640.181	55241.92
640.534	55273.11
640.888	55157.41
641.241	55128.71
641.594	55287.12
641.947	55227.91
642.301	55117.86
642.654	55227.69
643.007	55156.73
643.36	55178.42
643.713	55137.29
644.066	55238.76
644.419	54941.59
644.771	54870.41
645.124	54469.51
645.477	54451.21
645.83	54228.39
646.182	54131.9
646.535	54086.7
646.888	54143.42
647.24	54070.43
647.593	54114.95
647.945	54037.44
648.298	53859.81
648.65	53767.16
649.002	53557.67
649.355	53670.44
649.707	53575.98
650.059	53661.4
650.411	53963.99
650.763	53968.06
651.115	54333.02
651.467	54087.6
651.819	54071.56
652.171	53978.68
652.523	53833.82
652.875	53814.16
653.227	53731
653.578	53922.86
653.93	53801.96
654.282	53629.99
654.633	53556.54
654.985	53682.64
655.337	53692.81
655.688	53576.66
656.039	53609.42
656.391	53338.02
656.742	53341.63
657.094	53430.45
657.445	53532.14
657.796	53356.55
658.147	53343.44
658.498	53332.59
658.849	53446.26
659.2	53297.34
659.551	53289.88
659.902	53435.42
660.253	53215.99
660.604	53328.08
660.955	53171.92
661.306	53320.62
661.656	53206.72
662.007	53244.91
662.358	53365.59
662.708	53309.77
663.059	53217.57
663.409	53021.64
663.76	53244.69
664.11	53300.73
664.461	53317
664.811	53394.74
665.161	53284.69
665.511	53288.53
665.862	53253.05
666.212	53342.54
666.562	53282.88
666.912	53274.52
667.262	53251.69
667.612	53141.19
667.962	53277.23
668.312	53183.45
668.662	53347.28
669.011	53257.57
669.361	53270.22
669.711	53192.94
670.06	53210.56
670.41	53051.25
670.76	53047.86
671.109	53225.71
671.459	53057.12
671.808	52945.03
672.157	53064.58
672.507	52866.84
672.856	52861.19
673.205	52862.78
673.554	52969.21
673.904	52828.88
674.253	52957.46
674.602	52807.41
674.951	52366.52
675.3	52216.69
675.649	52724.93
675.998	52637.25
676.346	52703.23
676.695	52692.61
677.044	52383.69
677.393	52493.29
677.741	52443.8
678.09	52340.98
678.438	52215.11
678.787	52355.9
679.135	52152.74
679.484	51958.17
679.832	52074.32
680.181	51842.69
680.529	51890.82
680.877	51767.89
681.225	51825.74
681.573	51914.33
681.922	51594.79
682.27	51482.02
682.618	51576.93
682.966	51370.84
683.314	51583.94
683.661	51304.4
684.009	51215.14
684.357	51091.75
684.705	51068.47
685.053	51074.58
685.4	50987.8
685.748	50711.65
686.095	50744.19
686.443	50643.85
686.79	50611.76
687.138	50500.13
687.485	50643.63
687.832	50532.89
688.18	50546
688.527	50294.26
688.874	50339.68
689.221	50244.09
689.568	50185.78
689.915	50046.81
690.262	50030.53
690.609	49960.93
690.956	49861.95
691.303	49792.57
691.65	49560.04
691.997	49570.21
692.344	49387.16
692.69	49406.14
693.037	49381.74
693.383	49084.12
693.73	49225.36
694.077	48989.43
694.423	48984.01
694.769	48920.28
695.116	48754.18
695.462	48687.29
695.808	48675.54
696.155	48719.16
696.501	48481.2
696.847	48526.17
697.193	48293.41
697.539	48344.48
697.885	48068.1
698.231	47920.76
698.577	47937.26
698.923	47852.06
699.269	47593.31
699.614	47592.63
699.96	47610.94
700.306	47455.69
700.651	47292.75
700.997	47167.79
701.342	47177.95
701.688	47081.23
702.033	46990.61
702.379	46928.47
702.724	46980.67
703.069	46988.81
703.415	46411.65
703.76	46460.46
704.105	46442.15
704.45	46351.99
704.795	46168.26
705.14	45922.62
705.485	45978.66
705.83	45682.63
706.175	45867.71
706.52	45705
706.865	45489.64
707.209	45406.48
707.554	45216.65
707.899	45404.67
708.243	45029.54
708.588	45082.42
708.932	44646.72
709.277	44723.33
709.621	44642.88
709.966	44464.35
710.31	44514.3
710.654	43982.11
710.998	44073.63
711.342	44088.32
711.687	43919.96
712.031	43729.46
712.375	43613.98
712.719	43707.99
713.063	43543.25
713.407	43581.89
713.75	43224.39
714.094	43247.89
714.438	43035.69
714.782	42982.58
715.125	42779.65
715.469	42927.22
715.812	42620.33
716.156	42443.62
716.499	42505.53
716.843	42380.11
717.186	42230.97
717.53	42313.22
717.873	42298.76
718.216	42143.06
718.559	41971.54
718.902	41520.48
719.246	41673.24
719.589	41650.64
719.932	41451.33
720.275	41492.68
720.617	41372.46
720.96	41290.65
721.303	41307.37
721.646	41309.86
721.989	41103.76
722.331	41023.54
722.674	41005.01
723.016	41011.79
723.359	40896.76
723.701	40956.88
724.044	40619.03
724.386	40466.04
724.729	40661.29
725.071	40470.56
725.413	40655.64
725.755	40450.22
726.097	40304.01
726.439	39960.07
726.782	40123
727.124	40365.93
727.465	40064.02
727.807	39979.73
728.149	39945.83
728.491	39819.73
728.833	39831.25
729.175	39715.78
729.516	39595.55
729.858	39429.01
730.199	39599.62
730.541	39430.59
730.882	39404.83
731.224	39538.61
731.565	39179.52
731.906	39346.75
732.248	39521.21
732.589	39206.86
732.93	39081.22
733.271	39055.68
733.612	39252.51
733.953	39123.02
734.294	39012.29
734.635	38830.6
734.976	38904.73
735.317	38821.56
735.658	38832.64
735.999	38844.39
736.339	38659.08
736.68	38828.8
737.021	38607.33
737.361	38409.82
737.702	38535.92
738.042	38541.35
738.383	38305.65
738.723	38348.36
739.063	38178.64
739.404	38298.87
739.744	38072.43
740.084	37885.77
740.424	37954.92
740.764	37983.17
741.104	37968.25
741.444	37823.4
741.784	37654.14
742.124	37672.89
742.464	37613.46
742.804	37546.12
743.143	37498.43
743.483	37462.73
743.823	37132.79
744.162	37252.11
744.502	37256.63
744.841	36981.39
745.181	37066.13
745.52	37105.9
745.86	37060.93
746.199	36888.96
746.538	36803.76
746.877	36758.34
747.216	36649.19
747.556	36745.23
747.895	36582.07
748.234	36447.16
748.573	36306.15
748.911	36238.58
749.25	36261.18
749.589	35987.97
749.928	36056.66
750.267	36113.84
750.605	35805.15
750.944	35766.05
751.283	35671.14
751.621	35554.76
751.96	35453.52
752.298	35366.74
752.636	35465.95
752.975	34990.48
753.313	35025.51
753.651	35177.82
753.989	35003.59
754.327	34846.75
754.666	34534.9
755.004	34532.64
755.342	34599.3
755.679	34442.47
756.017	34331.96
756.355	34378.74
756.693	34108.24
757.031	34178.52
757.368	33833.9
757.706	33891.98
758.044	33724.52
758.381	33696.28
758.719	33522.04
759.056	33586.45
759.394	33357.53
759.731	33202.95
760.068	33108.49
760.405	33103.07
760.743	32845.68
761.08	33028.5
761.417	32771.1
761.754	32728.39
762.091	32549.41
762.428	32640.48
762.765	32347.38
763.102	32378.12
763.438	32236.88
763.775	32078.24
764.112	32054.96
764.449	32145.81
764.785	31978.13
765.122	31720.96
765.458	31653.62
765.795	31537.46
766.131	31544.69
766.467	31410.01
766.804	31308.77
767.14	31254.76
767.476	31123.91
767.812	30984.93
768.148	31098.15
768.485	30843.02
768.821	30727.54
769.157	30696.35
769.492	30507.21
769.828	30568.67
770.164	30325.06
770.5	30312.41
770.836	30309.25
771.171	30038.74
771.507	30062.02
771.842	29765.76
772.178	29805.53
772.513	29810.73
772.849	29658.87
773.184	29490.74
773.519	29377.29
773.855	29256.17
774.19	29289.61
774.525	29198.09
774.86	29166.68
775.195	29072.44
775.53	28899.34
775.865	28775.5
776.2	28629.97
776.535	28435.85
776.87	28333.7
777.205	28413.02
777.539	28383.65
777.874	28279.47
778.209	28047.16
778.543	27949.31
778.878	27919.25
779.212	27911.34
779.547	27694.17
779.881	27800.84
780.215	27559.26
780.55	27528.53
780.884	27307.74
781.218	27369.21
781.552	27381.41
781.886	27143.45
782.22	27015.77
782.554	26909.79
782.888	26642.9
783.222	26622.79
783.556	26465.28
783.889	26563.58
784.223	26248.56
784.557	26084.72
784.89	26233.65
785.224	25992.52
785.557	25781.23
785.891	25774.22
786.224	25663.04
786.558	25607.22
786.891	25355.03
787.224	25386.89
787.557	25227.35
787.891	25215.37
788.224	25026.67
788.557	25001.59
788.89	24989.39
789.223	24824.87
789.556	24683.63
789.888	24677.08
790.221	24430.76
790.554	24352.11
790.887	24264.43
791.219	24165.9
791.552	24161.61
791.884	24073.93
792.217	23791.45
792.549	23851.34
792.882	23548.97
793.214	23534.51
793.546	23578.12
793.879	23376.09
794.211	23313.95
794.543	23291.12
794.875	23095.65
795.207	23187.17
795.539	22980.17
795.871	23073.05
796.203	22751.03
796.535	22700.63
796.867	22593.52
797.198	22491.6
797.53	22539.51
797.862	22356.23
798.193	22409.34
798.525	22225.84
798.856	22262.68
799.188	22069.69
799.519	21930.48
799.85	21768.68
800.182	21783.59
800.513	21783.14
800.844	21630.83
801.175	21612.3
801.506	21657.72
801.837	21410.04
802.168	21417.95
802.499	21313.1
802.83	21270.84
803.161	21126.21
803.491	21244.63
803.822	20989.94
804.153	20985.2
804.483	20836.95
804.814	20804.64
805.145	20681.02
805.475	20665.21
805.805	20619.1
806.136	20611.87
806.466	20494.14
806.796	20595.38
807.126	20349.28
807.457	20377.3
807.787	20430.64
808.117	20286.46
808.447	20248.49
808.777	20262.73
809.107	20079.68
809.436	20117.42
809.766	20127.14
810.096	19966.47
810.426	19963.08
810.755	19982.96
811.085	19809.86
811.414	19882.85
811.744	19707.94
812.073	19622.97
812.403	19693.03
812.732	19643.76
813.061	19640.83
813.39	19379.82
813.719	19470.43
814.049	19541.84
814.378	19445.8
814.707	19388.18
815.036	19378.23
815.365	19413.71
815.693	19096.43
816.022	19208.29
816.351	19140.5
816.68	19053.95
817.008	19121.29
817.337	18979.6
817.665	19029.77
817.994	18894.86
818.322	18859.38
818.651	18828.19
818.979	18770.34
819.307	18967.4
819.636	18785.93
819.964	18693.28
820.292	18732.83
820.62	18812.15
820.948	18623.9
821.276	18721.75
821.604	18701.42
821.932	18670.23
822.259	18688.31
822.587	18777.35
822.915	18604.92
823.243	18601.98
823.57	18577.8
823.898	18522.89
824.225	18510.91
824.553	18549.1
824.88	18505.04
825.207	18589.78
825.535	18568.54
825.862	18542.32
826.189	18499.16
826.516	18621.87
826.843	18598.14
827.17	18600.85
827.497	18546.39
827.824	18592.04
828.151	18638.82
828.478	18661.42
828.805	18594.75
829.131	18439.05
829.458	18414.42
829.785	18330.35
830.111	18368.09
830.438	18389.56
830.764	18420.52
831.09	18495.54
831.417	18310.69
831.743	18311.59
832.069	18271.82
832.395	18311.59
832.722	18305.49
833.048	18092.39
833.374	18147.98
833.7	18052.39
834.026	18061.21
834.351	18181.2
834.677	18173.07
835.003	18087.42
835.329	17966.97
835.654	18047.65
835.98	17952.96
836.306	18000.87
836.631	17810.82
836.956	17867.99
837.282	17850.36
837.607	17669.58
837.932	17694.66
838.258	17696.7
838.583	17573.08
838.908	17493.76
839.233	17531.28
839.558	17476.59
839.883	17408.57
840.208	17414.22
840.533	17389.36
840.858	17399.3
841.182	17411.96
841.507	17309.14
841.832	17198.18
842.156	17091.06
842.481	17148.91
842.805	17014.45
843.13	16996.83
843.454	16978.97
843.778	16960.44
844.103	16883.16
844.427	16807.68
844.751	16878.41
845.075	16787.57
845.399	16716.38
845.723	16569.27
846.047	16567.46
846.371	16365.21
846.695	16393.45
847.019	16241.14
847.343	16151.88
847.666	16124.76
847.99	16090.64
848.313	15943.97
848.637	15959.11
848.96	15915.5
849.284	15854.48
849.607	15747.14
849.931	15715.5
850.254	15659.91
850.577	15525.45
850.9	15454.27
851.223	15412.24
851.546	15389.86
851.869	15233.26
852.192	15385.57
852.515	15288.62
852.838	15183.32
853.161	15176.08
853.483	15107.84
853.806	15051.79
854.129	15005.24
854.451	14894.06
854.774	14911.01
855.096	14850.67
855.419	14796.88
855.741	14790.78
856.063	14741.07
856.385	14679.83
856.708	14662.2
857.03	14600.05
857.352	14633.05
857.674	14477.12
857.996	14537
858.318	14480.51
858.64	14464.24
858.961	14452.04
859.283	14441.64
859.605	14372.49
859.926	14351.92
860.248	14241.65
860.57	14245.04
860.891	14199.39
861.212	14090.46
861.534	14176.79
861.855	14090.24
862.176	14114.87
862.498	14149.22
862.819	14165.04
863.14	14005.72
863.461	14020.86
863.782	14026.51
864.103	14029
864.424	13971.82
864.745	13971.82
865.065	13926.17
865.386	13868.77
865.707	13877.36
866.027	13902.45
866.348	13856.34
866.668	13832.84
866.989	13787.42
867.309	13757.59
867.63	13817.48
867.95	13738.16
868.27	13613.87
868.59	13724.82
868.91	13701.09
869.23	13600.98
869.55	13605.05
869.87	13666.75
870.19	13635.11
870.51	13623.13
870.83	13596.69
871.15	13481.44
871.469	13536.13
871.789	13496.58
872.109	13492.74
872.428	13501.1
872.748	13434.66
873.067	13430.82
873.386	13467.88
873.706	13549.23
874.025	13311.95
874.344	13220.2
874.663	13327.09
874.982	13294.55
875.301	13262.01
875.62	13203.71
875.939	13219.53
876.258	13133.43
876.577	13046.42
876.896	13151.73
877.214	12963.94
877.533	13041.9
877.852	12999.87
878.17	13094.33
878.489	12930.95
878.807	12933.66
879.125	12983.15
879.444	12958.97
879.762	12843.04
880.08	12856.15
880.398	12869.03
880.716	12866.77
881.034	12739.54
881.352	12747.67
881.67	12665.64
881.988	12673.32
882.306	12709.48
882.624	12533.89
882.941	12532.99
883.259	12464.52
883.577	12448.47
883.894	12397.4
884.212	12325.09
884.529	12343.16
884.846	12294.35
885.164	12329.38
885.481	12220.91
885.798	12220.91
886.115	12096.39
886.432	12066.56
886.75	12031.99
887.067	11953.57
887.383	11883.52
887.7	11940.69
888.017	11901.14
888.334	11910.86
888.651	11954.47
888.967	11854.82
889.284	11687.59
889.6	11628.83
889.917	11565.56
890.233	11537.31
890.55	11551.77
890.866	11545.9
891.182	11455.28
891.498	11511.55
891.815	11338.44
892.131	11333.25
892.447	11263.19
892.763	11248.73
893.079	11251.44
893.395	11165.57
893.71	11166.25
894.026	11160.82
894.342	10993.14
894.657	10982.3
894.973	10987.72
895.289	10968.06
895.604	10901.62
895.92	10825.24
896.235	10728.29
896.55	10816.65
896.865	10830.44
897.181	10724.9
897.496	10742.98
897.811	10699.59
898.126	10670.67
898.441	10533.04
898.756	10578.69
899.071	10465.7
899.386	10514.74
899.7	10403.55
900.015	10377.57
900.33	10345.02
900.644	10241.3
900.959	10320.84
901.273	10251.24
901.588	10166.5
901.902	10131.7
902.216	10095.31
902.531	10111.58
902.845	10088.53
903.159	10051.47
903.473	10006.95
903.787	9964.24
904.101	9912.27
904.415	9974.41
904.729	9817.35
905.042	9832.5
905.356	9837.24
905.67	9783.01
905.984	9808.32
906.297	9723.8
906.611	9630.24
906.924	9620.52
907.237	9631.6
907.551	9678.83
907.864	9529.45
908.177	9509.11
908.491	9547.98
908.804	9422.79
909.117	9390.93
909.43	9366.29
909.743	9372.17
910.056	9294.2
910.368	9310.25
910.681	9228.67
910.994	9249.91
911.307	9161.33
911.619	9141.89
911.932	9147.09
912.244	9061.67
912.557	9102.12
912.869	9040.43
913.181	8965.63
913.494	8930.37
913.806	8926.98
914.118	8896.93
914.43	8837.95
914.742	8874.55
915.054	8798.4
915.366	8860.09
915.678	8694.9
915.99	8643.6
916.302	8590.49
916.613	8590.49
916.925	8637.05
917.236	8606.31
917.548	8589.36
917.859	8585.07
918.171	8464.62
918.482	8487.45
918.794	8435.7
919.105	8411.74
919.416	8379.88
919.727	8259.2
920.038	8307.79
920.349	8239.77
920.66	8230.73
920.971	8232.09
921.282	8165.42
921.593	8162.03
921.903	8053.56
922.214	8119.55
922.525	8025.31
922.835	8017.18
923.146	7908.7
923.456	7929.27
923.767	7874.36
924.077	7861.02
924.387	7868.48
924.697	7815.37
925.008	7818.31
925.318	7751.87
925.628	7770.85
925.938	7790.06
926.248	7648.15
926.558	7596.85
926.867	7569.05
927.177	7535.15
927.487	7461.03
927.796	7469.39
928.106	7498.32
928.416	7404.08
928.725	7397.76
929.034	7386.68
929.344	7304.88
929.653	7274.6
929.962	7291.77
930.271	7232.56
930.581	7190.31
930.89	7189.63
931.199	7161.61
931.508	7101.04
931.817	7069.4
932.125	7053.81
932.434	6998.9
932.743	6919.35
933.051	6908.05
933.36	6871.22
933.669	6782.63
933.977	6831.9
934.286	6740.83
934.594	6692.01
934.902	6663.54
935.21	6692.69
935.519	6695.63
935.827	6605.91
936.135	6592.13
936.443	6532.47
936.751	6470.32
937.059	6424.22
937.367	6355.3
937.674	6462.19
937.982	6345.58
938.29	6320.05
938.597	6374.06
938.905	6252.7
939.213	6217.22
939.52	6168.86
939.827	6207.51
940.135	6128.86
940.442	6089.09
940.749	6075.08
941.056	6100.84
941.363	6019.04
941.67	6026.72
941.977	5925.48
942.284	5905.82
942.591	5846.84
942.898	5889.32
943.205	5800.06
943.511	5765.71
943.818	5760.51
944.125	5678.48
944.431	5707.86
944.738	5694.3
945.044	5644.13
945.35	5601.19
945.657	5548.09
945.963	5522.33
946.269	5488.2
946.575	5484.14
946.881	5483.01
947.187	5454.08
947.493	5424.48
947.799	5315.55
948.105	5314.65
948.41	5304.71
948.716	5287.98
949.022	5234.88
949.327	5281.2
949.633	5160.08
949.938	5218.38
950.244	5210.92
950.549	5190.81
950.854	5124.37
951.16	5115.33
951.465	5060.42
951.77	5074.65
952.075	5037.14
952.38	5023.36
952.685	5005.73
952.99	4973.87
953.294	4942
953.599	4904.72
953.904	4903.13
954.209	4840.54
954.513	4880.54
954.818	4795.11
955.122	4796.7
955.426	4777.26
955.731	4747.66
956.035	4746.08
956.339	4664.27
956.643	4681.67
956.948	4644.61
957.252	4647.1
957.556	4621.33
957.86	4603.48
958.163	4546.53
958.467	4547.21
958.771	4511.05
959.075	4506.53
959.378	4492.75
959.682	4475.8
959.985	4472.64
960.289	4434.9
960.592	4418.63
960.896	4375.24
961.199	4357.61
961.502	4386.76
961.805	4331.62
962.108	4343.15
962.411	4357.84
962.714	4285.07
963.017	4285.97
963.32	4243.49
963.623	4221.57
963.926	4229.03
964.228	4194.9
964.531	4204.62
964.833	4187.22
965.136	4113.78
965.438	4092.31
965.741	4082.36
966.043	4105.87
966.345	4059.54
966.648	4099.31
966.95	4061.8
967.252	4021.35
967.554	3978.86
967.856	4014.34
968.158	3972.54
968.46	3994.68
968.761	3946.1
969.063	3932.99
969.365	3944.74
969.666	3943.61
969.968	3897.28
970.269	3869.04
970.571	3854.8
970.872	3850.96
971.174	3808.47
971.475	3802.6
971.776	3842.82
972.077	3822.03
972.378	3834.91
972.679	3751.53
972.98	3767.34
973.281	3755.14
973.582	3710.85
973.883	3701.81
974.183	3699.1
974.484	3702.04
974.785	3646.9
975.085	3641.92
975.386	3684.41
975.686	3667.01
975.986	3635.82
976.287	3641.7
976.587	3590.85
976.887	3575.71
977.187	3559.44
977.487	3526.45
977.787	3537.97
978.087	3527.35
978.387	3533
978.687	3540.68
978.987	3471.31
979.286	3513.11
979.586	3474.7
979.885	3439.22
980.185	3391.54
980.484	3422.27
980.784	3368.48
981.083	3383.17
981.382	3396.28
981.682	3382.27
981.981	3363.51
982.28	3341.14
982.579	3326.68
982.878	3315.83
983.177	3313.57
983.475	3262.72
983.774	3272.67
984.073	3234.03
984.372	3214.14
984.67	3226.57
984.969	3210.52
985.267	3170.52
985.566	3173.24
985.864	3164.65
986.162	3156.06
986.461	3136.63
986.759	3119.9
987.057	3090.07
987.355	3102.96
987.653	3094.37
987.951	3071.32
988.249	3091.2
988.547	3019.79
988.844	3035.39
989.142	3019.12
989.44	3002.62
989.737	2995.61
990.035	2954.26
990.332	2937.99
990.63	2910.19
990.927	2921.26
991.224	2935.5
991.521	2861.38
991.819	2890.08
992.116	2857.31
992.413	2825
992.71	2839.23
993.006	2821.15
993.303	2803.98
993.6	2785
993.897	2785.68
994.193	2791.1
994.49	2768.95
994.787	2737.54
995.083	2728.05
995.379	2730.54
995.676	2695.28
995.972	2688.28
996.268	2623.19
996.565	2633.36
996.861	2646.7
997.157	2647.6
997.453	2610.99
997.749	2589.52
998.044	2562.18
998.34	2582.97
998.636	2545
998.932	2519.47
999.227	2550.2
999.523	2497.1
999.818	2510.88
1000.114	2444.67
1000.409	2446.25
1000.704	2415.97
1001	2406.93
1001.295	2411
1001.59	2392.47
1001.885	2385.91
1002.18	2371.22
1002.475	2352.47
1002.77	2337.78
1003.065	2274.73
1003.359	2314.05
1003.654	2302.3
1003.949	2279.93
1004.243	2214.84
1004.538	2255.29
1004.832	2232.24
1005.127	2254.16
1005.421	2238.35
1005.715	2167.39
1006.009	2182.98
1006.304	2154.96
1006.598	2128.97
1006.892	2129.42
1007.186	2090.78
1007.48	2102.76
1007.773	2105.69
1008.067	2086.71
1008.361	2053.94
1008.655	2037.9
1008.948	2039.03
1009.242	2023.66
1009.535	1963.1
1009.829	1957.9
1010.122	1976.66
1010.415	1952.25
1010.708	1964.45
1011.001	1918.58
1011.295	1923.78
1011.588	1936.66
1011.881	1912.48
1012.173	1897.56
1012.466	1898.47
1012.759	1888.07
1013.052	1847.62
1013.344	1824.34
1013.637	1855.76
1013.93	1819.6
1014.222	1813.05
1014.514	1777.11
1014.807	1776.66
1015.099	1785.7
1015.391	1719.94
1015.683	1765.36
1015.976	1715.87
1016.268	1730.34
1016.56	1689.88
1016.851	1678.13
1017.143	1676.55
1017.435	1671.58
1017.727	1661.86
1018.018	1637.68
1018.31	1650.34
1018.602	1623.45
1018.893	1615.08
1019.185	1594.52
1019.476	1573.05
1019.767	1596.78
1020.058	1548.65
1020.35	1519.95
1020.641	1537.57
1020.932	1551.58
1021.223	1542.09
1021.514	1505.71
1021.804	1498.48
1022.095	1505.48
1022.386	1461.42
1022.677	1472.49
1022.967	1454.86
1023.258	1425.71
1023.548	1482.43
1023.839	1454.18
1024.129	1427.29
1024.419	1444.02
1024.709	1423.68
1025	1376.67
1025.29	1383.45
1025.58	1401.76
1025.87	1368.76
1026.16	1361.53
1026.449	1359.27
1026.739	1333.51
1027.029	1342.78
1027.319	1319.5
1027.608	1348.2
1027.898	1352.94
1028.187	1286.96
1028.477	1302.55
1028.766	1275.43
1029.055	1285.6
1029.344	1266.85
1029.634	1270.01
1029.923	1266.85
1030.212	1238.15
1030.501	1239.95
1030.79	1240.18
1031.078	1215.55
1031.367	1225.26
1031.656	1203.57
1031.945	1202.44
1032.233	1199.73
1032.522	1195.66
1032.81	1192.27
1033.099	1179.62
1033.387	1140.97
1033.675	1168.32
1033.963	1157.7
1034.251	1162.22
1034.54	1103.69
1034.828	1129.45
1035.116	1112.95
1035.403	1090.58
1035.691	1110.47
1035.979	1106.85
1036.267	1076.79
1036.554	1078.15
1036.842	1078.15
1037.129	1075.21
1037.417	1057.59
1037.704	1065.95
1037.992	1058.49
1038.279	1053.97
1038.566	1051.94
1038.853	1051.94
1039.14	1051.94
