Data from white_poster_card_FLMS001491_00033.txt Node
Date: Wed Feb 08 11:51:25 GMT 2017
User: dcchb
Spectrometer: FLMS00149
Trigger mode: 0
Integration Time (sec): 2.000000E-2
Scans to average: 10
Electric dark correction enabled: true
Nonlinearity correction enabled: false
Boxcar width: 0
XAxis mode: Wavelengths
Number of Pixels in Spectrum: 2048
>>>>>Begin Spectral Data<<<<<
341.393	-5.88
341.776	-5.88
342.16	-5.88
342.543	-68.25
342.927	-62.6
343.31	-58.53
343.693	-84.97
344.077	-69.38
344.46	-35.03
344.843	-56.27
345.226	-53.78
345.61	-52.2
345.993	-13.33
346.376	-9.27
346.759	10.85
347.142	8.81
347.525	57.63
347.908	63.28
348.291	66.89
348.674	100.11
349.057	125.19
349.44	119.77
349.823	150.73
350.206	169.71
350.588	193.67
350.971	220.33
351.354	234.8
351.737	255.81
352.119	251.97
352.502	250.16
352.884	295.36
353.267	298.3
353.65	307.34
354.032	299.88
354.414	297.17
354.797	328.58
355.179	319.54
355.562	340.56
355.944	329.26
356.326	316.6
356.709	335.36
357.091	357.28
357.473	346.43
357.855	335.58
358.238	325.64
358.62	334.45
359.002	352.99
359.384	350.05
359.766	324.29
360.148	342.14
360.53	344.62
360.912	348.24
361.294	342.59
361.676	333.55
362.057	346.21
362.439	342.82
362.821	334.91
363.203	335.13
363.584	322.7
363.966	323.38
364.348	319.09
364.729	333.55
365.111	327.68
365.493	324.29
365.874	302.59
366.256	320.44
366.637	316.15
367.019	324.06
367.4	321.35
367.781	318.41
368.163	306.43
368.544	309.37
368.925	300.33
369.306	309.37
369.688	296.26
370.069	324.06
370.45	317.28
370.831	326.32
371.212	326.09
371.593	317.28
371.974	330.84
372.355	330.39
372.736	326.77
373.117	331.06
373.498	310.95
373.879	300.56
374.26	318.64
374.641	333.78
375.021	324.74
375.402	308.24
375.783	332.42
376.163	339.2
376.544	339.2
376.925	329.48
377.305	328.35
377.686	336.26
378.066	341.01
378.447	330.39
378.827	324.06
379.208	332.19
379.588	343.49
379.968	325.19
380.349	349.14
380.729	316.83
381.109	343.72
381.489	354.79
381.87	359.99
382.25	349.14
382.63	332.65
383.01	351.18
383.39	350.27
383.77	339.2
384.15	348.24
384.53	362.25
384.91	376.94
385.29	373.32
385.67	351.4
386.049	370.61
386.429	362.48
386.809	362.48
387.189	373.1
387.568	371.06
387.948	363.15
388.328	382.36
388.707	365.19
389.087	388.46
389.466	370.39
389.846	370.16
390.225	391.85
390.605	394.34
390.984	394.79
391.363	401.8
391.743	387.79
392.122	406.32
392.501	394.11
392.881	396.83
393.26	403.15
393.639	388.24
394.018	411.51
394.397	406.54
394.776	438.18
395.155	407.22
395.534	426.2
395.913	411.97
396.292	427.56
396.671	418.52
397.05	420.1
397.429	443.6
397.808	420.78
398.186	432.31
398.565	429.82
398.944	430.05
399.323	422.59
399.701	442.25
400.08	449.25
400.458	430.72
400.837	439.99
401.215	461.68
401.594	464.85
401.972	454.45
402.351	464.17
402.729	447.45
403.107	470.95
403.486	458.29
403.864	453.32
404.242	477.05
404.62	499.65
404.999	499.65
405.377	492.42
405.755	503.94
406.133	496.48
406.511	504.17
406.889	517.5
407.267	531.51
407.645	525.18
408.023	516.6
408.401	551.85
408.779	559.76
409.156	551.62
409.534	576.71
409.912	536.03
410.29	589.14
410.667	599.31
411.045	597.05
411.422	624.16
411.8	619.87
412.178	618.06
412.555	633.2
412.933	683.82
413.31	668.01
413.687	684.05
414.065	701.45
414.442	722.92
414.819	721.11
415.197	737.83
415.574	761.56
415.951	748
416.328	783.03
416.705	784.84
417.082	809.92
417.46	817.61
417.837	829.58
418.214	847.44
418.591	849.02
418.967	879.3
419.344	876.14
419.721	904.38
420.098	909.35
420.475	929.24
420.852	936.25
421.228	959.07
421.605	969.92
421.982	989.35
422.358	1006.3
422.735	979.86
423.111	1000.43
423.488	1015.11
423.864	1016.02
424.241	1047.2
424.617	1078.16
424.994	1096.92
425.37	1085.4
425.746	1093.3
426.123	1127.43
426.499	1126.52
426.875	1172.4
427.251	1180.31
427.627	1194.09
428.003	1203.58
428.379	1224.37
428.756	1241.1
429.132	1265.96
429.507	1293.3
429.883	1269.35
430.259	1294.43
430.635	1322.9
431.011	1342.56
431.387	1390.25
431.763	1397.48
432.138	1400.42
432.514	1404.71
432.89	1429.11
433.265	1487.19
433.641	1483.35
434.016	1470.7
434.392	1527.19
434.767	1566.74
435.143	1543.69
435.518	1583.91
435.894	1582.33
436.269	1644.93
436.644	1664.59
437.02	1689.22
437.395	1660.75
437.77	1690.8
438.145	1705.72
438.52	1706.4
438.895	1751.82
439.271	1753.4
439.646	1766.06
440.021	1785.94
440.395	1786.39
440.77	1784.59
441.145	1823
441.52	1837.47
441.895	1859.61
442.27	1890.8
442.645	1863
443.019	1900.52
443.394	1880.18
443.769	1905.03
444.143	1919.95
444.518	1958.14
444.892	1914.07
445.267	1980.51
445.641	1963.11
446.016	1978.48
446.39	2023.9
446.764	2035.43
447.139	2035.43
447.513	2040.17
447.887	2037.23
448.262	2045.6
448.636	2108.19
449.01	2126.72
449.384	2116.33
449.758	2124.01
450.132	2147.97
450.506	2152.49
450.88	2168.53
451.254	2168.53
451.628	2220.05
452.002	2237.46
452.376	2253.27
452.75	2257.12
453.123	2291.24
453.497	2361.29
453.871	2329.66
454.244	2392.71
454.618	2411.01
454.992	2420.95
455.365	2402.87
455.739	2476.09
456.112	2515.41
456.486	2519.71
456.859	2544.11
457.232	2582.3
457.606	2604.68
457.979	2653.72
458.352	2654.62
458.725	2710.21
459.099	2701.85
459.472	2729.42
459.845	2791.79
460.218	2802.19
460.591	2805.35
460.964	2839.02
461.337	2926.25
461.71	2985.91
462.083	3018.23
462.456	2995.63
462.829	3016.19
463.201	3072.69
463.574	3102.29
463.947	3118.34
464.32	3219.12
464.692	3215.73
465.065	3248.73
465.438	3268.39
465.81	3385.9
466.183	3340.03
466.555	3430.19
466.928	3447.59
467.3	3437.2
467.672	3527.14
468.045	3550.19
468.417	3581.15
468.789	3643.07
469.161	3658.66
469.534	3706.57
469.906	3762.61
470.278	3796.51
470.65	3902.72
471.022	3908.82
471.394	3938.43
471.766	4030.85
472.138	4058.42
472.51	4142.94
472.882	4164.64
473.253	4225.88
473.625	4317.85
473.997	4402.6
474.369	4421.8
474.74	4434.91
475.112	4521.46
475.484	4592.65
475.855	4700.44
476.227	4749.48
476.598	4859.53
476.97	4883.49
477.341	4996.7
477.713	5035.35
478.084	5094.56
478.455	5202.35
478.827	5266.53
479.198	5409.12
479.569	5447.77
479.94	5558.72
480.311	5635.78
480.682	5794.2
481.053	5872.61
481.424	5921.65
481.795	6000.52
482.166	6112.38
482.537	6185.15
482.908	6289.33
483.279	6376.56
483.65	6494.07
484.021	6643.44
484.391	6645.7
484.762	6748.3
485.133	6806.37
485.503	6900.38
485.874	7111.45
486.244	7101.96
486.615	7221.28
486.985	7293.37
487.356	7440.93
487.726	7534.04
488.097	7640.48
488.467	7696.52
488.837	7836.63
489.207	7920.24
489.578	8049.05
489.948	8120.92
490.318	8274.13
490.688	8295.15
491.058	8419.44
491.428	8513.67
491.798	8566.1
492.168	8772.2
492.538	8807.45
492.908	8920.9
493.278	9002.25
493.648	9076.82
494.017	9148.69
494.387	9318.85
494.757	9323.82
495.126	9422.58
495.496	9440.43
495.866	9534.89
496.235	9650.14
496.605	9790.48
496.974	9884.94
497.344	9941.66
497.713	9961.09
498.082	10139.17
498.452	10206.51
498.821	10223.91
499.19	10247.41
499.559	10327.19
499.928	10479.72
500.298	10476.56
500.667	10604.69
501.036	10630.45
501.405	10757.46
501.774	10802.2
502.143	10857.79
502.512	10953.84
502.88	11058.69
503.249	11072.48
503.618	11199.48
503.987	11164.23
504.356	11258.91
504.724	11358.8
505.093	11475.86
505.462	11487.83
505.83	11595.63
506.199	11631.33
506.567	11839.01
506.936	11794.04
507.304	11972.11
507.672	12053.69
508.041	12061.83
508.409	12219.11
508.777	12275.16
509.145	12356.29
509.514	12384.76
509.882	12483.97
510.25	12598.76
510.618	12678.99
510.986	12687.58
511.354	12818.42
511.722	12962.82
512.09	13072.65
512.458	13022.93
512.826	13309.03
513.193	13365.52
513.561	13323.49
513.929	13559.19
514.297	13593.99
514.664	13710.15
515.032	13725.06
515.4	13836.25
515.767	13925.28
516.135	13951.72
516.502	13972.97
516.869	14186.07
517.237	14267.65
517.604	14279.4
517.972	14481.65
518.339	14501.31
518.706	14658.82
519.073	14799.61
519.44	14894.75
519.808	15022.66
520.175	15054.29
520.542	15199.6
520.909	15290.67
521.276	15339.48
521.643	15562.3
522.009	15604.11
522.376	15658.8
522.743	15872.13
523.11	16046.81
523.477	16147.15
523.843	16293.13
524.21	16373.81
524.577	16553.69
524.943	16578.77
525.31	16753.23
525.676	16936.28
526.043	16993.68
526.409	17076.39
526.776	17278.64
527.142	17346.89
527.508	17477.05
527.874	17646.77
528.241	17764.96
528.607	17810.15
528.973	17941.9
529.339	18027.77
529.705	18294.21
530.071	18356.58
530.437	18479.97
530.803	18621.43
531.169	18627.76
531.535	18649
531.901	18777.36
532.267	18931.93
532.632	19017.35
532.998	19034.75
533.364	19155.65
533.73	19208.08
534.095	19460.96
534.461	19446.95
534.826	19545.25
535.192	19672.7
535.557	19737.33
535.923	19790.67
536.288	19878.57
536.653	19975.75
537.019	19886.26
537.384	20028.85
537.749	20209.41
538.114	20268.39
538.479	20305
538.845	20402.85
539.21	20348.17
539.575	20562.85
539.94	20515.39
540.305	20770.3
540.67	20765.33
541.034	20814.37
541.399	20931.65
541.764	20939.79
542.129	21116.05
542.494	21100.91
542.858	21192.44
543.223	21227.01
543.587	21439.89
543.952	21374.58
544.316	21494.58
544.681	21607.12
545.045	21630.17
545.41	21743.61
545.774	21793.55
546.138	21832.19
546.503	21902.47
546.867	21982.47
547.231	22216.82
547.595	22196.93
547.959	22255.01
548.324	22271.28
548.688	22375.23
549.052	22400.77
549.416	22521.22
549.779	22559.18
550.143	22617.71
550.507	22847.76
550.871	22896.35
551.235	22950.81
551.599	23055.44
551.962	23125.04
552.326	23254.3
552.689	23282.78
553.053	23289.33
553.417	23376.33
553.78	23665.82
554.143	23581.07
554.507	23740.84
554.87	23877.56
555.234	23905.59
555.597	23993.49
555.96	24053.38
556.323	24151.68
556.686	24282.75
557.05	24376.76
557.413	24588.05
557.776	24572.24
558.139	24722.29
558.502	24762.74
558.865	24882.74
559.228	25048.15
559.59	25114.82
559.953	25167.02
560.316	25421.7
560.679	25424.64
561.041	25574.92
561.404	25701.7
561.767	25925.19
562.129	25689.27
562.492	26054.46
562.854	26096.04
563.217	26074.57
563.579	26243.15
563.941	26532.41
564.304	26530.38
564.666	26625.51
565.028	26740.54
565.39	26834.1
565.753	26876.58
566.115	27107.08
566.477	27234.54
566.839	27359.05
567.201	27507.75
567.563	27467.98
567.925	27655.54
568.287	27684.7
568.648	27955.88
569.01	28007.4
569.372	28192.25
569.734	28006.95
570.095	28278.8
570.457	28340.95
570.819	28424.79
571.18	28428.63
571.542	28637.89
571.903	28619.81
572.265	28709.3
572.626	28780.03
572.987	28964.21
573.349	28949.97
573.71	29014.83
574.071	29180.48
574.432	29301.6
574.794	29549.51
575.155	29423.86
575.516	29406.68
575.877	29647.36
576.238	29632.22
576.599	29666.11
576.96	29700.91
577.32	29729.61
577.681	29824.53
578.042	29848.71
578.403	30002.15
578.763	29995.6
579.124	30079.66
579.485	30159.43
579.845	30369.37
580.206	30179.77
580.566	30167.79
580.927	30274.68
581.287	30385.19
581.648	30213.89
582.008	30387.45
582.368	30338.41
582.728	30370.95
583.089	30424.96
583.449	30437.62
583.809	30462.48
584.169	30459.99
584.529	30555.81
584.889	30634.22
585.249	30466.09
585.609	30385.19
585.969	30731.17
586.329	30448.24
586.688	30612.98
587.048	30549.93
587.408	30524.17
587.768	30667.44
588.127	30542.02
588.487	30514.45
588.846	30776.14
589.206	30608.46
589.565	30594.22
589.925	30706.09
590.284	30671.74
590.643	30746.31
591.003	30695.46
591.362	30831.73
591.721	30776.59
592.08	30675.8
592.44	30885.97
592.799	30924.16
593.158	30801
593.517	30728.23
593.876	30794.67
594.235	30785.63
594.593	30786.76
594.952	30856.82
595.311	30653.88
595.67	30838.06
596.029	31020.2
596.387	30963.25
596.746	31068.11
597.104	30888.45
597.463	30897.27
597.822	31053.42
598.18	30890.26
598.538	30992.18
598.897	31085.74
599.255	30916.93
599.613	31275.79
599.972	31087.54
600.33	31244.15
600.688	31059.07
601.046	31281.21
601.404	31285.73
601.762	31266.97
602.12	31364.83
602.478	31415.22
602.836	31435.56
603.194	31305.39
603.552	31409.34
603.91	31244.38
604.268	31602.78
604.625	31306.52
604.983	31385.84
605.341	31321.44
605.698	31549
606.056	31614.31
606.413	31493.64
606.771	31731.14
607.128	31590.81
607.485	31445.95
607.843	31476.01
608.2	31797.81
608.557	31912.83
608.914	31691.37
609.272	31890.46
609.629	31995.32
609.986	32111.02
610.343	31671.48
610.7	32057.69
611.057	32054.3
611.414	32057.24
611.771	31956.45
612.127	32162.09
612.484	32168.65
612.841	32252.94
613.198	32187.63
613.554	32207.97
613.911	32296.1
614.267	32191.47
614.624	32157.12
614.98	32241.64
615.337	32399.6
615.693	32320.51
616.05	32285.93
616.406	32439.6
616.762	32496.77
617.118	32455.42
617.475	32588.52
617.831	32518.92
618.187	32568.18
618.543	32667.39
618.899	32742.19
619.255	32626.94
619.611	32580.16
619.967	32762.98
620.323	32750.78
620.678	32680.95
621.034	32619.71
621.39	32499.71
621.746	32625.58
622.101	33004.33
622.457	32600.72
622.812	32770.21
623.168	32848.4
623.523	32935.63
623.879	32936.31
624.234	32769.76
624.589	32870.77
624.945	32793.94
625.3	32840.72
625.655	32939.02
626.01	32712.81
626.365	32924.33
626.72	32920.94
627.075	32828.29
627.43	32815.63
627.785	32643.89
628.14	32834.62
628.495	32694.06
628.85	32714.85
629.205	32542.42
629.559	32769.76
629.914	32631.68
630.269	32614.28
630.623	32462.65
630.978	32544.91
631.332	32577.45
631.687	32757.1
632.041	32513.72
632.396	32744.9
632.75	32387.17
633.104	32455.87
633.459	32308.08
633.813	32389.2
634.167	32435.08
634.521	32418.36
634.875	32379.71
635.229	32219.27
635.583	32106.95
635.937	32100.62
636.291	32121.87
636.645	31999.84
636.999	31971.59
637.352	32115.31
637.706	31797.36
638.06	31885.94
638.413	31930.01
638.767	31774.76
639.121	31788.54
639.474	31683.69
639.828	31693.4
640.181	31657.92
640.534	31685.95
640.888	31648.66
641.241	31306.3
641.594	31524.59
641.947	31458.38
642.301	31478.72
642.654	31485.05
643.007	31287.31
643.36	31320.98
643.713	31342.9
644.066	31360.08
644.419	31250.93
644.771	30941.11
645.124	30675.35
645.477	30725.29
645.83	30504.06
646.182	30354.23
646.535	30342.48
646.888	30318.3
647.24	30023.39
647.593	30179.77
647.945	30286.89
648.298	30103.39
648.65	30003.05
649.002	29892.77
649.355	30080.34
649.707	29993.56
650.059	30061.13
650.411	30487.33
650.763	30460.22
651.115	30662.47
651.467	30616.14
651.819	30591.06
652.171	30495.24
652.523	30559.87
652.875	30384.96
653.227	30365.98
653.578	30500.67
653.93	30426.77
654.282	30330.28
654.633	30210.05
654.985	30239.88
655.337	30259.77
655.688	30318.75
656.039	30353.78
656.391	29947.01
656.742	30101.58
657.094	30032.43
657.445	30143.16
657.796	30057.51
658.147	30071.98
658.498	30021.81
658.849	30014.58
659.2	29968.7
659.551	29975.26
659.902	30102.94
660.253	30004.63
660.604	29950.17
660.955	29848.93
661.306	29903.17
661.656	29921.47
662.007	29951.08
662.358	29802.38
662.708	29869.95
663.059	29917.18
663.409	29638.09
663.76	29874.69
664.11	29806.45
664.461	29688.26
664.811	29751.31
665.161	29700.24
665.511	29638.99
665.862	29662.04
666.212	29692.33
666.562	29683.51
666.912	29567.13
667.262	29666.34
667.612	29470.41
667.962	29606.91
668.312	29516.06
668.662	29701.14
669.011	29425.22
669.361	29499.79
669.711	29407.81
670.06	29490.07
670.41	29377.53
670.76	29440.36
671.109	29488.94
671.459	29435.16
671.808	29385.22
672.157	29512.22
672.507	29260.02
672.856	29286.69
673.205	29299.34
673.554	29429.28
673.904	29238.55
674.253	29364.2
674.602	29219.34
674.951	28919.92
675.3	28726.48
675.649	29123.98
675.998	29043.76
676.346	29103.42
676.695	29122.17
677.044	28836.98
677.393	29092.34
677.741	29013.93
678.09	28837.21
678.438	28918.79
678.787	29099.35
679.135	29006.24
679.484	28668.85
679.832	28774.38
680.181	28749.53
680.529	28817.55
680.877	28587.5
681.225	28663.2
681.573	28818.68
681.922	28614.39
682.27	28406.94
682.618	28444.68
682.966	28371.91
683.314	28513.83
683.661	28290.56
684.009	28242.65
684.357	28231.35
684.705	28123.1
685.053	28153.38
685.4	28099.15
685.748	27968.08
686.095	27795.65
686.443	27736.9
686.79	27837.23
687.138	27941.64
687.485	27885.14
687.832	27717.92
688.18	27789.78
688.527	27583.46
688.874	27547.98
689.221	27519.73
689.568	27320.86
689.915	27380.3
690.262	27281.99
690.609	27331.71
690.956	27138.72
691.303	27223.46
691.65	27009.23
691.997	26927.88
692.344	26909.12
692.69	26800.65
693.037	26885.17
693.383	26605.63
693.73	26688.11
694.077	26600.43
694.423	26571.96
694.769	26473.2
695.116	26327.22
695.462	26283.38
695.808	26230.5
696.155	26294.45
696.501	26050.61
696.847	26156.15
697.193	25938.08
697.539	25958.41
697.885	25830.06
698.231	25693.11
698.577	25678.42
698.923	25565.88
699.269	25646.78
699.614	25431.2
699.96	25373.8
700.306	25383.74
700.651	25267.58
700.997	25190.3
701.342	25210.41
701.688	25126.34
702.033	25087.25
702.379	25075.5
702.724	24919.12
703.069	24904.66
703.415	24728.62
703.76	24737.88
704.105	24725.45
704.45	24594.16
704.795	24496.08
705.14	24380.15
705.485	24359.13
705.83	24335.86
706.175	24299.02
706.52	24152.13
706.865	24062.64
707.209	24120.27
707.554	24051.57
707.899	24061.06
708.243	23922.76
708.588	23870.33
708.932	23800.5
709.277	23645.48
709.621	23754.63
709.966	23483.22
710.31	23593.05
710.654	23433.28
710.998	23438.48
711.342	23520.06
711.687	23379.72
712.031	23376.56
712.375	23158.94
712.719	23270.12
713.063	23106.06
713.407	23316.45
713.75	23092.73
714.094	23038.72
714.438	22964.82
714.782	22936.35
715.125	22887.53
715.469	22854.54
715.812	22772.96
716.156	22652.74
716.499	22720.31
716.843	22743.81
717.186	22585.85
717.53	22590.37
717.873	22610.25
718.216	22569.58
718.559	22396.47
718.902	22315.8
719.246	22429.24
719.589	22260.43
719.932	22128.91
720.275	22183.82
720.617	22186.08
720.96	22064.5
721.303	22170.72
721.646	22093.66
721.989	21904.73
722.331	22023.15
722.674	21916.71
723.016	21967.56
723.359	21784.29
723.701	21950.61
724.044	21741.12
724.386	21690.73
724.729	21842.36
725.071	21706.55
725.413	21642.37
725.755	21587.91
726.097	21545.42
726.439	21509.04
726.782	21561.01
727.124	21573.44
727.465	21422.26
727.807	21356.05
728.149	21283.96
728.491	21243.74
728.833	21253.9
729.175	21194.47
729.516	21168.26
729.858	21100.91
730.199	21061.14
730.541	21116.05
730.882	21020.46
731.224	21014.81
731.565	20913.12
731.906	20912.67
732.248	20851.43
732.589	20856.4
732.93	20739.57
733.271	20707.03
733.612	20836.97
733.953	20777.53
734.294	20698.21
734.635	20655.95
734.976	20675.84
735.317	20713.13
735.658	20573.92
735.999	20538.89
736.339	20481.5
736.68	20632
737.021	20503.19
737.361	20361.05
737.702	20439.01
738.042	20370.99
738.383	20284.89
738.723	20358.33
739.063	20289.41
739.404	20377.77
739.744	20251.22
740.084	20149.53
740.424	20227.04
740.764	20097.55
741.104	20179.58
741.444	20105.46
741.784	20015.74
742.124	20066.37
742.464	20016.87
742.804	19832.02
743.143	19908.18
743.483	19909.31
743.823	19843.55
744.162	19803.77
744.502	19723.55
744.841	19668.18
745.181	19744.79
745.52	19693.49
745.86	19641.52
746.199	19641.97
746.538	19530.79
746.877	19589.99
747.216	19512.03
747.556	19511.35
747.895	19512.71
748.234	19360.62
748.573	19295.31
748.911	19335.31
749.25	19337.12
749.589	19226.16
749.928	19259.83
750.267	19318.81
750.605	19198.82
750.944	19218.7
751.283	19020.97
751.621	19028.43
751.96	18919.5
752.298	18884.7
752.636	18879.5
752.975	18845.15
753.313	18758.15
753.651	18852.84
753.989	18677.7
754.327	18689.45
754.666	18577.59
755.004	18721.54
755.342	18656.91
755.679	18504.15
756.017	18498.72
756.355	18461.89
756.693	18411.04
757.031	18412.85
757.368	18305.73
757.706	18228.22
758.044	18181.67
758.381	18170.14
758.719	18086.53
759.056	18157.49
759.394	18132.18
759.731	17964.73
760.068	17943.03
760.405	17845.86
760.743	17816.71
761.08	17790.04
761.417	17750.49
761.754	17686.54
762.091	17566.32
762.428	17559.54
762.765	17526.09
763.102	17553.44
763.438	17458.3
763.775	17282.26
764.112	17311.41
764.449	17417.62
764.785	17345.98
765.122	17111.87
765.458	17058.08
765.795	17173.11
766.131	17075.26
766.467	16962.72
766.804	16878.43
767.14	16833.91
767.476	16881.36
767.812	16781.48
768.148	16718.2
768.485	16587.59
768.821	16600.47
769.157	16538.1
769.492	16429.62
769.828	16415.84
770.164	16229.4
770.5	16272.57
770.836	16143.98
771.171	16201.61
771.507	16085
771.842	16087.49
772.178	16078.9
772.513	15951.22
772.849	15849.53
773.184	15805.69
773.519	15869.19
773.855	15734.95
774.19	15561.85
774.525	15601.62
774.86	15581.29
775.195	15536.31
775.53	15546.03
775.865	15435.3
776.2	15256.55
776.535	15219.03
776.87	15252.93
777.205	15125.93
777.539	15090.9
777.874	15072.6
778.209	14958.7
778.543	14894.98
778.878	14860.85
779.212	14779.05
779.547	14761.19
779.881	14798.48
780.215	14625.15
780.55	14667.64
780.884	14630.58
781.218	14551.03
781.552	14512.16
781.886	14490.24
782.22	14396.23
782.554	14308.32
782.888	14174.32
783.222	14191.94
783.556	14058.16
783.889	14045.73
784.223	13999.18
784.557	13923.48
784.89	14029.01
785.224	13886.41
785.557	13780.65
785.891	13808
786.224	13811.61
786.558	13748.34
786.891	13514.45
787.224	13533.43
787.557	13546.76
787.891	13460.66
788.224	13446.88
788.557	13462.47
788.89	13372.08
789.223	13391.74
789.556	13229.48
789.888	13232.42
790.221	13222.48
790.554	13137.51
790.887	13064.06
791.219	13012.54
791.552	13028.36
791.884	12883.96
792.217	12856.39
792.549	12787.46
792.882	12708.59
793.214	12638.99
793.546	12760.34
793.879	12637.86
794.211	12626.11
794.543	12608.48
794.875	12521.48
795.207	12536.85
795.539	12488.26
795.871	12479.67
796.203	12395.38
796.535	12248.94
796.867	12345.89
797.198	12229.06
797.53	12244.65
797.862	12161.94
798.193	12195.39
798.525	12072.45
798.856	12180.47
799.188	11974.83
799.519	11986.13
799.85	11891.44
800.182	11913.59
800.513	11937.09
800.844	11811.44
801.175	11901.61
801.506	11818.9
801.837	11820.03
802.168	11694.16
802.499	11799.92
802.83	11613.48
803.161	11597.89
803.491	11689.41
803.822	11570.32
804.153	11575.51
804.483	11435.86
804.814	11356.09
805.145	11411
805.475	11374.16
805.805	11363.09
806.136	11344.11
806.466	11326.48
806.796	11250.55
807.126	11182.53
807.457	11123.32
807.787	11135.98
808.117	11086.94
808.447	11053.72
808.777	11126.49
809.107	11044.91
809.436	10889.43
809.766	10937.79
810.096	10887.17
810.426	10779.15
810.755	10824.57
811.085	10872.48
811.414	10871.13
811.744	10700.06
812.073	10743.45
812.403	10736.21
812.732	10674.52
813.061	10685.37
813.39	10588.42
813.719	10643.79
814.049	10620.96
814.378	10547.97
814.707	10498.71
815.036	10506.84
815.365	10444.02
815.693	10325.83
816.022	10385.49
816.351	10394.08
816.68	10353.63
817.008	10382.1
817.337	10243.57
817.665	10171.26
817.994	10183.24
818.322	10257.81
818.651	10179.62
818.979	10113.63
819.307	10229.34
819.636	10155.67
819.964	10114.54
820.292	10113.18
820.62	10104.82
820.948	10075.89
821.276	10086.06
821.604	10075.22
821.932	10075.89
822.259	10034.54
822.587	9980.53
822.915	10014.2
823.243	10018.27
823.57	9960.87
823.898	10001.09
824.225	9887.2
824.553	9983.24
824.88	10060.75
825.207	10051.94
825.535	10022.34
825.862	9995.67
826.189	9985.05
826.516	10019.85
826.843	9987.76
827.17	10052.84
827.497	10086.29
827.824	10012.39
828.151	10002.9
828.478	9956.57
828.805	10053.97
829.131	9921.77
829.458	9903.69
829.785	9939.17
830.111	9949.57
830.438	9968.78
830.764	10039.06
831.09	10008.55
831.417	9916.8
831.743	9944.15
832.069	9999.96
832.395	9915.67
832.722	9954.09
833.048	9908.67
833.374	9966.52
833.7	9803.13
834.026	9824.83
834.351	9855.33
834.677	9814.66
835.003	9884.94
835.329	9860.98
835.654	9866.18
835.98	9811.04
836.306	9811.27
836.631	9791.15
836.956	9810.59
837.282	9837.93
837.607	9732.85
837.932	9707.99
838.258	9726.75
838.583	9706.19
838.908	9686.75
839.233	9656.02
839.558	9701.89
839.883	9620.31
840.208	9592.74
840.533	9688.33
840.858	9552.52
841.182	9604.27
841.507	9579.64
841.832	9482.24
842.156	9517.72
842.481	9493.99
842.805	9524.5
843.13	9443.37
843.454	9398.85
843.778	9435.46
844.103	9406.53
844.427	9352.75
844.751	9333.77
845.075	9248.8
845.399	9252.86
845.723	9270.94
846.047	9241.56
846.371	9160.44
846.695	9199.76
847.019	9114.56
847.343	9051.29
847.666	8958.63
847.99	8942.36
848.313	8958.41
848.637	8941.23
848.96	8889.26
849.284	8925.87
849.607	8839.54
849.931	8778.53
850.254	8760
850.577	8714.35
850.9	8584.41
851.223	8602.26
851.546	8607.91
851.869	8528.82
852.192	8578.98
852.515	8449.27
852.838	8433
853.161	8450.63
853.483	8364.07
853.806	8283.62
854.129	8317.3
854.451	8280.91
854.774	8266
855.096	8263.06
855.419	8245.66
855.741	8148.49
856.063	8185.55
856.385	8198.88
856.708	8101.26
857.03	8113.01
857.352	8116.17
857.674	8043.86
857.996	8086.12
858.318	8011.31
858.64	7998.89
858.961	8015.83
859.283	7988.94
859.605	7893.8
859.926	7984.65
860.248	7889.74
860.57	7900.81
860.891	7886.8
861.212	7863.52
861.534	7860.36
861.855	7836.86
862.176	7768.16
862.498	7794.82
862.819	7783.52
863.14	7720.93
863.461	7712.34
863.782	7699.23
864.103	7734.49
864.424	7674.15
864.745	7693.13
865.065	7660.36
865.386	7619.01
865.707	7639.57
866.027	7644.09
866.348	7611.1
866.668	7627.37
866.989	7612.68
867.309	7513.93
867.63	7473.25
867.95	7568.61
868.27	7473.48
868.59	7474.61
868.91	7477.77
869.23	7476.19
869.55	7461.72
869.87	7439.58
870.19	7478.22
870.51	7399.58
870.83	7406.81
871.15	7360.03
871.469	7409.97
871.789	7394.16
872.109	7326.59
872.428	7307.15
872.748	7330.88
873.067	7330.65
873.386	7307.38
873.706	7265.57
874.025	7256.31
874.344	7241.17
874.663	7283.65
874.982	7247.72
875.301	7240.49
875.62	7242.97
875.939	7144.44
876.258	7190.09
876.577	7162.75
876.896	7137.89
877.214	7108.51
877.533	7155.52
877.852	7172.24
878.17	7198.91
878.489	7122.3
878.807	7141.73
879.125	7080.27
879.444	7088.18
879.762	7013.37
880.08	7097.89
880.398	6995.97
880.716	7078.23
881.034	7004.56
881.352	6992.36
881.67	7001.17
881.988	6998.46
882.306	6962.53
882.624	6928.41
882.941	6956.2
883.259	6896.09
883.577	6888.41
883.894	6880.27
884.212	6882.08
884.529	6855.64
884.846	6795.98
885.164	6849.76
885.481	6788.97
885.798	6839.14
886.115	6749.65
886.432	6747.39
886.75	6669.88
887.067	6762.53
887.383	6685.25
887.7	6710.78
888.017	6619.94
888.334	6684.8
888.651	6600.05
888.967	6638.47
889.284	6634.63
889.6	6568.19
889.917	6544.91
890.233	6537
890.55	6530.9
890.866	6490
891.182	6469.66
891.498	6434.18
891.815	6457.23
892.131	6454.52
892.447	6435.09
892.763	6384.46
893.079	6359.61
893.395	6316.44
893.71	6348.76
894.026	6306.73
894.342	6282.32
894.657	6243.9
894.973	6261.53
895.289	6268.54
895.604	6169.56
895.92	6192.15
896.235	6141.53
896.55	6183.79
896.865	6103.12
897.181	6100.4
897.496	6181.53
897.811	6080.29
898.126	6071.93
898.441	6003.23
898.756	6033.74
899.071	5945.15
899.386	5988.77
899.7	5930.47
900.015	5898.83
900.33	5904.93
900.644	5900.64
900.959	5892.5
901.273	5881.43
901.588	5828.32
901.902	5809.34
902.216	5841.65
902.531	5738.61
902.845	5778.38
903.159	5699.96
903.473	5704.26
903.787	5680.08
904.101	5677.36
904.415	5643.47
904.729	5601.21
905.042	5583.36
905.356	5604.82
905.67	5550.81
905.984	5558.27
906.297	5500.65
906.611	5521.66
906.924	5485.05
907.237	5446.18
907.551	5450.93
907.864	5470.82
908.177	5420.2
908.491	5370.48
908.804	5372.29
909.117	5312.18
909.43	5343.14
909.743	5338.16
910.056	5310.59
910.368	5237.15
910.681	5229.24
910.994	5162.58
911.307	5169.58
911.619	5168.68
911.932	5139.07
912.244	5122.13
912.557	5087.78
912.869	5068.79
913.181	5066.08
913.494	5083.71
913.806	5044.61
914.118	5049.81
914.43	4954.9
914.742	4972.07
915.054	4963.03
915.366	4894.11
915.678	4896.37
915.99	4878.29
916.302	4879.42
916.613	4865.86
916.925	4814.79
917.236	4820.21
917.548	4803.26
917.859	4812.53
918.171	4775.02
918.482	4752.64
918.794	4683.04
919.105	4735.47
919.416	4702.93
919.727	4656.15
920.038	4715.58
920.349	4640.56
920.66	4637.62
920.971	4650.5
921.282	4572.76
921.593	4522.82
921.903	4555.13
922.214	4486.21
922.525	4461.35
922.835	4482.59
923.146	4479.43
923.456	4449.6
923.767	4408.47
924.077	4443.5
924.387	4441.92
924.697	4405.53
925.008	4369.83
925.318	4327.34
925.628	4343.84
925.938	4308.59
926.248	4299.32
926.558	4295.48
926.867	4278.98
927.177	4255.03
927.487	4191.3
927.796	4174.58
928.106	4184.07
928.416	4123.51
928.725	4183.17
929.034	4136.84
929.344	4121.7
929.653	4132.77
929.962	4081.93
930.271	4073.79
930.581	4011.87
930.89	4038.76
931.199	4006.9
931.508	3984.08
931.817	3976.62
932.125	3989.95
932.434	3977.3
932.743	3943.4
933.051	3900.69
933.36	3866.34
933.669	3935.26
933.977	3862.72
934.286	3842.61
934.594	3837.41
934.902	3823.4
935.21	3815.72
935.519	3823.85
935.827	3791.99
936.135	3770.07
936.443	3752.67
936.751	3748.15
937.059	3763.74
937.367	3705.67
937.674	3691.65
937.982	3704.54
938.29	3704.31
938.597	3683.52
938.905	3651.43
939.213	3626.8
939.52	3604.43
939.827	3633.8
940.135	3596.29
940.442	3573.92
940.749	3549.06
941.056	3586.35
941.363	3502.28
941.67	3468.16
941.977	3473.36
942.284	3428.84
942.591	3462.96
942.898	3490.3
943.205	3431.32
943.511	3420.25
943.818	3375.5
944.125	3389.06
944.431	3356.97
944.738	3388.61
945.044	3352.45
945.35	3306.35
945.657	3348.16
945.963	3336.86
946.269	3281.5
946.575	3287.37
946.881	3236.53
947.187	3259.12
947.493	3245.11
947.799	3251.67
948.105	3222.51
948.41	3156.3
948.716	3217.77
949.022	3166.47
949.327	3139.8
949.633	3101.39
949.938	3144.78
950.244	3082.86
950.549	3099.81
950.854	3058.9
951.16	3074.5
951.465	3055.96
951.77	2987.72
952.075	3037.89
952.38	3041.28
952.685	3039.92
952.99	2974.61
953.294	2989.75
953.599	2950.66
953.904	2934.61
954.209	2904.33
954.513	2984.78
954.818	2900.94
955.122	2889.87
955.426	2918.57
955.731	2900.94
956.035	2858.23
956.339	2880.83
956.643	2853.48
956.948	2831.34
957.252	2851.45
957.556	2835.41
957.86	2841.96
958.163	2804.67
958.467	2778.23
958.771	2790.66
959.075	2757.89
959.378	2785.01
959.682	2746.82
959.985	2705.24
960.289	2718.12
960.592	2667.5
960.896	2707.5
961.199	2650.33
961.502	2655.75
961.805	2675.41
962.108	2608.29
962.411	2604
962.714	2616.65
963.017	2603.32
963.32	2615.75
963.623	2615.07
963.926	2589.99
964.228	2591.8
964.531	2572.14
964.833	2549.99
965.136	2552.7
965.438	2521.06
965.741	2535.07
966.043	2496.88
966.345	2487.84
966.648	2496.66
966.95	2474.74
967.252	2482.19
967.554	2467.51
967.856	2458.01
968.158	2431.8
968.46	2431.8
968.761	2414.17
969.063	2425.7
969.365	2374.85
969.666	2399.26
969.968	2377.11
970.269	2328.07
970.571	2348.41
970.872	2355.42
971.174	2340.05
971.475	2365.14
971.776	2328.98
972.077	2305.7
972.378	2287.17
972.679	2267.06
972.98	2280.62
973.281	2296.66
973.582	2273.16
973.883	2244.01
974.183	2244.46
974.484	2220.73
974.785	2212.82
975.085	2199.49
975.386	2228.42
975.686	2221.86
975.986	2194.52
976.287	2190.45
976.587	2138.25
976.887	2184.8
977.187	2163.56
977.487	2157.01
977.787	2133.73
978.087	2123.56
978.387	2121.98
978.687	2100.96
978.987	2081.75
979.286	2079.27
979.586	2093.5
979.885	2088.31
980.185	2072.26
980.484	2049.89
980.784	2027.07
981.083	2005.6
981.382	2050.79
981.682	1988.2
981.981	2008.76
982.28	2008.76
982.579	1968.54
982.878	2004.24
983.177	2016.44
983.475	1986.39
983.774	1998.59
984.073	1952.04
984.372	1987.97
984.67	1948.42
984.969	1927.63
985.267	1937.58
985.566	1927.63
985.864	1931.25
986.162	1894.64
986.461	1901.42
986.759	1906.84
987.057	1861.65
987.355	1902.32
987.653	1863
987.951	1875.88
988.249	1873.17
988.547	1846.05
988.844	1823
989.142	1826.39
989.44	1808.99
989.737	1826.17
990.035	1824.13
990.332	1792.5
990.63	1783.46
990.927	1779.84
991.224	1759.73
991.521	1733.97
991.819	1753.17
992.116	1750.69
992.413	1741.65
992.71	1731.25
993.006	1710.46
993.303	1716.79
993.6	1709.56
993.897	1695.55
994.193	1742.55
994.49	1680.86
994.787	1661.88
995.083	1678.15
995.379	1664.81
995.676	1647.41
995.972	1680.18
996.268	1635.89
996.565	1643.57
996.861	1617.58
997.157	1614.42
997.453	1598.38
997.749	1613.06
998.044	1586.4
998.34	1598.38
998.636	1571.26
998.932	1603.8
999.227	1552.95
999.523	1566.74
999.818	1531.03
1000.114	1554.54
1000.409	1554.08
1000.704	1525.16
1001	1519.51
1001.295	1517.7
1001.59	1497.81
1001.885	1503.69
1002.18	1457.36
1002.475	1494.65
1002.77	1465.5
1003.065	1462.11
1003.359	1484.25
1003.654	1453.07
1003.949	1455.55
1004.243	1441.54
1004.538	1404.48
1004.832	1430.7
1005.127	1427.76
1005.421	1385.27
1005.715	1404.26
1006.009	1398.16
1006.304	1398.16
1006.598	1387.99
1006.892	1360.64
1007.186	1357.93
1007.48	1343.69
1007.773	1352.73
1008.067	1364.94
1008.361	1347.99
1008.655	1320.19
1008.948	1305.5
1009.242	1326.07
1009.535	1310.7
1009.829	1311.83
1010.122	1293.98
1010.415	1290.81
1010.708	1284.03
1011.001	1275.45
1011.295	1282.45
1011.588	1297.59
1011.881	1266.41
1012.173	1264.15
1012.466	1244.26
1012.759	1242.91
1013.052	1209.23
1013.344	1236.35
1013.637	1235
1013.93	1202.45
1014.222	1216.24
1014.514	1212.17
1014.807	1201.78
1015.099	1178.95
1015.391	1203.13
1015.683	1165.17
1015.976	1200.19
1016.268	1162.23
1016.56	1146.41
1016.851	1136.02
1017.143	1148.9
1017.435	1149.12
1017.727	1124.04
1018.018	1123.36
1018.31	1106.64
1018.602	1109.58
1018.893	1123.36
1019.185	1085.85
1019.476	1103.7
1019.767	1097.37
1020.058	1085.17
1020.35	1077.71
1020.641	1058.5
1020.932	1060.31
1021.223	1063.93
1021.514	1053.08
1021.804	1025.74
1022.095	1033.87
1022.386	1028.9
1022.677	1036.36
1022.967	1021.89
1023.258	980.54
1023.548	977.6
1023.839	986.41
1024.129	1005.62
1024.419	1012.85
1024.709	954.33
1025	975.12
1025.29	966.08
1025.58	962.91
1025.87	983.25
1026.16	934.21
1026.449	946.42
1026.739	959.97
1027.029	926.76
1027.319	960.65
1027.608	904.83
1027.898	905.06
1028.187	887.66
1028.477	914.33
1028.766	908
1029.055	888.56
1029.344	913.87
1029.634	903.25
1029.923	901.45
1030.212	878.17
1030.501	876.36
1030.79	898.28
1031.078	835.91
1031.367	845.63
1031.656	875.46
1031.945	853.54
1032.233	843.59
1032.522	841.56
1032.81	839.3
1033.099	829.36
1033.387	842.92
1033.675	837.49
1033.963	840.43
1034.251	840.88
1034.54	804.5
1034.828	813.31
1035.116	809.47
1035.403	814.22
1035.691	802.46
1035.979	801.79
1036.267	790.04
1036.554	786.19
1036.842	775.57
1037.129	771.73
1037.417	771.96
1037.704	766.31
1037.992	759.3
1038.279	769.02
1038.566	758.4
1038.853	758.4
1039.14	758.4
