Data from white_steel_sheet_FLMS001491_019.txt Node
Date: Tue Feb 07 10:57:28 GMT 2017
User: dcchb
Spectrometer: FLMS00149
Trigger mode: 0
Integration Time (sec): 2.000000E-2
Scans to average: 10
Electric dark correction enabled: true
Nonlinearity correction enabled: false
Boxcar width: 0
XAxis mode: Wavelengths
Number of Pixels in Spectrum: 2048
>>>>>Begin Spectral Data<<<<<
341.393	-12.3
341.776	-12.3
342.16	-12.3
342.543	-60.21
342.927	-83.94
343.31	-76.93
343.693	-85.75
344.077	-81
344.46	-47.1
344.843	-47.1
345.226	-43.94
345.61	-34.45
345.993	-6.43
346.376	-4.62
346.759	21.82
347.142	36.06
347.525	31.99
347.908	65.89
348.291	76.28
348.674	89.84
349.057	105.44
349.44	114.02
349.823	119.9
350.206	169.84
350.588	179.33
350.971	217.97
351.354	246
351.737	236.96
352.119	235.38
352.502	254.81
352.884	271.76
353.267	286.9
353.65	289.84
354.032	301.59
354.414	300.68
354.797	307.46
355.179	316.73
355.562	333.23
355.944	341.81
356.326	337.52
356.709	328.25
357.091	325.99
357.473	353.34
357.855	340.23
358.238	341.59
358.62	336.16
359.002	340.23
359.384	372.09
359.766	341.14
360.148	351.08
360.53	373.22
360.912	338.42
361.294	340.46
361.676	336.84
362.057	344.3
362.439	332.32
362.821	323.51
363.203	348.59
363.584	344.3
363.966	335.49
364.348	319.67
364.729	319.21
365.111	319.67
365.493	316.05
365.874	338.2
366.256	333.45
366.637	328.03
367.019	311.08
367.4	322.38
367.781	331.64
368.163	315.15
368.544	327.8
368.925	325.77
369.306	317.86
369.688	311.31
370.069	328.03
370.45	321.47
370.831	309.27
371.212	337.97
371.593	340.68
371.974	315.83
372.355	339.33
372.736	323.28
373.117	319.44
373.498	321.02
373.879	326.9
374.26	350.4
374.641	337.97
375.021	326.67
375.402	345.43
375.783	342.49
376.163	352.21
376.544	345.43
376.925	350.4
377.305	320.57
377.686	342.72
378.066	363.73
378.447	330.97
378.827	368.48
379.208	344.3
379.588	322.38
379.968	344.3
380.349	347.91
380.729	367.12
381.109	330.29
381.489	365.77
381.87	370.06
382.25	364.86
382.63	357.86
383.01	360.12
383.39	360.57
383.77	356.73
384.15	354.47
384.53	389.5
384.91	384.3
385.29	384.98
385.67	365.77
386.049	389.27
386.429	373.68
386.809	376.61
387.189	386.56
387.568	387.46
387.948	396.5
388.328	374.58
388.707	404.18
389.087	403.28
389.466	420.91
389.846	426.56
390.225	429.72
390.605	412.09
390.984	413.45
391.363	416.84
391.743	436.95
392.122	418.87
392.501	454.58
392.881	427.23
393.26	442.15
393.639	445.54
394.018	455.48
394.397	441.25
394.776	452.54
395.155	439.89
395.534	456.16
395.913	486.67
396.292	485.09
396.671	501.58
397.05	493.22
397.429	481.92
397.808	469.04
398.186	505.65
398.565	501.58
398.944	498.42
399.323	517.18
399.701	536.38
400.08	525.31
400.458	532.54
400.837	560.34
401.215	539.1
401.594	543.16
401.972	565.99
402.351	550.85
402.729	576.84
403.107	601.47
403.486	568.93
403.864	588.59
404.242	590.62
404.62	617.06
404.999	635.36
405.377	616.38
405.755	641.92
406.133	659.09
406.511	676.95
406.889	664.29
407.267	692.54
407.645	684.18
408.023	699.77
408.401	720.79
408.779	747.68
409.156	749.94
409.534	731.63
409.912	743.84
410.29	763.27
410.667	763.95
411.045	794
411.422	804.4
411.8	797.85
412.178	833.55
412.555	835.36
412.933	836.49
413.31	855.02
413.687	852.53
414.065	866.09
414.442	907
414.819	903.61
415.197	917.39
415.574	915.36
415.951	923.49
416.328	934.57
416.705	954.9
417.082	958.52
417.46	984.06
417.837	970.05
418.214	975.24
418.591	995.13
418.967	1002.36
419.344	1023.38
419.721	1016.15
420.098	1024.73
420.475	1059.31
420.852	1059.31
421.228	1082.36
421.605	1066.99
421.982	1112.41
422.358	1091.4
422.735	1113.77
423.111	1113.77
423.488	1151.51
423.864	1145.63
424.241	1153.54
424.617	1184.28
424.994	1185.41
425.37	1169.14
425.746	1194.9
426.123	1239.19
426.499	1222.69
426.875	1244.61
427.251	1239.64
427.627	1302.01
428.003	1292.97
428.379	1287.55
428.756	1330.49
429.132	1330.49
429.507	1335.46
429.883	1353.76
430.259	1372.52
430.635	1398.96
431.011	1413.65
431.387	1433.76
431.763	1454.55
432.138	1485.51
432.514	1496.58
432.89	1511.27
433.265	1536.81
433.641	1573.19
434.016	1571.39
434.392	1598.73
434.767	1612.97
435.143	1630.82
435.518	1649.8
435.894	1654.55
436.269	1707.65
436.644	1710.36
437.02	1731.16
437.395	1720.31
437.77	1749.69
438.145	1763.92
438.52	1794.43
438.895	1810.47
439.271	1783.81
439.646	1866.52
440.021	1881.66
440.395	1906.97
440.77	1870.81
441.145	1907.65
441.52	1956.91
441.895	1970.02
442.27	1952.62
442.645	1963.01
443.019	2024.48
443.394	1997.59
443.769	2017.7
444.143	2009.57
444.518	2057.93
444.892	2068.77
445.267	2087.98
445.641	2109
446.016	2086.4
446.39	2145.83
446.764	2163.69
447.139	2112.39
447.513	2182.67
447.887	2158.04
448.262	2177.47
448.636	2175.21
449.01	2249.79
449.384	2266.06
449.758	2261.08
450.132	2276
450.506	2334.75
450.88	2330.69
451.254	2318.94
451.628	2365.04
452.002	2393.74
452.376	2406.84
452.75	2439.61
453.123	2476.45
453.497	2495.65
453.871	2517.12
454.244	2541.08
454.618	2597.12
454.992	2619.27
455.365	2615.88
455.739	2701.75
456.112	2709.43
456.486	2737.68
456.859	2765.93
457.232	2806.83
457.606	2807.74
457.979	2849.77
458.352	2902.65
458.725	2926.15
459.099	2948.3
459.472	3012.93
459.845	3038.24
460.218	3071.91
460.591	3122.08
460.964	3090.67
461.337	3158.91
461.71	3269.87
462.083	3237.78
462.456	3276.43
462.829	3300.61
463.201	3363.65
463.574	3345.8
463.947	3383.77
464.32	3523.88
464.692	3518.9
465.065	3528.17
465.438	3564.55
465.81	3611.33
466.183	3678.45
466.555	3726.58
466.928	3800.25
467.3	3796.19
467.672	3859.91
468.045	3934.94
468.417	3943.3
468.789	3970.42
469.161	4056.52
469.534	4084.31
469.906	4176.29
470.278	4223.07
470.65	4246.34
471.022	4317.75
471.394	4403.85
471.766	4421.03
472.138	4489.95
472.51	4563.4
472.882	4665.32
473.253	4684.52
473.625	4776.5
473.997	4856.72
474.369	4904.63
474.74	4959.32
475.112	5050.84
475.484	5111.18
475.855	5194.57
476.227	5258.75
476.598	5407.67
476.97	5386.43
477.341	5517.72
477.713	5657.38
478.084	5704.16
478.455	5815.34
478.827	5843.82
479.198	6076.35
479.569	6045.62
479.94	6232.96
480.311	6262.11
480.682	6409
481.053	6536.68
481.424	6595.43
481.795	6707.07
482.166	6807.86
482.537	6936.89
482.908	7046.95
483.279	7112.48
483.65	7225.7
484.021	7421.63
484.391	7526.71
484.762	7576.43
485.133	7584.33
485.503	7791.11
485.874	7901.61
486.244	8005.34
486.615	8131.21
486.985	8222.51
487.356	8382.96
487.726	8395.16
488.097	8649.84
488.467	8653.91
488.837	8803.96
489.207	8922.83
489.578	9176.16
489.948	9154.01
490.318	9297.51
490.688	9306.32
491.058	9525.75
491.428	9543.83
491.798	9713.32
492.168	9933.88
492.538	9936.81
492.908	9994.89
493.278	10158.5
493.648	10119.64
494.017	10309.23
494.387	10462.45
494.757	10504.48
495.126	10653.41
495.496	10657.25
495.866	10813.4
496.235	10881.42
496.605	10991.7
496.974	11045.49
497.344	11163.22
497.713	11301.3
498.082	11364.12
498.452	11520.73
498.821	11491.35
499.19	11513.72
499.559	11660.84
499.928	11828.29
500.298	11913.94
500.667	11954.84
501.036	11949.19
501.405	12087.04
501.774	12113.03
502.143	12309.18
502.512	12394.15
502.88	12510.31
503.249	12436.18
503.618	12708.04
503.987	12678.44
504.356	12806.8
504.724	12852.67
505.093	12938.32
505.462	13013.8
505.83	13084.53
506.199	13264.41
506.567	13390.06
506.936	13408.81
507.304	13620.56
507.672	13597.51
508.041	13678.19
508.409	13765.87
508.777	13951.17
509.145	14020.32
509.514	14068.01
509.882	14062.58
510.25	14227.78
510.618	14392.74
510.986	14431.39
511.354	14608.56
511.722	14695.56
512.09	14762.22
512.458	14871.15
512.826	15062.33
513.193	15081.31
513.561	15131.48
513.929	15278.82
514.297	15508.65
514.664	15558.81
515.032	15614.41
515.4	15814.85
515.767	15854.17
516.135	16007.39
516.502	15882.87
516.869	16164
517.237	16257.33
517.604	16214.16
517.972	16450.54
518.339	16530.77
518.706	16700.48
519.073	16800.59
519.44	16877.2
519.808	17077.19
520.175	17116.51
520.542	17312.21
520.909	17421.36
521.276	17530.06
521.643	17714.01
522.009	17860.45
522.376	18078.07
522.743	18084.4
523.11	18297.73
523.477	18521
523.843	18557.61
524.21	18724.83
524.577	18950.36
524.943	19128.89
525.31	19141.77
525.676	19398.04
526.043	19489.33
526.409	19564.81
526.776	19797.12
527.142	19866.05
527.508	19856.55
527.874	20041.41
528.241	20320.95
528.607	20306.26
528.973	20535.41
529.339	20568.17
529.705	20794.16
530.071	20836.87
530.437	20995.06
530.803	21110.76
531.169	21219.23
531.535	21289.96
531.901	21394.37
532.267	21463.07
532.632	21666
532.998	21763.62
533.364	21877.29
533.73	22007.46
534.095	22184.18
534.461	22243.16
534.826	22206.55
535.192	22501.46
535.557	22568.35
535.923	22540.33
536.288	22591.4
536.653	22747.1
537.019	22782.8
537.384	22840.66
537.749	23126.98
538.114	23118.16
538.479	23119.29
538.845	23376.46
539.21	23350.93
539.575	23377.82
539.94	23524.25
540.305	23708.66
540.67	23592.28
541.034	23907.3
541.399	23911.14
541.764	23835.21
542.129	24000.63
542.494	24172.82
542.858	24096.89
543.223	24300.96
543.587	24354.06
543.952	24471.57
544.316	24564
544.681	24524
545.045	24726.48
545.41	24830.43
545.774	24847.61
546.138	24894.39
546.503	24961.5
546.867	24933.26
547.231	25274.04
547.595	25328.73
547.959	25351.78
548.324	25469.51
548.688	25550.87
549.052	25603.75
549.416	25690.75
549.779	25682.84
550.143	25859.56
550.507	25931.65
550.871	26043.74
551.235	26087.35
551.599	26261.58
551.962	26252.09
552.326	26412.99
552.689	26624.06
553.053	26471.75
553.417	26569.6
553.78	26898.4
554.143	26855.69
554.507	26953.09
554.87	27156.25
555.234	27301.1
555.597	27173.42
555.96	27228.34
556.323	27462.23
556.686	27403.02
557.05	27733.41
557.413	27706.74
557.776	27818.6
558.139	28100.18
558.502	28112.83
558.865	28092.27
559.228	28282.32
559.59	28427.85
559.953	28541.75
560.316	28768.41
560.679	28671.92
561.041	28982.42
561.404	29052.24
561.767	29287.94
562.129	29228.06
562.492	29523.64
562.854	29452.69
563.217	29437.77
563.579	29615.39
563.941	29870.75
564.304	29931.32
564.666	30234.81
565.028	30215.15
565.39	30370.85
565.753	30510.29
566.115	30648.13
566.477	30760.22
566.839	30958.18
567.201	31077.28
567.563	31034.34
567.925	31289.47
568.287	31202.24
568.648	31296.93
569.01	31612.4
569.372	31766.98
569.734	31642.23
570.095	31932.17
570.457	32024.6
570.819	32015.78
571.18	32105.5
571.542	32291.26
571.903	32349.56
572.265	32524.02
572.626	32388.65
572.987	32600.85
573.349	32578.93
573.71	32809.89
574.071	32684.92
574.432	33011.91
574.794	33153.61
575.155	33148.41
575.516	33120.84
575.877	33246.71
576.238	33283.09
576.599	33294.62
576.96	33378.91
577.32	33400.15
577.681	33546.36
578.042	33617.1
578.403	33618.23
578.763	33707.49
579.124	33682.18
579.485	33738.9
579.845	33863.42
580.206	33750.2
580.566	33847.6
580.927	33912.46
581.287	34049.18
581.648	33933.25
582.008	34006.46
582.368	34002.85
582.728	34065.9
583.089	33958.33
583.449	33985.22
583.809	34129.4
584.169	34258.66
584.529	33963.75
584.889	34292.33
585.249	34003.3
585.609	33904.77
585.969	34187.7
586.329	33992.68
586.688	34192.9
587.048	34175.95
587.408	34105.9
587.768	34125.78
588.127	34139.12
588.487	33967.37
588.846	34177.53
589.206	34093.02
589.565	34063.64
589.925	34222.5
590.284	34112.45
590.643	34282.84
591.003	34366
591.362	34325.1
591.721	34228.15
592.08	34164.43
592.44	34282.84
592.799	34142.73
593.158	34207.14
593.517	34180.25
593.876	34213.24
594.235	34196.06
594.593	34262.96
594.952	34234.71
595.311	34169.4
595.67	34304.54
596.029	34370.97
596.387	34493.01
596.746	34421.59
597.104	34285.78
597.463	34273.12
597.822	34455.49
598.18	34214.82
598.538	34190.87
598.897	34406.23
599.255	34145.9
599.613	34827.69
599.972	34467.02
600.33	34487.58
600.688	34310.64
601.046	34441.03
601.404	34646.9
601.762	34522.16
602.12	34661.14
602.478	34416.85
602.836	34683.28
603.194	34450.29
603.552	34537.98
603.91	34544.53
604.268	34552.44
604.625	34457.07
604.983	34705.43
605.341	34443.29
605.698	34627.92
606.056	34771.64
606.413	34711.08
606.771	34696.16
607.128	34823.39
607.485	34640.12
607.843	34643.06
608.2	34851.64
608.557	34954.69
608.914	34618.2
609.272	34865.88
609.629	34894.58
609.986	35078.53
610.343	34882.37
610.7	35221.57
611.057	35184.96
611.414	35084.4
611.771	35061.35
612.127	35285.98
612.484	35346.99
612.841	35328.92
613.198	35271.29
613.554	35262.02
613.911	35504.05
614.267	35495.01
614.624	35413.43
614.98	35522.13
615.337	35665.18
615.693	35645.07
616.05	35533.43
616.406	35813.87
616.762	35723.48
617.118	35665.4
617.475	35708.11
617.831	35891.39
618.187	35833.54
618.543	35978.16
618.899	35900.43
619.255	36081.44
619.611	35937.49
619.967	36065.39
620.323	36072.4
620.678	36010.93
621.034	35973.19
621.39	36038.05
621.746	35880.09
622.101	36491.37
622.457	36067.43
622.812	36130.25
623.168	36274.2
623.523	36143.13
623.879	36366.63
624.234	35989.24
624.589	36137.71
624.945	36197.59
625.3	36239.63
625.655	36256.12
626.01	36198.05
626.365	36330.7
626.72	36153.75
627.075	36180.19
627.43	36117.14
627.785	35955.79
628.14	36228.78
628.495	36281.43
628.85	36173.64
629.205	35951.72
629.559	36134.54
629.914	35899.97
630.269	35959.86
630.623	36050.48
630.978	35825.4
631.332	36085.73
631.687	36019.52
632.041	35905.4
632.396	35902.91
632.75	35737.04
633.104	35953.98
633.459	35620.43
633.813	35732.97
634.167	35720.09
634.521	35608
634.875	35697.04
635.229	35506.76
635.583	35377.73
635.937	35368.01
636.291	35475.58
636.645	35366.88
636.999	35208.24
637.352	35370.04
637.706	35192.65
638.06	35267.45
638.413	35105.64
638.767	35090.73
639.121	35157.39
639.474	34915.14
639.828	34895.93
640.181	34952.65
640.534	34932.09
640.888	34820.23
641.241	34660.46
641.594	34776.61
641.947	34794.01
642.301	34596.05
642.654	34648.03
643.007	34669.95
643.36	34467.24
643.713	34434.02
644.066	34512.67
644.419	34426.79
644.771	34212.79
645.124	33757.66
645.477	33688.96
645.83	33309.53
646.182	33408.51
646.535	33327.84
646.888	33335.07
647.24	33218.46
647.593	33483.09
647.945	33256.65
648.298	33111.8
648.65	33148.41
649.002	32994.29
649.355	33115.19
649.707	32955.19
650.059	33168.29
650.411	33551.56
650.763	33622.97
651.115	33932.79
651.467	33764.44
651.819	33847.82
652.171	33692.12
652.523	33713.82
652.875	33665.46
653.227	33493.71
653.578	33838.11
653.93	33636.98
654.282	33401.73
654.633	33314.73
654.985	33497.78
655.337	33432.24
655.688	33482.41
656.039	33411.23
656.391	33213.04
656.742	33220.72
657.094	33184.11
657.445	33392.02
657.796	33289.65
658.147	33220.72
658.498	33119.48
658.849	33214.85
659.2	33107.51
659.551	32988.86
659.902	33250.55
660.253	33025.25
660.604	33013.72
660.955	32817.34
661.306	32997.68
661.656	32942.99
662.007	32862.77
662.358	32794.75
662.708	32776.67
663.059	32618.25
663.409	32328.32
663.76	32609.67
664.11	32641.98
664.461	32631.59
664.811	32523.34
665.161	32488.31
665.511	32366.51
665.862	32453.96
666.212	32447.18
666.562	32379.16
666.912	32131.49
667.262	32161.99
667.612	32095.55
667.962	32206.29
668.312	31860.98
668.662	32055.56
669.011	31884.03
669.361	31819.18
669.711	31712.97
670.06	31598.84
670.41	31473.2
670.76	31300.1
671.109	31525.17
671.459	31336.48
671.808	31247.89
672.157	31366.99
672.507	31021.23
672.856	30999.09
673.205	31071.63
673.554	31044.96
673.904	30955.25
674.253	31112.08
674.602	30988.46
674.951	30538.99
675.3	30259.44
675.649	30814.46
675.998	30745.99
676.346	30677.96
676.695	30785.31
677.044	30681.13
677.393	30673.22
677.741	30560.23
678.09	30580.34
678.438	30503.05
678.787	30546.22
679.135	30553.22
679.484	30330.4
679.832	30517.74
680.181	30320.46
680.529	30380.57
680.877	30291.99
681.225	30411.3
681.573	30597.29
681.922	30247.24
682.27	30209.95
682.618	30303.96
682.966	30143.29
683.314	30323.4
683.661	30385.32
684.009	30265.09
684.357	30292.89
684.705	30061.94
685.053	30193.46
685.4	30132.67
685.748	30129.05
686.095	30313.68
686.443	30139
686.79	30202.27
687.138	30179.22
687.485	30314.36
687.832	30166.57
688.18	30341.93
688.527	30056.96
688.874	30090.64
689.221	30131.09
689.568	29962.73
689.915	29892.45
690.262	30041.37
690.609	29894.93
690.956	29823.52
691.303	29901.71
691.65	29774.94
691.997	29896.06
692.344	29689.97
692.69	29702.17
693.037	29731.1
693.383	29452.69
693.73	29750.76
694.077	29537.88
694.423	29499.01
694.769	29504.66
695.116	29453.36
695.462	29424.89
695.808	29295.63
696.155	29508.28
696.501	29321.84
696.847	29118.23
697.193	28921.63
697.539	29134.05
697.885	28756.21
698.231	28765.02
698.577	28806.83
698.923	28825.13
699.269	28688.41
699.614	28483.22
699.96	28447.97
700.306	28484.8
700.651	28488.87
700.997	28332.04
701.342	28322.32
701.688	28287.52
702.033	28209.78
702.379	28128.43
702.724	28028.77
703.069	28108.31
703.415	27819.28
703.76	27909.22
704.105	27788.77
704.45	27749.68
704.795	27494.09
705.14	27492.06
705.485	27589.01
705.83	27405.73
706.175	27401.89
706.52	27341.56
706.865	27142.24
707.209	27113.09
707.554	27007.55
707.899	27098.4
708.243	26811.4
708.588	26892.75
708.932	26768.46
709.277	26798.74
709.621	26843.94
709.966	26578.41
710.31	26709.26
710.654	26509.94
710.998	26557.17
711.342	26574.57
711.687	26394.01
712.031	26290.51
712.375	26286.67
712.719	26271.75
713.063	26313.79
713.407	26278.98
713.75	26110.85
714.094	26093.68
714.438	25991.76
714.782	25974.59
715.125	25997.18
715.469	25944.76
715.812	25763.29
716.156	25662.73
716.499	25646.46
716.843	25617.53
717.186	25639.68
717.53	25660.7
717.873	25517.2
718.216	25542.51
718.559	25387.93
718.902	25198.11
719.246	25356.97
719.589	25195.85
719.932	25135.74
720.275	25117.43
720.617	25155.4
720.96	25210.31
721.303	25031.33
721.646	25140.26
721.989	24932.58
722.331	25023.88
722.674	24885.12
723.016	24914.73
723.359	24835.86
723.701	24899.36
724.044	24644.9
724.386	24542.53
724.729	24717.22
725.071	24500.5
725.413	24653.94
725.755	24532.82
726.097	24438.58
726.439	24399.49
726.782	24204.01
727.124	24540.95
727.465	24281.97
727.807	24307.74
728.149	24210.79
728.491	24208.76
728.833	24242.43
729.175	24150.68
729.516	24059.38
729.858	23977.12
730.199	24056.22
730.541	24011.93
730.882	23898.26
731.224	24006.95
731.565	23821.87
731.906	23863.91
732.248	23743.68
732.589	23624.59
732.93	23589.79
733.271	23529
733.612	23580.98
733.953	23624.82
734.294	23499.4
734.635	23477.25
734.976	23524.03
735.317	23337.59
735.658	23314.99
735.999	23384.37
736.339	23309.57
736.68	23301.66
737.021	23129.69
737.361	23129.46
737.702	23239.29
738.042	23088.33
738.383	23032.06
738.723	23110.03
739.063	23009.47
739.404	23039.97
739.744	23042.01
740.084	22957.49
740.424	22881.11
740.764	22863.25
741.104	22989.13
741.444	22755.46
741.784	22714.78
742.124	22817.38
742.464	22630.49
742.804	22611.51
743.143	22555.92
743.483	22563.15
743.823	22517.5
744.162	22454
744.502	22581.91
744.841	22368.13
745.181	22454.68
745.52	22273.21
745.86	22323.38
746.199	22307.79
746.538	22214.91
746.877	22216.27
747.216	22218.07
747.556	22117.06
747.895	22106.44
748.234	22032.77
748.573	22033.45
748.911	21979.66
749.25	22003.39
749.589	21938.99
749.928	21965.43
750.267	21883.17
750.605	21744.41
750.944	21830.51
751.283	21671.42
751.621	21728.6
751.96	21581.25
752.298	21607.02
752.636	21549.62
752.975	21506.91
753.313	21332
753.651	21520.01
753.989	21331.54
754.327	21258.78
754.666	21232.79
755.004	21181.72
755.342	21291.77
755.679	21105.11
756.017	20966.36
756.355	21144.66
756.693	20922.97
757.031	20970.88
757.368	20825.12
757.706	20852.46
758.044	20723.88
758.381	20609.08
758.719	20593.71
759.056	20706.02
759.394	20567.5
759.731	20431.45
760.068	20299.71
760.405	20336.09
760.743	20177.45
761.08	20179.26
761.417	20137.9
761.754	20072.82
762.091	20012.48
762.428	19968.64
762.765	19770.45
763.102	19786.95
763.438	19760.74
763.775	19688.42
764.112	19653.4
764.449	19665.6
764.785	19537.24
765.122	19432.38
765.458	19243.69
765.795	19338.38
766.131	19359.84
766.467	19210.24
766.804	19135.9
767.14	19073.07
767.476	19020.19
767.812	19064.03
768.148	18946.52
768.485	18869.01
768.821	18778.16
769.157	18710.37
769.492	18669.01
769.828	18680.99
770.164	18587.21
770.5	18533.43
770.836	18512.18
771.171	18325.29
771.507	18320.32
771.842	18112.42
772.178	18238.52
772.513	18219.76
772.849	18032.42
773.184	17950.39
773.519	17979.99
773.855	17882.14
774.19	17809.38
774.525	17738.64
774.86	17741.36
775.195	17705.88
775.53	17698.19
775.865	17485.09
776.2	17337.75
776.535	17217.53
776.87	17348.15
777.205	17253.91
777.539	17140.69
777.874	17171.2
778.209	17035.84
778.543	16972.56
778.878	16838.33
779.212	16865.9
779.547	16853.47
779.881	16796.3
780.215	16672.23
780.55	16673.36
780.884	16586.13
781.218	16465.46
781.552	16493.7
781.886	16308.85
782.22	16272.47
782.554	16315.18
782.888	16142.3
783.222	16112.7
783.556	16044.68
783.889	15989.54
784.223	15958.58
784.557	15759.03
784.89	15806.27
785.224	15711.13
785.557	15600.85
785.891	15616.89
786.224	15599.04
786.558	15637.23
786.891	15445.37
787.224	15406.73
787.557	15304.81
787.891	15319.27
788.224	15296.45
788.557	15266.39
788.89	15282.66
789.223	15291.7
789.556	15052.39
789.888	14988.21
790.221	15047.64
790.554	14774.65
790.887	14849.23
791.219	14724.71
791.552	14672.28
791.884	14690.36
792.217	14591.16
792.549	14653.98
792.882	14473.87
793.214	14439.52
793.546	14467.54
793.879	14371.5
794.211	14238.62
794.543	14348
794.875	14233.65
795.207	14373.53
795.539	14143.94
795.871	14256.93
796.203	14061.23
796.535	13999.98
796.867	13933.09
797.198	13909.14
797.53	13880.89
797.862	13789.37
798.193	13825.07
798.525	13773.1
798.856	13691.29
799.188	13600.9
799.519	13513.22
799.85	13504.18
800.182	13499.89
800.513	13482.03
800.844	13374.92
801.175	13438.19
801.506	13406.55
801.837	13227.12
802.168	13285.2
802.499	13243.39
802.83	13114.58
803.161	13153.91
803.491	13165.43
803.822	13114.58
804.153	12964.98
804.483	12889.96
804.814	12875.49
805.145	12913.23
805.475	12889.73
805.805	12832.56
806.136	12812.45
806.466	12824.65
806.796	12764.09
807.126	12623.07
807.457	12655.39
807.787	12638.44
808.117	12530.87
808.447	12517.99
808.777	12481.61
809.107	12492.45
809.436	12475.51
809.766	12393.93
810.096	12293.59
810.426	12293.82
810.755	12324.1
811.085	12323.87
811.414	12221.27
811.744	12115.29
812.073	12093.82
812.403	12085.46
812.732	12018.12
813.061	12068.96
813.39	11975.41
813.719	11995.74
814.049	12064.67
814.378	11930.66
814.707	11915.52
815.036	11890.44
815.365	11802.3
815.693	11701.06
816.022	11677.56
816.351	11694.73
816.68	11667.16
817.008	11642.31
817.337	11534.74
817.665	11462.88
817.994	11559.82
818.322	11601.63
818.651	11494.74
818.979	11509.88
819.307	11561.41
819.636	11372.26
819.964	11370.68
820.292	11366.61
820.62	11439.15
820.948	11355.08
821.276	11448.19
821.604	11323.22
821.932	11332.48
822.259	11405.7
822.587	11381.07
822.915	11238.02
823.243	11380.17
823.57	11261.75
823.898	11278.93
824.225	11319.6
824.553	11304.69
824.88	11247.29
825.207	11331.58
825.535	11230.11
825.862	11284.58
826.189	11298.59
826.516	11330
826.843	11274.86
827.17	11356.21
827.497	11293.84
827.824	11334.52
828.151	11362.31
828.478	11212.71
828.805	11312.15
829.131	11302.43
829.458	11263.11
829.785	11229.21
830.111	11230.11
830.438	11309.89
830.764	11311.02
831.09	11224.46
831.417	11205.71
831.743	11297.46
832.069	11244.13
832.395	11193.73
832.722	11130.23
833.048	11172.94
833.374	11155.54
833.7	11130.23
834.026	11147.18
834.351	11074.41
834.677	11125.26
835.003	11127.07
835.329	11099.72
835.654	11139.04
835.98	11063.11
836.306	11044.58
836.631	11054.07
836.956	11094.3
837.282	10999.16
837.607	10908.09
837.932	10879.84
838.258	10929.78
838.583	10854.3
838.908	10874.87
839.233	10908.54
839.558	10850.24
839.883	10854.98
840.208	10772.95
840.533	10819.5
840.858	10796.68
841.182	10767.3
841.507	10873.74
841.832	10771.37
842.156	10687.98
842.481	10711.71
842.805	10725.95
843.13	10643.69
843.454	10600.07
843.778	10568.89
844.103	10512.85
844.427	10505.39
844.751	10554.43
845.075	10436.69
845.399	10486.41
845.723	10345.17
846.047	10426.97
846.371	10261.1
846.695	10304.94
847.019	10229.01
847.343	10224.04
847.666	10174.77
847.99	10091.16
848.313	10103.14
848.637	10059.98
848.96	10043.25
849.284	9982.92
849.607	9962.58
849.931	9905.63
850.254	9845.74
850.577	9779.31
850.9	9755.12
851.223	9744.73
851.546	9668.8
851.869	9582.7
852.192	9687.78
852.515	9563.72
852.838	9515.36
853.161	9503.83
853.483	9416.15
853.806	9418.18
854.129	9393.78
854.451	9376.15
854.774	9332.31
855.096	9287.11
855.419	9267.45
855.741	9239.66
856.063	9217.06
856.385	9224.74
856.708	9145.42
857.03	9090.28
857.352	9120.57
857.674	9122.83
857.996	9007.8
858.318	9018.87
858.64	9088.48
858.961	8910.85
859.283	8912.44
859.605	8919.44
859.926	8907.92
860.248	8863.17
860.57	8812.32
860.891	8888.93
861.212	8816.39
861.534	8813.68
861.855	8792.21
862.176	8799.44
862.498	8731.42
862.819	8783.62
863.14	8761.93
863.461	8689.84
863.782	8637.41
864.103	8665.89
864.424	8618.88
864.745	8681.48
865.065	8582.73
865.386	8607.81
865.707	8609.17
866.027	8545.67
866.348	8523.07
866.668	8568.94
866.989	8528.94
867.309	8515.61
867.63	8415.73
867.95	8455.95
868.27	8439
868.59	8438.78
868.91	8342.96
869.23	8439.45
869.55	8351.09
869.87	8399.45
870.19	8405.78
870.51	8309.51
870.83	8372.56
871.15	8326.46
871.469	8287.82
871.789	8311.1
872.109	8248.05
872.428	8247.37
872.748	8239.46
873.067	8302.73
873.386	8203.08
873.706	8224.09
874.025	8198.33
874.344	8195.39
874.663	8190.19
874.982	8173.7
875.301	8129.4
875.62	8095.28
875.939	8093.47
876.258	8102.96
876.577	8046.47
876.896	8056.41
877.214	8028.16
877.533	8009.86
877.852	8048.5
878.17	8056.19
878.489	8018.45
878.807	7975.96
879.125	7982.97
879.444	7949.52
879.762	7938.22
880.08	7985.45
880.398	7864.78
880.716	7895.51
881.034	7896.42
881.352	7886.02
881.67	7847.6
881.988	7845.57
882.306	7829.07
882.624	7832.24
882.941	7786.36
883.259	7789.53
883.577	7754.95
883.894	7664.11
884.212	7726.7
884.529	7729.64
884.846	7653.49
885.164	7666.37
885.481	7645.58
885.798	7694.16
886.115	7552.47
886.432	7518.35
886.75	7522.87
887.067	7533.26
887.383	7507.05
887.7	7469.54
888.017	7476.09
888.334	7474.28
888.651	7406.03
888.967	7439.25
889.284	7408.29
889.6	7395.19
889.917	7325.58
890.233	7345.7
890.55	7306.15
890.866	7291.46
891.182	7218.02
891.498	7255.98
891.815	7208.75
892.131	7215.08
892.447	7202.2
892.763	7140.28
893.079	7108.19
893.395	7123.33
893.71	7105.03
894.026	7050.11
894.342	7032.26
894.657	7039.94
894.973	6971.02
895.289	6990.9
895.604	6987.74
895.92	6915.88
896.235	6888.08
896.55	6940.96
896.865	6853.05
897.181	6841.76
897.496	6830.23
897.811	6796.56
898.126	6764.02
898.441	6746.62
898.756	6758.82
899.071	6680.4
899.386	6705.49
899.7	6659.61
900.015	6628.43
900.33	6599.5
900.644	6608.77
900.959	6588.65
901.273	6602.21
901.588	6520.18
901.902	6554.98
902.216	6472.5
902.531	6439.51
902.845	6439.73
903.159	6407.87
903.473	6390.24
903.787	6310.47
904.101	6271.83
904.415	6305.5
904.729	6271.15
905.042	6241.32
905.356	6205.16
905.67	6205.39
905.984	6219.62
906.297	6154.54
906.611	6125.39
906.924	6159.97
907.237	6131.27
907.551	6072.51
907.864	6043.36
908.177	6023.92
908.491	5995.9
908.804	5987.09
909.117	5939.41
909.43	5881.33
909.743	5916.81
910.056	5874.32
910.368	5835
910.681	5830.93
910.994	5812.86
911.307	5775.57
911.619	5778.05
911.932	5749.35
912.244	5748.22
912.557	5754.78
912.869	5688.57
913.181	5658.74
913.494	5692.18
913.806	5620.32
914.118	5569.47
914.43	5552.98
914.742	5551.17
915.054	5520.21
915.366	5527.44
915.678	5437.05
915.99	5420.55
916.302	5429.81
916.613	5440.21
916.925	5380.78
917.236	5415.35
917.548	5322.47
917.859	5346.43
918.171	5330.38
918.482	5317.95
918.794	5272.08
919.105	5244.51
919.416	5234.57
919.727	5206.54
920.038	5211.29
920.349	5161.8
920.66	5117.28
920.971	5135.59
921.282	5107.79
921.593	5051.29
921.903	5054.46
922.214	5014.91
922.525	4991.41
922.835	4985.08
923.146	4942.37
923.456	5002.93
923.767	4917.96
924.077	4889.49
924.387	4891.07
924.697	4876.38
925.008	4869.6
925.318	4823.96
925.628	4835.93
925.938	4777.4
926.248	4809.27
926.558	4731.3
926.867	4729.27
927.177	4709.61
927.487	4716.61
927.796	4626.22
928.106	4644.75
928.416	4596.62
928.725	4577.86
929.034	4576.96
929.344	4590.51
929.653	4560.69
929.962	4514.13
930.271	4523.62
930.581	4454.93
930.89	4453.8
931.199	4479.78
931.508	4455.15
931.817	4402.27
932.125	4402.5
932.434	4369.96
932.743	4337.19
933.051	4349.62
933.36	4303.52
933.669	4294.03
933.977	4282.73
934.286	4267.81
934.594	4281.6
934.902	4224.87
935.21	4195.05
935.519	4207.02
935.827	4190.75
936.135	4180.58
936.443	4141.04
936.751	4110.75
937.059	4134.26
937.367	4089.96
937.674	4096.06
937.982	4046.12
938.29	4069.85
938.597	3994.6
938.905	3985.11
939.213	3994.37
939.52	3950.76
939.827	3953.02
940.135	3906.92
940.442	3920.7
940.749	3877.99
941.056	3901.95
941.363	3855.62
941.67	3889.74
941.977	3813.81
942.284	3836.41
942.591	3826.69
942.898	3815.62
943.205	3778.11
943.511	3779.01
943.818	3750.31
944.125	3721.61
944.431	3687.49
944.738	3692.23
945.044	3734.49
945.35	3636.87
945.657	3644.78
945.963	3647.04
946.269	3649.75
946.575	3640.71
946.881	3549.64
947.187	3580.37
947.493	3567.94
947.799	3521.39
948.105	3525.46
948.41	3515.51
948.716	3494.27
949.022	3477.78
949.327	3488.62
949.633	3420.6
949.938	3468.06
950.244	3421.28
950.549	3386.03
950.854	3395.29
951.16	3400.49
951.465	3379.7
951.77	3381.96
952.075	3341.51
952.38	3322.98
952.685	3335.41
952.99	3288.4
953.294	3271
953.599	3287.5
953.904	3260.83
954.209	3273.71
954.513	3236.43
954.818	3199.82
955.122	3202.75
955.426	3191
955.731	3182.64
956.035	3174.05
956.339	3130.89
956.643	3139.71
956.948	3083.89
957.252	3128.86
957.556	3092.02
957.86	3067.17
958.163	3071.23
958.467	3055.64
958.771	3046.15
959.075	3051.12
959.378	3026.94
959.682	3007.28
959.985	2969.54
960.289	2983.1
960.592	2935.64
960.896	2946.94
961.199	2950.56
961.502	2928.41
961.805	2911.24
962.108	2863.55
962.411	2893.61
962.714	2838.7
963.017	2801.41
963.32	2850.67
963.623	2840.05
963.926	2826.49
964.228	2818.36
964.531	2785.59
964.833	2788.08
965.136	2770.45
965.438	2744.69
965.741	2758.7
966.043	2742.43
966.345	2701.53
966.648	2697.68
966.95	2724.58
967.252	2672.83
967.554	2687.97
967.856	2667.63
968.158	2631.92
968.46	2622.43
968.761	2650.68
969.063	2616.56
969.365	2630.79
969.666	2615.88
969.968	2558.7
970.269	2592.15
970.571	2571.13
970.872	2553.96
971.174	2534.07
971.475	2544.24
971.776	2571.81
972.077	2518.7
972.378	2516.22
972.679	2466.05
972.98	2497.46
973.281	2462.89
973.582	2456.33
973.883	2472.6
974.183	2452.27
974.484	2434.41
974.785	2418.82
975.085	2415.88
975.386	2426.5
975.686	2392.83
975.986	2370.01
976.287	2377.47
976.587	2354.42
976.887	2345.6
977.187	2344.02
977.487	2365.49
977.787	2315.77
978.087	2351.93
978.387	2314.42
978.687	2280.75
978.987	2288.88
979.286	2256.34
979.586	2274.42
979.885	2252.72
980.185	2234.87
980.484	2200.3
980.784	2202.33
981.083	2184.7
981.382	2207.07
981.682	2196.45
981.981	2199.17
982.28	2174.76
982.579	2150.81
982.878	2175.66
983.177	2137.92
983.475	2113.52
983.774	2107.64
984.073	2102.9
984.372	2103.57
984.67	2090.24
984.969	2116.68
985.267	2083.46
985.566	2069.45
985.864	2046.85
986.162	2061.99
986.461	2040.3
986.759	2014.76
987.057	2019.06
987.355	2017.48
987.653	2034.42
987.951	2012.28
988.249	2021.32
988.547	1999.17
988.844	1979.51
989.142	1979.28
989.44	1929.57
989.737	1955.56
990.035	1955.1
990.332	1924.82
990.63	1929.79
990.927	1906.97
991.224	1902.22
991.521	1919.85
991.819	1869.68
992.116	1901.55
992.413	1878.27
992.71	1865.16
993.006	1876.01
993.303	1842.79
993.6	1842.34
993.897	1847.08
994.193	1829.01
994.49	1784.49
994.787	1823.13
995.083	1823.36
995.379	1777.48
995.676	1783.58
995.972	1782.68
996.268	1766.41
996.565	1757.6
996.861	1751.72
997.157	1722.57
997.453	1735
997.749	1707.65
998.044	1691.38
998.34	1698.84
998.636	1660.87
998.932	1656.58
999.227	1676.92
999.523	1683.47
999.818	1649.58
1000.114	1645.96
1000.409	1661.1
1000.704	1633.3
1001	1633.08
1001.295	1625.85
1001.59	1599.86
1001.885	1600.76
1002.18	1631.04
1002.475	1623.59
1002.77	1606.64
1003.065	1572.29
1003.359	1593.08
1003.654	1575.23
1003.949	1547.66
1004.243	1537.04
1004.538	1529.58
1004.832	1525.51
1005.127	1511.73
1005.421	1529.58
1005.715	1492.29
1006.009	1508.34
1006.304	1490.94
1006.598	1480.54
1006.892	1475.12
1007.186	1460.43
1007.48	1475.12
1007.773	1445.51
1008.067	1457.72
1008.361	1422.69
1008.655	1406.87
1008.948	1423.59
1009.242	1408.9
1009.535	1417.49
1009.829	1391.05
1010.122	1393.76
1010.415	1391.05
1010.708	1339.75
1011.001	1356.93
1011.295	1345.18
1011.588	1357.38
1011.881	1334.33
1012.173	1329.58
1012.466	1298.4
1012.759	1328.23
1013.052	1352.86
1013.344	1319.64
1013.637	1313.31
1013.93	1287.78
1014.222	1299.75
1014.514	1254.33
1014.807	1272.86
1015.099	1252.3
1015.391	1260.88
1015.683	1263.6
1015.976	1235.57
1016.268	1218.63
1016.56	1226.54
1016.851	1236.93
1017.143	1203.03
1017.435	1208.91
1017.727	1194.9
1018.018	1186.99
1018.31	1196.48
1018.602	1192.64
1018.893	1176.37
1019.185	1175.01
1019.476	1174.56
1019.767	1185.18
1020.058	1132.3
1020.35	1140.44
1020.641	1131.85
1020.932	1121.23
1021.223	1098.4
1021.514	1087.56
1021.804	1101.34
1022.095	1093.66
1022.386	1086.65
1022.677	1089.59
1022.967	1077.61
1023.258	1067.67
1023.548	1068.8
1023.839	1055.92
1024.129	1074.45
1024.419	1055.69
1024.709	1043.94
1025	1028.8
1025.29	1050.72
1025.58	1015.47
1025.87	1028.8
1026.16	1023.15
1026.449	1014.11
1026.739	1025.86
1027.029	1000.33
1027.319	954.9
1027.608	968.24
1027.898	965.98
1028.187	941.12
1028.477	945.41
1028.766	966.43
1029.055	940.67
1029.344	928.69
1029.634	931.63
1029.923	957.39
1030.212	911.74
1030.501	925.75
1030.79	918.07
1031.078	899.31
1031.367	881.01
1031.656	899.09
1031.945	872.87
1032.233	902.7
1032.522	902.7
1032.81	868.35
1033.099	864.96
1033.387	870.84
1033.675	859.31
1033.963	854.57
1034.251	833.1
1034.54	845.98
1034.828	842.36
1035.116	824.51
1035.403	838.52
1035.691	813.67
1035.979	811.41
1036.267	819.99
1036.554	824.29
1036.842	803.72
1037.129	786.1
1037.417	812.54
1037.704	823.61
1037.992	808.24
1038.279	771.41
1038.566	772.54
1038.853	772.54
1039.14	772.54
