Data from White_paper_FLMS001491_065.txt Node
Date: Tue Feb 07 10:35:24 GMT 2017
User: dcchb
Spectrometer: FLMS00149
Trigger mode: 0
Integration Time (sec): 2.000000E-2
Scans to average: 10
Electric dark correction enabled: true
Nonlinearity correction enabled: false
Boxcar width: 0
XAxis mode: Wavelengths
Number of Pixels in Spectrum: 2048
>>>>>Begin Spectral Data<<<<<
341.393	-6.36
341.776	-6.36
342.16	-6.36
342.543	-54.49
342.927	-68.73
343.31	-68.73
343.693	-69.86
344.077	-41.61
344.46	-72.57
344.843	-43.64
345.226	-51.33
345.61	-23.08
345.993	-11.33
346.376	-11.33
346.759	3.14
347.142	44.26
347.525	11.5
347.908	56.24
348.291	78.39
348.674	86.52
349.057	113.42
349.44	133.3
349.823	133.98
350.206	156.58
350.588	232.73
350.971	242.23
351.354	257.14
351.737	278.38
352.119	272.28
352.502	278.61
352.884	320.42
353.267	294.88
353.65	312.73
354.032	323.13
354.414	355.22
354.797	341.66
355.179	364.93
355.562	370.81
355.944	360.19
356.326	371.49
356.709	360.64
357.091	361.32
357.473	371.04
357.855	368.32
358.238	372.62
358.62	350.25
359.002	380.3
359.384	364.71
359.766	351.15
360.148	373.07
360.53	362
360.912	360.64
361.294	372.17
361.676	374.43
362.057	367.87
362.439	373.07
362.821	355.67
363.203	350.92
363.584	370.13
363.966	358.83
364.348	338.72
364.729	370.13
365.111	373.75
365.493	355.67
365.874	360.87
366.256	367.65
366.637	369.91
367.019	367.65
367.4	353.41
367.781	342.11
368.163	364.48
368.544	355.89
368.925	359.96
369.306	336.91
369.688	364.93
370.069	367.87
370.45	370.36
370.831	384.37
371.212	387.31
371.593	363.8
371.974	348.89
372.355	371.26
372.736	376.23
373.117	357.25
373.498	358.61
373.879	347.53
374.26	375.1
374.641	390.02
375.021	386.85
375.402	378.94
375.783	367.87
376.163	394.09
376.544	379.85
376.925	380.98
377.305	406.29
377.686	378.49
378.066	415.55
378.447	397.25
378.827	378.94
379.208	410.58
379.588	392.96
379.968	401.32
380.349	418.04
380.729	426.18
381.109	418.94
381.489	420.3
381.87	430.92
382.25	398.15
382.63	429.34
383.01	426.18
383.39	437.25
383.77	431.15
384.15	431.37
384.53	435.89
384.91	439.51
385.29	434.99
385.67	445.38
386.049	463.91
386.429	466.4
386.809	471.15
387.189	482.9
387.568	474.31
387.948	465.5
388.328	465.04
388.707	467.76
389.087	484.03
389.466	470.69
389.846	500.07
390.225	491.71
390.605	509.11
390.984	482.9
391.363	528.77
391.743	515.21
392.122	517.7
392.501	514.76
392.881	533.07
393.26	556.79
393.639	535.32
394.018	538.04
394.397	544.36
394.776	556.34
395.155	574.65
395.534	557.92
395.913	554.53
396.292	555.89
396.671	572.16
397.05	581.65
397.429	569.22
397.808	587.53
398.186	588.88
398.565	605.38
398.944	636.11
399.323	628.88
399.701	631.14
400.08	627.3
400.458	636.11
400.837	632.5
401.215	652.16
401.594	668.43
401.972	675.21
402.351	691.7
402.729	678.37
403.107	691.03
403.486	712.5
403.864	722.44
404.242	706.62
404.62	752.49
404.999	756.56
405.377	762.66
405.755	790.91
406.133	800.18
406.511	816.9
406.889	842.66
407.267	879.5
407.645	886.73
408.023	882.89
408.401	919.72
408.779	933.05
409.156	955.2
409.534	970.57
409.912	970.79
410.29	1011.02
410.667	1065.25
411.045	1070
411.422	1102.99
411.8	1116.55
412.178	1157
412.555	1176.89
412.933	1186.38
413.31	1219.37
413.687	1278.81
414.065	1282.88
414.442	1323.33
414.819	1354.74
415.197	1359.03
415.574	1400.16
415.951	1380.27
416.328	1439.71
416.705	1479.03
417.082	1492.36
417.46	1529.65
417.837	1575.98
418.214	1602.64
418.591	1593.6
418.967	1627.95
419.344	1639.25
419.721	1703.88
420.098	1685.35
420.475	1755.41
420.852	1773.03
421.228	1780.26
421.605	1824.33
421.982	1822.3
422.358	1863.88
422.735	1910.2
423.111	1874.95
423.488	1933.93
423.864	1985.68
424.241	1993.59
424.617	2009.41
424.994	2034.72
425.37	2056.19
425.746	2061.16
426.123	2105.23
426.499	2136.19
426.875	2180.71
427.251	2217.54
427.627	2283.53
428.003	2280.36
428.379	2358.55
428.756	2359.46
429.132	2384.32
429.507	2401.04
429.883	2476.74
430.259	2502.28
430.635	2506.8
431.011	2535.27
431.387	2603.75
431.763	2634.25
432.138	2646.46
432.514	2705.89
432.89	2726
433.265	2781.37
433.641	2859.11
434.016	2852.78
434.392	2887.81
434.767	2986.33
435.143	2996.96
435.518	2987.92
435.894	3069.5
436.269	3113.56
436.644	3155.82
437.02	3173
437.395	3192.88
437.77	3269.72
438.145	3271.75
438.52	3316.72
438.895	3347.91
439.271	3374.8
439.646	3471.97
440.021	3462.71
440.395	3527.34
440.77	3478.52
441.145	3508.35
441.52	3579.09
441.895	3621.35
442.27	3589.03
442.645	3665.86
443.019	3681.68
443.394	3682.81
443.769	3717.84
444.143	3700.44
444.518	3819.31
444.892	3792.41
445.267	3804.84
445.641	3848.91
446.016	3872.19
446.39	3921.22
446.764	3921
447.139	3883.03
447.513	3980.21
447.887	3935.69
448.262	3965.74
448.636	4017.04
449.01	4041
449.384	4136.59
449.758	4166.19
450.132	4164.16
450.506	4211.84
450.88	4245.51
451.254	4216.36
451.628	4317.6
452.002	4342.23
452.376	4385.85
452.75	4407.31
453.123	4447.99
453.497	4517.14
453.871	4521.43
454.244	4629
454.618	4674.2
454.992	4751.03
455.365	4704.71
455.739	4862.67
456.112	4920.52
456.486	4948.77
456.859	4984.25
457.232	5106.5
457.606	5113.74
457.979	5167.97
458.352	5292.04
458.725	5289.78
459.099	5324.58
459.472	5441.18
459.845	5530.45
460.218	5564.35
460.591	5587.4
460.964	5678.92
461.337	5741.52
461.71	5865.13
462.083	5914.84
462.456	5984
462.829	6007.05
463.201	6057.89
463.574	6139.92
463.947	6195.74
464.32	6300.15
464.692	6391.89
465.065	6442.06
465.438	6494.26
465.81	6641.38
466.183	6695.84
466.555	6830.98
466.928	6896.97
467.3	6832.79
467.672	7046.34
468.045	7184.42
468.417	7230.97
468.789	7254.02
469.161	7388.25
469.534	7475.71
469.906	7692.42
470.278	7677.74
470.65	7745.3
471.022	7941.23
471.394	8126.76
471.766	8163.6
472.138	8217.61
472.51	8472.29
472.882	8588.67
473.253	8654.89
473.625	8742.34
473.997	8892.62
474.369	8983.24
474.74	9101.88
475.112	9297.81
475.484	9467.97
475.855	9566.73
476.227	9757.23
476.598	10042.87
476.97	10029.09
477.341	10212.36
477.713	10415.97
478.084	10460.94
478.455	10730.09
478.827	10848.95
479.198	11111.09
479.569	11159.9
479.94	11458.65
480.311	11585.66
480.682	11855.03
481.053	12095.92
481.424	12306.99
481.795	12435.35
482.166	12554.22
482.537	12686.19
482.908	13013.87
483.279	13134.54
483.65	13371.37
484.021	13602.78
484.391	13730.23
484.762	13881.87
485.133	13977.68
485.503	14261.52
485.874	14542.41
486.244	14664.9
486.615	14865.57
486.985	15053.36
487.356	15343.3
487.726	15414.03
488.097	15770.18
488.467	15863.74
488.837	16123.16
489.207	16314.8
489.578	16504.17
489.948	16662.81
490.318	17009.92
490.688	16912.75
491.058	17391.83
491.428	17499.4
491.798	17669.79
492.168	17948.65
492.538	18051.7
492.908	18260.28
493.278	18491.24
493.648	18545.47
494.017	18779.14
494.387	18918.8
494.757	19066.59
495.126	19156.98
495.496	19267.94
495.866	19498.22
496.235	19667.93
496.605	19824.08
496.974	19986.11
497.344	20176.84
497.713	20232.89
498.082	20467
498.452	20644.17
498.821	20682.14
499.19	20832.19
499.559	21034.22
499.928	21153.99
500.298	21270.15
500.667	21505.17
501.036	21409.13
501.405	21740.42
501.774	21648.22
502.143	21911.03
502.512	22033.52
502.88	22268.09
503.249	22238.71
503.618	22522.32
503.987	22582.2
504.356	22839.15
504.724	22882.08
505.093	22966.15
505.462	23014.28
505.83	23304.67
506.199	23501.05
506.567	23642.51
506.936	23551.67
507.304	23897.87
507.672	24061.49
508.041	24148.26
508.409	24343.51
508.777	24516.62
509.145	24731.52
509.514	24754.12
509.882	24960.22
510.25	24947.56
510.618	25282.47
510.986	25414.9
511.354	25476.59
511.722	25780.54
512.09	25963.81
512.458	26000.19
512.826	26176.68
513.193	26374.42
513.561	26432.72
513.929	26684.24
514.297	26858.02
514.664	27047.62
515.032	27122.42
515.4	27356.31
515.767	27387.95
516.135	27594.95
516.502	27495.07
516.869	28071.78
517.237	28095.05
517.604	27942.29
517.972	28365.33
518.339	28508.37
518.706	28668.82
519.073	28893
519.44	28914.01
519.808	29390.16
520.175	29400.33
520.542	29672.41
520.909	29889.36
521.276	29906.98
521.643	30282.79
522.009	30361.89
522.376	30639.84
522.743	30773.4
523.11	31054.07
523.477	31447.28
523.843	31506.71
524.21	31644.79
524.577	31988.96
524.943	32116.42
525.31	32453.36
525.676	32629.17
526.043	32882.27
526.409	33042.72
526.776	33270.51
527.142	33451.3
527.508	33472.54
527.874	33927.44
528.241	34101.67
528.607	34196.81
528.973	34486.75
529.339	34584.6
529.705	34907.08
530.071	35092.83
530.437	35247.41
530.803	35480.62
531.169	35675.87
531.535	35680.39
531.901	35844.45
532.267	36011
532.632	36285.12
532.998	36459.8
533.364	36512.23
533.73	36708.16
534.095	37086
534.461	36998.55
534.826	37326.22
535.192	37468.14
535.557	37631.75
535.923	37587.23
536.288	37742.03
536.653	37860.67
537.019	37849.37
537.384	38222.24
537.749	38426.98
538.114	38561.9
538.479	38498.85
538.845	38743.59
539.21	38725.06
539.575	38884.15
539.94	39114.2
540.305	39327.75
540.67	39227.64
541.034	39367.07
541.399	39662.43
541.764	39779.49
542.129	39958.24
542.494	40071.01
542.858	40351.45
543.223	40316.65
543.587	40558.23
543.952	40445.91
544.316	40703.76
544.681	40604.1
545.045	41005.67
545.41	41241.83
545.774	41280.47
546.138	41223.75
546.503	41350.97
546.867	41431.65
547.231	41791.64
547.595	41778.31
547.959	41965.2
548.324	41994.35
548.688	42185.3
549.052	42291.74
549.416	42372.64
549.779	42558.63
550.143	42649.02
550.507	43042.23
550.871	42938.05
551.235	43014.21
551.599	43325.61
551.962	43427.76
552.326	43689.67
552.689	43755.21
553.053	43697.35
553.417	43719.5
553.78	44287.17
554.143	44048.53
554.507	44288.52
554.87	44485.13
555.234	44815.52
555.597	44611.23
555.96	44766.25
556.323	45058.67
556.686	45135.96
557.05	45525.55
557.413	45494.14
557.776	45568.27
558.139	45955.83
558.502	45817.52
558.865	46072.43
559.228	46289.6
559.59	46434.68
559.953	46463.83
560.316	46768.01
560.679	46887.33
561.041	47040.99
561.404	47255
561.767	47414.09
562.129	47303.81
562.492	47898.15
562.854	47737.7
563.217	47706.51
563.579	47938.82
563.941	48302.66
564.304	48321.19
564.666	48594.63
565.028	48645.7
565.39	48732.7
565.753	49005.69
566.115	49163.65
566.477	49435.51
566.839	49412.46
567.201	49696.29
567.563	49791.66
567.925	49899
568.287	50000.92
568.648	50100.35
569.01	50185.09
569.372	50465.54
569.734	50448.81
570.095	50672.54
570.457	50788.01
570.819	50769.03
571.18	50825.98
571.542	51033.43
571.903	51199.3
572.265	51306.42
572.626	51442.01
572.987	51426.19
573.349	51623.47
573.71	51795.22
574.071	51863.69
574.432	51868.21
574.794	52123.12
575.155	52082.22
575.516	51959.06
575.877	52182.55
576.238	52262.33
576.599	52392.94
576.96	52482.43
577.32	52469.78
577.681	52598.59
578.042	52634.97
578.403	52630.9
578.763	52721.3
579.124	52808.53
579.485	52965.13
579.845	53077.22
580.206	53030.22
580.566	53055.07
580.927	53035.64
581.287	53295.29
581.648	53158.35
582.008	53296.88
582.368	53264.56
582.728	53320.6
583.089	53225.24
583.449	53355.63
583.809	53369.87
584.169	53468.4
584.529	53447.83
584.889	53654.61
585.249	53505.23
585.609	53441.05
585.969	53582.29
586.329	53569.64
586.688	53587.26
587.048	53556.3
587.408	53570.54
587.768	53549.3
588.127	53674.49
588.487	53551.78
588.846	53789.97
589.206	53615.74
589.565	53528.06
589.925	53743.42
590.284	53649.86
590.643	53757.88
591.003	53905
591.362	54003.52
591.721	53859.12
592.08	53845.56
592.44	53954.49
592.799	53959
593.158	53923.98
593.517	53971.21
593.876	54013.69
594.235	53907.71
594.593	53972.79
594.952	54035.61
595.311	53954.94
595.67	54006.01
596.029	54247.13
596.387	54265.21
596.746	54261.6
597.104	54115.39
597.463	54120.13
597.822	54384.76
598.18	54161.26
598.538	54135.5
598.897	54323.06
599.255	54047.36
599.613	54568.71
599.972	54286.91
600.33	54410.74
600.688	54401.93
601.046	54451.87
601.404	54515.83
601.762	54494.13
602.12	54558.76
602.478	54611.87
602.836	54616.84
603.194	54463.17
603.552	54552.66
603.91	54474.25
604.268	54644.86
604.625	54533.68
604.983	54730.74
605.341	54595.82
605.698	54610.97
606.056	54723.96
606.413	54753.56
606.771	54815.71
607.128	54800.11
607.485	54725.31
607.843	54761.24
608.2	54875.59
608.557	55003.95
608.914	54854.35
609.272	55029.94
609.629	55067.22
609.986	55195.81
610.343	54987
610.7	55176.37
611.057	55165.98
611.414	55096.6
611.771	55187.22
612.127	55266.99
612.484	55289.59
612.841	55350.38
613.198	55291.63
613.554	55323.94
613.911	55365.52
614.267	55298.18
614.624	55398.97
614.98	55363.49
615.337	55487.78
615.693	55448.46
616.05	55395.8
616.406	55593.09
616.762	55491.62
617.118	55560.09
617.475	55476.71
617.831	55556.03
618.187	55582.47
618.543	55580.43
618.899	55783.14
619.255	55686.64
619.611	55620.88
619.967	55790.14
620.323	55838.73
620.678	55699.07
621.034	55705.63
621.39	55732.52
621.746	55639.19
622.101	55873.76
622.457	55686.87
622.812	55785.62
623.168	55779.75
623.523	55786.08
623.879	55936.58
624.234	55673.31
624.589	55872.4
624.945	55806.41
625.3	55934.77
625.655	55819.07
626.01	55812.74
626.365	55882.8
626.72	55768.9
627.075	55789.24
627.43	55812.74
627.785	55841.67
628.14	55854.77
628.495	55826.53
628.85	55811.61
629.205	55715.34
629.559	55888.22
629.914	55707.66
630.269	55787.21
630.623	55719.41
630.978	55755.12
631.332	55814.1
631.687	55850.93
632.041	55712.41
632.396	55842.35
632.75	55638.96
633.104	55766.64
633.459	55615.46
633.813	55664.27
634.167	55538.17
634.521	55646.19
634.875	55644.38
635.229	55601
635.583	55553.54
635.937	55453.2
636.291	55487.78
636.645	55558.28
636.999	55440.77
637.352	55452.52
637.706	55313.09
638.06	55470.83
638.413	55382.92
638.767	55389.02
639.121	55410.04
639.474	55289.59
639.828	55337.73
640.181	55370.72
640.534	55376.37
640.888	55250.72
641.241	55187
641.594	55147.67
641.947	55360.78
642.301	55285.52
642.654	55165.75
643.007	55299.08
643.36	55240.78
643.713	55151.74
644.066	55198.07
644.419	55129.37
644.771	54844.18
645.124	54655.94
645.477	54625.43
645.83	54518.31
646.182	54350.41
646.535	54247.36
646.888	54285.1
647.24	54253.01
647.593	54372.78
647.945	54388.37
648.298	54181.37
648.65	54120.13
649.002	54068.61
649.355	54156.06
649.707	54119.23
650.059	54260.01
650.411	54613.9
650.763	54702.71
651.115	54919.43
651.467	54885.08
651.819	54904.29
652.171	54737.97
652.523	54733.45
652.875	54709.95
653.227	54596.28
653.578	54769.83
653.93	54701.13
654.282	54592.89
654.633	54550.63
654.985	54554.47
655.337	54583.85
655.688	54575.71
656.039	54716.73
656.391	54481.48
656.742	54540.46
657.094	54535.26
657.445	54641.92
657.796	54508.37
658.147	54472.89
658.498	54461.59
658.849	54622.49
659.2	54468.82
659.551	54390.18
659.902	54518.76
660.253	54441.03
660.604	54535.26
660.955	54386.79
661.306	54397.19
661.656	54392.67
662.007	54318.54
662.358	54360.35
662.708	54272.89
663.059	54282.61
663.409	54164.88
663.76	54344.08
664.11	54333.91
664.461	54363.51
664.811	54399.9
665.161	54294.82
665.511	54260.92
665.862	54244.65
666.212	54330.52
666.562	54333.01
666.912	54283.97
667.262	54232.9
667.612	54239.9
667.962	54250.3
668.312	54218.89
668.662	54292.1
669.011	54188.15
669.361	54097.98
669.711	54119
670.06	54049.62
670.41	54038.1
670.76	53972.34
671.109	54090.3
671.459	54005.33
671.808	53969.17
672.157	53996.74
672.507	53786.58
672.856	53752.68
673.205	53870.87
673.554	53842.62
673.904	53749.29
674.253	53961.49
674.602	53817.54
674.951	53349.3
675.3	53194.73
675.649	53718.79
675.998	53701.38
676.346	53601.73
676.695	53702.51
677.044	53572.8
677.393	53648.05
677.741	53585.46
678.09	53515.4
678.438	53434.95
678.787	53462.75
679.135	53397.89
679.484	53206.93
679.832	53262.07
680.181	53134.62
680.529	53320.83
680.877	53147.05
681.225	53079.48
681.573	53229.31
681.922	53056.2
682.27	52964
682.618	52990.44
682.966	52957.22
683.314	52916.55
683.661	52869.77
684.009	52736.66
684.357	52643.79
684.705	52480.85
685.053	52638.59
685.4	52480.63
685.748	52294.42
686.095	52467.74
686.443	52196.11
686.79	52146.17
687.138	52153.18
687.485	52251.03
687.832	52015.33
688.18	52081.09
688.527	51838.16
688.874	51845.61
689.221	51794.77
689.568	51715.45
689.915	51625.28
690.262	51582.34
690.609	51448.34
690.956	51479.97
691.303	51366.53
691.65	51197.5
691.997	51229.81
692.344	50963.15
692.69	50968.8
693.037	50891.06
693.383	50584.4
693.73	50773.55
694.077	50644.97
694.423	50475.25
694.769	50462.6
695.116	50335.82
695.462	50309.16
695.808	50067.81
696.155	50309.61
696.501	49971.54
696.847	49993.23
697.193	49681.83
697.539	49899.22
697.885	49539.69
698.231	49464.21
698.577	49426.47
698.923	49418.33
699.269	49269.86
699.614	49064.9
699.96	49055.41
700.306	49118
700.651	48824
700.997	48716.2
701.342	48730.22
701.688	48630.56
702.033	48545.14
702.379	48548.07
702.724	48377.68
703.069	48427.17
703.415	48058.37
703.76	48019.27
704.105	48058.6
704.45	47831.26
704.795	47645.95
705.14	47635.56
705.485	47538.16
705.83	47411.15
706.175	47481.44
706.52	47219.97
706.865	47197.15
707.209	47187.21
707.554	47010.94
707.899	47106.76
708.243	46892.52
708.588	46795.13
708.932	46482.59
709.277	46545.87
709.621	46537.96
709.966	46427.9
710.31	46419.99
710.654	46081.25
710.998	46063.39
711.342	46135.93
711.687	45918.76
712.031	45954.02
712.375	45756.73
712.719	45835.83
713.063	45820.69
713.407	45655.27
713.75	45540.24
714.094	45472.9
714.438	45439.23
714.782	45384.77
715.125	45216.86
715.469	45251.89
715.812	44970.31
716.156	44756.76
716.499	44763.31
716.843	44804.9
717.186	44720.38
717.53	44723.54
717.873	44835.4
718.216	44591.34
718.559	44433.61
718.902	44179.6
719.246	44455.75
719.589	43966.95
719.932	44019.83
720.275	44059.38
720.617	44005.37
720.96	43777.35
721.303	43877.91
721.646	43860.97
721.989	43588.66
722.331	43754.53
722.674	43644.02
723.016	43743
723.359	43485.61
723.701	43434.99
724.044	43269.12
724.386	43054.88
724.729	43303.24
725.071	42994.32
725.413	43181.66
725.755	43008.56
726.097	42850.37
726.439	42719.98
726.782	42761.56
727.124	42861.67
727.465	42684.95
727.807	42578.97
728.149	42548.23
728.491	42441.34
728.833	42468.01
729.175	42308.01
729.516	42350.04
729.858	42319.99
730.199	42290.61
730.541	42190.05
730.882	42002.26
731.224	42181.91
731.565	41973.11
731.906	41926.78
732.248	42011.52
732.589	41860.34
732.93	41617.41
733.271	41675.49
733.612	41656.73
733.953	41802.26
734.294	41572.21
734.635	41566.56
734.976	41461.03
735.317	41247.93
735.658	41298.77
735.999	41209.06
736.339	41060.14
736.68	41174.48
737.021	41109.17
737.361	40951.21
737.702	41126.57
738.042	40999.8
738.383	40819.92
738.723	41001.38
739.063	40814.94
739.404	40815.85
739.744	40607.04
740.084	40510.54
740.424	40672.35
740.764	40592.8
741.104	40546.7
741.444	40387.84
741.784	40404.33
742.124	40395.75
742.464	40354.39
742.804	40232.13
743.143	40249.76
743.483	40129.09
743.823	39983.55
744.162	40070.56
744.502	40025.36
744.841	39831.01
745.181	39982.88
745.52	39864.91
745.86	39826.72
746.199	39707.18
746.538	39628.99
746.877	39824.69
747.216	39684.8
747.556	39565.94
747.895	39527.97
748.234	39275.32
748.573	39270.58
748.911	39240.52
749.25	39395.77
749.589	39041.43
749.928	39154.87
750.267	39132.73
750.605	38932.96
750.944	38959.4
751.283	38654.1
751.621	38731.16
751.96	38722.12
752.298	38535
752.636	38575.45
752.975	38381.56
753.313	38259.3
753.651	38366.19
753.989	38159.19
754.327	38032.42
754.666	38008.46
755.004	38045.98
755.342	38041.01
755.679	37982.48
756.017	37828.13
756.355	37834.23
756.693	37688.92
757.031	37578.42
757.368	37449.38
757.706	37475.37
758.044	37230.86
758.381	37411.42
758.719	37138.66
759.056	37143.4
759.394	37020.69
759.731	36776.41
760.068	36725.79
760.405	36537.32
760.743	36567.37
761.08	36603.53
761.417	36241.5
761.754	36201.73
762.091	36216.42
762.428	35989.99
762.765	35915.64
763.102	35854.4
763.438	35689.65
763.775	35616.66
764.112	35610.33
764.449	35661.86
764.785	35434.07
765.122	35253.73
765.458	35140.06
765.795	35115.66
766.131	34950.69
766.467	34950.92
766.804	34700.08
767.14	34578.05
767.476	34604.94
767.812	34484.04
768.148	34492.62
768.485	34251.27
768.821	33919.08
769.157	34104.61
769.492	34042.92
769.828	33933.99
770.164	33615.13
770.5	33545.53
770.836	33454.01
771.171	33233
771.507	33226.89
771.842	32952.33
772.178	33025.77
772.513	32790.3
772.849	32712.33
773.184	32621.94
773.519	32749.85
773.855	32456.97
774.19	32278.45
774.525	32224.66
774.86	32180.37
775.195	32114.61
775.53	31917.55
775.865	31906.48
776.2	31692.47
776.535	31364.57
776.87	31372.93
777.205	31315.98
777.539	31147.4
777.874	31247.06
778.209	30997.35
778.543	30773.85
778.878	30667.87
779.212	30751.93
779.547	30554.2
779.881	30597.81
780.215	30452.28
780.55	30446.63
780.884	30157.82
781.218	30250.7
781.552	30124.15
781.886	29904.04
782.22	29713.77
782.554	29612.3
782.888	29345.19
783.222	29257.28
783.556	29194.01
783.889	29140
784.223	28885.99
784.557	28933.22
784.89	28972.32
785.224	28794.24
785.557	28659.78
785.891	28543.85
786.224	28491.43
786.558	28438.77
786.891	28206.91
787.224	28189.74
787.557	28043.75
787.891	28006.69
788.224	28054.83
788.557	27906.81
788.89	27777.77
789.223	27830.65
789.556	27516.76
789.888	27625.91
790.221	27390.44
790.554	27184.57
790.887	27175.75
791.219	27133.04
791.552	26994.52
791.884	26889.43
792.217	26847.85
792.549	26573.51
792.882	26469.56
793.214	26417.13
793.546	26444.7
793.879	26253.07
794.211	26122.22
794.543	26294.42
794.875	26161.77
795.207	26250.35
795.539	26079.29
795.871	25943.47
796.203	25649.92
796.535	25666.42
796.867	25585.51
797.198	25398.85
797.53	25385.74
797.862	25338.74
798.193	25265.07
798.525	25122.02
798.856	25191.17
799.188	24901.92
799.519	24796.83
799.85	24787.57
800.182	24687.46
800.513	24707.8
800.844	24600.23
801.175	24718.64
801.506	24600.45
801.837	24373.12
802.168	24400.91
802.499	24315.26
802.83	24301.03
803.161	24089.96
803.491	24007.48
803.822	24136.74
804.153	24003.63
804.483	23743.08
804.814	23757.77
805.145	23630.76
805.475	23674.15
805.805	23522.52
806.136	23521.16
806.466	23534.27
806.796	23508.51
807.126	23300.83
807.457	23172.7
807.787	23210.43
808.117	23009.99
808.447	23046.82
808.777	22985.58
809.107	22912.82
809.436	22858.81
809.766	22798.24
810.096	22791.24
810.426	22575.88
810.755	22696.55
811.085	22581.98
811.414	22625.59
811.744	22399.16
812.073	22340.18
812.403	22241.42
812.732	22205.04
813.061	22182.89
813.39	22132.72
813.719	22028.77
814.049	22016.34
814.378	21997.13
814.707	21821.09
815.036	21824.48
815.365	21783.35
815.693	21507.2
816.022	21665.39
816.351	21494.32
816.68	21439.18
817.008	21504.94
817.337	21350.14
817.665	21326.19
817.994	21304.5
818.322	21302.24
818.651	21209.58
818.979	21106.08
819.307	21241.67
819.636	21065.86
819.964	20972.08
820.292	21013.88
820.62	20980.66
820.948	20932.53
821.276	21067.89
821.604	20970.95
821.932	20972.08
822.259	20937.27
822.587	20859.31
822.915	20797.17
823.243	20954.68
823.57	20833.32
823.898	20884.85
824.225	20678.52
824.553	20839.42
824.88	20758.97
825.207	20894.79
825.535	20774.79
825.862	20820.44
826.189	20674.91
826.516	20785.64
826.843	20885.07
827.17	20798.52
827.497	20796.49
827.824	20728.92
828.151	20827.9
828.478	20741.57
828.805	20876.71
829.131	20776.83
829.458	20726.43
829.785	20646.43
830.111	20711.52
830.438	20749.71
830.764	20732.08
831.09	20730.95
831.417	20688.92
831.743	20742.48
832.069	20690.95
832.395	20549.04
832.722	20711.52
833.048	20556.04
833.374	20607.34
833.7	20464.74
834.026	20443.95
834.351	20544.97
834.677	20508.59
835.003	20477.17
835.329	20537.51
835.654	20385.42
835.98	20344.97
836.306	20396.95
836.631	20251.64
836.956	20360.11
837.282	20324.86
837.607	20254.35
837.932	20174.81
838.258	20191.31
838.583	20088.03
838.908	20062.95
839.233	20021.59
839.558	19939.79
839.883	20019.33
840.208	19906.79
840.533	19965.77
840.858	19920.13
841.182	19926.91
841.507	19902.05
841.832	19761.03
842.156	19768.94
842.481	19682.17
842.805	19595.39
843.13	19622.05
843.454	19540.93
843.778	19442.85
844.103	19509.52
844.427	19499.57
844.751	19352.01
845.075	19343.87
845.399	19299.35
845.723	19140.03
846.047	19204.89
846.371	19020.04
846.695	19068.62
847.019	18871.34
847.343	18759.48
847.666	18685.58
847.99	18609.2
848.313	18641.29
848.637	18509.99
848.96	18494.63
849.284	18448.75
849.607	18359.26
849.931	18277.91
850.254	18054.41
850.577	18046.05
850.9	17943.91
851.223	17884.93
851.546	17818.26
851.869	17654.42
852.192	17868.43
852.515	17526.52
852.838	17647.64
853.161	17481.09
853.483	17430.7
853.806	17427.99
854.129	17340.76
854.451	17300.76
854.774	17215.79
855.096	17222.34
855.419	17069.35
855.741	16972.63
856.063	16920.2
856.385	16919.07
856.708	16874.1
857.03	16752.98
857.352	16868.68
857.674	16601.8
857.996	16695.8
858.318	16681.34
858.64	16527.67
858.961	16485.41
859.283	16476.37
859.605	16499.42
859.926	16424.17
860.248	16336.04
860.57	16256.95
860.891	16294.46
861.212	16188.02
861.534	16194.8
861.855	16179.89
862.176	16190.96
862.498	16044.52
862.819	16176.04
863.14	16004.52
863.461	16045.2
863.782	15930.17
864.103	16007.91
864.424	15854.47
864.745	15887.92
865.065	15724.76
865.386	15748.26
865.707	15791.42
866.027	15728.82
866.348	15714.36
866.668	15732.44
866.989	15666.9
867.309	15520.47
867.63	15495.16
867.95	15550.98
868.27	15506
868.59	15514.14
868.91	15494.25
869.23	15491.99
869.55	15390.3
869.87	15450.41
870.19	15420.13
870.51	15420.13
870.83	15431.2
871.15	15303.07
871.469	15286.12
871.789	15315.28
872.109	15282.28
872.428	15119.8
872.748	15195.96
873.067	15178.1
873.386	15270.3
873.706	15209.52
874.025	15064.66
874.344	14998.67
874.663	15020.37
874.982	14993.02
875.301	14978.79
875.62	14925.46
875.939	14897.21
876.258	14838.23
876.577	14789.41
876.896	14863.54
877.214	14709.42
877.533	14764.56
877.852	14733.6
878.17	14781.73
878.489	14780.6
878.807	14732.24
879.125	14637.55
879.444	14669.19
879.762	14578.35
880.08	14681.62
880.398	14521.4
880.716	14548.06
881.034	14474.85
881.352	14501.06
881.67	14428.97
881.988	14414.06
882.306	14362.31
882.624	14339.26
882.941	14276.88
883.259	14283.66
883.577	14203.67
883.894	14152.82
884.212	14169.32
884.529	14181.07
884.846	14040.73
885.164	13990.34
885.481	14065.59
885.798	13986.27
886.115	13891.36
886.432	13965.71
886.75	14016.78
887.067	13887.97
887.383	13820.85
887.7	13838.48
888.017	13703.11
888.334	13778.37
888.651	13668.76
888.967	13669.67
889.284	13589.44
889.6	13567.52
889.917	13447.3
890.233	13518.94
890.55	13457.47
890.866	13409.34
891.182	13398.72
891.498	13274.88
891.815	13308.32
892.131	13247.76
892.447	13331.6
892.763	13232.62
893.079	13108.55
893.395	13084.15
893.71	13006.18
894.026	12961.44
894.342	12976.35
894.657	12872.85
894.973	12936.81
895.289	12837.37
895.604	12851.61
895.92	12746.08
896.235	12698.62
896.55	12691.84
896.865	12650.71
897.181	12637.61
897.496	12654.55
897.811	12545.4
898.126	12406.65
898.441	12383.6
898.756	12426.31
899.071	12352.42
899.386	12410.49
899.7	12194.45
900.015	12220.44
900.33	12031.29
900.644	12097.96
900.959	12059.32
901.273	12048.02
901.588	11995.36
901.902	11905.2
902.216	11855.03
902.531	11867.46
902.845	11738.65
903.159	11730.06
903.473	11666.11
903.787	11640.12
904.101	11523.51
904.415	11617.29
904.729	11553.79
905.042	11394.25
905.356	11395.38
905.67	11417.52
905.984	11291.2
906.297	11312.67
906.611	11340.92
906.924	11261.82
907.237	11143.41
907.551	11154.48
907.864	11069.51
908.177	11071.55
908.491	11043.98
908.804	10940.02
909.117	10868.16
909.43	10848.27
909.743	10799.69
910.056	10798.78
910.368	10683.98
910.681	10622.29
910.994	10658.45
911.307	10605.57
911.619	10497.1
911.932	10506.59
912.244	10492.58
912.557	10396.53
912.869	10373.26
913.181	10377.78
913.494	10312.47
913.806	10181.17
914.118	10177.78
914.43	10158.35
914.742	10114.06
915.054	10018.92
915.366	10038.13
915.678	9965.36
915.99	9992.25
916.302	9878.81
916.613	9785.93
916.925	9847.85
917.236	9851.01
917.548	9710.9
917.859	9808.98
918.171	9621.41
918.482	9597.23
918.794	9540.29
919.105	9575.54
919.416	9437.92
919.727	9460.29
920.038	9404.7
920.349	9302.1
920.66	9384.81
920.971	9317.24
921.282	9345.49
921.593	9157.7
921.903	9182.1
922.214	9133.52
922.525	9133.97
922.835	9032.73
923.146	8929
923.456	8991.15
923.767	8959.74
924.077	8903.24
924.387	8874.09
924.697	8782.79
925.008	8780.98
925.318	8698.05
925.628	8697.14
925.938	8720.19
926.248	8646.07
926.558	8566.3
926.867	8565.4
927.177	8533.98
927.487	8512.52
927.796	8381.22
928.106	8374.21
928.416	8331.05
928.725	8362.01
929.034	8300.54
929.344	8284.05
929.653	8254.22
929.962	8134
930.271	8158.18
930.581	8055.81
930.89	8089.93
931.199	8005.86
931.508	7995.69
931.817	7952.76
932.125	7922.02
932.434	7914.79
932.743	7886.77
933.051	7799.77
933.36	7762.93
933.669	7788.69
933.977	7694.01
934.286	7689.04
934.594	7644.97
934.902	7616.95
935.21	7637.74
935.519	7578.53
935.827	7539.43
936.135	7520
936.443	7409.49
936.751	7405.88
937.059	7376.5
937.367	7363.17
937.674	7330.4
937.982	7310.74
938.29	7288.59
938.597	7210.18
938.905	7136.96
939.213	7177.86
939.52	7121.82
939.827	7082.72
940.135	7049.5
940.442	7122.72
940.749	7003.86
941.056	7027.13
941.363	6965.89
941.67	6873.01
941.977	6859.9
942.284	6814.03
942.591	6776.29
942.898	6764.54
943.205	6707.82
943.511	6712.56
943.818	6748.72
944.125	6613.58
944.431	6590.31
944.738	6570.65
945.044	6575.39
945.35	6514.38
945.657	6497.43
945.963	6479.58
946.269	6435.96
946.575	6394.15
946.881	6371.56
947.187	6360.26
947.493	6332.01
947.799	6330.65
948.105	6246.36
948.41	6224.44
948.716	6219.7
949.022	6227.83
949.327	6191.67
949.633	6114.39
949.938	6104.44
950.244	6068.74
950.549	6028.97
950.854	6015.63
951.16	6005.69
951.465	5974.73
951.77	5959.14
952.075	5905.58
952.38	5906.48
952.685	5906.48
952.99	5865.13
953.294	5859.7
953.599	5792.14
953.904	5761.63
954.209	5702.42
954.513	5750.78
954.818	5664.68
955.122	5684.57
955.426	5662.2
955.731	5629.43
956.035	5587.62
956.339	5587.4
956.643	5512.82
956.948	5505.59
957.252	5488.42
957.556	5422.2
957.86	5426.27
958.163	5413.39
958.467	5355.09
958.771	5372.49
959.075	5358.25
959.378	5289.78
959.682	5264.47
959.985	5248.2
960.289	5243.45
960.592	5253.84
960.896	5245.26
961.199	5144.7
961.502	5149.67
961.805	5143.34
962.108	5086.62
962.411	5069.44
962.714	5008.65
963.017	5025.83
963.32	5039.61
963.623	4931.37
963.926	4974.53
964.228	4941.31
964.531	4885.27
964.833	4887.75
965.136	4836
965.438	4837.13
965.741	4817.25
966.043	4811.14
966.345	4797.81
966.648	4724.82
966.95	4727.98
967.252	4709
967.554	4731.6
967.856	4701.77
968.158	4642.11
968.46	4647.53
968.761	4615.44
969.063	4596.91
969.365	4587.65
969.666	4547.65
969.968	4496.8
970.269	4501.32
970.571	4502.45
970.872	4455
971.174	4445.28
971.475	4476.92
971.776	4412.29
972.077	4382.23
972.378	4367.54
972.679	4330.93
972.98	4361.66
973.281	4351.95
973.582	4289.35
973.883	4309.01
974.183	4249.13
974.484	4232.4
974.785	4203.03
975.085	4188.56
975.386	4190.37
975.686	4129.35
975.986	4130.48
976.287	4125.29
976.587	4094.78
976.887	4069.7
977.187	4066.08
977.487	4057.72
977.787	4036.7
978.087	4021.56
978.387	4001.22
978.687	4026.08
978.987	3950.38
979.286	3883.49
979.586	3982.24
979.885	3869.7
980.185	3819.31
980.484	3829.93
980.784	3861.11
981.083	3803.94
981.382	3783.83
981.682	3812.98
981.981	3781.34
982.28	3729.37
982.579	3717.39
982.878	3663.38
983.177	3671.29
983.475	3676.71
983.774	3669.71
984.073	3651.63
984.372	3631.29
984.67	3636.03
984.969	3630.38
985.267	3597.62
985.566	3605.3
985.864	3516.26
986.162	3545.42
986.461	3494.12
986.759	3511.97
987.057	3475.36
987.355	3463.61
987.653	3412.99
987.951	3418.41
988.249	3414.57
988.547	3416.15
988.844	3379.77
989.142	3330.96
989.44	3366.44
989.737	3304.74
990.035	3302.26
990.332	3296.83
990.63	3272.65
990.927	3253.22
991.224	3278.08
991.521	3214.12
991.819	3225.65
992.116	3203.28
992.413	3194.92
992.71	3199.89
993.006	3146.78
993.303	3147.91
993.6	3128.7
993.897	3109.49
994.193	3088.48
994.49	3093.9
994.787	3078.31
995.083	3043.28
995.379	3026.78
995.676	3028.37
995.972	2977.75
996.268	3001.7
996.565	2982.04
996.861	2975.49
997.157	2975.03
997.453	2916.05
997.749	2937.3
998.044	2903.85
998.34	2916.73
998.636	2891.2
998.932	2844.64
999.227	2845.77
999.523	2834.93
999.818	2791.08
1000.114	2752.89
1000.409	2766.45
1000.704	2757.41
1001	2780.69
1001.295	2702.5
1001.59	2706.57
1001.885	2693.23
1002.18	2681.03
1002.475	2655.95
1002.77	2635.38
1003.065	2643.52
1003.359	2646
1003.654	2586.8
1003.949	2590.86
1004.243	2555.84
1004.538	2568.04
1004.832	2524.2
1005.127	2525.78
1005.421	2506.35
1005.715	2470.64
1006.009	2440.59
1006.304	2485.33
1006.598	2439.23
1006.892	2477.65
1007.186	2409.85
1007.48	2408.5
1007.773	2438.78
1008.067	2399
1008.361	2389.06
1008.655	2346.12
1008.948	2342.28
1009.242	2335.5
1009.535	2275.84
1009.829	2288.05
1010.122	2276.97
1010.415	2266.13
1010.708	2236.3
1011.001	2235.85
1011.295	2218.67
1011.588	2214.15
1011.881	2228.61
1012.173	2160.37
1012.466	2206.92
1012.759	2159.01
1013.052	2159.91
1013.344	2131.22
1013.637	2093.7
1013.93	2128.05
1014.222	2100.93
1014.514	2076.08
1014.807	2090.99
1015.099	2047.15
1015.391	2072.69
1015.683	2023.87
1015.976	2011.67
1016.268	2001.5
1016.56	1989.98
1016.851	1962.86
1017.143	1957.43
1017.435	1970.77
1017.727	1951.33
1018.018	1939.13
1018.31	1890.77
1018.602	1927.83
1018.893	1885.35
1019.185	1893.03
1019.476	1869.08
1019.767	1858.91
1020.058	1838.12
1020.35	1843.54
1020.641	1829.75
1020.932	1800.38
1021.223	1748.85
1021.514	1770.09
1021.804	1768.51
1022.095	1742.75
1022.386	1748.63
1022.677	1733.71
1022.967	1718.57
1023.258	1705.01
1023.548	1702.07
1023.839	1674.96
1024.129	1686.26
1024.419	1686.26
1024.709	1629.99
1025	1631.79
1025.29	1620.49
1025.58	1603.77
1025.87	1620.95
1026.16	1560.16
1026.449	1579.14
1026.739	1556.54
1027.029	1550.67
1027.319	1575.52
1027.608	1501.85
1027.898	1530.1
1028.187	1496.88
1028.477	1506.82
1028.766	1509.54
1029.055	1469.99
1029.344	1479.71
1029.634	1440.84
1029.923	1430.22
1030.212	1439.03
1030.501	1432.25
1030.79	1402.65
1031.078	1405.13
1031.367	1392.48
1031.656	1390.67
1031.945	1358.35
1032.233	1364.68
1032.522	1340.95
1032.81	1342.31
1033.099	1352.25
1033.387	1369.65
1033.675	1316.32
1033.963	1291.01
1034.251	1319.26
1034.54	1315.87
1034.828	1297.79
1035.116	1283.1
1035.403	1264.12
1035.691	1279.71
1035.979	1293.72
1036.267	1242.2
1036.554	1239.94
1036.842	1203.78
1037.129	1220.05
1037.417	1208.75
1037.704	1209.66
1037.992	1191.35
1038.279	1199.04
1038.566	1171.01
1038.853	1171.01
1039.14	1171.01
