Data from White_reflection_standard_FLMS001491_035.txt Node
Date: Tue Feb 07 10:32:02 GMT 2017
User: dcchb
Spectrometer: FLMS00149
Trigger mode: 0
Integration Time (sec): 2.000000E-2
Scans to average: 10
Electric dark correction enabled: true
Nonlinearity correction enabled: false
Boxcar width: 0
XAxis mode: Wavelengths
Number of Pixels in Spectrum: 2048
>>>>>Begin Spectral Data<<<<<
341.393	2.4
341.776	2.4
342.16	2.4
342.543	-63.36
342.927	-60.2
343.31	-83.25
343.693	-55.68
344.077	-64.04
344.46	-43.47
344.843	-61.78
345.226	-48.22
345.61	-24.72
345.993	-7.32
346.376	-1.89
346.759	18.22
347.142	9.63
347.525	51.21
347.908	66.81
348.291	47.82
348.674	92.79
349.057	103.87
349.44	124.66
349.823	157.2
350.206	176.86
350.588	222.73
350.971	254.6
351.354	274.03
351.737	287.59
352.119	302.28
352.502	324.2
352.884	313.58
353.267	340.47
353.65	346.57
354.032	359
354.414	358.1
354.797	376.18
355.179	364.65
355.562	384.76
355.944	386.12
356.326	379.79
356.709	394.26
357.091	384.09
357.473	407.59
357.855	390.87
358.238	408.72
358.62	400.58
359.002	422.95
359.384	406.91
359.766	411.2
360.148	424.54
360.53	411.88
360.912	402.16
361.294	416.4
361.676	386.12
362.057	384.31
362.439	408.27
362.821	422.05
363.203	416.4
363.584	404.2
363.966	421.15
364.348	393.13
364.729	407.36
365.111	401.26
365.493	412.79
365.874	406.46
366.256	415.05
366.637	420.92
367.019	424.99
367.4	438.32
367.781	420.24
368.163	424.08
368.544	445.33
368.925	403.52
369.306	417.53
369.688	419.34
370.069	448.27
370.45	448.49
370.831	445.1
371.212	425.89
371.593	443.29
371.974	444.2
372.355	450.98
372.736	478.32
373.117	450.98
373.498	447.36
373.879	443.52
374.26	446.01
374.641	424.99
375.021	438.77
375.402	455.04
375.783	476.51
376.163	511.77
376.544	506.12
376.925	500.47
377.305	469.06
377.686	500.47
378.066	496.85
378.447	517.87
378.827	511.31
379.208	516.51
379.588	508.15
379.968	533.91
380.349	547.25
380.729	513.57
381.109	532.1
381.489	568.49
381.87	571.2
382.25	565.32
382.63	553.12
383.01	541.6
383.39	566.45
383.77	567.58
384.15	568.49
384.53	591.76
384.91	592.44
385.29	609.62
385.67	600.35
386.049	624.31
386.429	613.23
386.809	637.64
387.189	610.07
387.568	629.28
387.948	643.29
388.328	655.27
388.707	674.25
389.087	663.4
389.466	643.51
389.846	672.89
390.225	690.29
390.605	684.42
390.984	700.91
391.363	713.34
391.743	747.69
392.122	725.77
392.501	741.36
392.881	724.42
393.26	762.38
393.639	728.48
394.018	785.88
394.397	791.98
394.776	798.99
395.155	800.57
395.534	800.12
395.913	803.28
396.292	813.23
396.671	820.68
397.05	819.1
397.429	847.12
397.808	844.19
398.186	849.61
398.565	867.92
398.944	870.17
399.323	887.12
399.701	880.8
400.08	897.52
400.458	910.17
400.837	926.44
401.215	928.93
401.594	928.25
401.972	942.04
402.351	950.85
402.729	958.31
403.107	994.24
403.486	966.9
403.864	968.93
404.242	997.18
404.62	1020.45
404.999	1026.1
405.377	1029.04
405.755	1077.4
406.133	1083.28
406.511	1057.29
406.889	1108.59
407.267	1138.64
407.645	1109.04
408.023	1127.34
408.401	1152.2
408.779	1174.57
409.156	1213.89
409.534	1211.86
409.912	1198.98
410.29	1247.11
410.667	1250.28
411.045	1294.12
411.422	1295.47
411.8	1313.1
412.178	1331.18
412.555	1327.56
412.933	1350.16
413.31	1377.28
413.687	1405.3
414.065	1407.34
414.442	1422.93
414.819	1421.57
415.197	1457.5
415.574	1504.28
415.951	1484.85
416.328	1497.95
416.705	1489.59
417.082	1518.97
417.46	1582.92
417.837	1570.95
418.214	1576.37
418.591	1616.37
418.967	1620.66
419.344	1658.4
419.721	1668.57
420.098	1653.66
420.475	1683.49
420.852	1726.88
421.228	1744.05
421.605	1739.08
421.982	1767.1
422.358	1803.03
422.735	1777.04
423.111	1789.7
423.488	1834.9
423.864	1855.69
424.241	1867.89
424.617	1896.59
424.994	1911.96
425.37	1932.29
425.746	1926.19
426.123	2007.55
426.499	2000.77
426.875	2031.5
427.251	2059.97
427.627	2074.21
428.003	2124.38
428.379	2151.72
428.756	2175.9
429.132	2232.17
429.507	2233.98
429.883	2278.73
430.259	2303.13
430.635	2320.98
431.011	2340.64
431.387	2432.39
431.763	2471.94
432.138	2463.58
432.514	2506.52
432.89	2506.74
433.265	2612.5
433.641	2620.64
434.016	2647.3
434.392	2685.27
434.767	2759.39
435.143	2726.62
435.518	2774.98
435.894	2770.69
436.269	2837.58
436.644	2902.44
437.02	2901.99
437.395	2894.08
437.77	2957.58
438.145	2988.09
438.52	3033.96
438.895	3073.96
439.271	3098.59
439.646	3134.75
440.021	3145.14
440.395	3170.91
440.77	3174.97
441.145	3189.89
441.52	3276.89
441.895	3264.69
442.27	3308.3
442.645	3313.27
443.019	3363.44
443.394	3368.19
443.769	3410.67
444.143	3425.36
444.518	3468.07
444.892	3468.75
445.267	3509.2
445.641	3515.76
446.016	3536.55
446.39	3614.51
446.764	3650.67
447.139	3631.23
447.513	3704.45
447.887	3682.08
448.262	3720.27
448.636	3729.53
449.01	3774.73
449.384	3836.65
449.758	3824.22
450.132	3850.44
450.506	3903.54
450.88	3963.43
451.254	3941.28
451.628	4048.85
452.002	4103.99
452.376	4108.28
452.75	4177.88
453.123	4146.47
453.497	4267.6
453.871	4280.25
454.244	4355.51
454.618	4399.8
454.992	4469.18
455.365	4475.5
455.739	4574.71
456.112	4617.42
456.486	4684.99
456.859	4762.05
457.232	4787.13
457.606	4817.19
457.979	4899
458.352	4975.83
458.725	5033.91
459.099	5056.51
459.472	5156.84
459.845	5252.43
460.218	5263.05
460.591	5357.74
460.964	5338.31
461.337	5444.29
461.71	5546.66
462.083	5664.63
462.456	5687.22
462.829	5708.92
463.201	5829.82
463.574	5846.32
463.947	5933.32
464.32	6062.58
464.692	6140.09
465.065	6174.44
465.438	6304.61
465.81	6346.19
466.183	6367.66
466.555	6506.64
466.928	6549.57
467.3	6519.74
467.672	6685.62
468.045	6828.44
468.417	6895.1
468.789	6938.26
469.161	7041.09
469.534	7154.53
469.906	7351.13
470.278	7291.02
470.65	7453.96
471.022	7614.63
471.394	7767.62
471.766	7817.11
472.138	7909.99
472.51	8109.08
472.882	8284.44
473.253	8361.5
473.625	8431.11
473.997	8636.98
474.369	8643.98
474.74	8774.83
475.112	8961.04
475.484	9101.82
475.855	9307.69
476.227	9297.75
476.598	9627.46
476.97	9720.79
477.341	9871.97
477.713	10023.61
478.084	10148.12
478.455	10370.26
478.827	10525.06
479.198	10836.24
479.569	10848.67
479.94	11091.38
480.311	11237.81
480.682	11498.14
481.053	11747.4
481.424	11855.87
481.795	12079.37
482.166	12255.86
482.537	12400.49
482.908	12633.03
483.279	12797.32
483.65	13026.01
484.021	13257.42
484.391	13437.75
484.762	13564.3
485.133	13714.36
485.503	13849.27
485.874	14218.98
486.244	14355.47
486.615	14598.18
486.985	14820.99
487.356	15115.22
487.726	15189.35
488.097	15460.3
488.467	15622.33
488.837	15893.28
489.207	16059.38
489.578	16367.62
489.948	16472.25
490.318	16738.91
490.688	16781.39
491.058	17042.63
491.428	17308.39
491.798	17425.45
492.168	17846
492.538	17830.86
492.908	18018.42
493.278	18364.63
493.648	18396.04
494.017	18643.27
494.387	18736.37
494.757	18865.86
495.126	19103.14
495.496	19196.25
495.866	19373.42
496.235	19649.34
496.605	19741.77
496.974	19818.83
497.344	20047.52
497.713	20231.25
498.082	20383.56
498.452	20646.38
498.821	20665.36
499.19	20814.74
499.559	21023.09
499.928	21132.47
500.298	21238
500.667	21509.86
501.036	21445.23
501.405	21804.31
501.774	21808.38
502.143	22001.37
502.512	22132.44
502.88	22290.18
503.249	22434.35
503.618	22449.27
503.987	22678.64
504.356	22885.87
504.724	22982.81
505.093	23069.37
505.462	23200.21
505.83	23387.32
506.199	23589.13
506.567	23818.05
506.936	23878.84
507.304	24158.83
507.672	24340.74
508.041	24413.96
508.409	24664.35
508.777	24864.8
509.145	24961.52
509.514	25051.91
509.882	25298.46
510.25	25386.59
510.618	25537.77
510.986	25702.29
511.354	25931.44
511.722	26057.08
512.09	26458.2
512.458	26323.74
512.826	26595.6
513.193	26811.64
513.561	26926.44
513.929	27181.57
514.297	27398.06
514.664	27602.81
515.032	27671.73
515.4	28004.38
515.767	28032.85
516.135	28277.14
516.502	28304.93
516.869	28698.6
517.237	28884.35
517.604	28815.65
517.972	29229.66
518.339	29326.83
518.706	29332.93
519.073	29822.18
519.44	29990.31
519.808	30282.96
520.175	30121.84
520.542	30629.17
520.909	30822.83
521.276	30870.06
521.643	31196.16
522.009	31419.88
522.376	31727.67
522.743	31945.97
523.11	32303.92
523.477	32427.31
523.843	32708.43
524.21	33037.46
524.577	33296.21
524.943	33408.3
525.31	33569.43
525.676	34034.73
526.043	34137.77
526.409	34324.44
526.776	34758.55
527.142	34884.42
527.508	35142.95
527.874	35278.54
528.241	35578.64
528.607	35678.75
528.973	35943.15
529.339	36021.79
529.705	36335.46
530.071	36664.26
530.437	36828.1
530.803	37126.17
531.169	37328.65
531.535	37181.76
531.901	37420.4
532.267	37658.59
532.632	37920.5
532.998	37850.9
533.364	38274.16
533.73	38392.58
534.095	38686.81
534.461	38700.59
534.826	38987.14
535.192	39084.99
535.557	39347.13
535.923	39322.05
536.288	39491.76
536.653	39698.08
537.019	39795.71
537.384	39901.46
537.749	40160.67
538.114	40232.3
538.479	40437.72
538.845	40535.57
539.21	40453.54
539.575	40687.88
539.94	40931.27
540.305	41150.02
540.67	41151.15
541.034	41204.48
541.399	41492.61
541.764	41558.37
542.129	41725.15
542.494	41743.22
542.858	41962.88
543.223	41984.8
543.587	42338.91
543.952	42255.08
544.316	42557.89
544.681	42540.04
545.045	42777.1
545.41	42937.77
545.774	43050.76
546.138	43042.4
546.503	43306.57
546.867	43400.13
547.231	43764.87
547.595	43794.7
547.959	43918.99
548.324	43908.82
548.688	44034.01
549.052	44178.87
549.416	44309.26
549.779	44342.25
550.143	44586.77
550.507	44960.31
550.871	44885.97
551.235	44958.06
551.599	45244.83
551.962	45499.51
552.326	45493.41
552.689	45730.69
553.053	45695.44
553.417	45828.99
553.78	46282.54
554.143	46175.42
554.507	46362.54
554.87	46495.42
555.234	46803.43
555.597	46739.03
555.96	46908.51
556.323	47119.35
556.686	47180.82
557.05	47494.26
557.413	47493.36
557.776	47659.68
558.139	47904.87
558.502	48036.84
558.865	48199.78
559.228	48425.53
559.59	48559.32
559.953	48617.62
560.316	49056.93
560.679	49020.1
561.041	49308.68
561.404	49401.78
561.767	49714.31
562.129	49447.65
562.492	50002.89
562.854	49928.09
563.217	49997.02
563.579	50218.71
563.941	50403.11
564.304	50507.06
564.666	50717.45
565.028	50844.23
565.39	50967.39
565.753	51223.65
566.115	51206.93
566.477	51372.8
566.839	51474.27
567.201	51644.21
567.563	51726.46
567.925	51914.71
568.287	52012.56
568.648	51994.71
569.01	52266.11
569.372	52344.3
569.734	52223.63
570.095	52656.38
570.457	52688.7
570.819	52787.23
571.18	52851.63
571.542	53056.37
571.903	52981.57
572.265	53095.69
572.626	53205.97
572.987	53290.72
573.349	53342.47
573.71	53480.09
574.071	53549.02
574.432	53608.45
574.794	53817.94
575.155	53894.77
575.516	53786.75
575.877	53850.02
576.238	54064.03
576.599	54106.74
576.96	54141.09
577.32	54141.32
577.681	54254.53
578.042	54310.58
578.403	54330.24
578.763	54353.29
579.124	54438.26
579.485	54483.23
579.845	54568.88
580.206	54534.07
580.566	54544.02
580.927	54581.53
581.287	54625.82
581.648	54654.98
582.008	54737.23
582.368	54619.27
582.728	54738.59
583.089	54673.28
583.449	54677.57
583.809	54792.6
584.169	54755.76
584.529	54763.67
584.889	55012.25
585.249	54779.94
585.609	54742.88
585.969	54845.93
586.329	54785.37
586.688	54890.45
587.048	54789.21
587.408	54810.45
587.768	54742.43
588.127	54754.18
588.487	54756.22
588.846	55044.34
589.206	54710.34
589.565	54802.77
589.925	54876.44
590.284	54800.96
590.643	54910.56
591.003	54856.1
591.362	54990.56
591.721	54940.62
592.08	54890.9
592.44	55009.32
592.799	55080.5
593.158	54938.81
593.517	54997.34
593.876	54883.9
594.235	54956.21
594.593	55000.73
594.952	55132.25
595.311	54953.27
595.67	55020.62
596.029	55152.59
596.387	55216.54
596.746	55205.24
597.104	55045.7
597.463	55094.06
597.822	55273.26
598.18	55128.18
598.538	55045.47
598.897	55325.47
599.255	55031.46
599.613	55512.81
599.972	55229.65
600.33	55376.76
600.688	55277.33
601.046	55326.37
601.404	55414.28
601.762	55343.09
602.12	55513.26
602.478	55590.54
602.836	55509.19
603.194	55337.44
603.552	55404.11
603.91	55383.77
604.268	55535.86
604.625	55428.29
604.983	55597.78
605.341	55397.33
605.698	55637.1
606.056	55673.25
606.413	55605.01
606.771	55775.85
607.128	55722.74
607.485	55634.61
607.843	55691.11
608.2	55774.72
608.557	55919.35
608.914	55819.92
609.272	55916.19
609.629	55993.7
609.986	55995.96
610.343	55916.64
610.7	56156.86
611.057	56043.64
611.414	56007.71
611.771	56073.7
612.127	56219.45
612.484	56151.89
612.841	56258.55
613.198	56145.56
613.554	56161.15
613.911	56318.89
614.267	56286.57
614.624	56286.34
614.98	56329.96
615.337	56408.6
615.693	56380.13
616.05	56365.44
616.406	56479.79
616.762	56380.35
617.118	56302.62
617.475	56390.52
617.831	56460.58
618.187	56440.47
618.543	56468.04
618.899	56642.27
619.255	56548.26
619.611	56531.76
619.967	56638.88
620.323	56706.67
620.678	56515.49
621.034	56502.61
621.39	56518.43
621.746	56477.75
622.101	56720.68
622.457	56492.44
622.812	56607.01
623.168	56621.25
623.523	56629.16
623.879	56675.71
624.234	56526.56
624.589	56596.17
624.945	56608.14
625.3	56690.18
625.655	56682.94
626.01	56619.9
626.365	56623.74
626.72	56569.73
627.075	56611.08
627.43	56580.57
627.785	56541.93
628.14	56577.64
628.495	56622.16
628.85	56520.24
629.205	56525.66
629.559	56597.52
629.914	56442.05
630.269	56536.96
630.623	56404.76
630.978	56418.32
631.332	56481.37
631.687	56520.01
632.041	56324.08
632.396	56444.53
632.75	56312.33
633.104	56359.56
633.459	56168.83
633.813	56297.64
634.167	56181.04
634.521	56189.85
634.875	56138.78
635.229	56151.89
635.583	56057.88
635.937	55960.48
636.291	55942.4
636.645	55917.99
636.999	55836.19
637.352	55987.82
637.706	55796.41
638.06	55914.83
638.413	55774.04
638.767	55725.23
639.121	55839.8
639.474	55587.61
639.828	55713.93
640.181	55608.17
640.534	55659.69
640.888	55621.28
641.241	55518.91
641.594	55506.48
641.947	55535.63
642.301	55413.83
642.654	55462.19
643.007	55420.6
643.36	55362.98
643.713	55291.34
644.066	55431
644.419	55200.5
644.771	54956.21
645.124	54743.11
645.477	54750.11
645.83	54469.44
646.182	54351.48
646.535	54283.91
646.888	54405.26
647.24	54106.29
647.593	54381.76
647.945	54232.84
648.298	54218.38
648.65	54033.75
649.002	53949.46
649.355	54115.55
649.707	53972.51
650.059	54162.33
650.411	54404.81
650.763	54455.21
651.115	54759.83
651.467	54734.75
651.819	54585.6
652.171	54595.77
652.523	54512.61
652.875	54441.42
653.227	54333.18
653.578	54542.66
653.93	54426.73
654.282	54326.4
654.633	54232.16
654.985	54297.47
655.337	54325.94
655.688	54288.88
656.039	54358.26
656.391	54087.98
656.742	54146.74
657.094	54192.61
657.445	54284.82
657.796	54137.7
658.147	54135.44
658.498	54039.17
658.849	54143.12
659.2	54081.21
659.551	53931.38
659.902	54071.26
660.253	53986.07
660.604	54026.52
660.955	53881.89
661.306	54020.87
661.656	53909.23
662.007	53870.14
662.358	53883.24
662.708	53851.61
663.059	53856.58
663.409	53624.95
663.76	53870.36
664.11	53817.94
664.461	53846.86
664.811	53832.4
665.161	53778.16
665.511	53624.27
665.862	53714.89
666.212	53822.91
666.562	53690.71
666.912	53660.43
667.262	53636.7
667.612	53678.05
667.962	53657.04
668.312	53583.82
668.662	53635.57
669.011	53615.23
669.361	53534.55
669.711	53519.41
670.06	53492.52
670.41	53451.84
670.76	53362.13
671.109	53493.88
671.459	53343.37
671.808	53390.38
672.157	53412.75
672.507	53198.52
672.856	53237.39
673.205	53216.82
673.554	53287.1
673.904	53210.27
674.253	53330.49
674.602	53273.77
674.951	52742.03
675.3	52634.46
675.649	53098.86
675.998	53062.02
676.346	53027.67
676.695	53177.5
677.044	52924.17
677.393	53015.47
677.741	52992.19
678.09	52910.61
678.438	52789.04
678.787	52887.56
679.135	52939.09
679.484	52668.13
679.832	52797.4
680.181	52692.09
680.529	52811.41
680.877	52571.41
681.225	52579.78
681.573	52745.65
681.922	52478.76
682.27	52389.27
682.618	52436.5
682.966	52334.81
683.314	52262.04
683.661	52233.57
684.009	52036.97
684.357	51932.11
684.705	51904.99
685.053	52078.09
685.4	51991.77
685.748	51851.66
686.095	51725.11
686.443	51634.94
686.79	51535.74
687.138	51645.34
687.485	51594.26
687.832	51374.61
688.18	51474.72
688.527	51210.32
688.874	51218.23
689.221	51208.74
689.568	51053.49
689.915	51003.09
690.262	50935.53
690.609	50724.23
690.956	50772.14
691.303	50719.03
691.65	50491.69
691.997	50532.37
692.344	50311.36
692.69	50346.16
693.037	50306.84
693.383	49980.07
693.73	50125.6
694.077	49941.43
694.423	49935.33
694.769	49771.04
695.116	49713.86
695.462	49602.45
695.808	49490.82
696.155	49519.29
696.501	49203.59
696.847	49294.66
697.193	48898.06
697.539	49063.03
697.885	48744.17
698.231	48682.25
698.577	48708.69
698.923	48639.99
699.269	48386.21
699.614	48312.09
699.96	48211.08
700.306	48185.77
700.651	48017.64
700.997	47829.17
701.342	47944.87
701.688	47784.2
702.033	47634.37
702.379	47531.55
702.724	47494.49
703.069	47658.55
703.415	47059.92
703.76	47128.39
704.105	47165.91
704.45	46929.3
704.795	46850.89
705.14	46682.98
705.485	46796.88
705.83	46480.28
706.175	46432.59
706.52	46355.98
706.865	46174.52
707.209	46181.07
707.554	46030.34
707.899	46136.33
708.243	45818.6
708.588	45840.07
708.932	45464.48
709.277	45473.3
709.621	45517.81
709.966	45172.29
710.31	45247.54
710.654	44931.39
710.998	45102.23
711.342	45023.82
711.687	44906.31
712.031	44672.19
712.375	44594
712.719	44690.04
713.063	44481.91
713.407	44655.46
713.75	44331.86
714.094	44351.97
714.438	44135.03
714.782	44129.6
715.125	44094.35
715.469	44118.3
715.812	43899.33
716.156	43679.22
716.499	43716.96
716.843	43566.68
717.186	43513.35
717.53	43452.11
717.873	43451.2
718.216	43514.48
718.559	43188.38
718.902	42967.83
719.246	43088.73
719.589	42922.4
719.932	42835.85
720.275	42880.37
720.617	42678.12
720.96	42709.75
721.303	42638.12
721.646	42596.54
721.989	42422.08
722.331	42412.59
722.674	42356.77
723.016	42400.16
723.359	42201.07
723.701	42239.03
724.044	42011.92
724.386	41781.42
724.729	42037.68
725.071	41901.19
725.413	41773.96
725.755	41762.21
726.097	41673.17
726.439	41475.21
726.782	41532.38
727.124	41533.06
727.465	41278.83
727.807	41330.35
728.149	41042.23
728.491	41138.72
728.833	41209.23
729.175	40927.88
729.516	40904.83
729.858	40889.69
730.199	40859.18
730.541	40740.76
730.882	40769.92
731.224	40752.06
731.565	40451.73
731.906	40507.55
732.248	40505.29
732.589	40319.31
732.93	40213.32
733.271	40247.67
733.612	40244.51
733.953	40292.64
734.294	40040.67
734.635	39895.82
734.976	40003.16
735.317	39798.19
735.658	39748.47
735.999	39687.46
736.339	39614.69
736.68	39620.57
737.021	39515.03
737.361	39390.07
737.702	39450.63
738.042	39394.13
738.383	39280.24
738.723	39312.78
739.063	39191.88
739.404	39261.03
739.744	39097.19
740.084	38936.29
740.424	39023.07
740.764	38958.89
741.104	39111.88
741.444	38894.94
741.784	38679.12
742.124	38744.89
742.464	38625.57
742.804	38619.69
743.143	38424.67
743.483	38448.85
743.823	38294.5
744.162	38177.89
744.502	38239.14
744.841	38092.92
745.181	38147.61
745.52	38047.5
745.86	37992.59
746.199	37921.63
746.538	37830.11
746.877	37920.5
747.216	37772.03
747.556	37638.02
747.895	37717.57
748.234	37440.74
748.573	37491.13
748.911	37341.53
749.25	37440.29
749.589	37271.7
749.928	37242.78
750.267	37314.41
750.605	37171.14
750.944	36903.35
751.283	36850.25
751.621	37037.59
751.96	36725.73
752.298	36790.81
752.636	36687.31
752.975	36480.31
753.313	36290.94
753.651	36428.79
753.989	36307.21
754.327	36275.35
754.666	35937.95
755.004	36084.39
755.342	36038.74
755.679	35913.55
756.017	35760.33
756.355	35746.77
756.693	35545.65
757.031	35745.64
757.368	35395.37
757.706	35324.86
758.044	35195.15
758.381	35345.88
758.719	35013.68
759.056	35029.28
759.394	34968.94
759.731	34734.14
760.068	34661.15
760.405	34484.43
760.743	34433.36
761.08	34489.4
761.417	34322.63
761.754	34211.22
762.091	34223.2
762.428	33965.58
762.765	33890.78
763.102	33909.08
763.438	33705.24
763.775	33613.49
764.112	33709.76
764.449	33577.11
764.785	33352.94
765.122	33202.88
765.458	33210.79
765.795	33098.48
766.131	33064.13
766.467	32948.2
766.804	32721.31
767.14	32434.99
767.476	32462.11
767.812	32291.04
768.148	32414.66
768.485	32080.88
768.821	31928.57
769.157	31894.44
769.492	32004.5
769.828	31794.33
770.164	31509.6
770.5	31507.34
770.836	31525.87
771.171	31269.83
771.507	31147.12
771.842	30929.95
772.178	30937.18
772.513	30924.53
772.849	30735.15
773.184	30626.45
773.519	30632.78
773.855	30386.01
774.19	30188.27
774.525	30225.11
774.86	30232.11
775.195	30078.67
775.53	29878.45
775.865	29805.46
776.2	29648.4
776.535	29388.52
776.87	29473.49
777.205	29363.66
777.539	29337.67
777.874	29191.46
778.209	28994.86
778.543	28902.88
778.878	28801.42
779.212	28737.92
779.547	28552.38
779.881	28606.85
780.215	28397.36
780.55	28428.32
780.884	28247.08
781.218	28243.47
781.552	28097.03
781.886	27920.54
782.22	27867.88
782.554	27839.41
782.888	27494.33
783.222	27396.71
783.556	27343.38
783.889	27158.07
784.223	27044.4
784.557	27023.39
784.89	27115.36
785.224	26846.22
785.557	26797.4
785.891	26700.68
786.224	26580.91
786.558	26649.38
786.891	26340.24
787.224	26198.32
787.557	26057.31
787.891	26171.66
788.224	26044.88
788.557	26009.4
788.89	25819.8
789.223	25815.96
789.556	25643.08
789.888	25547.27
790.221	25443.77
790.554	25368.97
790.887	25238.8
791.219	25240.38
791.552	25119.93
791.884	24980.05
792.217	24908.41
792.549	24923.33
792.882	24692.6
793.214	24560.85
793.546	24614.41
793.879	24577.57
794.211	24496.22
794.543	24465.03
794.875	24251.48
795.207	24325.6
795.539	24158.15
795.871	24067.98
796.203	23896.01
796.535	23771.72
796.867	23788.44
797.198	23658.95
797.53	23719.74
797.862	23484.72
798.193	23474.33
798.525	23385.52
798.856	23417.6
799.188	23187.33
799.519	23087.44
799.85	22964.74
800.182	23088.57
800.513	22992.31
800.844	22842.03
801.175	22915.7
801.506	22798.41
801.837	22652.2
802.168	22603.84
802.499	22506.22
802.83	22487.46
803.161	22390.29
803.491	22388.71
803.822	22313.9
804.153	22248.14
804.483	22134.25
804.814	21981.26
805.145	21965.89
805.475	21920.47
805.805	21912.79
806.136	21883.41
806.466	21840.7
806.796	21799.34
807.126	21594.83
807.457	21531.78
807.787	21616.75
808.117	21287.27
808.447	21333.82
808.777	21388.73
809.107	21245.01
809.436	21160.49
809.766	21308.96
810.096	21065.8
810.426	21097.44
810.755	20970.66
811.085	20958.46
811.414	20866.94
811.744	20779.48
812.073	20653.38
812.403	20764.34
812.732	20539.49
813.061	20552.82
813.39	20504.91
813.719	20449.32
814.049	20462.2
814.378	20303.34
814.707	20218.82
815.036	20282.77
815.365	20132.95
815.693	19904.93
816.022	20026.73
816.351	19946.74
816.68	19806.63
817.008	19868.09
817.337	19740.64
817.665	19628.1
817.994	19782.22
818.322	19644.37
818.651	19624.26
818.979	19585.39
819.307	19603.47
819.636	19566.86
819.964	19405.51
820.292	19482.11
820.62	19490.02
820.948	19370.93
821.276	19337.03
821.604	19405.96
821.932	19346.3
822.259	19414.09
822.587	19276.24
822.915	19243.93
823.243	19396.24
823.57	19335
823.898	19243.93
824.225	19149.69
824.553	19297.49
824.88	19268.56
825.207	19299.75
825.535	19246.41
825.862	19304.49
826.189	19247.54
826.516	19312.63
826.843	19389.69
827.17	19208.9
827.497	19258.84
827.824	19282.57
828.151	19297.26
828.478	19271.27
828.805	19188.56
829.131	19262.01
829.458	19304.94
829.785	19199.41
830.111	19133.2
830.438	19287.32
830.764	19253.19
831.09	19198.05
831.417	19063.14
831.743	19194.44
832.069	19112.86
832.395	19062.92
832.722	19084.16
833.048	19000.32
833.374	19124.61
833.7	19002.58
834.026	19022.01
834.351	19048.68
834.677	18966.65
835.003	18980.21
835.329	18999.87
835.654	18908.12
835.98	18843.71
836.306	18863.6
836.631	18749.93
836.956	18797.61
837.282	18854.11
837.607	18789.03
837.932	18740.21
838.258	18672.19
838.583	18701.8
838.908	18531.41
839.233	18634.68
839.558	18550.16
839.883	18490.28
840.208	18451.41
840.533	18348.59
840.858	18403.27
841.182	18328.47
841.507	18360.56
841.832	18223.84
842.156	18260.45
842.481	18177.97
842.805	18125.31
843.13	18142.26
843.454	18090.06
843.778	18036.5
844.103	17971.87
844.427	17918.99
844.751	17914.25
845.075	17917.18
845.399	17892.1
845.723	17694.82
846.047	17696.63
846.371	17580.47
846.695	17587.48
847.019	17467.48
847.343	17398.1
847.666	17296.18
847.99	17262.06
848.313	17208.05
848.637	17074.04
848.96	17069.75
849.284	16952.92
849.607	16855.07
849.931	16853.26
850.254	16680.83
850.577	16683.54
850.9	16573.26
851.223	16539.59
851.546	16401.97
851.869	16326.49
852.192	16477.67
852.515	16229.32
852.838	16137.57
853.161	16223.22
853.483	16036.78
853.806	16010.12
854.129	15952.04
854.451	16067.06
854.774	15835.66
855.096	15776.45
855.419	15748.88
855.741	15684.7
856.063	15602.44
856.385	15667.98
856.708	15502.11
857.03	15508.66
857.352	15543.46
857.674	15471.37
857.996	15393.18
858.318	15295.11
858.64	15283.13
858.961	15254.66
859.283	15239.74
859.605	15105.51
859.926	15170.14
860.248	15073.42
860.57	14984.83
860.891	15015.11
861.212	14859.64
861.534	14817.6
861.855	14898.05
862.176	14953.87
862.498	14926.08
862.819	14932.4
863.14	14843.37
863.461	14798.17
863.782	14704.16
864.103	14733.77
864.424	14610.38
864.745	14682.02
865.065	14597.72
865.386	14574.22
865.707	14549.36
866.027	14552.07
866.348	14469.37
866.668	14492.19
866.989	14442.47
867.309	14315.92
867.63	14409.03
867.95	14351.63
868.27	14271.18
868.59	14332.65
868.91	14316.37
869.23	14217.62
869.55	14116.15
869.87	14244.51
870.19	14109.6
870.51	14212.87
870.83	14191.18
871.15	14102.82
871.469	14093.78
871.789	14164.51
872.109	14087.68
872.428	13989.15
872.748	14028.7
873.067	13993.22
873.386	14009.94
873.706	13920.68
874.025	13891.75
874.344	13925.2
874.663	13829.16
874.982	13858.08
875.301	13793
875.62	13734.7
875.939	13719.78
876.258	13713.23
876.577	13757.29
876.896	13694.02
877.214	13621.7
877.533	13624.87
877.852	13578.32
878.17	13625.32
878.489	13635.04
878.807	13540.8
879.125	13516.17
879.444	13538.77
879.762	13499.9
880.08	13383.97
880.398	13401.14
880.716	13501.48
881.034	13313.24
881.352	13339.9
881.67	13339
881.988	13270.3
882.306	13328.6
882.624	13217.19
882.941	13162.06
883.259	13117.99
883.577	13148.5
883.894	13066.24
884.212	13085.9
884.529	13082.06
884.846	12962.29
885.164	12951.44
885.481	12893.36
885.798	13018.33
886.115	12856.3
886.432	12922.97
886.75	12798
887.067	12849.52
887.383	12765
887.7	12807.04
888.017	12661.96
888.334	12712.58
888.651	12596.42
888.967	12518
889.284	12542.41
889.6	12501.51
889.917	12491.11
890.233	12506.71
890.55	12428.06
890.866	12426.71
891.182	12349.87
891.498	12325.47
891.815	12282.08
892.131	12198.24
892.447	12164.79
892.763	12189.88
893.079	12100.16
893.395	12158.01
893.71	12003.89
894.026	12009.09
894.342	12044.12
894.657	11968.41
894.973	11872.6
895.289	11824.24
895.604	11843.67
895.92	11731.36
896.235	11737.69
896.55	11718.48
896.865	11678.93
897.181	11668.76
897.496	11662.21
897.811	11556.9
898.126	11421.99
898.441	11455.43
898.756	11426.06
899.071	11403.23
899.386	11367.53
899.7	11316.23
900.015	11226.29
900.33	11183.35
900.644	11177.25
900.959	11170.02
901.273	11162.11
901.588	11016.35
901.902	10986.75
902.216	10959.85
902.531	10960.08
902.845	10913.3
903.159	10840.99
903.473	10753.98
903.787	10750.37
904.101	10672.85
904.415	10657.94
904.729	10598.51
905.042	10584.5
905.356	10573.87
905.67	10480.77
905.984	10503.37
906.297	10494.78
906.611	10369.81
906.924	10452.3
907.237	10273.32
907.551	10262.92
907.864	10290.04
908.177	10248.69
908.491	10193.09
908.804	10112.42
909.117	10029.71
909.43	10028.8
909.743	9999.88
910.056	10001.91
910.368	9927.34
910.681	9893.67
910.994	9812.09
911.307	9780.68
911.619	9737.51
911.932	9697.97
912.244	9649.38
912.557	9673.11
912.869	9583.62
913.181	9544.52
913.494	9562.83
913.806	9516.5
914.118	9473.56
914.43	9328.26
914.742	9401.7
915.054	9275.38
915.366	9244.64
915.678	9261.14
915.99	9227.47
916.302	9179.56
916.613	9096.63
916.925	9107.7
917.236	8987.48
917.548	9027.47
917.859	9046.01
918.171	8920.58
918.482	8860.93
918.794	8813.92
919.105	8800.36
919.416	8754.71
919.727	8736.41
920.038	8764.88
920.349	8646.92
920.66	8626.36
920.971	8588.16
921.282	8614.83
921.593	8509.07
921.903	8447.38
922.214	8436.76
922.525	8395.17
922.835	8387.94
923.146	8314.27
923.456	8355.85
923.767	8249.64
924.077	8293.03
924.387	8246.48
924.697	8155.86
925.008	8123.54
925.318	8121.06
925.628	8026.14
925.938	8077.44
926.248	8019.14
926.558	7928.97
926.867	7982.3
927.177	7853.04
927.487	7843.1
927.796	7759.71
928.106	7784.57
928.416	7671.8
928.725	7696.21
929.034	7655.76
929.344	7648.08
929.653	7637.45
929.962	7539.6
930.271	7533.28
930.581	7455.54
930.89	7399.95
931.199	7395.43
931.508	7365.37
931.817	7323.11
932.125	7335.99
932.434	7360.17
932.743	7238.14
933.051	7217.58
933.36	7240.85
933.669	7163.79
933.977	7085.6
934.286	7114.3
934.594	7108.2
934.902	7031.82
935.21	6989.11
935.519	6960.86
935.827	7022.56
936.135	6883.12
936.443	6879.28
936.751	6831.83
937.059	6792.51
937.367	6745.27
937.674	6758.61
937.982	6764.48
938.29	6658.05
938.597	6681.32
938.905	6637.25
939.213	6592.51
939.52	6567.43
939.827	6639.74
940.135	6552.96
940.442	6479.97
940.749	6484.72
941.056	6453.53
941.363	6363.59
941.67	6411.5
941.977	6340.54
942.284	6281.33
942.591	6295.57
942.898	6302.35
943.205	6282.91
943.511	6242.91
943.818	6164.95
944.125	6088.57
944.431	6122.24
944.738	6101.45
945.044	6124.05
945.35	6030.94
945.657	6014.45
945.963	5987.1
946.269	5940.55
946.575	5936.26
946.881	5934.9
947.187	5904.62
947.493	5830.72
947.799	5819.42
948.105	5839.54
948.41	5792.31
948.716	5767
949.022	5731.74
949.327	5708.47
949.633	5668.24
949.938	5656.49
950.244	5623.04
950.549	5616.04
950.854	5574.46
951.16	5525.19
951.465	5492.43
951.77	5519.54
952.075	5478.64
952.38	5427.34
952.685	5452.88
952.99	5416.72
953.294	5355.71
953.599	5384.41
953.904	5356.84
954.209	5304.41
954.513	5254.24
954.818	5281.58
955.122	5243.17
955.426	5208.82
955.731	5171.53
956.035	5191.87
956.339	5138.54
956.643	5143.06
956.948	5088.14
957.252	5101.02
957.556	5077.97
957.86	5035.04
958.163	5017.41
958.467	4979.9
958.771	4974.25
959.075	4979.67
959.378	4910.75
959.682	4943.51
959.985	4876.4
960.289	4859.22
960.592	4847.47
960.896	4794.14
961.199	4832.33
961.502	4776.06
961.805	4762.95
962.108	4702.39
962.411	4701.49
962.714	4699.23
963.017	4660.36
963.32	4646.57
963.623	4620.58
963.926	4603.64
964.228	4636.63
964.531	4605.67
964.833	4567.03
965.136	4523.19
965.438	4525.67
965.741	4470.08
966.043	4477.54
966.345	4430.53
966.648	4419.91
966.95	4441.83
967.252	4343.53
967.554	4397.54
967.856	4350.31
968.158	4286.36
968.46	4280.03
968.761	4287.03
969.063	4229.86
969.365	4258.79
969.666	4202.29
969.968	4160.03
970.269	4160.71
970.571	4150.54
970.872	4137.66
971.174	4120.48
971.475	4104.21
971.776	4087.94
972.077	4071.67
972.378	4040.71
972.679	4035.06
972.98	4015.85
973.281	3972.24
973.582	3998.91
973.883	3954.84
974.183	3960.26
974.484	3950.32
974.785	3901.51
975.085	3911.68
975.386	3863.77
975.686	3926.59
975.986	3865.58
976.287	3845.92
976.587	3789.87
976.887	3795.97
977.187	3792.58
977.487	3769.99
977.787	3781.51
978.087	3706.26
978.387	3690.21
978.687	3709.65
978.987	3642.98
979.286	3637.33
979.586	3662.87
979.885	3628.97
980.185	3605.7
980.484	3593.95
980.784	3580.61
981.083	3583.32
981.382	3550.56
981.682	3529.54
981.981	3488.41
982.28	3472.14
982.579	3490.44
982.878	3440.05
983.177	3473.04
983.475	3455.19
983.774	3404.57
984.073	3400.96
984.372	3333.16
984.67	3353.05
984.969	3358.7
985.267	3319.6
985.566	3333.16
985.864	3325.48
986.162	3294.97
986.461	3278.02
986.759	3233.73
987.057	3238.93
987.355	3212.94
987.653	3246.61
987.951	3210.23
988.249	3167.74
988.547	3205.25
988.844	3146.27
989.142	3140.85
989.44	3115.31
989.737	3128.87
990.035	3080.06
990.332	3047.29
990.63	3074.41
990.927	3081.87
991.224	3056.56
991.521	3002.1
991.819	3022.21
992.116	3000.97
992.413	3007.52
992.71	2936.56
993.006	2943.57
993.303	2943.11
993.6	2916.45
993.897	2896.11
994.193	2934.75
994.49	2892.72
994.787	2854.98
995.083	2838.03
995.379	2836.68
995.676	2811.82
995.972	2816.11
996.268	2780.63
996.565	2758.94
996.861	2774.76
997.157	2739.5
997.453	2734.76
997.749	2729.56
998.044	2695.89
998.34	2688.21
998.636	2687.75
998.932	2616.8
999.227	2659.96
999.523	2618.15
999.818	2638.26
1000.114	2617.02
1000.409	2624.03
1000.704	2569.57
1001	2567.31
1001.295	2522.79
1001.59	2580.19
1001.885	2547.19
1002.18	2494.09
1002.475	2465.61
1002.77	2474.43
1003.065	2457.25
1003.359	2453.86
1003.654	2423.81
1003.949	2457.03
1004.243	2399.85
1004.538	2370.25
1004.832	2378.16
1005.127	2370.25
1005.421	2339.29
1005.715	2344.03
1006.009	2325.28
1006.304	2301.1
1006.598	2311.72
1006.892	2259.29
1007.186	2292.74
1007.48	2285.96
1007.773	2233.08
1008.067	2231.49
1008.361	2217.48
1008.655	2212.06
1008.948	2170.03
1009.242	2172.06
1009.535	2137.94
1009.829	2133.64
1010.122	2138.16
1010.415	2130.25
1010.708	2113.08
1011.001	2073.76
1011.295	2095.45
1011.588	2060.65
1011.881	2061.56
1012.173	2029.01
1012.466	2012.29
1012.759	2042.12
1013.052	1980.65
1013.344	2012.07
1013.637	1963.93
1013.93	1973.65
1014.222	1955.57
1014.514	1960.77
1014.807	1939.07
1015.099	1923.71
1015.391	1936.14
1015.683	1902.92
1015.976	1895.91
1016.268	1886.19
1016.56	1870.15
1016.851	1842.13
1017.143	1844.16
1017.435	1813.88
1017.727	1831.28
1018.018	1787.89
1018.31	1798.74
1018.602	1775.69
1018.893	1758.06
1019.185	1770.26
1019.476	1762.13
1019.767	1733.88
1020.058	1733.2
1020.35	1689.14
1020.641	1695.69
1020.932	1682.13
1021.223	1677.84
1021.514	1673.32
1021.804	1637.61
1022.095	1659.08
1022.386	1629.93
1022.677	1634.45
1022.967	1618.63
1023.258	1599.42
1023.548	1581.34
1023.839	1570.27
1024.129	1559.65
1024.419	1566.65
1024.709	1537.73
1025	1532.53
1025.29	1529.82
1025.58	1513.55
1025.87	1508.58
1026.16	1506.09
1026.449	1505.41
1026.739	1461.35
1027.029	1451.85
1027.319	1451.18
1027.608	1428.13
1027.898	1424.74
1028.187	1431.52
1028.477	1453.21
1028.766	1393.32
1029.055	1401.01
1029.344	1375.47
1029.634	1389.48
1029.923	1388.13
1030.212	1358.98
1030.501	1347.68
1030.79	1334.8
1031.078	1318.75
1031.367	1324.17
1031.656	1308.13
1031.945	1304.06
1032.233	1310.62
1032.522	1281.92
1032.81	1238.75
1033.099	1253.44
1033.387	1277.17
1033.675	1245.08
1033.963	1235.36
1034.251	1253.67
1034.54	1231.75
1034.828	1243.95
1035.116	1232.65
1035.403	1204.18
1035.691	1193.56
1035.979	1202.82
1036.267	1169.38
1036.554	1158.53
1036.842	1167.12
1037.129	1160.56
1037.417	1122.15
1037.704	1142.03
1037.992	1131.18
1038.279	1121.02
1038.566	1107.23
1038.853	1107.23
1039.14	1107.23
