Data from white_wall_FLMS001491_077.txt Node
Date: Tue Feb 07 11:05:46 GMT 2017
User: dcchb
Spectrometer: FLMS00149
Trigger mode: 0
Integration Time (sec): 2.000000E-2
Scans to average: 10
Electric dark correction enabled: true
Nonlinearity correction enabled: false
Boxcar width: 0
XAxis mode: Wavelengths
Number of Pixels in Spectrum: 2048
>>>>>Begin Spectral Data<<<<<
341.393	6.12
341.776	6.12
342.16	6.12
342.543	-68.91
342.927	-63.94
343.31	-49.7
343.693	-56.93
344.077	-59.87
344.46	-76.82
344.843	-55.35
345.226	-40.89
345.61	-33.21
345.993	-18.97
346.376	-6.77
346.759	8.6
347.142	29.84
347.525	33.91
347.908	42.5
348.291	82.27
348.674	105.77
349.057	95.6
349.44	121.14
349.823	143.74
350.206	164.08
350.588	213.79
350.971	232.32
351.354	257.41
351.737	239.78
352.119	268.71
352.502	267.58
352.884	300.12
353.267	297.18
353.65	307.8
354.032	328.82
354.414	311.19
354.797	326.11
355.179	311.19
355.562	330.85
355.944	357.07
356.326	333.56
356.709	362.04
357.091	339.89
357.473	370.85
357.855	356.16
358.238	365.2
358.62	356.39
359.002	352.55
359.384	348.93
359.766	361.81
360.148	336.05
360.53	347.35
360.912	338.76
361.294	348.71
361.676	353
362.057	359.78
362.439	343.73
362.821	343.96
363.203	348.71
363.584	325.88
363.966	340.12
364.348	341.93
364.729	358.65
365.111	338.99
365.493	347.58
365.874	331.98
366.256	340.34
366.637	330.85
367.019	333.11
367.4	346.67
367.781	319.1
368.163	338.08
368.544	317.07
368.925	327.46
369.306	331.76
369.688	321.81
370.069	319.33
370.45	329.72
370.831	344.86
371.212	337.18
371.593	336.05
371.974	345.99
372.355	330.17
372.736	353
373.117	343.73
373.498	330.63
373.879	355.03
374.26	339.89
374.641	304.64
375.021	322.72
375.402	349.16
375.783	324.98
376.163	348.93
376.544	353.45
376.925	345.54
377.305	346.45
377.686	337.63
378.066	347.8
378.447	362.94
378.827	355.49
379.208	377.41
379.588	361.81
379.968	361.13
380.349	360
380.729	357.29
381.109	369.95
381.489	372.43
381.87	357.52
382.25	377.63
382.63	373.56
383.01	332.89
383.39	367.24
383.77	377.18
384.15	405.88
384.53	381.02
384.91	382.6
385.29	369.5
385.67	374.47
386.049	396.84
386.429	408.14
386.809	389.38
387.189	400.68
387.568	424.64
387.948	400.23
388.328	391.64
388.707	419.66
389.087	423.51
389.466	440.91
389.846	440.45
390.225	452.66
390.605	427.12
390.984	442.26
391.363	477.06
391.743	460.57
392.122	486.33
392.501	447.69
392.881	482.94
393.26	488.59
393.639	474.35
394.018	487.01
394.397	508.25
394.776	492.43
395.155	541.02
395.534	510.51
395.913	512.32
396.292	536.95
396.671	540.11
397.05	549.15
397.429	551.19
397.808	553.67
398.186	573.56
398.565	567.91
398.944	560.68
399.323	584.41
399.701	585.76
400.08	606.1
400.458	614.01
400.837	631.41
401.215	643.84
401.594	633.22
401.972	656.27
402.351	677.51
402.729	672.31
403.107	702.37
403.486	708.02
403.864	708.24
404.242	731.75
404.62	738.07
404.999	748.24
405.377	743.72
405.755	751.41
406.133	798.19
406.511	809.48
406.889	808.13
407.267	843.16
407.645	878.64
408.023	869.82
408.401	882.48
408.779	888.35
409.156	905.75
409.534	890.61
409.912	935.81
410.29	936.03
410.667	986.43
411.045	976.03
411.422	1006.09
411.8	999.54
412.178	1019.87
412.555	1050.38
412.933	1082.25
413.31	1093.09
413.687	1107.1
414.065	1100.78
414.442	1094.45
414.819	1118.85
415.197	1129.25
415.574	1170.38
415.951	1192.75
416.328	1207.89
416.705	1208.12
417.082	1215.58
417.46	1214.22
417.837	1251.05
418.214	1273.2
418.591	1277.72
418.967	1294.44
419.344	1282.69
419.721	1332.41
420.098	1324.27
420.475	1359.53
420.852	1355.01
421.228	1365.85
421.605	1388.45
421.982	1399.07
422.358	1433.2
422.735	1439.98
423.111	1450.37
423.488	1471.61
423.864	1489.69
424.241	1514.78
424.617	1512.74
424.994	1502.57
425.37	1531.5
425.746	1520.43
426.123	1561.55
426.499	1604.72
426.875	1590.25
427.251	1638.39
427.627	1674.55
428.003	1675.9
428.379	1695.79
428.756	1716.13
429.132	1777.59
429.507	1744.6
429.883	1776.69
430.259	1832.51
430.635	1819.63
431.011	1844.03
431.387	1876.8
431.763	1923.58
432.138	1926.74
432.514	1961.32
432.89	1950.25
433.265	2002.9
433.641	2049.68
434.016	2057.81
434.392	2072.5
434.767	2132.39
435.143	2125.83
435.518	2160.86
435.894	2178.26
436.269	2246.51
436.644	2247.64
437.02	2273.85
437.395	2295.55
437.77	2296.9
438.145	2329.44
438.52	2380.29
438.895	2373.74
439.271	2394.98
439.646	2447.41
440.021	2499.84
440.395	2550.91
440.77	2450.12
441.145	2496.67
441.52	2555.2
441.895	2549.33
442.27	2572.15
442.645	2578.48
443.019	2626.84
443.394	2619.83
443.769	2669.55
444.143	2658.25
444.518	2727.17
444.892	2713.16
445.267	2738.25
445.641	2747.29
446.016	2754.74
446.39	2842.88
446.764	2858.02
447.139	2804.01
447.513	2878.13
447.887	2887.4
448.262	2877.23
448.636	2926.04
449.01	2980.27
449.384	3003.32
449.758	3034.74
450.132	3066.37
450.506	3053.49
450.88	3075.87
451.254	3127.84
451.628	3149.08
452.002	3201.51
452.376	3230.89
452.75	3281.06
453.123	3293.71
453.497	3324.22
453.871	3372.35
454.244	3407.83
454.618	3444.67
454.992	3499.58
455.365	3486.02
455.739	3594.5
456.112	3626.13
456.486	3655.06
456.859	3668.17
457.232	3727.6
457.606	3803.3
457.979	3828.84
458.352	3885.34
458.725	3961.04
459.099	3977.31
459.472	4050.53
459.845	4093.69
460.218	4102.05
460.591	4120.58
460.964	4186.57
461.337	4276.96
461.71	4346.79
462.083	4445.09
462.456	4396.51
462.829	4472.44
463.201	4543.4
463.574	4578.42
463.947	4662.72
464.32	4775.48
464.692	4775.93
465.065	4830.17
465.438	4903.16
465.81	4966.21
466.183	5022.48
466.555	5122.59
466.928	5140.22
467.3	5148.13
467.672	5261.12
468.045	5401.68
468.417	5421.34
468.789	5405.52
469.161	5531.39
469.534	5664.05
469.906	5737.94
470.278	5802.35
470.65	5847.77
471.022	5983.59
471.394	6062.91
471.766	6138.38
472.138	6261.09
472.51	6340.86
472.882	6456.79
473.253	6506.28
473.625	6618.37
473.997	6767.75
474.369	6816.78
474.74	6865.14
475.112	7000.51
475.484	7140.17
475.855	7258.35
476.227	7320.73
476.598	7585.13
476.97	7684.11
477.341	7796.42
477.713	7907.6
478.084	7977.88
478.455	8170.87
478.827	8297.88
479.198	8506.68
479.569	8560.02
479.94	8834.13
480.311	8883.85
480.682	9104.41
481.053	9340.56
481.424	9462.59
481.795	9501.69
482.166	9730.83
482.537	9801.34
482.908	10014.67
483.279	10178.28
483.65	10319.52
484.021	10594.09
484.391	10643.58
484.762	10854.19
485.133	10858.49
485.503	11006.05
485.874	11359.94
486.244	11427.06
486.615	11589.99
486.985	11749.08
487.356	12026.82
487.726	12171.9
488.097	12325.34
488.467	12393.13
488.837	12660.7
489.207	12860.01
489.578	13041.71
489.948	13105.66
490.318	13342.71
490.688	13331.42
491.058	13559.43
491.428	13822.02
491.798	13902.7
492.168	14297.94
492.538	14230.37
492.908	14464.72
493.278	14643.24
493.648	14719.18
494.017	14891.83
494.387	15057.7
494.757	15200.07
495.126	15382.66
495.496	15436.44
495.866	15543.79
496.235	15785.81
496.605	15948.3
496.974	15993.94
497.344	16174.96
497.713	16333.14
498.082	16417.89
498.452	16621.95
498.821	16659.01
499.19	16738.56
499.559	17002.28
499.928	17007.02
500.298	17214.02
500.667	17385.09
501.036	17395.94
501.405	17538.54
501.774	17534.24
502.143	17797.96
502.512	17914.12
502.88	17975.59
503.249	18153.21
503.618	18292.41
503.987	18384.39
504.356	18590.26
504.724	18587.32
505.093	18747.09
505.462	18883.13
505.83	19141.88
506.199	19276.34
506.567	19431.82
506.936	19449.45
507.304	19789.1
507.672	19762.88
508.041	19918.13
508.409	20071.8
508.777	20281.06
509.145	20417.78
509.514	20488.97
509.882	20654.84
510.25	20677.21
510.618	20946.36
510.986	21073.13
511.354	21164.66
511.722	21461.6
512.09	21728.48
512.458	21695.71
512.826	21907.01
513.193	21988.81
513.561	22090.73
513.929	22274.23
514.297	22524.17
514.664	22649.36
515.032	22697.95
515.4	23020.2
515.767	23073.98
516.135	23236.92
516.502	23025.17
516.869	23594.2
517.237	23691.37
517.604	23742.21
517.972	23943.34
518.339	24229.43
518.706	24261.52
519.073	24481.86
519.44	24696.99
519.808	24870.77
520.175	24877.1
520.542	25183.98
520.909	25307.6
521.276	25332.68
521.643	25712.78
522.009	26004.08
522.376	26110.29
522.743	26364.97
523.11	26447
523.477	26787.33
523.843	26880.44
524.21	27188.68
524.577	27432.06
524.943	27462.34
525.31	27690.81
525.676	28002.67
526.043	27969.67
526.409	28193.85
526.776	28572.82
527.142	28495.31
527.508	28761.97
527.874	29053.71
528.241	29109.08
528.607	29298.45
528.973	29584.1
529.339	29495.28
529.705	29804.43
530.071	30054.82
530.437	30168.49
530.803	30313.79
531.169	30519.44
531.535	30462.94
531.901	30759.66
532.267	30932.99
532.632	31121.23
532.998	31209.36
533.364	31482.58
533.73	31572.74
534.095	31738.61
534.461	31934.09
534.826	32030.58
535.192	32084.59
535.557	32291.14
535.923	32401.87
536.288	32559.61
536.653	32735.88
537.019	32696.78
537.384	32836.44
537.749	33042.54
538.114	33065.59
538.479	33101.74
538.845	33341.06
539.21	33235.75
539.575	33566.36
539.94	33759.35
540.305	33875.73
540.67	33903.08
541.034	34007.71
541.399	34197.53
541.764	34434.81
542.129	34509.84
542.494	34605.21
542.858	34783.73
543.223	34815.6
543.587	35002.48
543.952	35019.43
544.316	35118.19
544.681	35160.22
545.045	35375.13
545.41	35545.52
545.774	35742.58
546.138	35670.94
546.503	35819.19
546.867	35988.45
547.231	36261.43
547.595	36352.05
547.959	36512.73
548.324	36597.47
548.688	36655.32
549.052	36840.4
549.416	36996.1
549.779	37147.29
550.143	37285.36
550.507	37531.68
550.871	37558.35
551.235	37692.81
551.599	37925.34
551.962	37959.47
552.326	38186.81
552.689	38496.63
553.053	38476.29
553.417	38535.27
553.78	39072.21
554.143	38980.01
554.507	39023.39
554.87	39177.29
555.234	39582.48
555.597	39460.22
555.96	39757.61
556.323	39789.48
556.686	39925.74
557.05	40379.52
557.413	40378.61
557.776	40396.01
558.139	40908.54
558.502	40934.98
558.865	41054.53
559.228	41384.91
559.59	41423.11
559.953	41611.8
560.316	41962.3
560.679	42030.1
561.041	42398.67
561.404	42481.16
561.767	42709.63
562.129	42574.49
562.492	43160.91
562.854	43009.28
563.217	43121.59
563.579	43449.04
563.941	43531.07
564.304	43687
564.666	43947.79
565.028	44013.77
565.39	44254.44
565.753	44422.57
566.115	44434.33
566.477	44656.92
566.839	44841.32
567.201	45121.99
567.563	45062.78
567.925	45371.02
568.287	45418.71
568.648	45546.39
569.01	45768.3
569.372	46069.76
569.734	45767.17
570.095	46262.75
570.457	46481.05
570.819	46427.72
571.18	46607.38
571.542	46689.18
571.903	46580.71
572.265	47016.63
572.626	46930.98
572.987	47173.01
573.349	47339.11
573.71	47447.58
574.071	47527.13
574.432	47668.14
574.794	47863.84
575.155	47827.23
575.516	47783.62
575.877	47926.44
576.238	48052.76
576.599	48181.8
576.96	48276.71
577.32	48249.82
577.681	48284.62
578.042	48532.52
578.403	48373.88
578.763	48377.27
579.124	48510.15
579.485	48612.3
579.845	48836.47
580.206	48741.56
580.566	48778.39
580.927	48761.44
581.287	48880.31
581.648	48784.27
582.008	48936.35
582.368	48838.5
582.728	48957.37
583.089	48994.43
583.449	48914.21
583.809	49015
584.169	49053.64
584.529	49035.56
584.889	49365.5
585.249	49017.03
585.609	49033.53
585.969	49147.2
586.329	49059.74
586.688	49188.78
587.048	49162.34
587.408	49076.46
587.768	49147.65
588.127	49142.68
588.487	49013.64
588.846	49368.21
589.206	49137.71
589.565	49175.22
589.925	49405.72
590.284	49252.73
590.643	49256.57
591.003	49267.19
591.362	49515.32
591.721	49287.53
592.08	49358.26
592.44	49402.78
592.799	49439.39
593.158	49326.17
593.517	49284.82
593.876	49422.9
594.235	49289.34
594.593	49335.44
594.952	49479.62
595.311	49347.87
595.67	49473.52
596.029	49701.98
596.387	49584.7
596.746	49591.48
597.104	49523.23
597.463	49458.83
597.822	49686.84
598.18	49516.68
598.538	49604.59
598.897	49840.74
599.255	49536.34
599.613	49953.28
599.972	49714.64
600.33	49877.57
600.688	49618.6
601.046	49840.96
601.404	50003.22
601.762	49871.92
602.12	49916.22
602.478	50096.78
602.836	50037.79
603.194	49737.24
603.552	49994.41
603.91	49905.59
604.268	50034.86
604.625	49957.57
604.983	50207.73
605.341	49906.27
605.698	50167.28
606.056	50356.43
606.413	50227.62
606.771	50357.79
607.128	50369.54
607.485	50262.87
607.843	50299.71
608.2	50548.29
608.557	50660.15
608.914	50542.19
609.272	50625.58
609.629	50634.39
609.986	50831.45
610.343	50557.78
610.7	50813.14
611.057	50798.68
611.414	50804.78
611.771	50720.26
612.127	50856.3
612.484	50792.58
612.841	51013.59
613.198	50832.35
613.554	50978.56
613.911	51128.61
614.267	51120.93
614.624	51057.88
614.98	51251.55
615.337	51270.53
615.693	51212.45
616.05	51121.16
616.406	51364.99
616.762	51227.37
617.118	51286.35
617.475	51275.05
617.831	51468.04
618.187	51425.1
618.543	51496.74
618.899	51602.05
619.255	51624.19
619.611	51456.06
619.967	51708.26
620.323	51721.14
620.678	51583.29
621.034	51530.41
621.39	51555.95
621.746	51583.97
622.101	51900.34
622.457	51690.18
622.812	51647.47
623.168	51811.08
623.523	51715.72
623.879	51869.61
624.234	51636.62
624.589	51755.49
624.945	51823.51
625.3	51769.5
625.655	51644.98
626.01	51708.03
626.365	51866.45
626.72	51800.91
627.075	51782.38
627.43	51671.42
627.785	51643.4
628.14	51695.15
628.495	51722.72
628.85	51699.67
629.205	51620.13
629.559	51804.08
629.914	51481.37
630.269	51597.75
630.623	51530.64
630.978	51459.68
631.332	51595.72
631.687	51621.03
632.041	51594.14
632.396	51529.51
632.75	51418.32
633.104	51423.29
633.459	51375.61
633.813	51316.4
634.167	51274.82
634.521	51278.21
634.875	51310.53
635.229	51206.13
635.583	51078.67
635.937	51092.46
636.291	51103.08
636.645	51079.12
636.999	50905.79
637.352	51087.94
637.706	50838.45
638.06	51028.05
638.413	50794.16
638.767	50843.42
639.121	50814.27
639.474	50659.47
639.828	50661.96
640.181	50812.92
640.534	50708.06
640.888	50566.37
641.241	50476.2
641.594	50548.06
641.947	50637.1
642.301	50384
642.654	50481.85
643.007	50456.54
643.36	50401.17
643.713	50394.85
644.066	50532.47
644.419	50226.04
644.771	50075.99
645.124	49692.94
645.477	49718.25
645.83	49393.29
646.182	49180.64
646.535	49177.93
646.888	49156.69
647.24	49012.51
647.593	49259.51
647.945	49081.66
648.298	48847.77
648.65	48775
649.002	48798.28
649.355	48863.81
649.707	48915.56
650.059	49046.41
650.411	49407.3
650.763	49490.92
651.115	49810.23
651.467	49783.79
651.819	49653.85
652.171	49616.56
652.523	49529.33
652.875	49546.51
653.227	49387.87
653.578	49681.65
653.93	49349
654.282	49310.13
654.633	49182.68
654.985	49309.9
655.337	49222
655.688	49268.78
656.039	49407.75
656.391	49075.33
656.742	49117.37
657.094	49161.89
657.445	49239.85
657.796	49090.25
658.147	49003.25
658.498	49061.32
658.849	49041.44
659.2	48956.47
659.551	48940.42
659.902	49051.15
660.253	48913.98
660.604	48904.72
660.955	48700.2
661.306	48844.38
661.656	48773.42
662.007	48800.54
662.358	48797.38
662.708	48791.27
663.059	48852.51
663.409	48500.66
663.76	48824.72
664.11	48698.17
664.461	48735
664.811	48752.63
665.161	48523.48
665.511	48457.05
665.862	48673.08
666.212	48696.13
666.562	48690.26
666.912	48504.73
667.262	48537.27
667.612	48628.11
667.962	48773.42
668.312	48509.47
668.662	48550.83
669.011	48499.98
669.361	48497.04
669.711	48411.4
670.06	48350.83
670.41	48454.56
670.76	48207.11
671.109	48437.38
671.459	48336.82
671.808	48215.47
672.157	48136.83
672.507	48075.81
672.856	48068.13
673.205	47997.85
673.554	48164.17
673.904	47962.59
674.253	48137.51
674.602	47912.65
674.951	47384.76
675.3	47284.87
675.649	47877.4
675.998	47924.86
676.346	47905.65
676.695	47998.3
677.044	47628.82
677.393	47719.66
677.741	47879.89
678.09	47543.62
678.438	47608.71
678.787	47737.29
679.135	47534.36
679.484	47321.93
679.832	47491.65
680.181	47355.38
680.529	47356.06
680.877	47368.03
681.225	47178.21
681.573	47522.15
681.922	47029.74
682.27	47081.49
682.618	47030.87
682.966	46910.65
683.314	46976.86
683.661	46745
684.009	46530.99
684.357	46359.25
684.705	46474.27
685.053	46577.09
685.4	46427.27
685.748	46182.53
686.095	46220.49
686.443	46047.84
686.79	45942.53
687.138	46176.65
687.485	45975.98
687.832	45918.35
688.18	45777.12
688.527	45704.35
688.874	45551.36
689.221	45398.37
689.568	45320.63
689.915	45125.61
690.262	45249.45
690.609	45252.84
690.956	45052.16
691.303	44964.93
691.65	44811.94
691.997	44791.38
692.344	44390.71
692.69	44457.6
693.037	44522.46
693.383	44239.98
693.73	44383.93
694.077	44124.73
694.423	44136.71
694.769	43913.44
695.116	43860.56
695.462	43900.1
695.808	43600.68
696.155	43633.67
696.501	43460.11
696.847	43408.59
697.193	43205.21
697.539	43336.28
697.885	42974.93
698.231	42962.95
698.577	42766.12
698.923	42796.4
699.269	42611.55
699.614	42340.14
699.96	42363.42
700.306	42325.23
700.651	41988.06
700.997	41935.41
701.342	41950.1
701.688	41849.76
702.033	41741.97
702.379	41705.13
702.724	41653.38
703.069	41679.6
703.415	41235.54
703.76	41249.1
704.105	41359.6
704.45	41168.2
704.795	40918.26
705.14	40971.14
705.485	40761.2
705.83	40617.7
706.175	40702.9
706.52	40489.34
706.865	40327.77
707.209	40435.79
707.554	40191.5
707.899	40344.49
708.243	40080.32
708.588	40102.01
708.932	39815.92
709.277	39758.97
709.621	39755.8
709.966	39536.6
710.31	39586.54
710.654	39279.43
710.998	39427.68
711.342	39379.54
711.687	39225.2
712.031	39056.16
712.375	38973.45
712.719	39088.03
713.063	38978.65
713.407	38959.44
713.75	38789.73
714.094	38769.84
714.438	38693.01
714.782	38686.91
715.125	38378.21
715.469	38522.39
715.812	38456.63
716.156	38172.12
716.499	38283.53
716.843	38205.56
717.186	37795.63
717.53	38135.06
717.873	38114.49
718.216	38093.02
718.559	37814.16
718.902	37420.05
719.246	37609.87
719.589	37359.48
719.932	37340.28
720.275	37422.98
720.617	37325.36
720.96	37086.95
721.303	37382.08
721.646	37260.5
721.989	36984.13
722.331	37187.96
722.674	37107.06
723.016	36965.6
723.359	36973.28
723.701	36948.65
724.044	36715.21
724.386	36602.22
724.729	36749.33
725.071	36740.97
725.413	36655.1
725.755	36543.23
726.097	36388.66
726.439	36324.26
726.782	36285.61
727.124	36360.19
727.465	36145.28
727.807	36264.15
728.149	36093.3
728.491	35939.18
728.833	36176.92
729.175	35879.97
729.516	35862.8
729.858	35849.24
730.199	35909.8
730.541	35683.14
730.882	35658.74
731.224	35748
731.565	35449.48
731.906	35538.97
732.248	35471.62
732.589	35349.59
732.93	35156.6
733.271	35217.62
733.612	35197.51
733.953	35356.82
734.294	35078.41
734.635	34852.43
734.976	35021.47
735.317	34908.7
735.658	34759.1
735.999	34886.78
736.339	34777.4
736.68	34907.12
737.021	34729.5
737.361	34536.06
737.702	34800.46
738.042	34487.02
738.383	34466.23
738.723	34677.52
739.063	34323.63
739.404	34435.27
739.744	34201.37
740.084	34308.26
740.424	34329.96
740.764	34152.79
741.104	34191.88
741.444	34169.06
741.784	34064.66
742.124	34254.25
742.464	33999.57
742.804	33784.66
743.143	33849.29
743.483	33798
743.823	33630.54
744.162	33620.15
744.502	33709.86
744.841	33469.42
745.181	33635.29
745.52	33545.12
745.86	33490.43
746.199	33482.98
746.538	33333.15
746.877	33342.19
747.216	33197.56
747.556	33177.45
747.895	33113.27
748.234	32994.17
748.573	32857.68
748.911	32962.76
749.25	32990.79
749.589	32751.7
749.928	32842.99
750.267	32798.93
750.605	32614.3
750.944	32607.97
751.283	32403.68
751.621	32553.28
751.96	32390.12
752.298	32328.88
752.636	32337.92
752.975	32205.04
753.313	32006.63
753.651	32157.36
753.989	31994.65
754.327	31986.97
754.666	31899.97
755.004	31770.7
755.342	31933.86
755.679	31669.69
756.017	31501.33
756.355	31577.04
756.693	31501.33
757.031	31408.68
757.368	31294.56
757.706	31176.82
758.044	31103.38
758.381	31092.53
758.719	31018.18
759.056	30983.61
759.394	30947.9
759.731	30749.26
760.068	30703.16
760.405	30537.29
760.743	30451.19
761.08	30633.11
761.417	30295.04
761.754	30257.07
762.091	30290.07
762.428	30110.63
762.765	29863.41
763.102	30010.3
763.438	29816.63
763.775	29619.8
764.112	29641.04
764.449	29673.36
764.785	29515.62
765.122	29260.26
765.458	29338.68
765.795	29324.89
766.131	29187.5
766.467	29126.48
766.804	28900.05
767.14	28786.6
767.476	28822.99
767.812	28582.54
768.148	28600.62
768.485	28548.42
768.821	28422.32
769.157	28379.61
769.492	28235.2
769.828	28179.16
770.164	27938.26
770.5	27860.98
770.836	27779.4
771.171	27719.96
771.507	27508.44
771.842	27475.9
772.178	27463.02
772.513	27319.75
772.849	27194.55
773.184	27151.84
773.519	27137.83
773.855	26973.09
774.19	26849.93
774.525	26736.03
774.86	26725.87
775.195	26642.25
775.53	26543.72
775.865	26368.36
776.2	26263.5
776.535	26143.51
776.87	26038.65
777.205	25974.02
777.539	25952.1
777.874	25894.47
778.209	25670.98
778.543	25590.75
778.878	25499.46
779.212	25501.94
779.547	25438.22
779.881	25416.97
780.215	25210.42
780.55	25221.72
780.884	25007.04
781.218	24898.34
781.552	24969.75
781.886	24804.33
782.22	24705.35
782.554	24671.23
782.888	24398.24
783.222	24295.87
783.556	24254.74
783.889	24131.58
784.223	24010.91
784.557	24048.87
784.89	24025.82
785.224	23915.77
785.557	23689.56
785.891	23718.03
786.224	23587.19
786.558	23563.69
786.891	23406.18
787.224	23365.5
787.557	23184.04
787.891	23232.4
788.224	23239.63
788.557	23102.91
788.89	23008
789.223	22933.87
789.556	22803.48
789.888	22879.64
790.221	22776.59
790.554	22423.38
790.887	22593.09
791.219	22483.04
791.552	22400.56
791.884	22280.33
792.217	22184.74
792.549	22140.67
792.882	21991.3
793.214	21936.16
793.546	21928.93
793.879	21764.64
794.211	21619.78
794.543	21691.42
794.875	21590.86
795.207	21670.63
795.539	21424.31
795.871	21480.35
796.203	21322.62
796.535	21102.96
796.867	21154.03
797.198	21043.08
797.53	21049.86
797.862	20890.76
798.193	21029.07
798.525	20832.23
798.856	20930.76
799.188	20646.25
799.519	20615.97
799.85	20539.59
800.182	20462.98
800.513	20452.36
800.844	20340.5
801.175	20425.92
801.506	20299.59
801.837	20152.93
802.168	20166.04
802.499	20052.59
802.83	19877.01
803.161	19933.73
803.491	19824.58
803.822	19766.73
804.153	19794.75
804.483	19675.65
804.814	19521.53
805.145	19516.11
805.475	19499.61
805.805	19431.14
806.136	19335.32
806.466	19350.47
806.796	19292.84
807.126	19091.72
807.457	19129.23
807.787	19142.11
808.117	18998.61
808.447	18958.61
808.777	19088.33
809.107	18921.1
809.436	18801.78
809.766	18828.67
810.096	18719.75
810.426	18622.8
810.755	18672.74
811.085	18659.86
811.414	18544.39
811.744	18469.81
812.073	18440.43
812.403	18458.96
812.732	18296.26
813.061	18254.45
813.39	18165.41
813.719	18186.65
814.049	18282.47
814.378	18177.16
814.707	18024.17
815.036	18105.98
815.365	17945.3
815.693	17806.78
816.022	17895.14
816.351	17731.3
816.68	17650.17
817.008	17632.77
817.337	17492.21
817.665	17411.08
817.994	17578.76
818.322	17480.01
818.651	17482.72
818.979	17346.45
819.307	17382.38
819.636	17325.66
819.964	17343.29
820.292	17303.29
820.62	17288.37
820.948	17169.96
821.276	17319.78
821.604	17257.41
821.932	17226.45
822.259	17248.6
822.587	17152.56
822.915	17173.8
823.243	17256.74
823.57	17246.34
823.898	17235.04
824.225	17085.44
824.553	17141.26
824.88	17060.81
825.207	17103.97
825.535	17051.32
825.862	17155.04
826.189	17077.53
826.516	17105.55
826.843	17147.36
827.17	17186.91
827.497	17134.48
827.824	17211.99
828.151	17117.08
828.478	17211.09
828.805	17109.85
829.131	17129.51
829.458	17089.96
829.785	17002.5
830.111	17096.29
830.438	17182.39
830.764	17135.61
831.09	17143.29
831.417	16972.22
831.743	16930.87
832.069	17004.99
832.395	16880.93
832.722	17012.9
833.048	16956.18
833.374	17075.95
833.7	16903.52
834.026	16979.45
834.351	17017.42
834.677	16831.66
835.003	16968.16
835.329	16816.52
835.654	16889.29
835.98	16814.94
836.306	16891.55
836.631	16704.21
836.956	16801.15
837.282	16760.93
837.607	16689.97
837.932	16749.18
838.258	16663.98
838.583	16569.52
838.908	16478.22
839.233	16563.19
839.558	16538.34
839.883	16435.97
840.208	16353.03
840.533	16405.23
840.858	16414.95
841.182	16437.32
841.507	16353.26
841.832	16251.34
842.156	16240.04
842.481	16205.46
842.805	16233.03
843.13	16240.94
843.454	16179.02
843.778	16083.89
844.103	16044.11
844.427	16057.45
844.751	15984.9
845.075	15981.06
845.399	15855.19
845.723	15885.02
846.047	15813.16
846.371	15666.49
846.695	15739.26
847.019	15539.72
847.343	15478.48
847.666	15438.93
847.99	15373.85
848.313	15377.01
848.637	15252.49
848.96	15235.32
849.284	15203.91
849.607	15070.35
849.931	15045.72
850.254	14927.08
850.577	14920.98
850.9	14778.83
851.223	14773.64
851.546	14685.28
851.869	14599.86
852.192	14610.93
852.515	14496.58
852.838	14394.66
853.161	14411.16
853.483	14373.65
853.806	14356.47
854.129	14258.62
854.451	14243.26
854.774	14166.2
855.096	14076.03
855.419	14053.66
855.741	14037.84
856.063	14015.24
856.385	13936.82
856.708	13911.06
857.03	13796.04
857.352	13840.33
857.674	13829.03
857.996	13729.14
858.318	13668.13
858.64	13621.58
858.961	13679.2
859.283	13484.41
859.605	13519.43
859.926	13591.52
860.248	13484.86
860.57	13413.9
860.891	13416.38
861.212	13423.16
861.534	13403.73
861.855	13267.46
862.176	13233.11
862.498	13314.24
862.819	13316.73
863.14	13171.42
863.461	13167.35
863.782	13118.54
864.103	13138.65
864.424	13097.3
864.745	13069.73
865.065	12997.64
865.386	12908.6
865.707	12903.63
866.027	12906.57
866.348	12845.55
866.668	12910.41
866.989	12885.55
867.309	12805.1
867.63	12887.58
867.95	12866.79
868.27	12689.62
868.59	12799
868.91	12750.64
869.23	12741.15
869.55	12662.73
869.87	12745.89
870.19	12628.61
870.51	12732.79
870.83	12656.63
871.15	12574.82
871.469	12482.85
871.789	12566.92
872.109	12447.6
872.428	12504.32
872.748	12473.13
873.067	12468.16
873.386	12483.53
873.706	12452.12
874.025	12408.05
874.344	12338.9
874.663	12399.01
874.982	12350.2
875.301	12310.42
875.62	12265.45
875.939	12340.03
876.258	12280.37
876.577	12260.71
876.896	12192.46
877.214	12176.42
877.533	12212.57
877.852	12191.11
878.17	12157.89
878.489	12234.27
878.807	12156.3
879.125	12036.99
879.444	12088.96
879.762	12049.64
880.08	11998.12
880.398	11964.45
880.716	12013.48
881.034	11925.12
881.352	11953.6
881.67	11833.15
881.988	11913.37
882.306	11845.13
882.624	11856.2
882.941	11722.42
883.259	11699.82
883.577	11708.86
883.894	11689.42
884.212	11661.63
884.529	11661.4
884.846	11601.52
885.164	11644.45
885.481	11617.79
885.798	11535.53
886.115	11464.35
886.432	11407.85
886.75	11417.12
887.067	11421.18
887.383	11341.41
887.7	11373.73
888.017	11283.56
888.334	11284.69
888.651	11321.3
888.967	11258.93
889.284	11168.08
889.6	11124.69
889.917	11087.41
890.233	11163.79
890.55	11066.39
890.866	11055.54
891.182	11041.76
891.498	10937.58
891.815	10891.71
892.131	10924.47
892.447	10893.51
892.763	10843.12
893.079	10790.01
893.395	10764.7
893.71	10737.36
894.026	10713.63
894.342	10710.69
894.657	10620.75
894.973	10679.73
895.289	10578.04
895.604	10527.65
895.92	10446.97
896.235	10412.85
896.55	10487.42
896.865	10499.4
897.181	10401.77
897.496	10438.16
897.811	10336.24
898.126	10251.5
898.441	10267.77
898.756	10241.78
899.071	10194.77
899.386	10150.48
899.7	10084.04
900.015	10117.04
900.33	9959.53
900.644	9958.62
900.959	9978.51
901.273	9958.4
901.588	9843.82
901.902	9823.03
902.216	9783.03
902.531	9775.12
902.845	9724.05
903.159	9692.19
903.473	9631.85
903.787	9673.88
904.101	9544.85
904.415	9617.84
904.729	9567.67
905.042	9421.46
905.356	9432.08
905.67	9413.55
905.984	9423.72
906.297	9378.52
906.611	9274.8
906.924	9327.68
907.237	9270.96
907.551	9212.2
907.864	9152.99
908.177	9121.36
908.491	9164.52
908.804	9075.03
909.117	9048.36
909.43	8989.16
909.743	8920.91
910.056	8886.56
910.368	8862.15
910.681	8833.23
910.994	8855.37
911.307	8768.15
911.619	8698.99
911.932	8725.66
912.244	8670.07
912.557	8662.39
912.869	8557.98
913.181	8534.25
913.494	8490.64
913.806	8485.89
914.118	8412.45
914.43	8353.92
914.742	8369.74
915.054	8409.28
915.366	8350.76
915.678	8336.29
915.99	8224.2
916.302	8214.94
916.613	8182.4
916.925	8147.14
917.236	8104.21
917.548	8051.33
917.859	8075.73
918.171	7974.04
918.482	7973.59
918.794	7910.77
919.105	7916.19
919.416	7859.69
919.727	7850.66
920.038	7824.67
920.349	7723.65
920.66	7697.21
920.971	7708.06
921.282	7687.27
921.593	7602.07
921.903	7522.53
922.214	7508.52
922.525	7533.38
922.835	7529.99
923.146	7446.37
923.456	7408.86
923.767	7433.72
924.077	7334.96
924.387	7383.77
924.697	7299.26
925.008	7276.66
925.318	7241.86
925.628	7173.61
925.938	7191.69
926.248	7092.71
926.558	7094.06
926.867	7108.75
927.177	7076.44
927.487	7058.13
927.796	6973.39
928.106	6958.7
928.416	6922.09
928.725	6877.8
929.034	6843
929.344	6872.6
929.653	6865.6
929.962	6827.18
930.271	6763
930.581	6711.7
930.89	6699.72
931.199	6644.13
931.508	6657.69
931.817	6647.97
932.125	6597.81
932.434	6603.68
932.743	6568.43
933.051	6490.69
933.36	6490.24
933.669	6442.1
933.977	6404.37
934.286	6361.65
934.594	6449.34
934.902	6316.01
935.21	6325.72
935.519	6225.16
935.827	6276.01
936.135	6199.4
936.443	6164.82
936.751	6117.82
937.059	6152.85
937.367	6081.89
937.674	6123.69
937.982	6060.42
938.29	6024.49
938.597	6012.74
938.905	5989.69
939.213	5921.44
939.52	5949.24
939.827	5900.88
940.135	5866.53
940.442	5860.88
940.749	5852.97
941.056	5783.14
941.363	5734.1
941.67	5748.79
941.977	5712.63
942.284	5665.4
942.591	5670.15
942.898	5705.4
943.205	5695.46
943.511	5617.49
943.818	5638.74
944.125	5549.47
944.431	5556.03
944.738	5544.95
945.044	5498.63
945.35	5417.5
945.657	5402.58
945.963	5422.7
946.269	5370.95
946.575	5356.03
946.881	5326.65
947.187	5345.64
947.493	5273.1
947.799	5283.27
948.105	5252.53
948.41	5199.65
948.716	5234.23
949.022	5174.57
949.327	5140.22
949.633	5076.04
949.938	5098.41
950.244	5052.76
950.549	5016.61
950.854	5040.79
951.16	5007.79
951.465	4977.28
951.77	5004.85
952.075	4969.15
952.38	4940
952.685	4882.15
952.99	4869.49
953.294	4822.94
953.599	4828.14
953.904	4831.53
954.209	4821.81
954.513	4811.64
954.818	4780.45
955.122	4786.1
955.426	4743.62
955.731	4695.26
956.035	4662.72
956.339	4679.67
956.643	4613.9
956.948	4611.19
957.252	4607.58
957.556	4584.07
957.86	4548.82
958.163	4565.32
958.467	4535.26
958.771	4563.74
959.075	4511.31
959.378	4458.88
959.682	4459.33
959.985	4376.4
960.289	4353.12
960.592	4365.1
960.896	4350.41
961.199	4327.81
961.502	4300.92
961.805	4319.45
962.108	4273.12
962.411	4300.69
962.714	4222.73
963.017	4216.63
963.32	4247.59
963.623	4175.72
963.926	4208.04
964.228	4166.68
964.531	4110.64
964.833	4119
965.136	4111.54
965.438	4082.17
965.741	4062.96
966.043	4046.46
966.345	4003.52
966.648	4030.87
966.95	4009.4
967.252	3986.12
967.554	3979.34
967.856	3964.66
968.158	3934.83
968.46	3915.17
968.761	3854.38
969.063	3827.03
969.365	3863.87
969.666	3801.5
969.968	3798.56
970.269	3810.99
970.571	3791.55
970.872	3727.37
971.174	3750.42
971.475	3737.32
971.776	3729.18
972.077	3720.14
972.378	3732.8
972.679	3682.18
972.98	3671.78
973.281	3632.01
973.582	3620.26
973.883	3589.3
974.183	3577.77
974.484	3566.93
974.785	3562.63
975.085	3556.98
975.386	3539.36
975.686	3506.59
975.986	3518.34
976.287	3481.5
976.587	3465.23
976.887	3433.14
977.187	3448.96
977.487	3436.08
977.787	3422.3
978.087	3396.99
978.387	3367.61
978.687	3332.81
978.987	3306.14
979.286	3338.68
979.586	3279.93
979.885	3288.97
980.185	3277.67
980.484	3279.25
980.784	3243.77
981.083	3216.65
981.382	3218.46
981.682	3223.43
981.981	3184.56
982.28	3182.3
982.579	3159.48
982.878	3120.84
983.177	3106.6
983.475	3143.66
983.774	3081.52
984.073	3097.56
984.372	3043.1
984.67	3047.62
984.969	3023.44
985.267	3018.24
985.566	3030.89
985.864	2998.35
986.162	3005.13
986.461	2995.64
986.759	2963.55
987.057	2943.44
987.355	2953.61
987.653	2880.84
987.951	2873.84
988.249	2868.64
988.547	2873.61
988.844	2882.65
989.142	2838.58
989.44	2843.33
989.737	2858.02
990.035	2791.35
990.332	2757.46
990.63	2778.7
990.927	2761.75
991.224	2762.43
991.521	2770.56
991.819	2729.89
992.116	2725.82
992.413	2720.17
992.71	2733.5
993.006	2682.88
993.303	2686.5
993.6	2651.02
993.897	2665.71
994.193	2652.6
994.49	2665.25
994.787	2627.29
995.083	2594.3
995.379	2590.91
995.676	2553.39
995.972	2517.01
996.268	2533.05
996.565	2526.28
996.861	2520.17
997.157	2522.66
997.453	2503.68
997.749	2465.03
998.044	2462.32
998.34	2439.5
998.636	2427.52
998.932	2418.71
999.227	2385.49
999.523	2416.22
999.818	2408.76
1000.114	2419.16
1000.409	2368.77
1000.704	2351.14
1001	2366.28
1001.295	2329.9
1001.59	2304.59
1001.885	2310.69
1002.18	2318.37
1002.475	2270.24
1002.77	2268.43
1003.065	2262.55
1003.359	2208.32
1003.654	2227.3
1003.949	2183.91
1004.243	2201.99
1004.538	2185.04
1004.832	2192.5
1005.127	2168.09
1005.421	2174.19
1005.715	2129
1006.009	2124.7
1006.304	2137.81
1006.598	2115.44
1006.892	2103.46
1007.186	2059.85
1007.48	2121.54
1007.773	2078.6
1008.067	2035.67
1008.361	2007.19
1008.655	2049
1008.948	2004.93
1009.242	2002.45
1009.535	2007.87
1009.829	1993.63
1010.122	1968.32
1010.415	1958.38
1010.708	1967.42
1011.001	1912.51
1011.295	1895.11
1011.588	1938.49
1011.881	1882.9
1012.173	1891.26
1012.466	1900.08
1012.759	1865.05
1013.052	1855.33
1013.344	1853.98
1013.637	1856.91
1013.93	1832.51
1014.222	1823.24
1014.514	1805.39
1014.807	1767.65
1015.099	1787.76
1015.391	1783.47
1015.683	1757.48
1015.976	1762.23
1016.268	1742.79
1016.56	1741.21
1016.851	1719.52
1017.143	1735.11
1017.435	1692.85
1017.727	1675.45
1018.018	1656.92
1018.31	1658.5
1018.602	1648.56
1018.893	1646.98
1019.185	1638.16
1019.476	1616.47
1019.767	1576.02
1020.058	1611.72
1020.35	1605.62
1020.641	1579.63
1020.932	1548.9
1021.223	1528.79
1021.514	1528.79
1021.804	1518.39
1022.095	1522.91
1022.386	1477.26
1022.677	1540.31
1022.967	1486.53
1023.258	1469.13
1023.548	1481.56
1023.839	1479.3
1024.129	1482.24
1024.419	1435.46
1024.709	1443.14
1025	1425.74
1025.29	1427.32
1025.58	1422.8
1025.87	1405.17
1026.16	1368.57
1026.449	1368.79
1026.739	1350.49
1027.029	1372.63
1027.319	1349.13
1027.608	1351.39
1027.898	1327.21
1028.187	1315.91
1028.477	1289.47
1028.766	1330.6
1029.055	1273.88
1029.344	1299.19
1029.634	1279.98
1029.923	1268.23
1030.212	1236.59
1030.501	1269.59
1030.79	1216.25
1031.078	1246.99
1031.367	1232.07
1031.656	1225.29
1031.945	1240.66
1032.233	1171.28
1032.522	1203.6
1032.81	1204.73
1033.099	1161.11
1033.387	1154.79
1033.675	1151.85
1033.963	1152.53
1034.251	1154.11
1034.54	1131.06
1034.828	1132.19
1035.116	1117.05
1035.403	1118.63
1035.691	1096.71
1035.979	1092.87
1036.267	1076.82
1036.554	1079.08
1036.842	1077.05
1037.129	1080.66
1037.417	1041.79
1037.704	1051.74
1037.992	1058.52
1038.279	1069.36
1038.566	1051.96
1038.853	1051.96
1039.14	1051.96
