Data from white_steel_sheet_FLMS001491_033.txt Node
Date: Tue Feb 07 10:57:45 GMT 2017
User: dcchb
Spectrometer: FLMS00149
Trigger mode: 0
Integration Time (sec): 2.000000E-2
Scans to average: 10
Electric dark correction enabled: true
Nonlinearity correction enabled: false
Boxcar width: 0
XAxis mode: Wavelengths
Number of Pixels in Spectrum: 2048
>>>>>Begin Spectral Data<<<<<
341.393	4.1
341.776	4.1
342.16	4.1
342.543	-39.07
342.927	-54.89
343.31	-70.25
343.693	-66.18
344.077	-61.67
344.46	-68.9
344.843	-46.3
345.226	-33.19
345.61	-30.25
345.993	-28.9
346.376	-0.2
346.759	12.91
347.142	28.05
347.525	59.46
347.908	35.06
348.291	62.85
348.674	97.65
349.057	109.86
349.44	141.49
349.823	137.43
350.206	174.94
350.588	221.94
350.971	229.17
351.354	218.55
351.737	240.02
352.119	246.58
352.502	273.24
352.884	277.31
353.267	277.76
353.65	312.11
354.032	297.42
354.414	307.36
354.797	304.88
355.179	325.44
355.562	326.12
355.944	335.16
356.326	340.13
356.709	338.78
357.091	354.37
357.473	347.14
357.855	355.95
358.238	348.27
358.62	338.78
359.002	356.86
359.384	328.83
359.766	341.71
360.148	357.76
360.53	360.24
360.912	321.15
361.294	335.84
361.676	323.86
362.057	308.95
362.439	337.65
362.821	332.22
363.203	322.96
363.584	332.9
363.966	353.92
364.348	320.7
364.729	336.74
365.111	335.61
365.493	317.31
365.874	317.76
366.256	332.45
366.637	340.81
367.019	347.14
367.4	321.15
367.781	329.74
368.163	335.84
368.544	326.57
368.925	297.87
369.306	321.38
369.688	332.22
370.069	324.09
370.45	342.84
370.831	330.64
371.212	335.84
371.593	322.96
371.974	332.67
372.355	316.63
372.736	316.63
373.117	325.44
373.498	331.32
373.879	336.74
374.26	345.1
374.641	334.71
375.021	347.36
375.402	349.17
375.783	322.51
376.163	356.63
376.544	349.62
376.925	355.5
377.305	324.99
377.686	354.6
378.066	343.52
378.447	357.76
378.827	344.88
379.208	343.97
379.588	357.76
379.968	355.05
380.349	354.37
380.729	364.31
381.109	358.66
381.489	356.86
381.87	361.15
382.25	365.67
382.63	362.96
383.01	372
383.39	369.28
383.77	392.56
384.15	365.89
384.53	381.49
384.91	401.6
385.29	355.05
385.67	374.03
386.049	392.11
386.429	387.81
386.809	414.93
387.189	380.13
387.568	396.18
387.948	366.8
388.328	398.21
388.707	409.73
389.087	403.63
389.466	395.72
389.846	422.62
390.225	408.83
390.605	424.88
390.984	428.04
391.363	426.01
391.743	435.05
392.122	432.11
392.501	431.66
392.881	449.96
393.26	435.95
393.639	449.96
394.018	457.42
394.397	427.81
394.776	466
395.155	473.24
395.534	495.83
395.913	467.36
396.292	498.55
396.671	491.99
397.05	496.96
397.429	497.19
397.808	519.79
398.186	511.2
398.565	482.28
398.944	513.46
399.323	521.37
399.701	538.55
400.08	536.51
400.458	533.12
400.837	545.55
401.215	561.14
401.594	581.71
401.972	566.34
402.351	578.09
402.729	595.04
403.107	616.06
403.486	585.55
403.864	602.95
404.242	600.01
404.62	640.69
404.999	638.66
405.377	649.05
405.755	681.37
406.133	654.47
406.511	666.23
406.889	699.44
407.267	687.24
407.645	695.6
408.023	705.55
408.401	715.72
408.779	734.7
409.156	765.21
409.534	766.11
409.912	792.32
410.29	776.28
410.667	796.39
411.045	813.11
411.422	840.46
411.8	813.57
412.178	843.85
412.555	850.18
412.933	856.28
413.31	886.11
413.687	866.45
414.065	904.64
414.442	911.87
414.819	910.51
415.197	935.82
415.574	917.97
415.951	959.33
416.328	955.48
416.705	971.53
417.082	996.61
417.46	963.84
417.837	994.35
418.214	1004.3
418.591	1034.58
418.967	1039.77
419.344	1020.34
419.721	1058.31
420.098	1044.29
420.475	1065.54
420.852	1087.91
421.228	1106.89
421.605	1117.29
421.982	1144.18
422.358	1133.33
422.735	1131.98
423.111	1148.47
423.488	1155.03
423.864	1204.97
424.241	1184.4
424.617	1214.46
424.994	1209.94
425.37	1221.24
425.746	1224.85
426.123	1247
426.499	1239.54
426.875	1269.15
427.251	1296.72
427.627	1305.76
428.003	1319.77
428.379	1331.74
428.756	1352.99
429.132	1355.92
429.507	1397.51
429.883	1416.04
430.259	1412.87
430.635	1444.06
431.011	1463.94
431.387	1501.91
431.763	1516.6
432.138	1511.4
432.514	1530.38
432.89	1567.44
433.265	1573.55
433.641	1612.19
434.016	1609.7
434.392	1618.74
434.767	1668.23
435.143	1679.76
435.518	1671.62
435.894	1706.2
436.269	1742.58
436.644	1719.31
437.02	1764.5
437.395	1786.87
437.77	1831.84
438.145	1826.87
438.52	1824.84
438.895	1861.45
439.271	1928.79
439.646	1940.54
440.021	1919.98
440.395	1981.67
440.77	1944.61
441.145	1976.93
441.52	1999.07
441.895	2030.48
442.27	2040.65
442.645	2040.88
443.019	2039.52
443.394	2047.21
443.769	2091.5
444.143	2067.09
444.518	2117.26
444.892	2121.1
445.267	2152.06
445.641	2170.14
446.016	2154.77
446.39	2201.33
446.764	2247.43
447.139	2232.74
447.513	2245.39
447.887	2295.34
448.262	2256.24
448.636	2298.5
449.01	2328.78
449.384	2356.35
449.758	2373.75
450.132	2385.28
450.506	2368.1
450.88	2409
451.254	2409.23
451.628	2446.07
452.002	2488.32
452.376	2457.59
452.75	2522.67
453.123	2532.84
453.497	2592.28
453.871	2588.66
454.244	2645.38
454.618	2693.97
454.992	2726.06
455.365	2713.18
455.739	2759.73
456.112	2770.35
456.486	2802.44
456.859	2871.37
457.232	2914.53
457.606	2918.37
457.979	2954.07
458.352	3023.45
458.725	3079.04
459.099	3074.07
459.472	3149.55
459.845	3164.24
460.218	3199.04
460.591	3198.36
460.964	3210.34
461.337	3304.35
461.71	3356.1
462.083	3406.27
462.456	3405.81
462.829	3422.99
463.201	3521.52
463.574	3512.48
463.947	3516.77
464.32	3627.73
464.692	3658.69
465.065	3699.59
465.438	3714.96
465.81	3780.27
466.183	3829.76
466.555	3881.28
466.928	3923.09
467.3	3913.15
467.672	4004.67
468.045	4114.72
468.417	4060.94
468.789	4130.32
469.161	4159.69
469.534	4264.1
469.906	4339.58
470.278	4353.36
470.65	4403.53
471.022	4502.73
471.394	4587.25
471.766	4627.48
472.138	4705.89
472.51	4762.16
472.882	4810.3
473.253	4893.46
473.625	4950.18
473.997	5074.02
474.369	5119.22
474.74	5111.98
475.112	5211.42
475.484	5303.39
475.855	5437.4
476.227	5444.63
476.598	5568.92
476.97	5713.55
477.341	5772.08
477.713	5827.22
478.084	5913.77
478.455	6040.55
478.827	6125.06
479.198	6283.93
479.569	6318.51
479.94	6511.95
480.311	6551.27
480.682	6622
481.053	6805.27
481.424	6932.05
481.795	6900.41
482.166	7073.74
482.537	7202.1
482.908	7382.21
483.279	7414.75
483.65	7615.2
484.021	7692.71
484.391	7829.65
484.762	7885.92
485.133	7922.31
485.503	8080.72
485.874	8238.91
486.244	8316.87
486.615	8504.44
486.985	8599.8
487.356	8725.45
487.726	8826.69
488.097	9068.04
488.467	9051.09
488.837	9245.43
489.207	9317.07
489.578	9493.56
489.948	9524.07
490.318	9668.7
490.688	9702.82
491.058	9889.71
491.428	10034.57
491.798	10089.93
492.168	10314.11
492.538	10351.62
492.908	10457.83
493.278	10616.92
493.648	10687.66
494.017	10753.42
494.387	10943.24
494.757	11025.73
495.126	11056.46
495.496	11182.33
495.866	11232.95
496.235	11387.07
496.605	11484.02
496.974	11547.3
497.344	11705.26
497.713	11742.77
498.082	11833.39
498.452	11989.54
498.821	12061.41
499.19	12042.42
499.559	12213.94
499.928	12397.44
500.298	12434.28
500.667	12604.44
501.036	12501.62
501.405	12714.95
501.774	12726.02
502.143	12822.97
502.512	12834.72
502.88	13036.75
503.249	12990.87
503.618	13110.87
503.987	13226.8
504.356	13357.87
504.724	13363.74
505.093	13479.45
505.462	13504.08
505.83	13670.63
506.199	13843.96
506.567	13969.6
506.936	13939.77
507.304	14126.66
507.672	14287.11
508.041	14357.62
508.409	14440.1
508.777	14562.13
509.145	14649.13
509.514	14699.53
509.882	14846.87
510.25	14814.78
510.618	15060.65
510.986	15072.63
511.354	15244.83
511.722	15425.39
512.09	15558.04
512.458	15538.38
512.826	15728.88
513.193	15744.92
513.561	15823.34
513.929	15942.43
514.297	16121.64
514.664	16242.54
515.032	16307.85
515.4	16561.4
515.767	16555.07
516.135	16677.56
516.502	16591.23
516.869	17011.56
517.237	17047.49
517.604	17000.49
517.972	17281.16
518.339	17411.55
518.706	17422.17
519.073	17492.9
519.44	17656.06
519.808	17876.85
520.175	17878.65
520.542	18099.89
520.909	18250.85
521.276	18319.09
521.643	18476.38
522.009	18611.97
522.376	18762.02
522.743	18976.25
523.11	19115.91
523.477	19258.5
523.843	19393.87
524.21	19594.77
524.577	19746.18
524.943	19806.29
525.31	19971.03
525.676	20131.02
526.043	20352.04
526.409	20460.96
526.776	20612.14
527.142	20723.55
527.508	20912.25
527.874	21028.4
528.241	21121.28
528.607	21133.71
528.973	21422.74
529.339	21442.63
529.705	21700.93
530.071	21869.06
530.437	21941.82
530.803	22056.17
531.169	22311.53
531.535	22232.66
531.901	22318.76
532.267	22473.56
532.632	22538.42
532.998	22716.27
533.364	22825.64
533.73	22898.41
534.095	23081
534.461	23171.17
534.826	23257.27
535.192	23368.23
535.557	23714.66
535.923	23647.99
536.288	23619.07
536.653	23836.46
537.019	23773.41
537.384	24072.39
537.749	24069.23
538.114	24198.26
538.479	24180.64
538.845	24341.76
539.21	24356.22
539.575	24523.23
539.94	24528.87
540.305	24668.76
540.67	24675.54
541.034	24879.37
541.399	24951.91
541.764	24979.71
542.129	25194.62
542.494	25133.83
542.858	25283.21
543.223	25362.07
543.587	25564.55
543.952	25524.33
544.316	25687.71
544.681	25709.63
545.045	25847.48
545.41	25930.42
545.774	26088.16
546.138	26114.37
546.503	26247.93
546.867	26043.41
547.231	26382.61
547.595	26418.54
547.959	26475.49
548.324	26593.68
548.688	26616.05
549.052	26752.32
549.416	26889.26
549.779	26918.87
550.143	26952.09
550.507	27207.9
550.871	27216.94
551.235	27312.3
551.599	27491.06
551.962	27429.82
552.326	27575.8
552.689	27744.61
553.053	27716.59
553.417	27765.4
553.78	28091.94
554.143	28107.31
554.507	28244.26
554.87	28370.13
555.234	28565.15
555.597	28269.12
555.96	28430.24
556.323	28745.26
556.686	28730.35
557.05	28921.75
557.413	29048.53
557.776	29204.01
558.139	29354.06
558.502	29258.24
558.865	29465.02
559.228	29666.37
559.59	29764.22
559.953	29870.2
560.316	30182.96
560.679	30126.92
561.041	30240.59
561.404	30435.84
561.767	30671.76
562.129	30528.04
562.492	31075.37
562.854	30926.22
563.217	31019.55
563.579	31133.9
563.941	31284.86
564.304	31392.2
564.666	31478.07
565.028	31718.06
565.39	31698.86
565.753	31911.28
566.115	32079.64
566.477	32156.24
566.839	32345.39
567.201	32520.98
567.563	32452.51
567.925	32652.73
568.287	32517.37
568.648	32754.87
569.01	32946.05
569.372	33126.84
569.734	33068.09
570.095	33265.37
570.457	33500.84
570.819	33400.05
571.18	33541.29
571.542	33665.58
571.903	33788.07
572.265	33824.22
572.626	33963.88
572.987	34023.99
573.349	34049.3
573.71	34180.82
574.071	34194.61
574.432	34489.29
574.794	34579.01
575.155	34548.27
575.516	34523.87
575.877	34626.69
576.238	34764.09
576.599	34869.39
576.96	34858.55
577.32	34946.45
577.681	34968.37
578.042	35116.85
578.403	35005.66
578.763	35152.1
579.124	35206.79
579.485	35327.91
579.845	35321.59
580.206	35323.62
580.566	35417.63
580.927	35299.21
581.287	35624.18
581.648	35285.2
582.008	35446.33
582.368	35506.44
582.728	35536.04
583.089	35482.94
583.449	35355.48
583.809	35554.8
584.169	35620.79
584.529	35538.08
584.889	35861.01
585.249	35580.11
585.609	35378.76
585.969	35728.81
586.329	35512.09
586.688	35566.1
587.048	35708.69
587.408	35596.61
587.768	35566.78
588.127	35741.01
588.487	35588.25
588.846	35812.87
589.206	35592.09
589.565	35735.36
589.925	35776.71
590.284	35629.83
590.643	35685.19
591.003	35684.29
591.362	35774.68
591.721	35678.19
592.08	35715.02
592.44	35771.97
592.799	35712.99
593.158	35687.9
593.517	35711.63
593.876	35614.46
594.235	35739.2
594.593	35640.67
594.952	35783.95
595.311	35618.75
595.67	35801.57
596.029	35958.86
596.387	35832.76
596.746	35954.34
597.104	35750.95
597.463	35768.13
597.822	35988.46
598.18	35858.52
598.538	35791.4
598.897	36090.38
599.255	35675.47
599.613	36219.64
599.972	35945.07
600.33	36081.11
600.688	35881.8
601.046	35884.06
601.404	36204.27
601.762	36059.87
602.12	36141
602.478	36297.15
602.836	36298.96
603.194	35927.22
603.552	36054
603.91	36135.8
604.268	36181.22
604.625	36123.15
604.983	36224.84
605.341	36072.07
605.698	36235.46
606.056	36341.9
606.413	36271.16
606.771	36403.14
607.128	36396.13
607.485	36324.95
607.843	36239.53
608.2	36428
608.557	36578.95
608.914	36410.14
609.272	36650.82
609.629	36590.03
609.986	36838.38
610.343	36598.84
610.7	36769.91
611.057	36919.51
611.414	36738.72
611.771	36753.19
612.127	36980.52
612.484	36886.97
612.841	36917.25
613.198	36867.31
613.554	36993.41
613.911	37164.93
614.267	37123.57
614.624	37096.23
614.98	37107.08
615.337	37333.51
615.693	37244.02
616.05	37362.66
616.406	37392.27
616.762	37320.18
617.118	37236.34
617.475	37294.41
617.831	37442.66
618.187	37432.94
618.543	37522.43
618.899	37572.37
619.255	37499.16
619.611	37510.23
619.967	37688.3
620.323	37767.85
620.678	37501.19
621.034	37516.33
621.39	37468.87
621.746	37590.23
622.101	38044.45
622.457	37598.14
622.812	37710
623.168	37806.04
623.523	37767.85
623.879	37843.1
624.234	37672.03
624.589	37811.92
624.945	37843.55
625.3	37800.16
625.655	37813.05
626.01	37755.19
626.365	37873.38
626.72	37804.91
627.075	37647.85
627.43	37724.91
627.785	37622.54
628.14	37822.31
628.495	37885.81
628.85	37666.83
629.205	37453.05
629.559	37653.95
629.914	37583.67
630.269	37658.47
630.623	37630.9
630.978	37423.23
631.332	37679.49
631.687	37699.38
632.041	37537.12
632.396	37640.17
632.75	37425.71
633.104	37450.79
633.459	37299.84
633.813	37272.27
634.167	37262.1
634.521	37073.63
634.875	37318.82
635.229	37182.78
635.583	37078.83
635.937	36965.61
636.291	36995.44
636.645	36989.56
636.999	37011.71
637.352	37023.91
637.706	36751.38
638.06	36842.9
638.413	36747.76
638.767	36759.06
639.121	36706.86
639.474	36556.81
639.828	36531.27
640.181	36501.44
640.534	36476.36
640.888	36435
641.241	36192.3
641.594	36402.23
641.947	36436.58
642.301	36305.06
642.654	36314.33
643.007	36195.69
643.36	36045.63
643.713	36087.67
644.066	36374.21
644.419	35933.09
644.771	35751.63
645.124	35503.05
645.477	35475.03
645.83	35062.61
646.182	34953.91
646.535	34962.95
646.888	35089.95
647.24	34800.92
647.593	35010.86
647.945	34856.51
648.298	34772.67
648.65	34658.33
649.002	34611.77
649.355	34609.06
649.707	34629.17
650.059	34675.27
650.411	35130.86
650.763	35106.22
651.115	35631.86
651.467	35335.14
651.819	35402.26
652.171	35318.2
652.523	35060.8
652.875	35317.97
653.227	35038.65
653.578	35373.11
653.93	35215.15
654.282	35036.62
654.633	35111.87
654.985	35037.3
655.337	35123.4
655.688	34927.47
656.039	35019.22
656.391	34687.7
656.742	34766.57
657.094	34806.57
657.445	35017.41
657.796	34924.76
658.147	34716.4
658.498	34748.04
658.849	34706.46
659.2	34788.49
659.551	34507.82
659.902	34628.5
660.253	34481.16
660.604	34547.82
660.955	34389.63
661.306	34573.81
661.656	34394.15
662.007	34271.22
662.358	34243.42
662.708	34393.7
663.059	34166.59
663.409	33970.43
663.76	34403.87
664.11	34150.32
664.461	34055.86
664.811	34033.94
665.161	33881.62
665.511	33874.17
665.862	33857.67
666.212	33965.91
666.562	33904
666.912	33890.21
667.262	33631.69
667.612	33492.03
667.962	33532.93
668.312	33351.47
668.662	33541.75
669.011	33422.2
669.361	33229.66
669.711	33216.1
670.06	33047.07
670.41	32845.49
670.76	32880.07
671.109	32934.08
671.459	32792.84
671.808	32681.43
672.157	32779.05
672.507	32470.59
672.856	32496.8
673.205	32496.57
673.554	32497.93
673.904	32358.05
674.253	32612.73
674.602	32300.87
674.951	31791.73
675.3	31701.34
675.649	32170.48
675.998	32043.25
676.346	32177.49
676.695	32396.24
677.044	32033.99
677.393	32133.42
677.741	32097.94
678.09	31971.84
678.438	31918.29
678.787	31937.04
679.135	32121.67
679.484	31824.73
679.832	31968.68
680.181	31773.88
680.529	31910.15
680.877	31768.01
681.225	31610.5
681.573	31949.7
681.922	31787.89
682.27	31720.1
682.618	31748.57
682.966	31778.18
683.314	31911.05
683.661	31689.14
684.009	31640.33
684.357	31592.42
684.705	31531.85
685.053	31663.83
685.4	31544.28
685.748	31582.47
686.095	31593.55
686.443	31473.78
686.79	31448.69
687.138	31504.51
687.485	31627.45
687.832	31456.83
688.18	31623.83
688.527	31396.94
688.874	31554.45
689.221	31503.38
689.568	31625.64
689.915	31378.64
690.262	31422.25
690.609	31367.79
690.956	31202.37
691.303	31285.53
691.65	31088.7
691.997	31279.88
692.344	31090.06
692.69	31051.64
693.037	31236.72
693.383	30933.23
693.73	31042.38
694.077	30886.22
694.423	30952.66
694.769	30932.77
695.116	30836.96
695.462	30841.48
695.808	30673.35
696.155	30796.28
696.501	30612.78
696.847	30558.32
697.193	30324.43
697.539	30515.16
697.885	30196.75
698.231	30201.72
698.577	30279.68
698.923	30249.63
699.269	30081.5
699.614	29838.34
699.96	29869.98
700.306	30058.22
700.651	29772.35
700.997	29731.45
701.342	29687.38
701.688	29592.47
702.033	29624.33
702.379	29536.43
702.724	29360.39
703.069	29495.52
703.415	29121.3
703.76	29124.46
704.105	29215.31
704.45	29126.49
704.795	28918.36
705.14	28948.19
705.485	28856.44
705.83	28754.53
706.175	28824.81
706.52	28680.18
706.865	28599.73
707.209	28663.23
707.554	28450.58
707.899	28482.9
708.243	28444.7
708.588	28374.42
708.932	28217.14
709.277	28260.3
709.621	28226.4
709.966	28018.5
710.31	28072.96
710.654	27828.22
710.998	28020.08
711.342	27790.26
711.687	27716.14
712.031	27680.2
712.375	27632.52
712.719	27696.7
713.063	27531.51
713.407	27663.48
713.75	27492.41
714.094	27459.42
714.438	27310.5
714.782	27425.3
715.125	27296.26
715.469	27239.54
715.812	27117.51
716.156	27006.32
716.499	27078.86
716.843	27025.53
717.186	26763.17
717.53	26993.22
717.873	26983.73
718.216	26833.45
718.559	26778.08
718.902	26507.35
719.246	26544.64
719.589	26513.91
719.932	26447.92
720.275	26518.43
720.617	26422.16
720.96	26473.91
721.303	26330.86
721.646	26327.02
721.989	26162.73
722.331	26198.66
722.674	26091.32
723.016	26147.36
723.359	26162.73
723.701	26141.26
724.044	25930.65
724.386	25828.5
724.729	25986.01
725.071	25905.34
725.413	25874.15
725.755	25793.7
726.097	25696.3
726.439	25589.19
726.782	25662.86
727.124	25751.67
727.465	25556.87
727.807	25626.7
728.149	25447.72
728.491	25468.29
728.833	25422.86
729.175	25238.69
729.516	25333.15
729.858	25232.36
730.199	25272.58
730.541	25158.91
730.882	25146.03
731.224	25095.87
731.565	24981.07
731.906	24939.03
732.248	25030.78
732.589	24833.5
732.93	24724.58
733.271	24853.16
733.612	24847.74
733.953	24771.35
734.294	24739.72
734.635	24608.65
734.976	24698.59
735.317	24590.34
735.658	24581.98
735.999	24580.4
736.339	24512.6
736.68	24577.91
737.021	24464.7
737.361	24292.27
737.702	24464.7
738.042	24363.68
738.383	24263.12
738.723	24279.39
739.063	24176.57
739.404	24328.65
739.744	24160.07
740.084	24051.83
740.424	24200.97
740.764	24106.29
741.104	24166.17
741.444	23952.39
741.784	24008.21
742.124	23951.26
742.464	23966.18
742.804	23875.56
743.143	23838.27
743.483	23924.37
743.823	23674.66
744.162	23663.81
744.502	23792.17
744.841	23653.19
745.181	23733.64
745.52	23561.89
745.86	23706.98
746.199	23516.47
746.538	23447.32
746.877	23491.16
747.216	23405.29
747.556	23381.79
747.895	23337.27
748.234	23219.53
748.573	23266.99
748.911	23248.91
749.25	23193.32
749.589	22999.65
749.928	23137.95
750.267	23086.88
750.605	22987.67
750.944	22959.42
751.283	22904.28
751.621	22994.45
751.96	22777.28
752.298	22800.78
752.636	22805.3
752.975	22607.34
753.313	22570.96
753.651	22680.11
753.989	22557.63
754.327	22514.24
754.666	22347.69
755.004	22535.71
755.342	22424.75
755.679	22327.35
756.017	22175.49
756.355	22251.19
756.693	22120.35
757.031	22090.75
757.368	21969.62
757.706	21966.91
758.044	21842.62
758.381	21866.8
758.719	21751.55
759.056	21799.91
759.394	21666.58
759.731	21545.45
760.068	21498.67
760.405	21330.31
760.743	21363.53
761.08	21370.54
761.417	21205.57
761.754	21236.08
762.091	21200.83
762.428	21076.99
762.765	20899.59
763.102	21047.38
763.438	20943.88
763.775	20801.97
764.112	20787.5
764.449	20785.47
764.785	20706.6
765.122	20521.07
765.458	20477
765.795	20457.8
766.131	20400.4
766.467	20362.43
766.804	20233.39
767.14	20190.01
767.476	20253.96
767.812	20047.64
768.148	20103.45
768.485	20010.8
768.821	19846.51
769.157	19776.91
769.492	19711.15
769.828	19798.38
770.164	19564.26
770.5	19423.7
770.836	19531.72
771.171	19344.83
771.507	19347.09
771.842	19170.6
772.178	19250.37
772.513	19136.7
772.849	19110.03
773.184	19141.67
773.519	19028
773.855	18917.5
774.19	18796.82
774.525	18797.73
774.86	18766.77
775.195	18655.58
775.53	18523.38
775.865	18503.27
776.2	18323.84
776.535	18265.76
776.87	18250.17
777.205	18195.71
777.539	18037.52
777.874	18099.67
778.209	17932.89
778.543	17948.48
778.878	17846.79
779.212	17851.54
779.547	17663.07
779.881	17826.45
780.215	17594.82
780.55	17602.73
780.884	17480.25
781.218	17492.68
781.552	17343.53
781.886	17285.9
782.22	17230.76
782.554	17128.17
782.888	17019.02
783.222	17014.95
783.556	16930.88
783.889	16860.38
784.223	16780.83
784.557	16727.72
784.89	16747.38
785.224	16619.93
785.557	16475.08
785.891	16524.57
786.224	16428.97
786.558	16504.23
786.891	16348.98
787.224	16247.96
787.557	16242.54
787.891	16175.87
788.224	16160.28
788.557	16135.88
788.89	16058.82
789.223	16005.26
789.556	15971.13
789.888	15915.99
790.221	15851.36
790.554	15718.49
790.887	15643.46
791.219	15623.35
791.552	15556
791.884	15464.93
792.217	15453.86
792.549	15370.25
792.882	15257.71
793.214	15345.84
793.546	15256.58
793.879	15218.16
794.211	15083.93
794.543	15077.15
794.875	15056.58
795.207	15057.49
795.539	14977.94
795.871	14952.63
796.203	14796.7
796.535	14793.54
796.867	14688.46
797.198	14684.61
797.53	14711.96
797.862	14607.33
798.193	14560.32
798.525	14475.13
798.856	14575.01
799.188	14365.07
799.519	14364.62
799.85	14227.22
800.182	14244.63
800.513	14305.41
800.844	14102.26
801.175	14171.41
801.506	14167.34
801.837	14068.58
802.168	13984.75
802.499	13995.59
802.83	13881.25
803.161	13788.37
803.491	13904.97
803.822	13808.25
804.153	13783.62
804.483	13641.93
804.814	13538.2
805.145	13633.57
805.475	13638.77
805.805	13554.25
806.136	13552.21
806.466	13491.88
806.796	13493.91
807.126	13373.24
807.457	13356.51
807.787	13295.72
808.117	13250.75
808.447	13241.04
808.777	13229.96
809.107	13195.61
809.436	13189.51
809.766	13049.4
810.096	13040.14
810.426	12954.72
810.755	13022.51
811.085	12965.56
811.414	12940.25
811.744	12867.71
812.073	12778
812.403	12890.31
812.732	12776.87
813.061	12795.17
813.39	12633.14
813.719	12653.03
814.049	12737.32
814.378	12568.06
814.707	12552.47
815.036	12606.25
815.365	12485.8
815.693	12378.91
816.022	12364
816.351	12395.41
816.68	12301.85
817.008	12404.67
817.337	12201.97
817.665	12202.65
817.994	12307.5
818.322	12268.86
818.651	12107.96
818.979	12058.47
819.307	12213.27
819.636	12149.77
819.964	12098.92
820.292	12185.7
820.62	12015.76
820.948	11951.58
821.276	12073.16
821.604	12047.85
821.932	12045.36
822.259	12020.73
822.587	12048.3
822.915	11962.88
823.243	12043.78
823.57	11974.18
823.898	11900.28
824.225	11930.79
824.553	11910
824.88	11932.82
825.207	11995.42
825.535	11902.31
825.862	11927.85
826.189	11880.62
826.516	11958.36
826.843	12049.43
827.17	11948.64
827.497	11990.9
827.824	11992.93
828.151	11972.37
828.478	11949.32
828.805	11938.47
829.131	11954.97
829.458	11985.48
829.785	11876.1
830.111	11842.88
830.438	11945.7
830.764	11896.44
831.09	11813.05
831.417	11921.3
831.743	11848.98
832.069	11830
832.395	11749.55
832.722	11872.48
833.048	11789.32
833.374	11824.12
833.7	11696.22
834.026	11815.08
834.351	11775.09
834.677	11789.77
835.003	11804.24
835.329	11835.65
835.654	11798.81
835.98	11658.93
836.306	11768.76
836.631	11576
836.956	11708.87
837.282	11715.2
837.607	11630.23
837.932	11499.61
838.258	11577.8
838.583	11524.92
838.908	11465.26
839.233	11621.42
839.558	11494.64
839.883	11389.79
840.208	11475.21
840.533	11430.91
840.858	11400.63
841.182	11437.69
841.507	11441.54
841.832	11380.75
842.156	11360.86
842.481	11350.46
842.805	11298.49
843.13	11260.3
843.454	11268.66
843.778	11169.68
844.103	11149.57
844.427	11132.84
844.751	11224.82
845.075	11102.79
845.399	11090.13
845.723	10942.79
846.047	10993.41
846.371	10906.41
846.695	10937.82
847.019	10779.63
847.343	10767.65
847.666	10722.68
847.99	10696.02
848.313	10673.42
848.637	10624.83
848.96	10599.3
849.284	10504.84
849.607	10473.88
849.931	10468.23
850.254	10463.48
850.577	10383.26
850.9	10361.11
851.223	10284.73
851.546	10260.55
851.869	10249.93
852.192	10254.22
852.515	10063.94
852.838	10060.55
853.161	10054.68
853.483	10044.51
853.806	9930.84
854.129	9957.51
854.451	9944.4
854.774	9915.93
855.096	9812.43
855.419	9839.77
855.741	9793.67
856.063	9751.86
856.385	9702.15
856.708	9674.12
857.03	9614.01
857.352	9573.11
857.674	9599.32
857.996	9605.43
858.318	9517.52
858.64	9553.22
858.961	9490.17
859.283	9439.33
859.605	9506.9
859.926	9443.17
860.248	9398.65
860.57	9352.78
860.891	9431.87
861.212	9355.94
861.534	9289.73
861.855	9335.6
862.176	9279.11
862.498	9249.05
862.819	9243.63
863.14	9180.13
863.461	9193.91
863.782	9151.43
864.103	9164.31
864.424	9047.02
864.745	9141.48
865.065	9100.13
865.386	9087.92
865.707	9101.03
866.027	9098.77
866.348	9065.78
866.668	9023.07
866.989	8994.37
867.309	8940.13
867.63	8956.85
867.95	8953.24
868.27	8900.59
868.59	8958.44
868.91	8947.36
869.23	8908.49
869.55	8883.64
869.87	8931.32
870.19	8845.67
870.51	8911.66
870.83	8856.52
871.15	8746.69
871.469	8790.98
871.789	8853.81
872.109	8757.99
872.428	8700.36
872.748	8766.35
873.067	8775.62
873.386	8750.31
873.706	8749.63
874.025	8718.67
874.344	8642.29
874.663	8586.92
874.982	8571.78
875.301	8612.68
875.62	8613.59
875.939	8590.76
876.258	8568.39
876.577	8504.66
876.896	8539.01
877.214	8527.94
877.533	8594.38
877.852	8496.98
878.17	8505.34
878.489	8567.71
878.807	8547.83
879.125	8452.91
879.444	8429.19
879.762	8460.37
880.08	8386.02
880.398	8374.05
880.716	8355.29
881.034	8358
881.352	8308.28
881.67	8335.4
881.988	8318.68
882.306	8316.65
882.624	8268.06
882.941	8196.2
883.259	8196.2
883.577	8194.84
883.894	8140.83
884.212	8173.37
884.529	8137.67
884.846	8062.42
885.164	8104
885.481	8136.99
885.798	8048.18
886.115	8042.53
886.432	7987.61
886.75	8004.34
887.067	7954.85
887.383	7958.92
887.7	7979.93
888.017	7891.12
888.334	7941.51
888.651	7946.71
888.967	7858.58
889.284	7843.44
889.6	7720.73
889.917	7788.07
890.233	7779.26
890.55	7810.67
890.866	7731.35
891.182	7655.87
891.498	7639.15
891.815	7629.21
892.131	7615.65
892.447	7576.78
892.763	7602.09
893.079	7576.55
893.395	7477.35
893.71	7459.04
894.026	7515.99
894.342	7502.66
894.657	7443.67
894.973	7399.83
895.289	7448.42
895.604	7350.8
895.92	7355.09
896.235	7308.99
896.55	7313.51
896.865	7280.51
897.181	7278.71
897.496	7229.44
897.811	7252.72
898.126	7180.63
898.441	7208.43
898.756	7085.27
899.071	7075.77
899.386	7092.95
899.7	7094.3
900.015	7061.54
900.33	7060.86
900.644	7005.04
900.959	6963.23
901.273	6934.76
901.588	6974.53
901.902	6910.36
902.216	6843.92
902.531	6874.42
902.845	6843.01
903.159	6789.91
903.473	6751.04
903.787	6758.04
904.101	6714.2
904.415	6704.71
904.729	6664.71
905.042	6645.5
905.356	6610.02
905.67	6541.78
905.984	6565.51
906.297	6551.72
906.611	6502.23
906.924	6447.77
907.237	6487.32
907.551	6389.01
907.864	6424.72
908.177	6428.11
908.491	6387.2
908.804	6378.39
909.117	6298.85
909.43	6274.67
909.743	6245.06
910.056	6226.76
910.368	6246.87
910.681	6198.96
910.994	6106.99
911.307	6143.14
911.619	6108.79
911.932	6145.18
912.244	6086.2
912.557	6076.48
912.869	6023.15
913.181	6039.42
913.494	6031.96
913.806	6003.94
914.118	5955.58
914.43	5903.15
914.742	5901.57
915.054	5879.42
915.366	5826.99
915.678	5832.64
915.99	5850.5
916.302	5787.67
916.613	5749.71
916.925	5765.3
917.236	5752.65
917.548	5689.14
917.859	5714.91
918.171	5608.92
918.482	5639.65
918.794	5562.82
919.105	5545.87
919.416	5539.32
919.727	5533.22
920.038	5528.02
920.349	5439.43
920.66	5438.08
920.971	5400.11
921.282	5428.81
921.593	5387.91
921.903	5356.72
922.214	5306.1
922.525	5290.28
922.835	5268.36
923.146	5237.63
923.456	5244.64
923.767	5240.12
924.077	5254.13
924.387	5169.84
924.697	5150.18
925.008	5154.47
925.318	5159.21
925.628	5162.83
925.938	5103.17
926.248	5046.45
926.558	4960.35
926.867	5010.07
927.177	4963.74
927.487	5021.37
927.796	4983.17
928.106	4948.6
928.416	4888.26
928.725	4911.31
929.034	4870.86
929.344	4874.7
929.653	4842.84
929.962	4820.69
930.271	4756.74
930.581	4747.93
930.89	4751.09
931.199	4715.38
931.508	4708.38
931.817	4677.87
932.125	4646.69
932.434	4643.75
932.743	4596.52
933.051	4594.26
933.36	4531.21
933.669	4545.67
933.977	4533.02
934.286	4500.02
934.594	4524.66
934.902	4490.31
935.21	4450.53
935.519	4463.87
935.827	4436.3
936.135	4403.3
936.443	4363.76
936.751	4393.36
937.059	4374.38
937.367	4335.51
937.674	4345
937.982	4311.78
938.29	4293.7
938.597	4264.55
938.905	4250.09
939.213	4194.49
939.52	4195.4
939.827	4195.85
940.135	4155.63
940.442	4172.12
940.749	4134.61
941.056	4109.52
941.363	4095.29
941.67	4111.56
941.977	4027.94
942.284	4062.29
942.591	4066.81
942.898	4022.52
943.205	4052.8
943.511	3983.88
943.818	4004.67
944.125	3939.36
944.431	3920.6
944.738	3941.62
945.044	3925.35
945.35	3855.97
945.657	3829.08
945.963	3868.85
946.269	3793.6
946.575	3786.82
946.881	3786.82
947.187	3793.83
947.493	3759.03
947.799	3752.47
948.105	3741.62
948.41	3739.82
948.716	3716.09
949.022	3702.76
949.327	3670.67
949.633	3617.33
949.938	3635.41
950.244	3622.98
950.549	3583.66
950.854	3583.44
951.16	3591.57
951.465	3517.22
951.77	3515.64
952.075	3522.87
952.38	3520.61
952.685	3504.79
952.99	3502.54
953.294	3492.82
953.599	3462.08
953.904	3446.72
954.209	3409.66
954.513	3394.06
954.818	3365.82
955.122	3365.82
955.426	3382.54
955.731	3374.18
956.035	3359.71
956.339	3328.75
956.643	3343.44
956.948	3281.75
957.252	3285.82
957.556	3289.66
957.86	3271.35
958.163	3226.84
958.467	3201.53
958.771	3210.11
959.075	3231.58
959.378	3179.38
959.682	3215.54
959.985	3200.4
960.289	3111.36
960.592	3142.54
960.896	3147.74
961.199	3099.16
961.502	3121.08
961.805	3070
962.108	3037.69
962.411	3043.11
962.714	3044.92
963.017	3023.45
963.32	3019.38
963.623	2987.97
963.926	2990.46
964.228	2945.26
964.531	2939.84
964.833	2938.71
965.136	2912.72
965.438	2914.3
965.741	2865.04
966.043	2881.53
966.345	2890.12
966.648	2871.59
966.95	2878.14
967.252	2863.23
967.554	2856.45
967.856	2835.43
968.158	2805.83
968.46	2797.47
968.761	2795.66
969.063	2757.02
969.365	2776.9
969.666	2739.39
969.968	2749.79
970.269	2708.43
970.571	2679.51
970.872	2720.63
971.174	2715.44
971.475	2698.71
971.776	2700.3
972.077	2681.54
972.378	2709.79
972.679	2647.42
972.98	2594.76
973.281	2608.77
973.582	2634.54
973.883	2602.45
974.183	2570.81
974.484	2605.16
974.785	2531.26
975.085	2553.63
975.386	2538.94
975.686	2544.37
975.986	2506.63
976.287	2535.55
976.587	2500.53
976.887	2457.36
977.187	2486.74
977.487	2464.6
977.787	2479.96
978.087	2433.86
978.387	2408.33
978.687	2412.39
978.987	2438.83
979.286	2390.25
979.586	2405.16
979.885	2372.4
980.185	2386.86
980.484	2353.19
980.784	2342.34
981.083	2317.93
981.382	2308.22
981.682	2310.7
981.981	2323.13
982.28	2303.92
982.579	2258.73
982.878	2316.8
983.177	2251.95
983.475	2252.85
983.774	2237.03
984.073	2241.33
984.372	2236.58
984.67	2231.61
984.969	2235.45
985.267	2211.95
985.566	2185.51
985.864	2177.37
986.162	2174.66
986.461	2121.78
986.759	2134.21
987.057	2148.9
987.355	2127.43
987.653	2123.36
987.951	2086.75
988.249	2104.15
988.547	2082.69
988.844	2114.77
989.142	2105.96
989.44	2053.99
989.737	2065.74
990.035	2069.35
990.332	2042.01
990.63	2026.19
990.927	2003.82
991.224	2009.24
991.521	1995.23
991.819	1983.7
992.116	2001.11
992.413	1978.28
992.71	1968.34
993.006	1955.01
993.303	1931.73
993.6	1943.71
993.897	1913.2
994.193	1921.56
994.49	1923.59
994.787	1901.9
995.083	1905.29
995.379	1859.19
995.676	1899.87
995.972	1853.99
996.268	1835.46
996.565	1851.5
996.861	1838.17
997.157	1821.9
997.453	1844.27
997.749	1829.13
998.044	1798.4
998.34	1807.89
998.636	1807.21
998.932	1805.18
999.227	1780.55
999.523	1740.77
999.818	1748.91
1000.114	1726.99
1000.409	1744.62
1000.704	1714.79
1001	1708.46
1001.295	1711.85
1001.59	1710.04
1001.885	1688.12
1002.18	1680.44
1002.475	1685.41
1002.77	1683.6
1003.065	1638.18
1003.359	1645.86
1003.654	1656.26
1003.949	1643.6
1004.243	1639.08
1004.538	1608.35
1004.832	1610.38
1005.127	1586.88
1005.421	1602.02
1005.715	1588.24
1006.009	1580.33
1006.304	1532.64
1006.598	1546.65
1006.892	1545.75
1007.186	1516.82
1007.48	1529.25
1007.773	1492.42
1008.067	1515.92
1008.361	1487.22
1008.655	1496.03
1008.948	1505.07
1009.242	1492.64
1009.535	1484.28
1009.829	1466.2
1010.122	1439.54
1010.415	1445.19
1010.708	1466.43
1011.001	1427.56
1011.295	1420.1
1011.588	1403.83
1011.881	1443.38
1012.173	1411.74
1012.466	1413.78
1012.759	1383.04
1013.052	1394.57
1013.344	1380.33
1013.637	1371.07
1013.93	1346.43
1014.222	1358.86
1014.514	1352.08
1014.807	1345.76
1015.099	1341.24
1015.391	1344.4
1015.683	1292.88
1015.976	1302.37
1016.268	1267.57
1016.56	1306.66
1016.851	1293.1
1017.143	1253.33
1017.435	1275.02
1017.727	1253.78
1018.018	1239.32
1018.31	1223.72
1018.602	1231.63
1018.893	1217.4
1019.185	1217.62
1019.476	1217.85
1019.767	1221.47
1020.058	1175.59
1020.35	1191.41
1020.641	1214.01
1020.932	1188.47
1021.223	1157.96
1021.514	1166.33
1021.804	1150.05
1022.095	1124.74
1022.386	1117.96
1022.677	1132.43
1022.967	1122.71
1023.258	1105.08
1023.548	1117.74
1023.839	1113.45
1024.129	1090.4
1024.419	1075.03
1024.709	1094.69
1025	1101.69
1025.29	1072.54
1025.58	1071.19
1025.87	1055.37
1026.16	1073.67
1026.449	1039.77
1026.739	1037.29
1027.029	1034.58
1027.319	1027.8
1027.608	1026.22
1027.898	1016.05
1028.187	993.67
1028.477	989.38
1028.766	1010.85
1029.055	983.73
1029.344	1006.56
1029.634	965.43
1029.923	978.99
1030.212	958.65
1030.501	974.01
1030.79	963.17
1031.078	967.69
1031.367	971.53
1031.656	937.4
1031.945	935.37
1032.233	934.69
1032.522	937.4
1032.81	917.97
1033.099	905.09
1033.387	926.11
1033.675	915.71
1033.963	884.07
1034.251	878.42
1034.54	876.84
1034.828	872.77
1035.116	893.11
1035.403	857.18
1035.691	843.17
1035.979	854.24
1036.267	854.7
1036.554	830.97
1036.842	854.47
1037.129	853.11
1037.417	830.06
1037.704	846.56
1037.992	827.8
1038.279	823.51
1038.566	839.78
1038.853	839.78
1039.14	839.78
