Data from White_reflection_standard_FLMS001491_031.txt Node
Date: Tue Feb 07 10:32:01 GMT 2017
User: dcchb
Spectrometer: FLMS00149
Trigger mode: 0
Integration Time (sec): 2.000000E-2
Scans to average: 10
Electric dark correction enabled: true
Nonlinearity correction enabled: false
Boxcar width: 0
XAxis mode: Wavelengths
Number of Pixels in Spectrum: 2048
>>>>>Begin Spectral Data<<<<<
341.393	-1.95
341.776	-1.95
342.16	-1.95
342.543	-51.89
342.927	-30.65
343.31	-61.38
343.693	-86.92
344.077	-58.44
344.46	-64.55
344.843	-39.46
345.226	-35.39
345.61	-30.87
345.993	-12.8
346.376	-8.05
346.759	5.28
347.142	16.81
347.525	34.89
347.908	53.42
348.291	69.91
348.674	90.25
349.057	127.31
349.44	136.35
349.823	151.04
350.206	190.81
350.588	245.28
350.971	260.42
351.354	287.08
351.737	295.22
352.119	296.12
352.502	316.01
352.884	334.31
353.267	328.89
353.65	337.48
354.032	355.78
354.414	369.11
354.797	380.19
355.179	351.94
355.562	389.68
355.944	393.52
356.326	388.32
356.709	401.88
357.091	417.7
357.473	386.06
357.855	391.71
358.238	412.28
358.62	416.34
359.002	389.91
359.384	419.73
359.766	407.98
360.148	394.2
360.53	409.79
360.912	423.35
361.294	415.89
361.676	406.4
362.057	412.28
362.439	412.73
362.821	422.45
363.203	397.81
363.584	439.85
363.966	407.76
364.348	438.04
364.729	417.7
365.111	421.99
365.493	429.9
365.874	424.25
366.256	413.18
366.637	400.3
367.019	421.09
367.4	401.66
367.781	428.55
368.163	426.74
368.544	421.32
368.925	425.61
369.306	431.94
369.688	434.2
370.069	421.77
370.45	422.67
370.831	435.1
371.212	424.93
371.593	465.84
371.974	454.08
372.355	443.91
372.736	446.85
373.117	452.73
373.498	450.24
373.879	450.92
374.26	464.71
374.641	439.85
375.021	434.42
375.402	465.38
375.783	478.72
376.163	504.03
376.544	492.73
376.925	472.39
377.305	504.93
377.686	484.14
378.066	485.95
378.447	487.76
378.827	513.97
379.208	495.66
379.588	536.79
379.968	505.83
380.349	543.57
380.729	508.77
381.109	533.63
381.489	552.61
381.87	567.08
382.25	540.41
382.63	560.52
383.01	548.54
383.39	570.92
383.77	552.39
384.15	571.14
384.53	596.91
384.91	606.17
385.29	598.71
385.67	597.36
386.049	609.11
386.429	597.36
386.809	618.15
387.189	628.09
387.568	635.55
387.948	648.2
388.328	629.9
388.707	650.69
389.087	699.95
389.466	673.06
389.846	650.69
390.225	690.46
390.605	688.2
390.984	698.82
391.363	707.64
391.743	725.94
392.122	711.7
392.501	723.91
392.881	729.56
393.26	743.34
393.639	749.22
394.018	736.11
394.397	766.62
394.776	778.14
395.155	788.99
395.534	796.67
395.913	795.54
396.292	822.21
396.671	816.11
397.05	833.51
397.429	845.71
397.808	835.77
398.186	850.91
398.565	839.61
398.944	866.5
399.323	885.03
399.701	883.45
400.08	911.25
400.458	890.91
400.837	894.3
401.215	912.83
401.594	921.87
401.972	958.93
402.351	942.88
402.729	957.35
403.107	988.76
403.486	977.91
403.864	986.27
404.242	1014.75
404.62	1009.78
404.999	1044.8
405.377	1039.38
405.755	1052.49
406.133	1068.98
406.511	1092.03
406.889	1050.9
407.267	1110.34
407.645	1139.94
408.023	1143.33
408.401	1130.68
408.779	1167.74
409.156	1198.92
409.534	1189.66
409.912	1219.94
410.29	1241.41
410.667	1284.57
411.045	1265.14
411.422	1254.06
411.8	1297.68
412.178	1334.96
412.555	1338.35
412.933	1359.15
413.31	1406.15
413.687	1430.1
414.065	1425.13
414.442	1425.58
414.819	1449.54
415.197	1460.84
415.574	1494.28
415.951	1489.99
416.328	1501.97
416.705	1519.37
417.082	1549.42
417.46	1564.11
417.837	1573.38
418.214	1577.44
418.591	1594.39
418.967	1601.17
419.344	1634.17
419.721	1669.42
420.098	1656.76
420.475	1708.51
420.852	1710.77
421.228	1749.42
421.605	1746.48
421.982	1748.06
422.358	1790.09
422.735	1812.69
423.111	1827.61
423.488	1844.33
423.864	1889.53
424.241	1862.18
424.617	1911.67
424.994	1912.8
425.37	1942.63
425.746	1934.05
426.123	1999.58
426.499	1987.15
426.875	2031.9
427.251	2077.77
427.627	2102.63
428.003	2107.37
428.379	2167.49
428.756	2174.94
429.132	2215.62
429.507	2202.29
429.883	2255.17
430.259	2292.45
430.635	2334.71
431.011	2360.7
431.387	2417.87
431.763	2440.47
432.138	2483.86
432.514	2528.83
432.89	2517.31
433.265	2595.27
433.641	2601.37
434.016	2638.66
434.392	2652.9
434.767	2693.8
435.143	2706
435.518	2760.92
435.894	2806.34
436.269	2819.22
436.644	2889.5
437.02	2902.38
437.395	2910.29
437.77	2920.46
438.145	2998.88
438.52	3032.55
438.895	3058.31
439.271	3062.6
439.646	3132.66
440.021	3193.45
440.395	3188.25
440.77	3126.78
441.145	3195.25
441.52	3289.94
441.895	3260.56
442.27	3331.97
442.645	3311.64
443.019	3342.37
443.394	3367.91
443.769	3384.63
444.143	3367.91
444.518	3451.29
444.892	3430.5
445.267	3488.81
445.641	3518.64
446.016	3554.34
446.39	3600.44
446.764	3642.93
447.139	3604.28
447.513	3682.93
447.887	3726.54
448.262	3739.42
448.636	3730.38
449.01	3767.44
449.384	3839.76
449.758	3835.69
450.132	3894.9
450.506	3929.92
450.88	3959.08
451.254	3968.57
451.628	4075.91
452.002	4042.92
452.376	4101.67
452.75	4141.9
453.123	4171.27
453.497	4259.86
453.871	4286.3
454.244	4361.78
454.618	4453.08
454.992	4463.92
455.365	4470.48
455.739	4599.29
456.112	4616.23
456.486	4695.78
456.859	4709.34
457.232	4742.56
457.606	4816.46
457.979	4890.58
458.352	5016.22
458.725	5021.42
459.099	5102.1
459.472	5161.76
459.845	5233.17
460.218	5312.04
460.591	5329.66
460.964	5346.16
461.337	5542.76
461.71	5575.31
462.083	5581.86
462.456	5714.74
462.829	5651.46
463.201	5784.57
463.574	5839.03
463.947	5876.99
464.32	6036.31
464.692	6080.83
465.065	6135.97
465.438	6233.14
465.81	6344.1
466.183	6396.98
466.555	6507.48
466.928	6593.81
467.3	6552.45
467.672	6705.22
468.045	6896.17
468.417	6877.19
468.789	6936.4
469.161	7109.28
469.534	7175.04
469.906	7341.36
470.278	7354.47
470.65	7446.22
471.022	7594.91
471.394	7794.68
471.766	7860.9
472.138	7888.46
472.51	8022.25
472.882	8208
473.253	8279.42
473.625	8369.58
473.997	8632.63
474.369	8647.54
474.74	8754.43
475.112	8979.28
475.484	9070.81
475.855	9274.42
476.227	9342.44
476.598	9606.16
476.97	9697.46
477.341	9900.84
477.713	10063.77
478.084	10109.42
478.455	10429.19
478.827	10455.63
479.198	10829.4
479.569	10822.63
479.94	11140.58
480.311	11248.15
480.682	11471.42
481.053	11717.52
481.424	11925.42
481.795	12046.32
482.166	12226.66
482.537	12394.34
482.908	12748.22
483.279	12860.54
483.65	12956.58
484.021	13296.46
484.391	13452.39
484.762	13604.25
485.133	13713.85
485.503	13955.42
485.874	14207.62
486.244	14382.08
486.615	14584.33
486.985	14728.51
487.356	15098.67
487.726	15182.96
488.097	15480.81
488.467	15583.86
488.837	15812.55
489.207	16002.38
489.578	16312.88
489.948	16452.76
490.318	16634.68
490.688	16791.96
491.058	17110.82
491.428	17298.61
491.798	17457.48
492.168	17688.89
492.538	17897.92
492.908	18020.18
493.278	18354.86
493.648	18333.39
494.017	18563.89
494.387	18690.21
494.757	19009.3
495.126	19105.12
495.496	19245.68
495.866	19307.6
496.235	19604.99
496.605	19788.94
496.974	19908.04
497.344	20145.32
497.713	20200.46
498.082	20471.86
498.452	20552.54
498.821	20595.02
499.19	20704.85
499.559	21011.74
499.928	21098.29
500.298	21288.79
500.667	21543.7
501.036	21531.5
501.405	21665.05
501.774	21713.86
502.143	21942.78
502.512	22078.83
502.88	22322.66
503.249	22294.19
503.618	22562.88
503.987	22630.68
504.356	22808.3
504.724	22979.59
505.093	23081.06
505.462	23269.53
505.83	23404.22
506.199	23611.22
506.567	23860.02
506.936	23908.38
507.304	24209.17
507.672	24327.35
508.041	24399.44
508.409	24614.8
508.777	24753.11
509.145	25026.32
509.514	25037.17
509.882	25206.2
510.25	25357.38
510.618	25502.69
510.986	25627.21
511.354	26002.11
511.722	26142
512.09	26396.68
512.458	26417.92
512.826	26705.15
513.193	26804.35
513.561	26939.04
513.929	27050.22
514.297	27361.85
514.664	27588.06
515.032	27681.16
515.4	28001.83
515.767	28127.93
516.135	28351.88
516.502	28284.99
516.869	28710.97
517.237	28825.77
517.604	28807.91
517.972	29211.97
518.339	29536.48
518.706	29468.01
519.073	29738.51
519.44	29912.97
519.808	30266.41
520.175	30326.52
520.542	30675.21
520.909	30868.65
521.276	30832.04
521.643	31260.05
522.009	31593.83
522.376	31730.32
522.743	31841.73
523.11	32222.74
523.477	32680.13
523.843	32749.05
524.21	32946.79
524.577	33196.05
524.943	33461.58
525.31	33648.47
525.676	33872.41
526.043	34183.14
526.409	34382.91
526.776	34726.4
527.142	34847.76
527.508	35061.99
527.874	35290
528.241	35461.53
528.607	35582.43
528.973	36105.35
529.339	35957.56
529.705	36353.25
530.071	36664.88
530.437	36764.32
530.803	36980.58
531.169	37303.96
531.535	37241.59
531.901	37455.37
532.267	37668.92
532.632	37842.25
532.998	37985.53
533.364	38169.02
533.73	38374.67
534.095	38710.48
534.461	38722.46
534.826	38903.47
535.192	39119.06
535.557	39378.48
535.923	39317.7
536.288	39680.17
536.653	39760.85
537.019	39722.66
537.384	39994.97
537.749	40270.66
538.114	40242.87
538.479	40308.4
538.845	40531.22
539.21	40566.48
539.575	40768.96
539.94	40898.44
540.305	41127.59
540.67	41184.31
541.034	41225.89
541.399	41467.47
541.764	41498.43
542.129	41770.06
542.494	41818.19
542.858	41919.21
543.223	42125.76
543.587	42385.41
543.952	42331.63
544.316	42343.83
544.681	42583.6
545.045	42773.42
545.41	42972.51
545.774	43129.12
546.138	43073.08
546.503	43334.99
546.867	43400.07
547.231	43756.9
547.595	43803
547.959	43788.31
548.324	44016.55
548.688	44159.6
549.052	44203.67
549.416	44394.62
549.779	44363.44
550.143	44637.78
550.507	44904.89
550.871	44923.88
551.235	44933.37
551.599	45305.79
551.962	45440.25
552.326	45531.54
552.689	45792.78
553.053	45669.84
553.417	45763.63
553.78	46387.34
554.143	46214.24
554.507	46331.75
554.87	46551.18
555.234	46908.91
555.597	46656.94
555.96	46956.82
556.323	47093.54
556.686	47164.27
557.05	47489.23
557.413	47638.15
557.776	47587.31
558.139	47857.81
558.502	48109.78
558.865	48129.67
559.228	48418.02
559.59	48584.34
559.953	48693.04
560.316	48985.01
560.679	49052.81
561.041	49235.63
561.404	49329.41
561.767	49615.96
562.129	49592
562.492	50020.24
562.854	49921.48
563.217	50060.92
563.579	50210.74
563.941	50344.98
564.304	50568.7
564.666	50831.74
565.028	50899.31
565.39	50948.12
565.753	51118.51
566.115	51262.47
566.477	51356.47
566.839	51437.15
567.201	51646.64
567.563	51697.03
567.925	51949.91
568.287	51972.5
568.648	52042.11
569.01	52336.34
569.372	52466.73
569.734	52350.57
570.095	52542.43
570.457	52764.8
570.819	52783.56
571.18	52788.75
571.542	53068.52
571.903	53043.89
572.265	53193.71
572.626	53261.28
572.987	53285.92
573.349	53459.02
573.71	53524.55
574.071	53515.06
574.432	53590.99
574.794	53836.18
575.155	53795.96
575.516	53813.36
575.877	53896.52
576.238	53928.38
576.599	54141.03
576.96	54142.16
577.32	54199.34
577.681	54236.85
578.042	54297.64
578.403	54294.7
578.763	54282.73
579.124	54409.28
579.485	54495.15
579.845	54530.85
580.206	54515.04
580.566	54530.18
580.927	54529.27
581.287	54624.86
581.648	54582.15
582.008	54723.84
582.368	54736.05
582.728	54803.62
583.089	54740.79
583.449	54698.08
583.809	54701.92
584.169	54791.19
584.529	54840.9
584.889	55031.41
585.249	54755.71
585.609	54644.3
585.969	54964.74
586.329	54761.81
586.688	54797.29
587.048	54780.79
587.408	54804.52
587.768	54822.82
588.127	54788.02
588.487	54716.39
588.846	55000.67
589.206	54744.63
589.565	54766.78
589.925	55016.94
590.284	54835.03
590.643	54905.53
591.003	54953.22
591.362	54987.34
591.721	54901.92
592.08	54994.8
592.44	55033.44
592.799	54971.07
593.158	54979.88
593.517	54937.62
593.876	55062.59
594.235	54921.13
594.593	54955.02
594.952	55056.04
595.311	54931.52
595.67	55007.9
596.029	55189.37
596.387	55163.15
596.746	55216.71
597.104	55108.47
597.463	55130.39
597.822	55216.94
598.18	55141.91
598.538	55040.22
598.897	55225.53
599.255	55042.93
599.613	55387.33
599.972	55279.31
600.33	55417.61
600.688	55218.29
601.046	55319.53
601.404	55477.72
601.762	55348.69
602.12	55494.9
602.478	55408.8
602.836	55489.7
603.194	55339.42
603.552	55478.63
603.91	55314.11
604.268	55510.49
604.625	55502.13
604.983	55602.01
605.341	55475.69
605.698	55627.1
606.056	55683.82
606.413	55637.49
606.771	55628.23
607.128	55719.98
607.485	55644.5
607.843	55644.95
608.2	55833.87
608.557	55900.31
608.914	55757.94
609.272	55934.66
609.629	55936.69
609.986	56072.51
610.343	55925.85
610.7	56141.66
611.057	56022.79
611.414	56037.48
611.771	56068.67
612.127	56138.27
612.484	56136.69
612.841	56234.31
613.198	56067.99
613.554	56125.61
613.911	56378.49
614.267	56280.41
614.624	56281.99
614.98	56347.76
615.337	56334.87
615.693	56363.12
616.05	56296.23
616.406	56431.82
616.762	56358.6
617.118	56363.12
617.475	56324.93
617.831	56448.54
618.187	56504.81
618.543	56546.85
618.899	56622.1
619.255	56595.88
619.611	56491.25
619.967	56638.6
620.323	56633.17
620.678	56586.62
621.034	56506.62
621.39	56498.94
621.746	56530.8
622.101	56726.95
622.457	56550.24
622.812	56586.39
623.168	56678.37
623.523	56648.99
623.879	56680.4
624.234	56554.53
624.589	56624.81
624.945	56623
625.3	56685.15
625.655	56556.11
626.01	56648.99
626.365	56642.89
626.72	56610.35
627.075	56593.85
627.43	56603.57
627.785	56515.21
628.14	56617.35
628.495	56595.88
628.85	56594.98
629.205	56473.4
629.559	56657.13
629.914	56487.19
630.269	56510.69
630.623	56452.61
630.978	56308.66
631.332	56485.83
631.687	56540.29
632.041	56362.67
632.396	56423.01
632.75	56292.62
633.104	56334.65
633.459	56191.83
633.813	56205.61
634.167	56238.15
634.521	56189.12
634.875	56276.8
635.229	56030.48
635.583	55989.12
635.937	56057.14
636.291	55928.33
636.645	55992.74
636.999	55887.43
637.352	55924.49
637.706	55791.61
638.06	55830.03
638.413	55830.03
638.767	55730.37
639.121	55777.83
639.474	55562.24
639.828	55666.87
640.181	55704.16
640.534	55645.85
640.888	55530.15
641.241	55463.49
641.594	55520.88
641.947	55581.9
642.301	55418.97
642.654	55418.29
643.007	55388.46
643.36	55402.47
643.713	55273.89
644.066	55332.64
644.419	55216.03
644.771	55056.72
645.124	54744.41
645.477	54751.41
645.83	54453.12
646.182	54427.81
646.535	54349.84
646.888	54344.42
647.24	54217.87
647.593	54343.51
647.945	54318.43
648.298	54166.57
648.65	54086.35
649.002	53983.3
649.355	54064.65
649.707	54013.13
650.059	54112.11
650.411	54501.02
650.763	54482.04
651.115	54810.39
651.467	54635.94
651.819	54596.62
652.171	54563.17
652.523	54487.69
652.875	54510.29
653.227	54366.34
653.578	54583.06
653.93	54413.12
654.282	54335.83
654.633	54241.82
654.985	54332.22
655.337	54284.53
655.688	54222.39
656.039	54288.37
656.391	54075.27
656.742	54101.71
657.094	54150.53
657.445	54270.07
657.796	54174.71
658.147	54103.97
658.498	54024.88
658.849	54117.31
659.2	54112.56
659.551	53972.45
659.902	54087.93
660.253	53991.66
660.604	53991.21
660.955	53900.59
661.306	54006.12
661.656	53869.18
662.007	53980.59
662.358	53838.44
662.708	53885.9
663.059	53865.34
663.409	53646.81
663.76	53889.97
664.11	53892.23
664.461	53865.11
664.811	53837.99
665.161	53729.97
665.511	53718.9
665.862	53654.04
666.212	53781.72
666.562	53852
666.912	53593.48
667.262	53612.46
667.612	53597.09
667.962	53572.91
668.312	53550.77
668.662	53705.34
669.011	53549.64
669.361	53433.48
669.711	53424.89
670.06	53459.24
670.41	53436.19
670.76	53280.72
671.109	53490.88
671.459	53416.76
671.808	53350.09
672.157	53338.57
672.507	53180.83
672.856	53302.41
673.205	53246.14
673.554	53381.05
673.904	53229.87
674.253	53318
674.602	53176.31
674.951	52666.72
675.3	52564.8
675.649	53132.7
675.998	53030.55
676.346	53093.83
676.695	53120.5
677.044	52865.14
677.393	53004.79
677.741	52909.65
678.09	52817
678.438	52864.01
678.787	52944.91
679.135	52892.93
679.484	52659.94
679.832	52702.65
680.181	52565.26
680.529	52685.71
680.877	52574.97
681.225	52561.64
681.573	52764.8
681.922	52482.09
682.27	52511.02
682.618	52377.69
682.966	52265.83
683.314	52277.58
683.661	52139.05
684.009	52123.01
684.357	52030.13
684.705	51932.5
685.053	51970.92
685.4	52031.71
685.748	51709.01
686.095	51796.24
686.443	51570.48
686.79	51484.15
687.138	51638.95
687.485	51476.02
687.832	51459.3
688.18	51495
688.527	51268.34
688.874	51171.39
689.221	51196.25
689.568	51067.67
689.915	50961.23
690.262	50875.58
690.609	50834
690.956	50749.03
691.303	50782.25
691.65	50543.61
691.997	50545.2
692.344	50321.25
692.69	50288.48
693.037	50211.65
693.383	49988.37
693.73	50124.42
694.077	49863.18
694.423	49877.64
694.769	49777.98
695.116	49555.62
695.462	49573.7
695.808	49503.42
696.155	49378.22
696.501	49236.08
696.847	49250.54
697.193	48854.62
697.539	49102.3
697.885	48867.95
698.231	48765.58
698.577	48731.01
698.923	48640.61
699.269	48444.01
699.614	48169.44
699.96	48211.47
700.306	48179.16
700.651	48039.27
700.997	47892.61
701.342	47833.18
701.688	47745.5
702.033	47682.22
702.379	47696.91
702.724	47466.41
703.069	47554.99
703.415	47038.4
703.76	47090.82
704.105	47110.94
704.45	46987.78
704.795	46722.47
705.14	46542.82
705.485	46656.03
705.83	46434.34
706.175	46601.35
706.52	46321.35
706.865	46189.15
707.209	46176.5
707.554	45900.8
707.899	46149.61
708.243	45903.28
708.588	45812.67
708.932	45609.73
709.277	45477.53
709.621	45582.62
709.966	45323.19
710.31	45184.89
710.654	45013.59
710.998	45144.89
711.342	45041.84
711.687	45034.83
712.031	44810.88
712.375	44676.2
712.719	44620.61
713.063	44553.72
713.407	44755.97
713.75	44411.57
714.094	44393.49
714.438	44126.38
714.782	44329.54
715.125	44043.22
715.469	44062.2
715.812	43880.51
716.156	43656.11
716.499	43637.36
716.843	43596.45
717.186	43438.72
717.53	43504.25
717.873	43589.9
718.216	43555.32
718.559	43278.49
718.902	43025.39
719.246	42992.63
719.589	42923.93
719.932	42768.9
720.275	42873.53
720.617	42765.74
720.96	42643.03
721.303	42789.47
721.646	42527.33
721.989	42255.92
722.331	42484.84
722.674	42356.26
723.016	42405.07
723.359	42291.85
723.701	42191.97
724.044	41900.68
724.386	41742.26
724.729	41980.22
725.071	41874.24
725.413	41787.46
725.755	41691.42
726.097	41613.91
726.439	41465.89
726.782	41570.74
727.124	41543.4
727.465	41247.81
727.807	41335.04
728.149	41269.28
728.491	41158.78
728.833	41186.57
729.175	40983.41
729.516	40857.77
729.858	40894.6
730.199	40842.85
730.541	40754.04
730.882	40725.57
731.224	40796.75
731.565	40484.67
731.906	40542.07
732.248	40593.82
732.589	40225.92
732.93	40187.73
733.271	40192.25
733.612	40291.23
733.953	40195.19
734.294	40022.76
734.635	40055.75
734.976	40007.62
735.317	39781.64
735.658	39724.24
735.999	39735.31
736.339	39558.37
736.68	39595.43
737.021	39456.45
737.361	39389.11
737.702	39481.76
738.042	39304.81
738.383	39265.72
738.723	39305.04
739.063	39048.32
739.404	39264.82
739.744	38969.68
740.084	38928.33
740.424	38884.71
740.764	38830.7
741.104	38975.33
741.444	38759.74
741.784	38710.25
742.124	38807.43
742.464	38518.17
742.804	38490.82
743.143	38465.51
743.483	38409.47
743.823	38163.83
744.162	38043.6
744.502	38265.97
744.841	38065.98
745.181	38317.27
745.52	38083.6
745.86	37976.26
746.199	37917.51
746.538	37780.79
746.877	37969.03
747.216	37808.13
747.556	37719.77
747.895	37728.58
748.234	37510.51
748.573	37424.41
748.911	37488.36
749.25	37437.74
749.589	37236.17
749.928	37264.19
750.267	37255.6
750.605	37023.29
750.944	36997.53
751.283	36837.99
751.621	36896.74
751.96	36779.68
752.298	36671.66
752.636	36740.81
752.975	36470.09
753.313	36333.14
753.651	36588.05
753.989	36318.45
754.327	36251.11
754.666	36177.89
755.004	36079.36
755.342	35999.36
755.679	35990.1
756.017	35727.51
756.355	35816.09
756.693	35721.86
757.031	35643.89
757.368	35449.77
757.706	35464.69
758.044	35260.4
758.381	35144.25
758.719	35100.4
759.056	35046.62
759.394	34926.85
759.731	34715.78
760.068	34677.37
760.405	34554.88
760.743	34417.48
761.08	34477.14
761.417	34132.07
761.754	34269.01
762.091	34192.63
762.428	34041.45
762.765	33847.1
763.102	33972.52
763.438	33762.36
763.775	33552.2
764.112	33568.02
764.449	33476.04
764.785	33437.4
765.122	33142.04
765.458	33089.84
765.795	32981.59
766.131	33060.23
766.467	32927.81
766.804	32650.75
767.14	32647.14
767.476	32574.82
767.812	32358.33
768.148	32413.92
768.485	32133.7
768.821	32015.51
769.157	31889.87
769.492	31833.37
769.828	31742.98
770.164	31545.92
770.5	31460.73
770.836	31376.89
771.171	31231.81
771.507	31248.75
771.842	31048.76
772.178	31020.51
772.513	30868.88
772.849	30853.06
773.184	30631.14
773.519	30619.62
773.855	30577.81
774.19	30418.95
774.525	30128.78
774.86	30209.23
775.195	30098.05
775.53	30054.66
775.865	29772.18
776.2	29659.87
776.535	29466.88
776.87	29410.38
777.205	29229.37
777.539	29187.34
777.874	29256.26
778.209	28966.33
778.543	28894.01
778.878	28758.88
779.212	28720.01
779.547	28551.2
779.881	28642.5
780.215	28326.8
780.55	28468.04
780.884	28198.67
781.218	28165.45
781.552	28134.03
781.886	27897.43
782.22	27724.55
782.554	27811.1
782.888	27503.77
783.222	27354.17
783.556	27318.24
783.889	27222.87
784.223	27045.7
784.557	26995.99
784.89	27132.48
785.224	26738.14
785.557	26805.03
785.891	26814.52
786.224	26569.33
786.558	26600.29
786.891	26262.9
787.224	26290.92
787.557	26169.11
787.891	26177.7
788.224	26149.23
788.557	25969.8
788.89	25979.74
789.223	25860.2
789.556	25638.28
789.888	25559.19
790.221	25488.91
790.554	25266.31
790.887	25398.29
791.219	25252.75
791.552	25109.03
791.884	24954.23
792.217	25086.2
792.549	24854.12
792.882	24687.8
793.214	24614.13
793.546	24677.4
793.879	24459.78
794.211	24336.17
794.543	24467.92
794.875	24358.09
795.207	24357.86
795.539	24115.16
795.871	24125.33
796.203	23974.37
796.535	23771.66
796.867	23757.2
797.198	23735.96
797.53	23669.97
797.862	23673.81
798.193	23614.15
798.525	23521.73
798.856	23414.84
799.188	23220.27
799.519	23102.75
799.85	22998.58
800.182	23066.6
800.513	22968.97
800.844	22795.64
801.175	22865.47
801.506	22841.29
801.837	22748.41
802.168	22674.52
802.499	22546.61
802.83	22546.38
803.161	22380.29
803.491	22322.66
803.822	22401.08
804.153	22325.37
804.483	22036.57
804.814	22075.66
805.145	21952.5
805.475	21972.84
805.805	21874.54
806.136	21901.66
806.466	21762.22
806.796	21690.14
807.126	21601.55
807.457	21552.74
807.787	21526.98
808.117	21477.71
808.447	21390.03
808.777	21480.65
809.107	21286.3
809.436	21200.43
809.766	21246.76
810.096	21162.69
810.426	21021.23
810.755	21002.92
811.085	20925.64
811.414	20963.15
811.744	20655.13
812.073	20629.37
812.403	20671.86
812.732	20524.06
813.061	20535.82
813.39	20456.04
813.719	20372.66
814.049	20434.12
814.378	20329.27
814.707	20329.04
815.036	20280.91
815.365	20145.32
815.693	19973.12
816.022	20061.93
816.351	19984.19
816.68	19816.51
817.008	19818.32
817.337	19771.32
817.665	19688.61
817.994	19779.45
818.322	19639.34
818.651	19524.54
818.979	19587.37
819.307	19622.17
819.636	19541.27
819.964	19459.69
820.292	19583.52
820.62	19401.61
820.948	19314.61
821.276	19544.66
821.604	19293.14
821.932	19376.3
822.259	19394.6
822.587	19342.18
822.915	19271.89
823.243	19344.66
823.57	19229.86
823.898	19299.92
824.225	19212.01
824.553	19269.41
824.88	19268.96
825.207	19306.92
825.535	19244.1
825.862	19330.88
826.189	19250.43
826.516	19360.71
826.843	19419.01
827.17	19308.96
827.497	19285.45
827.824	19180.82
828.151	19337.66
828.478	19252.23
828.805	19296.53
829.131	19233.03
829.458	19147.83
829.785	19167.49
830.111	19172.69
830.438	19286.36
830.764	19284.1
831.09	19199.81
831.417	19016.08
831.743	19193.25
832.069	19077.1
832.395	19111.22
832.722	19125.23
833.048	19048.4
833.374	19009.08
833.7	19001.39
834.026	19031.22
834.351	19026.48
834.677	18959.13
835.003	18970.66
835.329	18993.48
835.654	18893.6
835.98	18940.38
836.306	18898.12
836.631	18831
836.956	18862.41
837.282	18854.73
837.607	18752.59
837.932	18660.16
838.258	18726.15
838.583	18711.23
838.908	18523.21
839.233	18521.63
839.558	18568.18
839.883	18493.16
840.208	18455.64
840.533	18377.68
840.858	18389.43
841.182	18397.57
841.507	18432.59
841.832	18256.33
842.156	18159.83
842.481	18300.39
842.805	18263.33
843.13	18029.67
843.454	18122.32
843.778	17990.57
844.103	17916
844.427	17953.74
844.751	17942.66
845.075	17808.88
845.399	17783.12
845.723	17662.9
846.047	17730.92
846.371	17630.36
846.695	17654.31
847.019	17449.57
847.343	17382.45
847.666	17217.71
847.99	17105.62
848.313	17231.27
848.637	17098.84
848.96	16995.8
849.284	17042.12
849.607	16800.55
849.931	16806.42
850.254	16758.29
850.577	16576.15
850.9	16491.4
851.223	16481.91
851.546	16334.8
851.869	16293.67
852.192	16433.32
852.515	16236.49
852.838	16209.15
853.161	16210.73
853.483	16079.89
853.806	15969.61
854.129	16004.64
854.451	15864.53
854.774	15890.51
855.096	15795.6
855.419	15749.73
855.741	15736.39
856.063	15612.1
856.385	15554.93
856.708	15646.45
857.03	15587.7
857.352	15544.76
857.674	15405.78
857.996	15364.88
858.318	15265.67
858.64	15370.3
858.961	15251.66
859.283	15203.75
859.605	15126.01
859.926	15211.21
860.248	15096.18
860.57	15034.72
860.891	15069.75
861.212	14994.27
861.534	14896.87
861.855	14860.48
862.176	14866.13
862.498	14867.26
862.819	14933.7
863.14	14792.69
863.461	14808.51
863.782	14699.59
864.103	14745.23
864.424	14642.41
864.745	14680.83
865.065	14610.1
865.386	14623.43
865.707	14506.37
866.027	14536.65
866.348	14557.67
866.668	14531.68
866.989	14434.96
867.309	14389.08
867.63	14371.46
867.95	14331.69
868.27	14312.02
868.59	14310.44
868.91	14189.77
869.23	14241.52
869.55	14226.15
869.87	14288.3
870.19	14153.38
870.51	14191.12
870.83	14162.2
871.15	14041.07
871.469	14113.61
871.789	14118.58
872.109	14060.51
872.428	14024.35
872.748	14036.55
873.067	13985.25
873.386	13942.77
873.706	13919.49
874.025	13979.15
874.344	13883.79
874.663	13901.19
874.982	13835.65
875.301	13877.23
875.62	13778.93
875.939	13743.23
876.258	13806.05
876.577	13702.78
876.896	13693.96
877.214	13620.74
877.533	13659.84
877.852	13616.68
878.17	13625.49
878.489	13678.82
878.807	13721.76
879.125	13513.18
879.444	13564.93
879.762	13520.18
880.08	13450.13
880.398	13413.07
880.716	13445.83
881.034	13344.37
881.352	13307.76
881.67	13245.84
881.988	13306.4
882.306	13247.65
882.624	13274.31
882.941	13180.76
883.259	13164.94
883.577	13163.13
883.894	13093.75
884.212	13025.96
884.529	13023.7
884.846	13028.67
885.164	12966.98
885.481	12966.75
885.798	13024.38
886.115	12846.75
886.432	12854.21
886.75	12755.23
887.067	12827.32
887.383	12746.64
887.7	12745.51
888.017	12679.75
888.334	12663.48
888.651	12597.27
888.967	12625.97
889.284	12529.25
889.6	12504.39
889.917	12406.31
890.233	12467.33
890.55	12363.38
890.866	12379.87
891.182	12353.66
891.498	12237.96
891.815	12254.45
892.131	12284.06
892.447	12219.2
892.763	12149.37
893.079	12071.86
893.395	12121.12
893.71	12041.8
894.026	12028.02
894.342	12002.26
894.657	11948.7
894.973	11892.2
895.289	11895.59
895.604	11854.01
895.92	11873.9
896.235	11706.67
896.55	11705.54
896.865	11633.9
897.181	11659.67
897.496	11612.21
897.811	11572.21
898.126	11559.1
898.441	11492.21
898.756	11395.94
899.071	11365.89
899.386	11386.45
899.7	11257.64
900.015	11150.53
900.33	11189.17
900.644	11050.87
900.959	11097.87
901.273	11106.46
901.588	10971.77
901.902	11000.93
902.216	10965.9
902.531	10910.98
902.845	10957.08
903.159	10843.42
903.473	10728.84
903.787	10760.71
904.101	10696.53
904.415	10651.56
904.729	10645.23
905.042	10590.54
905.356	10550.32
905.67	10578.11
905.984	10484.78
906.297	10472.8
906.611	10395.07
906.924	10298.57
907.237	10335.18
907.551	10312.58
907.864	10310.77
908.177	10230.1
908.491	10158.69
908.804	10113.27
909.117	10006.83
909.43	10007.05
909.743	9972.48
910.056	9988.75
910.368	9975.19
910.681	9844.8
910.994	9812.48
911.307	9851.35
911.619	9770.22
911.932	9744.01
912.244	9651.13
912.557	9584.92
912.869	9553.05
913.181	9525.26
913.494	9546.27
913.806	9458.59
914.118	9416.79
914.43	9339.5
914.742	9343.79
915.054	9302.44
915.366	9227.41
915.678	9235.32
915.99	9260.18
916.302	9105.38
916.613	9138.38
916.925	9104.25
917.236	9064.25
917.548	9018.6
917.859	9049.11
918.171	8892.28
918.482	8838.04
918.794	8828.33
919.105	8890.47
919.416	8767.54
919.727	8709.91
920.038	8678.73
920.349	8688.67
920.66	8622.91
920.971	8587.66
921.282	8594.21
921.593	8530.26
921.903	8496.36
922.214	8445.29
922.525	8422.69
922.835	8371.39
923.146	8325.52
923.456	8282.8
923.767	8266.76
924.077	8232.86
924.387	8184.95
924.697	8213.88
925.008	8098.4
925.318	8099.76
925.628	8099.31
925.938	8027.67
926.248	7958.97
926.558	7925.53
926.867	7844.4
927.177	7892.31
927.487	7800.56
927.796	7784.29
928.106	7742.48
928.416	7668.81
928.725	7740.67
929.034	7603.95
929.344	7662.48
929.653	7631.07
929.962	7591.07
930.271	7553.78
930.581	7536.16
930.89	7466.78
931.199	7421.81
931.508	7406.22
931.817	7361.7
932.125	7351.76
932.434	7296.62
932.743	7220.69
933.051	7187.24
933.36	7162.38
933.669	7166
933.977	7129.84
934.286	7111.76
934.594	7125.55
934.902	7022.72
935.21	6971.2
935.519	6982.5
935.827	6950.86
936.135	6912.67
936.443	6894.82
936.751	6841.49
937.059	6798.55
937.367	6755.39
937.674	6800.13
937.982	6764.43
938.29	6655.73
938.597	6653.47
938.905	6598.1
939.213	6609.63
939.52	6588.16
939.827	6561.95
940.135	6521.27
940.442	6496.41
940.749	6431.78
941.056	6496.86
941.363	6390.43
941.67	6385.23
941.977	6350.88
942.284	6292.8
942.591	6234.72
942.898	6223.65
943.205	6212.12
943.511	6201.28
943.818	6212.35
944.125	6136.87
944.431	6140.94
944.738	6139.58
945.044	6125.12
945.35	6040.6
945.657	6032.69
945.963	5980.27
946.269	6010.77
946.575	5955.41
946.881	5883.77
947.187	5933.26
947.493	5857.78
947.799	5796.77
948.105	5819.14
948.41	5731.69
948.716	5754.74
949.022	5745.7
949.327	5670.22
949.633	5645.13
949.938	5667.73
950.244	5616.43
950.549	5658.02
950.854	5585.93
951.16	5574.18
951.465	5512.93
951.77	5510.22
952.075	5458.7
952.38	5444.91
952.685	5410.56
952.99	5427.06
953.294	5376.44
953.599	5361.3
953.904	5342.77
954.209	5280.17
954.513	5308.87
954.818	5274.52
955.122	5268.87
955.426	5256.22
955.731	5205.37
956.035	5182.1
956.339	5166.05
956.643	5125.83
956.948	5057.8
957.252	5068.43
957.556	5093.06
957.86	5014.19
958.163	5002.21
958.467	4935.55
958.771	4961.76
959.075	4936
959.378	4936.45
959.682	4924.48
959.985	4912.05
960.289	4875.21
960.592	4828.43
960.896	4837.7
961.199	4770.81
961.502	4773.07
961.805	4745.95
962.108	4721.32
962.411	4702.56
962.714	4653.3
963.017	4643.58
963.32	4696.23
963.623	4626.18
963.926	4613.07
964.228	4550.02
964.531	4623.69
964.833	4554.09
965.136	4527.88
965.438	4514.99
965.741	4473.64
966.043	4438.61
966.345	4432.51
966.648	4439.52
966.95	4421.66
967.252	4371.95
967.554	4338.95
967.856	4336.92
968.158	4327.65
968.46	4272.74
968.761	4267.09
969.063	4287.66
969.365	4228.45
969.666	4227.09
969.968	4217.15
970.269	4173.76
970.571	4156.81
970.872	4140.09
971.174	4119.3
971.475	4089.47
971.776	4068
972.077	4068.23
972.378	4069.81
972.679	4007.66
972.98	3990.49
973.281	4008.11
973.582	4004.5
973.883	3991.17
974.183	3943.48
974.484	3960.21
974.785	3913.43
975.085	3876.59
975.386	3893.32
975.686	3843.6
975.986	3811.28
976.287	3853.99
976.587	3781.45
976.887	3774.22
977.187	3808.35
977.487	3750.95
977.787	3749.14
978.087	3729.48
978.387	3690.38
978.687	3704.17
978.987	3656.49
979.286	3662.81
979.586	3638.63
979.885	3631.63
980.185	3616.49
980.484	3594.11
980.784	3586.66
981.083	3565.41
981.382	3498.07
981.682	3523.38
981.981	3525.64
982.28	3477.51
982.579	3468.92
982.878	3450.16
983.177	3402.93
983.475	3433.89
983.774	3404.52
984.073	3417.4
984.372	3378.98
984.67	3406.1
984.969	3356.61
985.267	3329.71
985.566	3334.69
985.864	3285.2
986.162	3288.81
986.461	3282.03
986.759	3259.66
987.057	3194.58
987.355	3234.8
987.653	3223.28
987.951	3187.8
988.249	3198.42
988.547	3160
988.844	3170.17
989.142	3187.8
989.44	3116.16
989.737	3094.01
990.035	3101.47
990.332	3089.95
990.63	3037.52
990.927	3048.14
991.224	3045.88
991.521	3029.16
991.819	3014.47
992.116	2990.97
992.413	3004.98
992.71	2960.01
993.006	2931.99
993.303	2907.58
993.6	2913.45
993.897	2902.61
994.193	2913
994.49	2849.5
994.787	2851.08
995.083	2816.96
995.379	2847.69
995.676	2840.69
995.972	2827.36
996.268	2819.9
996.565	2808.37
996.861	2736.51
997.157	2712.1
997.453	2722.05
997.749	2701.03
998.044	2731.31
998.34	2680.69
998.636	2658.09
998.932	2658.55
999.227	2617.42
999.523	2611.54
999.818	2647.25
1000.114	2592.78
1000.409	2612.67
1000.704	2571.09
1001	2555.5
1001.295	2557.08
1001.59	2543.75
1001.885	2491.54
1002.18	2489.28
1002.475	2487.03
1002.77	2476.4
1003.065	2442.05
1003.359	2456.74
1003.654	2467.82
1003.949	2383.98
1004.243	2388.72
1004.538	2400.02
1004.832	2370.19
1005.127	2379.46
1005.421	2333.36
1005.715	2325.22
1006.009	2342.85
1006.304	2277.76
1006.598	2287.93
1006.892	2304.66
1007.186	2245
1007.48	2235.96
1007.773	2237.99
1008.067	2225.11
1008.361	2217.88
1008.655	2217.65
1008.948	2182.63
1009.242	2181.72
1009.535	2157.32
1009.829	2161.16
1010.122	2133.14
1010.415	2117.09
1010.708	2114.83
1011.001	2099.69
1011.295	2095.4
1011.588	2085.45
1011.881	2037.09
1012.173	2033.93
1012.466	2024.66
1012.759	2042.74
1013.052	2026.25
1013.344	2037.09
1013.637	1988.28
1013.93	1999.81
1014.222	1975.17
1014.514	1932.46
1014.807	1938.34
1015.099	1899.02
1015.391	1899.92
1015.683	1915.74
1015.976	1897.44
1016.268	1871.67
1016.56	1881.17
1016.851	1872.35
1017.143	1858.11
1017.435	1817.66
1017.727	1827.61
1018.018	1805.46
1018.31	1795.74
1018.602	1787.83
1018.893	1732.92
1019.185	1742.86
1019.476	1749.42
1019.767	1776.76
1020.058	1732.02
1020.35	1711.68
1020.641	1710.55
1020.932	1692.24
1021.223	1654.5
1021.514	1690.89
1021.804	1638.23
1022.095	1653.15
1022.386	1604.11
1022.677	1610.44
1022.967	1600.95
1023.258	1582.42
1023.548	1610.66
1023.839	1618.12
1024.129	1581.74
1024.419	1567.95
1024.709	1536.77
1025	1527.95
1025.29	1541.29
1025.58	1526.6
1025.87	1508.07
1026.16	1499.93
1026.449	1469.65
1026.739	1449.99
1027.029	1449.54
1027.319	1467.39
1027.608	1443.66
1027.898	1460.84
1028.187	1431.46
1028.477	1419.03
1028.766	1402.31
1029.055	1400.27
1029.344	1396.66
1029.634	1381.07
1029.923	1380.84
1030.212	1348.52
1030.501	1340.16
1030.79	1341.52
1031.078	1340.39
1031.367	1311.91
1031.656	1315.98
1031.945	1320.28
1032.233	1302.42
1032.522	1285.47
1032.81	1236.89
1033.099	1258.36
1033.387	1252.03
1033.675	1259.94
1033.963	1251.35
1034.251	1250.45
1034.54	1198.25
1034.828	1207.74
1035.116	1218.58
1035.403	1201.64
1035.691	1207.28
1035.979	1172.26
1036.267	1147.4
1036.554	1172.03
1036.842	1150.34
1037.129	1140.62
1037.417	1153.73
1037.704	1141.3
1037.992	1127.29
1038.279	1106.95
1038.566	1090.45
1038.853	1090.45
1039.14	1090.45
