Data from white_poster_card_FLMS001491_00087.txt Node
Date: Wed Feb 08 11:52:08 GMT 2017
User: dcchb
Spectrometer: FLMS00149
Trigger mode: 0
Integration Time (sec): 2.000000E-2
Scans to average: 10
Electric dark correction enabled: true
Nonlinearity correction enabled: false
Boxcar width: 0
XAxis mode: Wavelengths
Number of Pixels in Spectrum: 2048
>>>>>Begin Spectral Data<<<<<
341.393	-30.39
341.776	-30.39
342.16	-30.39
342.543	-76.95
342.927	-78.08
343.31	-67
343.693	-68.13
344.077	-67.46
344.46	-56.61
344.843	-58.64
345.226	-34.91
345.61	-44.41
345.993	3.28
346.376	10.96
346.759	16.16
347.142	8.93
347.525	24.52
347.908	51.64
348.291	85.31
348.674	101.58
349.057	94.8
349.44	136.38
349.823	132.31
350.206	137.51
350.588	197.85
350.971	219.09
351.354	231.97
351.737	231.29
352.119	230.16
352.502	237.85
352.884	274.23
353.267	267.9
353.65	271.52
354.032	305.87
354.414	303.61
354.797	328.69
355.179	317.62
355.562	333.66
355.944	314
356.326	312.42
356.709	326.21
357.091	337.73
357.473	344.06
357.855	350.16
358.238	354.68
358.62	335.92
359.002	347
359.384	339.31
359.766	344.74
360.148	326.66
360.53	324.17
360.912	326.21
361.294	319.43
361.676	331.86
362.057	334.12
362.439	320.33
362.821	318.97
363.203	329.14
363.584	330.27
363.966	320.56
364.348	322.82
364.729	324.62
365.111	326.43
365.493	307
365.874	305.87
366.256	309.94
366.637	325.98
367.019	296.38
367.4	290.5
367.781	316.26
368.163	311.07
368.544	310.84
368.925	323.72
369.306	319.43
369.688	280.56
370.069	306.32
370.45	317.39
370.831	330.27
371.212	318.75
371.593	329.82
371.974	313.55
372.355	315.58
372.736	292.76
373.117	312.87
373.498	318.97
373.879	332.08
374.26	316.04
374.641	311.52
375.021	328.92
375.402	317.62
375.783	323.95
376.163	312.42
376.544	333.66
376.925	352.87
377.305	320.56
377.686	325.08
378.066	337.51
378.447	323.72
378.827	340.89
379.208	335.25
379.588	338.18
379.968	343.61
380.349	339.31
380.729	348.35
381.109	322.14
381.489	333.66
381.87	333.21
382.25	353.78
382.63	353.32
383.01	339.99
383.39	349.26
383.77	359.88
384.15	336.83
384.53	346.32
384.91	358.52
385.29	360.56
385.67	368.69
386.049	366.43
386.429	362.36
386.809	348.35
387.189	370.5
387.568	371.4
387.948	369.14
388.328	349.26
388.707	384.51
389.087	373.44
389.466	356.71
389.846	386.54
390.225	375.7
390.605	384.96
390.984	401.01
391.363	365.53
391.743	386.32
392.122	408.69
392.501	401.23
392.881	402.36
393.26	386.77
393.639	379.31
394.018	410.05
394.397	408.69
394.776	403.04
395.155	403.94
395.534	402.14
395.913	418.86
396.292	397.16
396.671	418.41
397.05	422.02
397.429	419.99
397.808	415.92
398.186	415.02
398.565	440.55
398.944	433.1
399.323	442.36
399.701	405.53
400.08	446.88
400.458	440.55
400.837	455.47
401.215	471.06
401.594	454.34
401.972	439.42
402.351	468.58
402.729	476.94
403.107	463.83
403.486	452.98
403.864	481
404.242	469.93
404.62	497.5
404.999	452.76
405.377	490.27
405.755	487.33
406.133	508.12
406.511	521.23
406.889	498.18
407.267	516.94
407.645	512.64
408.023	527.56
408.401	542.92
408.779	546.31
409.156	546.09
409.534	536.14
409.912	575.01
410.29	579.98
410.667	600.32
411.045	554.9
411.422	610.49
411.8	618.85
412.178	619.98
412.555	620.66
412.933	647.33
413.31	679.87
413.687	680.55
414.065	690.72
414.442	712.86
414.819	702.02
415.197	739.3
415.574	742.69
415.951	753.31
416.328	791.28
416.705	771.62
417.082	773.88
417.46	805.29
417.837	827.44
418.214	832.18
418.591	826.08
418.967	865.85
419.344	854.33
419.721	889.13
420.098	916.93
420.475	930.94
420.852	945.62
421.228	923.7
421.605	960.54
421.982	969.58
422.358	990.14
422.735	995.12
423.111	1008.9
423.488	999.41
423.864	1008.67
424.241	1064.94
424.617	1045.74
424.994	1070.14
425.37	1064.49
425.746	1112.17
426.123	1111.04
426.499	1124.38
426.875	1139.74
427.251	1168.22
427.627	1203.47
428.003	1190.14
428.379	1235.56
428.756	1212.74
429.132	1246.86
429.507	1243.7
429.883	1280.08
430.259	1311.49
430.635	1316.91
431.011	1319.85
431.387	1358.04
431.763	1367.76
432.138	1391.49
432.514	1447.08
432.89	1409.34
433.265	1444.82
433.641	1496.34
434.016	1489.57
434.392	1533.63
434.767	1543.12
435.143	1541.54
435.518	1555.78
435.894	1608.43
436.269	1617.7
436.644	1627.87
437.02	1637.58
437.395	1657.02
437.77	1705.6
438.145	1706.51
438.52	1717.81
438.895	1704.25
439.271	1748.54
439.646	1761.65
440.021	1793.06
440.395	1785.38
440.77	1787.41
441.145	1835.32
441.52	1856.11
441.895	1862.44
442.27	1867.18
442.645	1867.18
443.019	1894.3
443.394	1900.4
443.769	1921.64
444.143	1903.34
444.518	1947.63
444.892	1930.91
445.267	1954.41
445.641	1983.11
446.016	1962.32
446.39	2009.55
446.764	2038.93
447.139	2002.55
447.513	2017.46
447.887	2045.93
448.262	2056.1
448.636	2070.57
449.01	2097.91
449.384	2106.27
449.758	2122.54
450.132	2152.15
450.506	2149.21
450.88	2158.25
451.254	2161.86
451.628	2197.57
452.002	2238.7
452.376	2257
452.75	2250
453.123	2262.2
453.497	2314.85
453.871	2326.83
454.244	2373.38
454.618	2380.39
454.992	2417.22
455.365	2406.6
455.739	2483.21
456.112	2484.57
456.486	2501.29
456.859	2555.07
457.232	2563.44
457.606	2576.99
457.979	2628.52
458.352	2680.04
458.725	2668.29
459.099	2709.87
459.472	2756.65
459.845	2791.23
460.218	2783.99
460.591	2833.48
460.964	2822.41
461.337	2893.82
461.71	2980.15
462.083	3010.88
462.456	2963.42
462.829	3015.4
463.201	3065.57
463.574	3086.13
463.947	3104.21
464.32	3233.7
464.692	3207.71
465.065	3226.47
465.438	3242.97
465.81	3270.99
466.183	3339.23
466.555	3436.18
466.928	3422.62
467.3	3402.28
467.672	3494.26
468.045	3564.54
468.417	3579.91
468.789	3659.9
469.161	3661.26
469.534	3717.76
469.906	3788.49
470.278	3826.68
470.65	3874.14
471.022	3935.6
471.394	3972.21
471.766	4007.24
472.138	4048.82
472.51	4171.98
472.882	4198.65
473.253	4226.89
473.625	4273.9
473.997	4371.75
474.369	4404.06
474.74	4478.64
475.112	4563.61
475.484	4593.44
475.855	4687.45
476.227	4723.38
476.598	4835.47
476.97	4881.79
477.341	4983.26
477.713	5032.07
478.084	5089.24
478.455	5198.85
478.827	5226.42
479.198	5377.15
479.569	5414.89
479.94	5555.22
480.311	5606.75
480.682	5739.4
481.053	5846.29
481.424	5973.52
481.795	6005.83
482.166	6069.33
482.537	6128.54
482.908	6293.51
483.279	6351.13
483.65	6452.15
484.021	6608.07
484.391	6650.33
484.762	6677.45
485.133	6706.6
485.503	6851.23
485.874	7029.76
486.244	7107.5
486.615	7208.29
486.985	7309.07
487.356	7469.07
487.726	7492.57
488.097	7593.59
488.467	7661.15
488.837	7802.17
489.207	7876.29
489.578	7984.99
489.948	8067.25
490.318	8239.9
490.688	8273.57
491.058	8345.2
491.428	8437.86
491.798	8561.47
492.168	8692.99
492.538	8792.88
492.908	8862.25
493.278	8971.4
493.648	8991.51
494.017	9151.06
494.387	9244.39
494.757	9277.84
495.126	9370.94
495.496	9438.73
495.866	9484.84
496.235	9591.73
496.605	9753.75
496.974	9754.66
497.344	9979.51
497.713	9914.43
498.082	9987.2
498.452	10196
498.821	10174.31
499.19	10250.92
499.559	10318.71
499.928	10391.03
500.298	10496.11
500.667	10624.47
501.036	10567.52
501.405	10685.71
501.774	10753.73
502.143	10810
502.512	10844.35
502.88	10999.6
503.249	11007.28
503.618	11059.94
503.987	11198.24
504.356	11214.73
504.724	11346.48
505.093	11368.18
505.462	11435.07
505.83	11590.32
506.199	11626.47
506.567	11760.48
506.936	11777.2
507.304	11888.16
507.672	12027.82
508.041	12049.51
508.409	12118.66
508.777	12281.82
509.145	12280.47
509.514	12368.15
509.882	12485.43
510.25	12542.61
510.618	12614.24
510.986	12692.43
511.354	12812.43
511.722	12908.93
512.09	12987.79
512.458	12994.8
512.826	13177.85
513.193	13181.91
513.561	13331.74
513.929	13372.42
514.297	13555.46
514.664	13644.27
515.032	13668.91
515.4	13731.5
515.767	13867.77
516.135	13846.08
516.502	13883.82
516.869	14122
517.237	14184.37
517.604	14277.03
517.972	14401.99
518.339	14488.55
518.706	14579.16
519.073	14650.8
519.44	14760.63
519.808	14894.86
520.175	14960.62
520.542	15143.22
520.909	15245.59
521.276	15361.97
521.643	15446.49
522.009	15592.92
522.376	15738.91
522.743	15736.2
523.11	15872.46
523.477	16054.83
523.843	16104.1
524.21	16309.06
524.577	16430.64
524.943	16513.13
525.31	16597.19
525.676	16762.84
526.043	16881.48
526.409	17010.06
526.776	17165.31
527.142	17236.72
527.508	17344.97
527.874	17581.57
528.241	17717.16
528.607	17693.21
528.973	17785.18
529.339	17924.84
529.705	18123.25
530.071	18252.74
530.437	18318.05
530.803	18388.56
531.169	18582.68
531.535	18525.5
531.901	18659.28
532.267	18671.49
532.632	18836.68
532.998	18954.42
533.364	19121.87
533.73	19135.2
534.095	19256.78
534.461	19342.88
534.826	19525.93
535.192	19532.03
535.557	19669.43
535.923	19739.03
536.288	19739.93
536.653	19852.25
537.019	19889.76
537.384	19993.26
537.749	20015.41
538.114	20137.89
538.479	20237.1
538.845	20311.67
539.21	20254.72
539.575	20408.84
539.94	20490.65
540.305	20616.52
540.67	20598.44
541.034	20785.78
541.399	20798.21
541.764	20870.07
542.129	21023.06
542.494	21035.27
542.858	21148.48
543.223	21112.1
543.587	21290.4
543.952	21261.93
544.316	21405.43
544.681	21461.7
545.045	21581.01
545.41	21675.48
545.774	21680.67
546.138	21599.32
546.503	21885.64
546.867	21800.22
547.231	22192.52
547.595	22011.51
547.959	22110.49
548.324	22195.69
548.688	22249.92
549.052	22372.63
549.416	22375.8
549.779	22481.56
550.143	22589.58
550.507	22714.54
550.871	22735.11
551.235	22837.7
551.599	22971.71
551.962	22953.41
552.326	23071.82
552.689	23241.76
553.053	23085.38
553.417	23249.22
553.78	23489.21
554.143	23425.49
554.507	23603.33
554.87	23718.81
555.234	23837.68
555.597	23777.57
555.96	23966.04
556.323	24035.87
556.686	23970.1
557.05	24255.97
557.413	24401.73
557.776	24424.78
558.139	24592.69
558.502	24611.9
558.865	24624.78
559.228	24804.21
559.59	24886.92
559.953	25062.28
560.316	25259.79
560.679	25309.28
561.041	25434.25
561.404	25659.1
561.767	25687.12
562.129	25759.44
562.492	25944.74
562.854	25933.22
563.217	25892.09
563.579	26139.99
563.941	26277.16
564.304	26431.51
564.666	26607.1
565.028	26711.73
565.39	26783.59
565.753	26940.65
566.115	26974.54
566.477	27157.14
566.839	27297.47
567.201	27391.26
567.563	27369.34
567.925	27609.56
568.287	27679.61
568.648	27612.49
569.01	27863.11
569.372	27907.63
569.734	27907.4
570.095	28105.59
570.457	28212.93
570.819	28296.77
571.18	28237.11
571.542	28462.87
571.903	28596.65
572.265	28598.68
572.626	28697.21
572.987	28763.65
573.349	28876.42
573.71	28926.13
574.071	28989.63
574.432	29140.14
574.794	29324.99
575.155	29289.51
575.516	29209.74
575.877	29471.43
576.238	29525.44
576.599	29587.81
576.96	29605.89
577.32	29697.86
577.681	29877.29
578.042	29784.64
578.403	29851.08
578.763	29993
579.124	29829.16
579.485	30106.21
579.845	30216.72
580.206	30041.13
580.566	30089.72
580.927	30183.73
581.287	30256.49
581.648	30159.32
582.008	30310.05
582.368	30197.74
582.728	30223.95
583.089	30254.23
583.449	30326.32
583.809	30452.42
584.169	30422.14
584.529	30349.6
584.889	30529.03
585.249	30300.33
585.609	30378.52
585.969	30452.65
586.329	30378.75
586.688	30511.18
587.048	30380.78
587.408	30454.45
587.768	30423.95
588.127	30254.46
588.487	30502.81
588.846	30544.17
589.206	30428.24
589.565	30413.1
589.925	30595.01
590.284	30406.77
590.643	30486.77
591.003	30465.3
591.362	30712.98
591.721	30493.32
592.08	30531.29
592.44	30561.12
592.799	30585.52
593.158	30517.73
593.517	30483.15
593.876	30659.87
594.235	30633.43
594.593	30637.5
594.952	30689.25
595.311	30536.26
595.67	30724.5
596.029	30868.91
596.387	30897.61
596.746	30830.26
597.104	30698.06
597.463	30705.29
597.822	30910.49
598.18	30694.9
598.538	30825.29
598.897	30917.49
599.255	30578.74
599.613	31077.71
599.972	30933.31
600.33	31016.02
600.688	30910.71
601.046	31108.22
601.404	31212.85
601.762	31060.99
602.12	31281.78
602.478	31099.41
602.836	31226.64
603.194	31049.01
603.552	31257.6
603.91	31135.57
604.268	31231.38
604.625	31214.89
604.983	31373.98
605.341	31184.38
605.698	31385.05
606.056	31534.43
606.413	31477.25
606.771	31588.89
607.128	31600.86
607.485	31429.8
607.843	31409.23
608.2	31693.74
608.557	31718.15
608.914	31557.93
609.272	31696.91
609.629	31857.35
609.986	31832.27
610.343	31640.64
610.7	32117.23
611.057	31878.82
611.414	31924.02
611.771	31848.77
612.127	31964.92
612.484	32035.43
612.841	32094.64
613.198	32033.85
613.554	32086.5
613.911	32227.74
614.267	32179.38
614.624	32154.07
614.98	32217.34
615.337	32399.04
615.693	32255.54
616.05	32202.2
616.406	32475.42
616.762	32314.97
617.118	32191.13
617.475	32344.8
617.831	32376.44
618.187	32578.69
618.543	32336.66
618.899	32624.57
619.255	32625.02
619.611	32531.91
619.967	32658.24
620.323	32684
620.678	32588.41
621.034	32423.22
621.39	32521.52
621.746	32421.86
622.101	32793.6
622.457	32491.91
622.812	32657.56
623.168	32651.23
623.523	32489.65
623.879	32848.51
624.234	32520.16
624.589	32685.81
624.945	32676.77
625.3	32719.48
625.655	32714.96
626.01	32702.53
626.365	32710.89
626.72	32623.66
627.075	32640.16
627.43	32516.09
627.785	32508.64
628.14	32634.74
628.495	32571.69
628.85	32587.05
629.205	32466.6
629.559	32599.93
629.914	32396.1
630.269	32501.41
630.623	32305.25
630.978	32394.06
631.332	32403.1
631.687	32370.79
632.041	32291.02
632.396	32422.99
632.75	32229.1
633.104	32278.81
633.459	32111.81
633.813	32106.61
634.167	32130.12
634.521	32101.64
634.875	32127.86
635.229	32061.87
635.583	31895.32
635.937	31943
636.291	31994.53
636.645	31995.66
636.999	31839.95
637.352	31952.27
637.706	31736.68
638.06	31882.89
638.413	31698.04
638.767	31549.11
639.121	31633.18
639.474	31574.65
639.828	31456.24
640.181	31607.19
640.534	31587.53
640.888	31343.7
641.241	31399.97
641.594	31369.91
641.947	31331.94
642.301	31342.57
642.654	31258.73
643.007	31355.9
643.36	31258.5
643.713	31117.26
644.066	31324.71
644.419	31088.34
644.771	30941.45
645.124	30515.47
645.477	30384.62
645.83	30145.08
646.182	30227.11
646.535	30248.13
646.888	30132.2
647.24	29924.52
647.593	30116.38
647.945	30058.98
648.298	29797.75
648.65	29807.01
649.002	29677.98
649.355	29825.77
649.707	29866.22
650.059	29895.6
650.411	30349.82
650.763	30340.33
651.115	30493.1
651.467	30395.47
651.819	30442.02
652.171	30336.49
652.523	30375.59
652.875	30360.9
653.227	30119.32
653.578	30385.53
653.93	30353.89
654.282	30225.08
654.633	30164.29
654.985	30090.17
655.337	30122.26
655.688	30021.24
656.039	30190.51
656.391	29893.11
656.742	30120.22
657.094	30078.19
657.445	30066.44
657.796	29922.49
658.147	29821.7
658.498	29827.8
658.849	29913.22
659.2	29819.67
659.551	29847.69
659.902	29760.23
660.253	29877.97
660.604	29886.33
660.955	29677.07
661.306	29856.73
661.656	29746.22
662.007	29741.03
662.358	29757.52
662.708	29572.22
663.059	29509.85
663.409	29489.51
663.76	29656.06
664.11	29684.08
664.461	29687.24
664.811	29508.49
665.161	29562.27
665.511	29475.95
665.862	29558.66
666.212	29586.45
666.562	29462.84
666.912	29464.65
667.262	29433.69
667.612	29371.09
667.962	29468.94
668.312	29260.81
668.662	29558.88
669.011	29383.97
669.361	29370.87
669.711	29376.97
670.06	29268.95
670.41	29233.47
670.76	29073.25
671.109	29296.74
671.459	29299.23
671.808	29174.49
672.157	29222.85
672.507	29042.06
672.856	29113.92
673.205	29034.83
673.554	29287.7
673.904	29103.08
674.253	29266.46
674.602	29109.63
674.951	28663.54
675.3	28595.75
675.649	29025.79
675.998	28982.85
676.346	28980.14
676.695	29037.77
677.044	28781.28
677.393	28810.2
677.741	28895.17
678.09	28794.16
678.438	28740.83
678.787	28816.98
679.135	28771.79
679.484	28642.75
679.832	28642.98
680.181	28518.91
680.529	28526.59
680.877	28582.64
681.225	28471.23
681.573	28693.37
681.922	28430.55
682.27	28389.2
682.618	28311.68
682.966	28265.81
683.314	28337.9
683.661	28099.26
684.009	28124.12
684.357	27968.19
684.705	28044.8
685.053	28043.44
685.4	27891.36
685.748	27901.75
686.095	27853.84
686.443	27662.89
686.79	27599.84
687.138	27695.88
687.485	27759.16
687.832	27537.02
688.18	27456.34
688.527	27526.17
688.874	27456.11
689.221	27389.9
689.568	27311.03
689.915	27273.52
690.262	27256.35
690.609	27048.44
690.956	26955.79
691.303	27022.91
691.65	26931.83
691.997	26846.64
692.344	26817.49
692.69	26644.38
693.037	26719.64
693.383	26514.22
693.73	26579.3
694.077	26416.14
694.423	26341.34
694.769	26319.87
695.116	26183.61
695.462	26130.73
695.808	26104.51
696.155	26209.59
696.501	25976.61
696.847	25881.69
697.193	25662.49
697.539	25878.98
697.885	25594.92
698.231	25540.01
698.577	25517.41
698.923	25545.66
699.269	25302.27
699.614	25284.87
699.96	25238.32
700.306	25291.88
700.651	25121.94
700.997	25070.41
701.342	25023.86
701.688	24972.11
702.033	24913.36
702.379	24863.87
702.724	24775.05
703.069	24785.22
703.415	24564.44
703.76	24531.45
704.105	24543.87
704.45	24444.44
704.795	24368.29
705.14	24188.18
705.485	24278.34
705.83	24143.43
706.175	24282.19
706.52	24176.43
706.865	24025.47
707.209	24034.28
707.554	23925.59
707.899	23926.94
708.243	23763.1
708.588	23792.93
708.932	23548.65
709.277	23534.86
709.621	23563.34
709.966	23364.24
710.31	23490.79
710.654	23279.5
710.998	23348.65
711.342	23324.47
711.687	23232.72
712.031	23025.95
712.375	22986.85
712.719	23151.82
713.063	22940.53
713.407	22973.97
713.75	23002.22
714.094	22835.67
714.438	22731.49
714.782	22821.21
715.125	22634.32
715.469	22660.08
715.812	22650.14
716.156	22466.41
716.499	22487.43
716.843	22438.17
717.186	22361.78
717.53	22425.96
717.873	22479.97
718.216	22368.11
718.559	22328.57
718.902	22126.31
719.246	22236.36
719.589	22136.25
719.932	22071.62
720.275	22110.49
720.617	22042.7
720.96	22006.31
721.303	21931.51
721.646	21993.43
721.989	21914.57
722.331	21869.82
722.674	21836.83
723.016	21787.34
723.359	21785.75
723.701	21797.05
724.044	21509.83
724.386	21532.43
724.729	21492.88
725.071	21490.4
725.413	21426.89
725.755	21534.24
726.097	21346.44
726.439	21181.48
726.782	21307.12
727.124	21354.58
727.465	21256.73
727.807	21115.94
728.149	21113.46
728.491	21104.19
728.833	21166.34
729.175	21033.01
729.516	20863.07
729.858	20816.29
730.199	20968.15
730.541	20917.53
730.882	20906
731.224	20895.16
731.565	20718.89
731.906	20795.05
732.248	20881.6
732.589	20723.41
732.93	20649.97
733.271	20569.52
733.612	20705.11
733.953	20635.73
734.294	20559.12
734.635	20474.38
734.976	20596.63
735.317	20342.85
735.658	20424.89
735.999	20411.33
736.339	20340.82
736.68	20335.62
737.021	20306.47
737.361	20217.89
737.702	20349.86
738.042	20339.92
738.383	20190.77
738.723	20286.59
739.063	20167.27
739.404	20236.87
739.744	20076.65
740.084	19936.54
740.424	20096.99
740.764	20016.31
741.104	19948.52
741.444	19868.97
741.784	19749.88
742.124	19874.84
742.464	19860.38
742.804	19672.36
743.143	19791.23
743.483	19692.48
743.823	19527.28
744.162	19671.46
744.502	19619.71
744.841	19616.09
745.181	19568.41
745.52	19556.89
745.86	19494.06
746.199	19441.64
746.538	19421.75
746.877	19442.09
747.216	19496.55
747.556	19388.53
747.895	19318.93
748.234	19160.29
748.573	19130.01
748.911	19123.23
749.25	19238.03
749.589	19069.67
749.928	19096.79
750.267	19085.26
750.605	18924.59
750.944	18809.56
751.283	18868.54
751.621	18944.47
751.96	18740.19
752.298	18775.66
752.636	18785.83
752.975	18657.93
753.313	18669.68
753.651	18726.4
753.989	18535.9
754.327	18571.15
754.666	18432.62
755.004	18437.14
755.342	18428.1
755.679	18418.39
756.017	18342
756.355	18389.01
756.693	18176.58
757.031	18292.06
757.368	18243.7
757.706	18162.57
758.044	18139.98
758.381	18089.13
758.719	18004.61
759.056	18020.66
759.394	17982.92
759.731	17899.3
760.068	17727.78
760.405	17725.07
760.743	17749.25
761.08	17736.6
761.417	17701.57
761.754	17606.66
762.091	17531.63
762.428	17421.58
762.765	17298.19
763.102	17473.1
763.438	17337.06
763.775	17123.73
764.112	17211.19
764.449	17194.69
764.785	17193.33
765.122	16915.6
765.458	16969.61
765.795	16916.5
766.131	16959.67
766.467	16842.83
766.804	16789.95
767.14	16759.22
767.476	16610.52
767.812	16611.2
768.148	16578.43
768.485	16442.62
768.821	16390.42
769.157	16352.68
769.492	16325.11
769.828	16358.55
770.164	16165.56
770.5	16081.05
770.836	16184.77
771.171	16007.6
771.507	15956.76
771.842	15883.31
772.178	15911.79
772.513	15858
772.849	15750.43
773.184	15752.02
773.519	15725.35
773.855	15584.34
774.19	15579.14
774.525	15505.69
774.86	15538.46
775.195	15418.46
775.53	15321.52
775.865	15267.96
776.2	15121.98
776.535	15146.83
776.87	15138.47
777.205	15061.86
777.539	14963.11
777.874	14976.67
778.209	14812.83
778.543	14824.13
778.878	14738.03
779.212	14689.67
779.547	14562.67
779.881	14764.92
780.215	14488.55
780.55	14605.38
780.884	14421.43
781.218	14377.14
781.552	14446.74
781.886	14363.35
782.22	14187.76
782.554	14209.91
782.888	14104.6
783.222	14007.88
783.556	13882.01
783.889	13925.17
784.223	13889.92
784.557	13864.83
784.89	13925.62
785.224	13709.36
785.557	13698.96
785.891	13687.44
786.224	13571.06
786.558	13632.75
786.891	13470.49
787.224	13415.35
787.557	13388.46
787.891	13349.37
788.224	13390.72
788.557	13364.28
788.89	13294.9
789.223	13251.74
789.556	13139.88
789.888	13128.13
790.221	13054.23
790.554	13029.15
790.887	12919.1
791.219	12978.98
791.552	12909.38
791.884	12823.96
792.217	12819.44
792.549	12735.6
792.882	12673
793.214	12610.63
793.546	12634.58
793.879	12524.98
794.211	12446.11
794.543	12512.33
794.875	12476.17
795.207	12522.95
795.539	12360.47
795.871	12384.42
796.203	12241.15
796.535	12176.52
796.867	12167.02
797.198	12166.35
797.53	12110.76
797.862	12063.3
798.193	12131.32
798.525	11970.87
798.856	12018.1
799.188	11910.76
799.519	11873.47
799.85	11755.28
800.182	11789.41
800.513	11805.68
800.844	11630.54
801.175	11670.77
801.506	11747.37
801.837	11641.84
802.168	11598.68
802.499	11562.07
802.83	11431
803.161	11515.06
803.491	11538.79
803.822	11495.63
804.153	11505.57
804.483	11312.81
804.814	11272.58
805.145	11315.07
805.475	11303.77
805.805	11264
806.136	11249.31
806.466	11237.56
806.796	11207.05
807.126	11101.74
807.457	11054.74
807.787	11094.28
808.117	10970.9
808.447	10942.2
808.777	11008.86
809.107	10910.33
809.436	10930.45
809.766	10876.89
810.096	10836.44
810.426	10755.76
810.755	10718.48
811.085	10764.35
811.414	10733.16
811.744	10680.74
812.073	10626.27
812.403	10595.99
812.732	10540.17
813.061	10555.99
813.39	10558.93
813.719	10460.4
814.049	10578.59
814.378	10404.81
814.707	10440.52
815.036	10433.28
815.365	10370.91
815.693	10288.43
816.022	10270.8
816.351	10226.51
816.68	10247.3
817.008	10214.31
817.337	10108.32
817.665	10138.15
817.994	10122.33
818.322	10048.21
818.651	10101.32
818.979	10073.07
819.307	10094.76
819.636	10107.87
819.964	9966.18
820.292	10050.02
820.62	9953.52
820.948	9961.88
821.276	10031.71
821.604	9982
821.932	10072.84
822.259	10038.27
822.587	10004.6
822.915	9947.87
823.243	10011.15
823.57	9892.28
823.898	9972.51
824.225	9883.47
824.553	9872.85
824.88	9874.66
825.207	9923.92
825.535	9930.02
825.862	10002.56
826.189	9882.57
826.516	9852.28
826.843	9899.97
827.17	9912.17
827.497	9921.89
827.824	9925.73
828.151	9921.66
828.478	9894.99
828.805	9924.6
829.131	9877.82
829.458	9861.55
829.785	9866.29
830.111	9818.16
830.438	9856.8
830.764	9870.14
831.09	9854.32
831.417	9797.82
831.743	9823.36
832.069	9823.58
832.395	9810.93
832.722	9798.73
833.048	9757.37
833.374	9819.97
833.7	9765.96
834.026	9774.09
834.351	9810.93
834.677	9777.71
835.003	9812.06
835.329	9723.93
835.654	9751.27
835.98	9674.89
836.306	9744.26
836.631	9665.17
836.956	9676.92
837.282	9657.94
837.607	9678.5
837.932	9630.14
838.258	9605.51
838.583	9637.83
838.908	9586.75
839.233	9591.5
839.558	9510.15
839.883	9511.28
840.208	9481.45
840.533	9463.59
840.858	9496.81
841.182	9449.13
841.507	9470.82
841.832	9459.53
842.156	9356.93
842.481	9391.05
842.805	9381.11
843.13	9339.53
843.454	9343.82
843.778	9302.47
844.103	9244.16
844.427	9212.75
844.751	9296.14
845.075	9222.47
845.399	9222.7
845.723	9112.42
846.047	9146.31
846.371	9155.8
846.695	9082.36
847.019	9017.5
847.343	8956.26
847.666	8974.11
847.99	8855.25
848.313	8862.25
848.637	8866.55
848.96	8805.31
849.284	8791.07
849.607	8702.26
849.931	8759.66
850.254	8693.22
850.577	8623.16
850.9	8580
851.223	8514.01
851.546	8484.18
851.869	8475.6
852.192	8501.36
852.515	8359.89
852.838	8340.23
853.161	8347.01
853.483	8316.05
853.806	8325.32
854.129	8225.66
854.451	8226.79
854.774	8183.85
855.096	8180.46
855.419	8088.71
855.741	8186.79
856.063	8120.58
856.385	8072.67
856.708	8030.64
857.03	8000.13
857.352	8031.09
857.674	8024.53
857.996	7921.26
858.318	7842.62
858.64	7887.36
858.961	7914.26
859.283	7836.52
859.605	7824.77
859.926	7771.21
860.248	7816.86
860.57	7786.8
860.891	7725.79
861.212	7677.2
861.534	7762.17
861.855	7714.49
862.176	7724.88
862.498	7731.44
862.819	7688.95
863.14	7614.83
863.461	7697.54
863.782	7630.19
864.103	7599.91
864.424	7590.2
864.745	7601.27
865.065	7596.75
865.386	7521.5
865.707	7530.76
866.027	7554.26
866.348	7487.37
866.668	7523.98
866.989	7497.77
867.309	7413.25
867.63	7490.31
867.95	7453.02
868.27	7427.04
868.59	7432.23
868.91	7422.97
869.23	7361.28
869.55	7392.69
869.87	7359.92
870.19	7379.35
870.51	7400.82
870.83	7328.96
871.15	7316.3
871.469	7328.73
871.789	7310.88
872.109	7258
872.428	7248.06
872.748	7287.83
873.067	7300.94
873.386	7228.85
873.706	7281.5
874.025	7230.88
874.344	7211
874.663	7224.33
874.982	7201.96
875.301	7179.13
875.62	7088.74
875.939	7096.88
876.258	7132.58
876.577	7146.59
876.896	7138.46
877.214	7069.98
877.533	7105.24
877.852	7100.04
878.17	7048.52
878.489	7061.62
878.807	7009.87
879.125	6991.34
879.444	6992.02
879.762	6973.71
880.08	6990.89
880.398	6945.47
880.716	6959.7
881.034	6917.22
881.352	6972.59
881.67	6908.86
881.988	6915.86
882.306	6817.56
882.624	6881.97
882.941	6885.36
883.259	6778.92
883.577	6810.56
883.894	6763.55
884.212	6775.98
884.529	6783.66
884.846	6773.04
885.164	6750.67
885.481	6690.11
885.798	6723.1
886.115	6648.98
886.432	6653.72
886.75	6624.35
887.067	6626.61
887.383	6643.78
887.7	6593.16
888.017	6591.35
888.334	6613.05
888.651	6574.4
888.967	6559.71
889.284	6434.52
889.6	6512.03
889.917	6429.32
890.233	6463.67
890.55	6403.79
890.866	6459.6
891.182	6400.85
891.498	6408.53
891.815	6403.33
892.131	6310.23
892.447	6300.29
892.763	6243.11
893.079	6288.54
893.395	6261.19
893.71	6270.68
894.026	6252.6
894.342	6244.24
894.657	6191.81
894.973	6184.58
895.289	6165.6
895.604	6172.61
895.92	6116.34
896.235	6144.81
896.55	6119.95
896.865	6101.2
897.181	6098.94
897.496	6043.34
897.811	6001.54
898.126	5972.61
898.441	5980.97
898.756	5983.23
899.071	5900.97
899.386	5877.02
899.7	5849.45
900.015	5887.19
900.33	5865.27
900.644	5820.3
900.959	5837.7
901.273	5805.61
901.588	5778.94
901.902	5782.56
902.216	5727.19
902.531	5711.15
902.845	5662.11
903.159	5677.48
903.473	5657.82
903.787	5670.02
904.101	5552.96
904.415	5602.23
904.729	5560.64
905.042	5524.94
905.356	5541.89
905.67	5514.09
905.984	5523.13
906.297	5508.89
906.611	5404.04
906.924	5434.55
907.237	5453.75
907.551	5426.86
907.864	5401.55
908.177	5346.64
908.491	5336.47
908.804	5325.85
909.117	5291.27
909.43	5267.55
909.743	5217.6
910.056	5236.36
910.368	5197.94
910.681	5211.73
910.994	5167.89
911.307	5178.51
911.619	5081.34
911.932	5113.88
912.244	5045.86
912.557	5102.13
912.869	5043.37
913.181	5044.27
913.494	5021.9
913.806	4987.78
914.118	4981.9
914.43	4938.29
914.742	4917.72
915.054	4885.18
915.366	4844.05
915.678	4822.13
915.99	4867.78
916.302	4794.11
916.613	4800.44
916.925	4779.65
917.236	4783.94
917.548	4766.32
917.859	4715.92
918.171	4683.61
918.482	4669.82
918.794	4680.22
919.105	4672.98
919.416	4625.75
919.727	4586.89
920.038	4627.34
920.349	4602.03
920.66	4563.38
920.971	4575.59
921.282	4539.88
921.593	4523.16
921.903	4474.35
922.214	4472.76
922.525	4467.79
922.835	4458.75
923.146	4409.94
923.456	4434.57
923.767	4383.95
924.077	4381.47
924.387	4365.65
924.697	4334.24
925.008	4308.47
925.318	4315.93
925.628	4273.67
925.938	4305.54
926.248	4257.18
926.558	4221.02
926.867	4227.12
927.177	4263.5
927.487	4194.58
927.796	4197.06
928.106	4171.75
928.416	4120
928.725	4106.45
929.034	4116.61
929.344	4054.7
929.653	4059.22
929.962	4028.26
930.271	4019.44
930.581	3995.04
930.89	3966.79
931.199	3965.21
931.508	3952.78
931.817	3954.81
932.125	3935.6
932.434	3945.09
932.743	3868.49
933.051	3902.61
933.36	3870.29
933.669	3853.57
933.977	3834.36
934.286	3847.24
934.594	3834.59
934.902	3762.05
935.21	3776.96
935.519	3765.89
935.827	3730.41
936.135	3722.95
936.443	3715.72
936.751	3695.38
937.059	3706
937.367	3687.02
937.674	3693.8
937.982	3662.16
938.29	3630.75
938.597	3651.09
938.905	3569.28
939.213	3568.61
939.52	3596.18
939.827	3588.95
940.135	3541.26
940.442	3507.59
940.749	3508.95
941.056	3522.96
941.363	3479.12
941.67	3458.33
941.977	3456.29
942.284	3442.06
942.591	3433.02
942.898	3403.87
943.205	3388.72
943.511	3352.79
943.818	3363.64
944.125	3322.06
944.431	3336.07
944.738	3282.51
945.044	3351.89
945.35	3302.17
945.657	3295.39
945.963	3265.11
946.269	3246.13
946.575	3239.8
946.881	3234.38
947.187	3201.61
947.493	3182.18
947.799	3220.37
948.105	3172.68
948.41	3124.78
948.716	3167.49
949.022	3136.98
949.327	3111.22
949.633	3074.16
949.938	3080.03
950.244	3041.84
950.549	3063.76
950.854	3044.1
951.16	3075.51
951.465	3035.51
951.77	2997.32
952.075	3025.34
952.38	2985.8
952.685	2988.28
952.99	2949.41
953.294	2947.61
953.599	2925.91
953.904	2918.45
954.209	2892.69
954.513	2918.68
954.818	2880.72
955.122	2917.78
955.426	2895.63
955.731	2845.01
956.035	2851.34
956.339	2861.05
956.643	2823.77
956.948	2800.49
957.252	2832.81
957.556	2814.5
957.86	2794.16
958.163	2807.72
958.467	2776.09
958.771	2717.56
959.075	2750.55
959.378	2713.94
959.682	2751.91
959.985	2693.83
960.289	2696.77
960.592	2702.87
960.896	2651.34
961.199	2665.58
961.502	2650.89
961.805	2620.16
962.108	2601.85
962.411	2624.45
962.714	2597.78
963.017	2612.93
963.32	2577.9
963.623	2571.34
963.926	2541.06
964.228	2544.68
964.531	2508.75
964.833	2501.74
965.136	2527.73
965.438	2498.58
965.741	2493.61
966.043	2498.58
966.345	2466.26
966.648	2475.53
966.95	2468.97
967.252	2423.55
967.554	2457.68
967.856	2416.55
968.158	2414.74
968.46	2419.71
968.761	2401.18
969.063	2407.73
969.365	2344.01
969.666	2376.55
969.968	2369.54
970.269	2334.97
970.571	2338.36
970.872	2325.48
971.174	2303.33
971.475	2282.76
971.776	2300.62
972.077	2270.79
972.378	2272.37
972.679	2266.27
972.98	2275.76
973.281	2246.61
973.582	2214.29
973.883	2220.17
974.183	2231.01
974.484	2226.27
974.785	2225.59
975.085	2199.6
975.386	2194.63
975.686	2188.98
975.986	2178.13
976.287	2170.9
976.587	2125.71
976.887	2141.75
977.187	2117.57
977.487	2124.8
977.787	2109.66
978.087	2132.71
978.387	2098.81
978.687	2096.56
978.987	2093.39
979.286	2057.23
979.586	2040.96
979.885	2044.13
980.185	2035.54
980.484	2022.88
980.784	2067.4
981.083	2037.12
981.382	2003.45
981.682	1994.64
981.981	1996.22
982.28	2010.23
982.579	2000.96
982.878	1959.84
983.177	1950.57
983.475	1972.04
983.774	1941.98
984.073	1944.24
984.372	1892.72
984.67	1927.75
984.969	1911.48
985.267	1923.9
985.566	1897.69
985.864	1883.23
986.162	1876.9
986.461	1867.41
986.759	1851.14
987.057	1882.32
987.355	1838.71
987.653	1824.7
987.951	1875.54
988.249	1826.28
988.547	1810.23
988.844	1824.47
989.142	1817.69
989.44	1788.09
989.737	1812.72
990.035	1806.39
990.332	1783.12
990.63	1781.08
990.927	1788.09
991.224	1740.63
991.521	1755.55
991.819	1753.51
992.116	1753.74
992.413	1692.27
992.71	1726.4
993.006	1703.8
993.303	1700.18
993.6	1693.4
993.897	1702.22
994.193	1682.78
994.49	1655.44
994.787	1683.68
995.083	1633.74
995.379	1640.97
995.676	1624.25
995.972	1612.5
996.268	1631.48
996.565	1621.99
996.861	1598.94
997.157	1616.12
997.453	1619.05
997.749	1569.11
998.044	1545.84
998.34	1584.25
998.636	1550.58
998.932	1560.07
999.227	1538.83
999.523	1565.27
999.818	1560.3
1000.114	1528.89
1000.409	1505.61
1000.704	1515.1
1001	1507.64
1001.295	1484.59
1001.59	1487.98
1001.885	1492.73
1002.18	1439.62
1002.475	1462.9
1002.77	1448.44
1003.065	1439.4
1003.359	1454.31
1003.654	1425.39
1003.949	1445.5
1004.243	1451.15
1004.538	1412.96
1004.832	1413.64
1005.127	1421.77
1005.421	1374.09
1005.715	1397.14
1006.009	1370.92
1006.304	1375.44
1006.598	1380.19
1006.892	1375.22
1007.186	1344.94
1007.48	1315.56
1007.773	1363.69
1008.067	1354.43
1008.361	1339.51
1008.655	1322.56
1008.948	1318.04
1009.242	1301.1
1009.535	1308.1
1009.829	1277.14
1010.122	1274.43
1010.415	1276.01
1010.708	1280.31
1011.001	1257.03
1011.295	1254.32
1011.588	1222.45
1011.881	1246.86
1012.173	1241.66
1012.466	1206.86
1012.759	1223.81
1013.052	1227.65
1013.344	1237.59
1013.637	1205.05
1013.93	1204.83
1014.222	1186.97
1014.514	1227.43
1014.807	1185.84
1015.099	1152.85
1015.391	1183.81
1015.683	1150.14
1015.976	1176.35
1016.268	1151.27
1016.56	1160.08
1016.851	1148.78
1017.143	1141.55
1017.435	1135.45
1017.727	1127.09
1018.018	1138.84
1018.31	1104.72
1018.602	1116.24
1018.893	1082.57
1019.185	1107.65
1019.476	1071.95
1019.767	1081.89
1020.058	1066.75
1020.35	1038.28
1020.641	1058.39
1020.932	1048.22
1021.223	1062.01
1021.514	1033.31
1021.804	1030.59
1022.095	1020.88
1022.386	1001.89
1022.677	1023.59
1022.967	1015.91
1023.258	1012.29
1023.548	1004.83
1023.839	989.92
1024.129	1007.77
1024.419	970.71
1024.709	965.74
1025	969.81
1025.29	963.25
1025.58	935.23
1025.87	935
1026.16	922.12
1026.449	956.02
1026.739	939.3
1027.029	941.33
1027.319	928.68
1027.608	900.88
1027.898	908.11
1028.187	902.46
1028.477	910.15
1028.766	899.52
1029.055	898.62
1029.344	906.08
1029.634	907.89
1029.923	868.79
1030.212	875.12
1030.501	848.68
1030.79	858.4
1031.078	868.34
1031.367	858.62
1031.656	879.19
1031.945	848.45
1032.233	839.64
1032.522	816.14
1032.81	817.94
1033.099	813.2
1033.387	821.79
1033.675	833.54
1033.963	789.92
1034.251	826.76
1034.54	787.21
1034.828	821.33
1035.116	780.88
1035.403	805.06
1035.691	791.28
1035.979	782.01
1036.267	783.6
1036.554	770.71
1036.842	778.17
1037.129	780.43
1037.417	745.18
1037.704	750.6
1037.992	754.67
1038.279	732.98
1038.566	757.38
1038.853	757.38
1039.14	757.38
