Data from White_paper_FLMS001491_068.txt Node
Date: Tue Feb 07 10:35:25 GMT 2017
User: dcchb
Spectrometer: FLMS00149
Trigger mode: 0
Integration Time (sec): 2.000000E-2
Scans to average: 10
Electric dark correction enabled: true
Nonlinearity correction enabled: false
Boxcar width: 0
XAxis mode: Wavelengths
Number of Pixels in Spectrum: 2048
>>>>>Begin Spectral Data<<<<<
341.393	-15.06
341.776	-15.06
342.16	-15.06
342.543	-60.48
342.927	-66.13
343.31	-52.57
343.693	-70.65
344.077	-74.26
344.46	-68.39
344.843	-61.38
345.226	-45.56
345.61	-22.51
345.993	-20.48
346.376	-8.05
346.759	14.77
347.142	10.48
347.525	42.8
347.908	81.44
348.291	67.43
348.674	90.48
349.057	116.47
349.44	131.15
349.823	132.51
350.206	165.5
350.588	217.48
350.971	237.59
351.354	255.45
351.737	248.21
352.119	262.9
352.502	273.98
352.884	298.38
353.267	280.08
353.65	328.89
354.032	331.15
354.414	324.82
354.797	338.15
355.179	341.54
355.562	363.24
355.944	356.01
356.326	352.39
356.709	366.18
357.091	340.19
357.473	357.82
357.855	368.44
358.238	362.56
358.62	367.31
359.002	381.09
359.384	378.15
359.766	364.37
360.148	360.75
360.53	377.48
360.912	354.43
361.294	386.06
361.676	363.92
362.057	358.72
362.439	356.91
362.821	361.66
363.203	353.75
363.584	362.56
363.966	372.05
364.348	362.79
364.729	350.81
365.111	346.52
365.493	359.85
365.874	367.53
366.256	365.72
366.637	360.53
367.019	344.93
367.4	347.65
367.781	342
368.163	349.23
368.544	358.49
368.925	372.28
369.306	360.75
369.688	348.55
370.069	345.39
370.45	378.15
370.831	346.06
371.212	358.49
371.593	363.01
371.974	361.43
372.355	329.57
372.736	376.57
373.117	345.84
373.498	358.27
373.879	378.61
374.26	369.79
374.641	373.18
375.021	380.41
375.402	383.35
375.783	373.86
376.163	391.94
376.544	363.24
376.925	391.49
377.305	375.67
377.686	387.19
378.066	380.19
378.447	393.07
378.827	400.3
379.208	405.27
379.588	419.51
379.968	407.08
380.349	388.32
380.729	418.6
381.109	397.81
381.489	396.68
381.87	423.8
382.25	423.8
382.63	422.67
383.01	432.62
383.39	417.25
383.77	422.67
384.15	433.29
384.53	452.28
384.91	447.3
385.29	476
385.67	436.23
386.049	447.53
386.429	462.45
386.809	455.44
387.189	463.8
387.568	448.66
387.948	461.32
388.328	477.36
388.707	488.89
389.087	467.42
389.466	469
389.846	477.13
390.225	492.5
390.605	496.57
390.984	498.83
391.363	487.98
391.743	507.87
392.122	517.13
392.501	518.26
392.881	497.92
393.26	524.59
393.639	545.38
394.018	560.3
394.397	551.71
394.776	540.18
395.155	532.73
395.534	557.36
395.913	561.65
396.292	593.06
396.671	558.71
397.05	584.02
397.429	596.45
397.808	581.99
398.186	584.02
398.565	581.99
398.944	598.04
399.323	631.03
399.701	655.43
400.08	656.34
400.458	656.56
400.837	655.43
401.215	657.24
401.594	661.99
401.972	684.36
402.351	682.1
402.729	692.04
403.107	706.73
403.486	699.73
403.864	718.94
404.242	728.43
404.62	723.91
404.999	761.19
405.377	777.69
405.755	799.84
406.133	788.54
406.511	833.51
406.889	835.32
407.267	840.06
407.645	845.71
408.023	892.04
408.401	886.39
408.779	921.87
409.156	951.02
409.534	979.04
409.912	984.47
410.29	1017.91
410.667	1042.77
411.045	1055.65
411.422	1079.6
411.8	1114.18
412.178	1169.55
412.555	1165.25
412.933	1187.62
413.31	1228.75
413.687	1264.68
414.065	1288.19
414.442	1321.41
414.819	1345.81
415.197	1351.24
415.574	1382.65
415.951	1447.73
416.328	1444.34
416.705	1474.62
417.082	1492.25
417.46	1537.45
417.837	1542.19
418.214	1584.9
418.591	1591.91
418.967	1595.07
419.344	1633.26
419.721	1667.16
420.098	1683.2
420.475	1755.07
420.852	1754.39
421.228	1780.6
421.605	1787.61
421.982	1825.57
422.358	1862.86
422.735	1882.97
423.111	1878.68
423.488	1940.6
423.864	1945.57
424.241	1991.22
424.617	2009.98
424.994	2047.71
425.37	2026.47
425.746	2053.82
426.123	2137.2
426.499	2122.51
426.875	2162.51
427.251	2190.31
427.627	2267.14
428.003	2271.44
428.379	2299.23
428.756	2331.55
429.132	2351.66
429.507	2430.98
429.883	2436.63
430.259	2503.3
430.635	2511.21
431.011	2546.01
431.387	2606.34
431.763	2657.64
432.138	2646.12
432.514	2729.05
432.89	2774.48
433.265	2798.2
433.641	2838.88
434.016	2821.71
434.392	2888.14
434.767	2945.32
435.143	2942.61
435.518	3046.11
435.894	3057.18
436.269	3111.87
436.644	3164.3
437.02	3169.94
437.395	3159.55
437.77	3219.21
438.145	3315.48
438.52	3334.46
438.895	3375.14
439.271	3408.36
439.646	3491.07
440.021	3460.78
440.395	3480.45
440.77	3460.56
441.145	3498.98
441.52	3588.46
441.895	3595.47
442.27	3645.41
442.645	3620.78
443.019	3691.06
443.394	3621.01
443.769	3766.99
444.143	3676.15
444.518	3716.37
444.892	3771.51
445.267	3857.84
445.641	3851.51
446.016	3854.22
446.39	3902.81
446.764	3932.18
447.139	3846.31
447.513	3939.64
447.887	3947.78
448.262	4043.59
448.636	3992.97
449.01	4015.57
449.384	4122.69
449.758	4166.75
450.132	4199.52
450.506	4197.94
450.88	4234.32
451.254	4223.48
451.628	4282.01
452.002	4361.33
452.376	4337.15
452.75	4411.27
453.123	4413.98
453.497	4526.97
453.871	4558.16
454.244	4638.61
454.618	4655.1
454.992	4760.86
455.365	4758.6
455.739	4868.43
456.112	4923.57
456.486	4933.06
456.859	4996.56
457.232	5065.71
457.606	5061.19
457.979	5158.14
458.352	5179.16
458.725	5305.93
459.099	5356.1
459.472	5430
459.845	5526.72
460.218	5520.39
460.591	5586.6
460.964	5594.06
461.337	5767.39
461.71	5783.44
462.083	5926.71
462.456	5905.92
462.829	5985.69
463.201	6116.76
463.574	6150.21
463.947	6206.93
464.32	6300.48
464.692	6397.2
465.065	6483.76
465.438	6570.53
465.81	6605.33
466.183	6655.95
466.555	6868.15
466.928	6888.72
467.3	6897.08
467.672	6973.91
468.045	7160.8
468.417	7150.86
468.789	7252.1
469.161	7409.16
469.534	7503.84
469.906	7615.93
470.278	7717.85
470.65	7790.39
471.022	7964.85
471.394	8083.71
471.766	8151.51
472.138	8270.38
472.51	8408.23
472.882	8605.28
473.253	8646.86
473.625	8801.89
473.997	8939.74
474.369	9008.66
474.74	9110.13
475.112	9300.18
475.484	9430.12
475.855	9535.65
476.227	9693.39
476.598	9950.78
476.97	10026.71
477.341	10289.76
477.713	10353.26
478.084	10375.41
478.455	10757.32
478.827	10812.46
479.198	11056.97
479.569	11151.2
479.94	11463.74
480.311	11504.87
480.682	11879.09
481.053	12046.77
481.424	12274.56
481.795	12402.92
482.166	12555.23
482.537	12785.51
482.908	12967.43
483.279	13116.35
483.65	13387.98
484.021	13663.68
484.391	13735.77
484.762	13889.89
485.133	14004.46
485.503	14253.5
485.874	14426.6
486.244	14591.11
486.615	14841.05
486.985	14991.33
487.356	15334.37
487.726	15499.11
488.097	15767.35
488.467	15867.69
488.837	16171.18
489.207	16462.02
489.578	16560.1
489.948	16660.89
490.318	16892.3
490.688	16949.02
491.058	17252.96
491.428	17419.06
491.798	17661.54
492.168	17929.33
492.538	17990.8
492.908	18248.42
493.278	18500.39
493.648	18525.02
494.017	18798.46
494.387	18844.79
494.757	19095.18
495.126	19281.16
495.496	19343.08
495.866	19500.14
496.235	19662.84
496.605	19960.24
496.974	19996.4
497.344	20141.02
497.713	20201.59
498.082	20488.36
498.452	20583.95
498.821	20726.55
499.19	20801.35
499.559	20982.81
499.928	21079.98
500.298	21266.19
500.667	21530.37
501.036	21429.35
501.405	21672.96
501.774	21719.74
502.143	21964.25
502.512	22084.93
502.88	22143.46
503.249	22189.33
503.618	22418.25
503.987	22531.92
504.356	22682.65
504.724	22778.92
505.093	22913.83
505.462	22966.26
505.83	23175.52
506.199	23312.69
506.567	23660.93
506.936	23540.48
507.304	23958.1
507.672	24019.57
508.041	24132.78
508.409	24330.07
508.777	24556.05
509.145	24668.36
509.514	24754.24
509.882	24930.05
510.25	24876.04
510.618	25159.42
510.986	25205.52
511.354	25457.49
511.722	25651.16
512.09	25864.94
512.458	25962.57
512.826	26165.72
513.193	26247.98
513.561	26416.79
513.929	26595.32
514.297	26761.19
514.664	26934.52
515.032	27148.98
515.4	27313.72
515.767	27428.74
516.135	27613.6
516.502	27467.39
516.869	27984.89
517.237	28087.93
517.604	28097.2
517.972	28382.39
518.339	28533.8
518.706	28615.15
519.073	28790.06
519.44	29013.33
519.808	29294.68
520.175	29313.21
520.542	29673.65
520.909	29925.85
521.276	29915.91
521.643	30155.22
522.009	30239.52
522.376	30603.8
522.743	30835.21
523.11	30936.67
523.477	31282.65
523.843	31534.85
524.21	31818.01
524.577	32053.93
524.943	32085.79
525.31	32307.26
525.676	32528.27
526.043	32840.58
526.409	32929.16
526.776	33163.05
527.142	33455.48
527.508	33482.14
527.874	33881
528.241	34021.56
528.607	34119.87
528.973	34488.9
529.339	34436.02
529.705	34836
530.071	35049.56
530.437	35167.52
530.803	35353.96
531.169	35649.54
531.535	35605.02
531.901	35844.57
532.267	35919.59
532.632	36256.98
532.998	36353.93
533.364	36596.86
533.73	36642.51
534.095	36961.37
534.461	37138.54
534.826	37249.05
535.192	37342.15
535.557	37586.22
535.923	37578.53
536.288	37861.01
536.653	37986.88
537.019	37910.95
537.384	38009.03
537.749	38417.38
538.114	38400.66
538.479	38431.84
538.845	38665.28
539.21	38646.98
539.575	38918.38
539.94	39104.37
540.305	39183.91
540.67	39281.09
541.034	39547.07
541.399	39649.44
541.764	39862.09
542.129	39955.19
542.494	40051.24
542.858	40301.4
543.223	40080.16
543.587	40549.3
543.952	40415.75
544.316	40663.42
544.681	40740.93
545.045	40885.11
545.41	41057.31
545.774	41281.94
546.138	41177.53
546.503	41478.54
546.867	41508.37
547.231	41760.79
547.595	41809.83
547.959	41925.08
548.324	42041.47
548.688	42171.86
549.052	42281.23
549.416	42434.22
549.779	42433.09
550.143	42588.8
550.507	42798.96
550.871	42974.77
551.235	43050.48
551.599	43332.73
551.962	43394.2
552.326	43585.15
552.689	43722.32
553.053	43613.18
553.417	43730.23
553.78	44365.92
554.143	44133.61
554.507	44367.73
554.87	44371.35
555.234	44846.59
555.597	44529.54
555.96	44759.59
556.323	45053.36
556.686	45124.77
557.05	45503.07
557.413	45430.75
557.776	45554.14
558.139	45845.88
558.502	45825.32
558.865	45939.44
559.228	46253.56
559.59	46343.72
559.953	46475.25
560.316	46797.05
560.679	46715.69
561.041	47051.73
561.404	47213.31
561.767	47456.46
562.129	47420.98
562.492	47649.68
562.854	47660.75
563.217	47805.61
563.579	48037.69
563.941	48214.86
564.304	48338.93
564.666	48558.36
565.028	48737.79
565.39	48919.02
565.753	48980.49
566.115	49151.56
566.477	49291.44
566.839	49459.8
567.201	49651.21
567.563	49714.48
567.925	49885.1
568.287	49862.05
568.648	50008.26
569.01	50227.24
569.372	50397.4
569.734	50328.25
570.095	50577.29
570.457	50693.67
570.819	50894.11
571.18	50904.06
571.542	51051.17
571.903	50995.81
572.265	51344.27
572.626	51351.05
572.987	51402.12
573.349	51529.35
573.71	51674.66
574.071	51791.04
574.432	51790.36
574.794	52084.36
575.155	52098.38
575.516	52048.89
575.877	52123.46
576.238	52317.13
576.599	52367.07
576.96	52357.13
577.32	52426.95
577.681	52577.69
578.042	52694.07
578.403	52725.7
578.763	52797.34
579.124	52818.58
579.485	52947.39
579.845	52973.16
580.206	53003.44
580.566	53016.32
580.927	53078.92
581.287	53125.24
581.648	53121.85
582.008	53289.31
582.368	53267.61
582.728	53330.89
583.089	53282.3
583.449	53278.23
583.809	53305.58
584.169	53357.33
584.529	53373.14
584.889	53596.42
585.249	53419.7
585.609	53459.92
585.969	53607.94
586.329	53454.05
586.688	53594.16
587.048	53598.9
587.408	53592.12
587.768	53543.99
588.127	53540.37
588.487	53519.36
588.846	53726.13
589.206	53554.16
589.565	53553.7
589.925	53795.05
590.284	53687.26
590.643	53805
591.003	53754.83
591.362	53907.14
591.721	53897.42
592.08	53846.35
592.44	53945.33
592.799	53871.89
593.158	53925.9
593.517	53884.77
593.876	53979
594.235	53892.9
594.593	54000.92
594.952	54006.35
595.311	53990.3
595.67	54025.33
596.029	54226.68
596.387	54160.47
596.746	54207.47
597.104	54096.52
597.463	54098.55
597.822	54287.24
598.18	54121.37
598.538	54096.74
598.897	54316.4
599.255	54124.09
599.613	54535.37
599.972	54327.02
600.33	54457.18
600.688	54303.06
601.046	54408.15
601.404	54519.33
601.762	54448.37
602.12	54582.6
602.478	54599.33
602.836	54557.97
603.194	54444.53
603.552	54487.69
603.91	54412.89
604.268	54622.6
604.625	54567.69
604.983	54684.3
605.341	54496.28
605.698	54683.17
606.056	54764.29
606.413	54684.3
606.771	54794.35
607.128	54814.01
607.485	54690.85
607.843	54679.55
608.2	54874.57
608.557	54971.75
608.914	54839.55
609.272	54976.49
609.629	55058.75
609.986	55110.95
610.343	54971.29
610.7	55206.54
611.057	55168.58
611.414	55154.34
611.771	55196.83
612.127	55264.17
612.484	55248.35
612.841	55372.87
613.198	55232.76
613.554	55175.81
613.911	55322.02
614.267	55366.76
614.624	55272.76
614.98	55372.19
615.337	55437.5
615.693	55430.94
616.05	55429.59
616.406	55560.88
616.762	55460.32
617.118	55496.25
617.475	55540.55
617.831	55610.15
618.187	55563.14
618.543	55543.48
618.899	55736.7
619.255	55689.92
619.611	55616.02
619.967	55696.02
620.323	55722.91
620.678	55710.03
621.034	55569.47
621.39	55639.07
621.746	55640.88
622.101	55900.31
622.457	55602.92
622.812	55694.89
623.168	55860.99
623.523	55792.52
623.879	55852.18
624.234	55689.47
624.589	55724.27
624.945	55855.57
625.3	55844.04
625.655	55804.95
626.01	55849.01
626.365	55812.63
626.72	55786.19
627.075	55759.3
627.43	55678.39
627.785	55709.81
628.14	55745.51
628.495	55788
628.85	55802.46
629.205	55718.17
629.559	55869.8
629.914	55749.58
630.269	55764.95
630.623	55694.67
630.978	55639.75
631.332	55823.02
631.687	55862.57
632.041	55712.74
632.396	55742.35
632.75	55713.65
633.104	55659.64
633.459	55592.52
633.813	55583.48
634.167	55688.34
634.521	55578.51
634.875	55680.2
635.229	55595.01
635.583	55511.39
635.937	55483.15
636.291	55499.42
636.645	55503.71
636.999	55450.15
637.352	55461.68
637.706	55347.78
638.06	55533.77
638.413	55457.38
638.767	55364.05
639.121	55359.31
639.474	55307.78
639.828	55320.89
640.181	55339.87
640.534	55339.42
640.888	55253.55
641.241	55138.3
641.594	55182.36
641.947	55259.42
642.301	55241.12
642.654	55203.15
643.007	55174.45
643.36	55200.67
643.713	55139.43
644.066	55267.56
644.419	55047.68
644.771	54870.05
645.124	54627.57
645.477	54602.04
645.83	54451.53
646.182	54343.29
646.535	54267.13
646.888	54255.83
647.24	54210.64
647.593	54402.95
647.945	54323.18
648.298	54127.02
648.65	54087.25
649.002	54049.29
649.355	54195.04
649.707	54110.3
650.059	54215.83
650.411	54564.07
650.763	54568.14
651.115	54964.29
651.467	54818.98
651.819	54797.74
652.171	54755.48
652.523	54753.45
652.875	54666.22
653.227	54634.13
653.578	54758.42
653.93	54729.95
654.282	54556.39
654.633	54552.77
654.985	54590.06
655.337	54595.03
655.688	54617.86
656.039	54685.2
656.391	54436.39
656.742	54419.9
657.094	54479.33
657.445	54616.05
657.796	54515.94
658.147	54446.79
658.498	54464.19
658.849	54635.03
659.2	54550.97
659.551	54369.28
659.902	54545.09
660.253	54383.29
660.604	54462.83
660.955	54387.13
661.306	54440.24
661.656	54289.28
662.007	54334.93
662.358	54334.93
662.708	54387.58
663.059	54336.51
663.409	54201.15
663.76	54412.89
664.11	54290.18
664.461	54375.6
664.811	54347.81
665.161	54320.24
665.511	54209.51
665.862	54193.91
666.212	54306.45
666.562	54248.83
666.912	54265.55
667.262	54173.58
667.612	54192.11
667.962	54198.89
668.312	54161.82
668.662	54227.13
669.011	54187.59
669.361	54040.25
669.711	54065.33
670.06	53999.57
670.41	53941.04
670.76	53863.75
671.109	54117.98
671.459	53955.73
671.808	53940.14
672.157	53893.36
672.507	53784.43
672.856	53857.88
673.205	53769.74
673.554	53926.12
673.904	53778.33
674.253	53878.89
674.602	53775.62
674.951	53346.03
675.3	53178.57
675.649	53666.24
675.998	53656.53
676.346	53683.87
676.695	53749.18
677.044	53442.75
677.393	53620.37
677.741	53619.01
678.09	53487.27
678.438	53440.04
678.787	53457.66
679.135	53486.36
679.484	53209.53
679.832	53274.16
680.181	53131.34
680.529	53230.32
680.877	53098.58
681.225	53157.78
681.573	53242.98
681.922	53015.41
682.27	52894.97
682.618	52909.65
682.966	52827.4
683.314	52918.92
683.661	52777
684.009	52702.88
684.357	52667.85
684.705	52583.56
685.053	52544.01
685.4	52490.91
685.748	52428.31
686.095	52380.18
686.443	52273.06
686.79	52187.64
687.138	52191.25
687.485	52179.96
687.832	52012.95
688.18	52123.01
688.527	51867.42
688.874	51833.07
689.221	51758.27
689.568	51714.43
689.915	51561.44
690.262	51638.73
690.609	51497.49
690.956	51361.45
691.303	51400.99
691.65	51149.7
691.997	51261.79
692.344	50899.09
692.69	51005.98
693.037	50906.99
693.383	50645.31
693.73	50657.96
694.077	50587.68
694.423	50562.15
694.769	50397.86
695.116	50339.55
695.462	50275.6
695.808	50122.16
696.155	50271.53
696.501	50008.71
696.847	50081.03
697.193	49714.26
697.539	49984.31
697.885	49551.1
698.231	49432.91
698.577	49448.05
698.923	49355.17
699.269	49313.36
699.614	49013.71
699.96	48881.29
700.306	49038.34
700.651	48774.85
700.997	48716.77
701.342	48607.17
701.688	48561.29
702.033	48420.96
702.379	48441.07
702.724	48282.66
703.069	48372.6
703.415	48031.36
703.76	48045.6
704.105	47976
704.45	47827.98
704.795	47618.27
705.14	47550.47
705.485	47486.52
705.83	47409.69
706.175	47473.86
706.52	47295.79
706.865	47088.34
707.209	47117.94
707.554	46833.88
707.899	47003.37
708.243	46891.73
708.588	46906.42
708.932	46556.6
709.277	46482.7
709.621	46488.13
709.966	46206.1
710.31	46418.07
710.654	45995.71
710.998	46078.2
711.342	46157.74
711.687	45970.18
712.031	45744.87
712.375	45625.78
712.719	45746.45
713.063	45680.01
713.407	45873.45
713.75	45547.59
714.094	45533.8
714.438	45290.19
714.782	45445.9
715.125	45087.26
715.469	45167.26
715.812	44903.08
716.156	44716.88
716.499	44838
716.843	44810.66
717.186	44581.29
717.53	44838.45
717.873	44742.41
718.216	44507.16
718.559	44462.19
718.902	44245.25
719.246	44365.25
719.589	43934.07
719.932	43876.45
720.275	43961.87
720.617	43985.14
720.96	43874.19
721.303	43857.46
721.646	43864.92
721.989	43566.62
722.331	43713.74
722.674	43583.57
723.016	43640.97
723.359	43452.95
723.701	43411.15
724.044	43193.75
724.386	43053.19
724.729	43260.42
725.071	43066.52
725.413	43064.72
725.755	42996.02
726.097	42873.31
726.439	42705.4
726.782	42690.04
727.124	42979.97
727.465	42639.42
727.807	42574.11
728.149	42534.11
728.491	42342.47
728.833	42425.18
729.175	42335.69
729.516	42249.6
729.858	42312.19
730.199	42316.03
730.541	42264.06
730.882	41969.15
731.224	42190.84
731.565	41837.4
731.906	41902.94
732.248	41862.26
732.589	41819.78
732.93	41554.92
733.271	41765.31
733.612	41615.49
733.953	41653.68
734.294	41493.68
734.635	41390.18
734.976	41471.99
735.317	41120.59
735.658	41194.26
735.999	41275.84
736.339	41152.68
736.68	41190.87
737.021	40965.56
737.361	41008.72
737.702	41106.57
738.042	40878.56
738.383	40916.97
738.723	40871.33
739.063	40775.06
739.404	40829.97
739.744	40687.38
740.084	40535.06
740.424	40545.46
740.764	40504.1
741.104	40615.51
741.444	40438.12
741.784	40384.11
742.124	40494.16
742.464	40329.87
742.804	40189.54
743.143	40171.01
743.483	40170.33
743.823	39877
744.162	39996.1
744.502	39977.56
744.841	39853.73
745.181	39894.85
745.52	39650.34
745.86	39838.59
746.199	39788.64
746.538	39768.08
746.877	39647.63
747.216	39625.71
747.556	39511.81
747.895	39521.98
748.234	39343.91
748.573	39184.14
748.911	39200.18
749.25	39209.68
749.589	39051.94
749.928	39172.16
750.267	39133.75
750.605	38912.06
750.944	38904.82
751.283	38811.04
751.621	38889.46
751.96	38617.15
752.298	38651.05
752.636	38675.23
752.975	38369.25
753.313	38253.32
753.651	38415.35
753.989	38250.6
754.327	38024.17
754.666	37921.57
755.004	38102.59
755.342	38033.89
755.679	37769.26
756.017	37712.54
756.355	37805.19
756.693	37635.25
757.031	37719.54
757.368	37428.71
757.706	37387.58
758.044	37275.71
758.381	37214.7
758.719	37185.55
759.056	37124.53
759.394	37023.07
759.731	36775.16
760.068	36654.94
760.405	36601.83
760.743	36422.63
761.08	36521.16
761.417	36374.5
761.754	36287.49
762.091	36218.57
762.428	36096.54
762.765	35915.3
763.102	35948.07
763.438	35702.65
763.775	35716.66
764.112	35535.65
764.449	35568.19
764.785	35316.67
765.122	35156.22
765.458	35181.08
765.795	35075.55
766.131	35016.57
766.467	34900.64
766.804	34752.62
767.14	34470.59
767.476	34485.51
767.812	34429.01
768.148	34366.19
768.485	34186.76
768.821	34027.21
769.157	34007.78
769.492	33986.31
769.828	33847.33
770.164	33522.59
770.5	33656.83
770.836	33508.58
771.171	33231.53
771.507	33183.17
771.842	32963.96
772.178	32975.94
772.513	32958.09
772.849	32854.59
773.184	32630.87
773.519	32625.22
773.855	32427.93
774.19	32201.95
774.525	32223.42
774.86	32240.82
775.195	32142.97
775.53	31947.72
775.865	31829.76
776.2	31550.89
776.535	31390.9
776.87	31364.91
777.205	31162.66
777.539	31001.53
777.874	31163.56
778.209	30931.02
778.543	30849.44
778.878	30700.75
779.212	30662.78
779.547	30426.18
779.881	30495.55
780.215	30367.65
780.55	30371.94
780.884	30168.56
781.218	30083.81
781.552	29960.88
781.886	30043.59
782.22	29732.18
782.554	29690.83
782.888	29370.16
783.222	29276.38
783.556	29175.81
783.889	29140.56
784.223	29006.1
784.557	28910.51
784.89	29028.7
785.224	28864.18
785.557	28531.99
785.891	28552.33
786.224	28534.02
786.558	28450.18
786.891	28158.21
787.224	28243.41
787.557	28129.97
787.891	27995.73
788.224	28004.55
788.557	27970.87
788.89	27849.07
789.223	27647.04
789.556	27501.73
789.888	27503.32
790.221	27422.64
790.554	27179.71
790.887	27324.34
791.219	27141.97
791.552	27026.27
791.884	26864.92
792.217	26739.04
792.549	26683.68
792.882	26616.11
793.214	26380.86
793.546	26468.32
793.879	26287.76
794.211	26209.57
794.543	26146.74
794.875	26108.55
795.207	26236.46
795.539	25902
795.871	25989.01
796.203	25704.49
796.535	25639.64
796.867	25584.04
797.198	25532.07
797.53	25421.11
797.862	25211.4
798.193	25389.25
798.525	25112.64
798.856	25228.12
799.188	25036.94
799.519	24881.01
799.85	24696.38
800.182	24739.55
800.513	24740.9
800.844	24444.41
801.175	24613.9
801.506	24532.32
801.837	24348.6
802.168	24462.49
802.499	24321.48
802.83	24202.16
803.161	24107.7
803.491	24025.22
803.822	24007.36
804.153	23913.58
804.483	23755.62
804.814	23657.99
805.145	23565.34
805.475	23573.7
805.805	23609.18
806.136	23389.75
806.466	23370.54
806.796	23394.5
807.126	23291.45
807.457	23175.52
807.787	23210.32
808.117	23095.75
808.447	23064.79
808.777	23011.68
809.107	22820.28
809.436	22839.26
809.766	22781.18
810.096	22691.01
810.426	22661.18
810.755	22554.75
811.085	22596.1
811.414	22551.58
811.744	22265.49
812.073	22260.74
812.403	22321.53
812.732	22194.98
813.061	22157.24
813.39	22079.73
813.719	21992.95
814.049	22120.18
814.378	21905.72
814.707	21839.74
815.036	21853.75
815.365	21745.5
815.693	21547.54
816.022	21630.48
816.351	21540.54
816.68	21395.23
817.008	21406.98
817.337	21285.4
817.665	21160.66
817.994	21232.97
818.322	21262.8
818.651	21204.72
818.979	21198.62
819.307	21188.68
819.636	21065.75
819.964	21011.96
820.292	21029.59
820.62	20973.54
820.948	20888.58
821.276	21063.49
821.604	20934.22
821.932	20952.3
822.259	20985.97
822.587	20843.6
822.915	20835.92
823.243	20851.51
823.57	20788.01
823.898	20901.68
824.225	20691.29
824.553	20710.73
824.88	20857.84
825.207	20902.13
825.535	20717.28
825.862	20845.86
826.189	20687.45
826.516	20840.67
826.843	20887.45
827.17	20804.51
827.497	20725.42
827.824	20802.7
828.151	20848.8
828.478	20698.3
828.805	20868.24
829.131	20771.06
829.458	20732.42
829.785	20648.36
830.111	20654.23
830.438	20817.84
830.764	20795.02
831.09	20744.17
831.417	20728.35
831.743	20754.79
832.069	20671.63
832.395	20551.63
832.722	20667.79
833.048	20484.29
833.374	20667.11
833.7	20431.64
834.026	20550.5
834.351	20517.51
834.677	20551.41
835.003	20583.27
835.329	20431.64
835.654	20503.5
835.98	20347.57
836.306	20419.43
836.631	20313.9
836.956	20318.42
837.282	20329.27
837.607	20200.23
837.932	20217.63
838.258	20143.74
838.583	20176.73
838.908	19995.94
839.233	20024.19
839.558	20080.46
839.883	19888.15
840.208	20016.51
840.533	19876.85
840.858	19864.2
841.182	19772.9
841.507	19899.22
841.832	19680.02
842.156	19808.15
842.481	19718.89
842.805	19609.96
843.13	19589.85
843.454	19574.71
843.778	19484.09
844.103	19577.2
844.427	19445.68
844.751	19400.48
845.075	19360.48
845.399	19304.21
845.723	19156.64
846.047	19215.17
846.371	19081.84
846.695	19109.19
847.019	18846.82
847.343	18829.87
847.666	18761.4
847.99	18556.43
848.313	18610.67
848.637	18451.8
848.96	18408.87
849.284	18330.45
849.607	18129.78
849.931	18137.91
850.254	18107.18
850.577	17969.33
850.9	17978.14
851.223	17885.26
851.546	17768.88
851.869	17612.73
852.192	17658.15
852.515	17593.29
852.838	17476.01
853.161	17467.42
853.483	17424.26
853.806	17348.78
854.129	17319.86
854.451	17240.54
854.774	17123.48
855.096	17084.61
855.419	17064.04
855.741	17059.52
856.063	16930.04
856.385	16952.41
856.708	16859.98
857.03	16784.95
857.352	16720.55
857.674	16753.54
857.996	16596.48
858.318	16564.62
858.64	16568.46
858.961	16572.98
859.283	16497.96
859.605	16382.7
859.926	16376.38
860.248	16293.89
860.57	16278.98
860.891	16281.92
861.212	16232.2
861.534	16143.62
861.855	16100.68
862.176	16121.02
862.498	16118.76
862.819	16052.32
863.14	16014.13
863.461	15996.05
863.782	15937.52
864.103	15850.97
864.424	15915.15
864.745	15885.09
865.065	15781.82
865.386	15720.35
865.707	15802.38
866.027	15741.59
866.348	15580.92
866.668	15631.31
866.989	15624.98
867.309	15549.28
867.63	15551.54
867.95	15562.61
868.27	15433.58
868.59	15485.55
868.91	15457.76
869.23	15417.53
869.55	15386.8
869.87	15463.63
870.19	15390.19
870.51	15402.39
870.83	15367.36
871.15	15280.13
871.469	15330.76
871.789	15262.96
872.109	15311.77
872.428	15130.08
872.748	15170.76
873.067	15145.9
873.386	15149.74
873.706	15137.09
874.025	15039.24
874.344	14995.85
874.663	14993.81
874.982	14943.87
875.301	15014.83
875.62	14921.73
875.939	14886.02
876.258	14821.16
876.577	14791.33
876.896	14786.59
877.214	14703.65
877.533	14752.92
877.852	14699.36
878.17	14739.36
878.489	14779.58
878.807	14630.66
879.125	14607.61
879.444	14709.75
879.762	14572.36
880.08	14523.09
880.398	14521.06
880.716	14512.47
881.034	14540.27
881.352	14437.9
881.67	14368.52
881.988	14443.09
882.306	14433.6
882.624	14380.95
882.941	14306.6
883.259	14231.8
883.577	14239.94
883.894	14227.96
884.212	14224.8
884.529	14193.61
884.846	14075.65
885.164	14050.79
885.481	14009.21
885.798	13981.19
886.115	14031.13
886.432	13836.33
886.75	13866.39
887.067	13904.8
887.383	13738.71
887.7	13864.8
888.017	13662.1
888.334	13691.48
888.651	13766.28
888.967	13635.88
889.284	13592.27
889.6	13544.81
889.917	13496.68
890.233	13553.4
890.55	13410.35
890.866	13469.56
891.182	13303.46
891.498	13238.83
891.815	13372.39
892.131	13186.18
892.447	13152.73
892.763	13149.12
893.079	13177.82
893.395	13011.49
893.71	13070.02
894.026	13033.19
894.342	12967.88
894.657	12984.38
894.973	12933.53
895.289	12916.13
895.604	12799.3
895.92	12693.54
896.235	12667.1
896.55	12730.15
896.865	12718.85
897.181	12646.08
897.496	12575.8
897.811	12541.22
898.126	12440.89
898.441	12436.14
898.756	12346.43
899.071	12348.01
899.386	12310.04
899.7	12199.54
900.015	12218.29
900.33	12019.43
900.644	12098.3
900.959	12025.53
901.273	11942.14
901.588	11907.79
901.902	11879.32
902.216	11876.61
902.531	11909.6
902.845	11700.12
903.159	11730.4
903.473	11649.04
903.787	11593.9
904.101	11581.48
904.415	11541.25
904.729	11481.82
905.042	11475.49
905.356	11366.11
905.67	11382.38
905.984	11354.14
906.297	11273.91
906.611	11290.64
906.924	11172.67
907.237	11254.03
907.551	11152.79
907.864	11129.96
908.177	11047.93
908.491	10980.36
908.804	10901.27
909.117	10838.22
909.43	10839.12
909.743	10763.87
910.056	10806.35
910.368	10705.11
910.681	10714.38
910.994	10592.57
911.307	10623.31
911.619	10495.18
911.932	10550.09
912.244	10475.97
912.557	10467.15
912.869	10358
913.181	10323.88
913.494	10255.63
913.806	10227.84
914.118	10191.46
914.43	10096.54
914.742	10137.9
915.054	10037.33
915.366	10033.95
915.678	9974.51
915.99	9932.93
916.302	9921.86
916.613	9860.16
916.925	9838.24
917.236	9803.89
917.548	9723.44
917.859	9698.36
918.171	9668.08
918.482	9598.48
918.794	9540.17
919.105	9546.5
919.416	9475.99
919.727	9482.32
920.038	9447.29
920.349	9385.6
920.66	9325.04
920.971	9298.82
921.282	9278.03
921.593	9179.05
921.903	9126.62
922.214	9183.35
922.525	9086.17
922.835	9021.77
923.146	9030.36
923.456	8914.65
923.767	8977.7
924.077	8918.72
924.387	8845.73
924.697	8780.19
925.008	8801.44
925.318	8750.82
925.628	8732.51
925.938	8745.62
926.248	8591.05
926.558	8583.81
926.867	8548.79
927.177	8547.66
927.487	8426.98
927.796	8456.59
928.106	8408
928.416	8356.93
928.725	8334.33
929.034	8304.27
929.344	8255.91
929.653	8213.2
929.962	8182.69
930.271	8107.67
930.581	8088.69
930.89	8034.22
931.199	8025.41
931.508	7978.63
931.817	8015.47
932.125	7956.03
932.434	7926.43
932.743	7798.07
933.051	7838.3
933.36	7789.26
933.669	7752.88
933.977	7716.49
934.286	7667.23
934.594	7647.79
934.902	7585.42
935.21	7563.73
935.519	7520.11
935.827	7582.03
936.135	7499.77
936.443	7447.57
936.751	7366.22
937.059	7420
937.367	7314.02
937.674	7323.06
937.982	7316.5
938.29	7304.07
938.597	7250.29
938.905	7160.35
939.213	7152.67
939.52	7128.48
939.827	7093.01
940.135	7051.42
940.442	7044.87
940.749	6987.7
941.056	6988.38
941.363	6922.16
941.67	6911.09
941.977	6839.68
942.284	6831.32
942.591	6795.61
942.898	6748.61
943.205	6761.26
943.511	6693.92
943.818	6708.38
944.125	6614.37
944.431	6617.09
944.738	6576.18
945.044	6560.36
945.35	6557.2
945.657	6494.6
945.963	6480.82
946.269	6414.15
946.575	6461.38
946.881	6416.19
947.187	6354.27
947.493	6331.67
947.799	6269.07
948.105	6234.27
948.41	6239.69
948.716	6211.45
949.022	6185.23
949.327	6175.06
949.633	6085.12
949.938	6110.66
950.244	6082.18
950.549	6008.06
950.854	5981.85
951.16	5965.13
951.465	5964
951.77	5956.76
952.075	5933.71
952.38	5926.93
952.685	5877.44
952.99	5806.71
953.294	5842.42
953.599	5794.73
953.904	5758.35
954.209	5762.65
954.513	5675.19
954.818	5666.15
955.122	5658.92
955.426	5617.79
955.731	5566.72
956.035	5609.88
956.339	5587.06
956.643	5522.65
956.948	5451.01
957.252	5466.38
957.556	5434.52
957.86	5453.95
958.163	5433.84
958.467	5370.57
958.771	5410.34
959.075	5361.3
959.378	5295.99
959.682	5288.99
959.985	5307.06
960.289	5247.4
960.592	5228.42
960.896	5284.24
961.199	5152.72
961.502	5138.03
961.805	5134.64
962.108	5091.02
962.411	5082.89
962.714	4997.24
963.017	5011.03
963.32	4984.59
963.623	4977.36
963.926	4957.69
964.228	4871.82
964.531	4924.48
964.833	4891.71
965.136	4853.52
965.438	4820.52
965.741	4822.33
966.043	4790.92
966.345	4787.98
966.648	4750.24
966.95	4770.81
967.252	4696.91
967.554	4707.98
967.856	4703.01
968.158	4641.77
968.46	4647.65
968.761	4593.64
969.063	4572.62
969.365	4541.43
969.666	4557.25
969.968	4490.14
970.269	4462.34
970.571	4496.24
970.872	4459.85
971.174	4426.18
971.475	4409.01
971.776	4371.72
972.077	4380.99
972.378	4394.32
972.679	4360.87
972.98	4301.89
973.281	4277.71
973.582	4301.21
973.883	4281.33
974.183	4228
974.484	4258.5
974.785	4187.09
975.085	4194.55
975.386	4150.03
975.686	4117.04
975.986	4117.94
976.287	4144.83
976.587	4080.2
976.887	4006.76
977.187	4039.3
977.487	4033.88
977.787	4044.27
978.087	3994.56
978.387	4001.79
978.687	3986.87
978.987	3957.27
979.286	3929.92
979.586	3898.74
979.885	3853.54
980.185	3842.24
980.484	3853.32
980.784	3838.63
981.083	3818.97
981.382	3800.44
981.682	3781.23
981.981	3813.77
982.28	3728.35
982.579	3709.59
982.878	3684.28
983.177	3673.89
983.475	3675.02
983.774	3630.95
984.073	3679.76
984.372	3562.48
984.67	3556.6
984.969	3597.28
985.267	3598.18
985.566	3581.23
985.864	3506.89
986.162	3530.39
986.461	3494.91
986.759	3501.91
987.057	3448.81
987.355	3435.47
987.653	3435.7
987.951	3479.32
988.249	3426.44
988.547	3415.81
988.844	3373.78
989.142	3383.27
989.44	3339.43
989.737	3325.42
990.035	3357.06
990.332	3294.46
990.63	3267.34
990.927	3260.56
991.224	3228.25
991.521	3270.73
991.819	3224.41
992.116	3201.58
992.413	3181.47
992.71	3157.52
993.006	3165.2
993.303	3164.3
993.6	3156.39
993.897	3130.17
994.193	3098.53
994.49	3103.51
994.787	3070.74
995.083	3041.36
995.379	3028.93
995.676	3000.46
995.972	3035.03
996.268	2989.84
996.565	2986.67
996.861	2964.75
997.157	2934.47
997.453	2912.32
997.749	2913.68
998.044	2894.25
998.34	2874.13
998.636	2863.74
998.932	2863.96
999.227	2818.54
999.523	2788.03
999.818	2779.67
1000.114	2769.05
1000.409	2737.41
1000.704	2755.04
1001	2722.27
1001.295	2733.35
1001.59	2733.35
1001.885	2686.57
1002.18	2672.33
1002.475	2639.56
1002.77	2622.16
1003.065	2635.72
1003.359	2612.67
1003.654	2580.13
1003.949	2583.29
1004.243	2577.64
1004.538	2541.03
1004.832	2548.04
1005.127	2548.49
1005.421	2524.76
1005.715	2506.69
1006.009	2473.01
1006.304	2447.25
1006.598	2446.35
1006.892	2410.42
1007.186	2420.13
1007.48	2405.22
1007.773	2378.33
1008.067	2356.18
1008.361	2392.34
1008.655	2332.68
1008.948	2315.73
1009.242	2315.28
1009.535	2283.41
1009.829	2285
1010.122	2306.92
1010.415	2263.08
1010.708	2280.48
1011.001	2209.52
1011.295	2245
1011.588	2185.11
1011.881	2200.7
1012.173	2198.22
1012.466	2169.52
1012.759	2151.67
1013.052	2114.15
1013.344	2090.65
1013.637	2099.92
1013.93	2136.53
1014.222	2082.74
1014.514	2101.05
1014.807	2072.57
1015.099	2053.82
1015.391	2054.49
1015.683	2026.92
1015.976	2033.48
1016.268	2014.04
1016.56	1957.77
1016.851	1962.52
1017.143	1929.07
1017.435	1950.54
1017.727	1946.7
1018.018	1915.06
1018.31	1905.8
1018.602	1914.38
1018.893	1904.89
1019.185	1860.6
1019.476	1872.13
1019.767	1861.05
1020.058	1853.37
1020.35	1820.38
1020.641	1819.92
1020.932	1788.29
1021.223	1756.65
1021.514	1765.46
1021.804	1736.54
1022.095	1732.02
1022.386	1707.16
1022.677	1704.67
1022.967	1718.01
1023.258	1712.58
1023.548	1676.88
1023.839	1657.89
1024.129	1672.81
1024.419	1671
1024.709	1612.25
1025	1617.44
1025.29	1606.6
1025.58	1576.09
1025.87	1594.85
1026.16	1582.87
1026.449	1559.82
1026.739	1561.85
1027.029	1572.47
1027.319	1518.24
1027.608	1529.54
1027.898	1498.58
1028.187	1512.59
1028.477	1500.84
1028.766	1502.42
1029.055	1459.71
1029.344	1478.01
1029.634	1433.27
1029.923	1435.3
1030.212	1444.57
1030.501	1454.51
1030.79	1426.94
1031.078	1418.35
1031.367	1400.95
1031.656	1392.82
1031.945	1388.52
1032.233	1346.94
1032.522	1347.62
1032.81	1332.48
1033.099	1351.91
1033.387	1321.18
1033.675	1326.6
1033.963	1301.07
1034.251	1293.84
1034.54	1293.38
1034.828	1257.23
1035.116	1267.62
1035.403	1244.8
1035.691	1268.07
1035.979	1260.16
1036.267	1222.2
1036.554	1234.4
1036.842	1234.85
1037.129	1244.12
1037.417	1189.66
1037.704	1203.44
1037.992	1205.25
1038.279	1188.3
1038.566	1160.51
1038.853	1160.51
1039.14	1160.51
