Data from White_reflection_standard_FLMS001491_087.txt Node
Date: Tue Feb 07 10:32:12 GMT 2017
User: dcchb
Spectrometer: FLMS00149
Trigger mode: 0
Integration Time (sec): 2.000000E-2
Scans to average: 10
Electric dark correction enabled: true
Nonlinearity correction enabled: false
Boxcar width: 0
XAxis mode: Wavelengths
Number of Pixels in Spectrum: 2048
>>>>>Begin Spectral Data<<<<<
341.393	-33.81
341.776	-33.81
342.16	-33.81
342.543	-65.68
342.927	-64.77
343.31	-70.65
343.693	-68.39
344.077	-58.9
344.46	-65.68
344.843	-68.84
345.226	-29.74
345.61	-29.97
345.993	-14.6
346.376	18.39
346.759	2.34
347.142	30.14
347.525	45.96
347.908	49.8
348.291	71.5
348.674	97.71
349.057	90.93
349.44	113.53
349.823	137.71
350.206	173.87
350.588	239.4
350.971	285.95
351.354	273.52
351.737	270.59
352.119	284.82
352.502	296.57
352.884	324.14
353.267	326.86
353.65	327.53
354.032	338.61
354.414	357.14
354.797	331.6
355.179	363.69
355.562	363.01
355.944	372.96
356.326	383.8
356.709	372.28
357.091	393.97
357.473	400.53
357.855	407.31
358.238	386.74
358.62	384.48
359.002	425.16
359.384	397.81
359.766	398.49
360.148	388.32
360.53	394.42
360.912	403.24
361.294	422.45
361.676	413.18
362.057	399.4
362.439	419.96
362.821	421.32
363.203	414.99
363.584	389
363.966	389.68
364.348	401.66
364.729	403.01
365.111	395.78
365.493	410.7
365.874	390.13
366.256	404.82
366.637	430.36
367.019	417.02
367.4	412.5
367.781	402.56
368.163	417.7
368.544	432.39
368.925	433.29
369.306	440.53
369.688	433.29
370.069	427.87
370.45	425.16
370.831	416.12
371.212	435.78
371.593	397.59
371.974	443.24
372.355	446.63
372.736	440.07
373.117	476.46
373.498	447.76
373.879	424.03
374.26	440.98
374.641	444.37
375.021	444.14
375.402	457.7
375.783	454.76
376.163	503.35
376.544	492.95
376.925	477.81
377.305	480.98
377.686	496.57
378.066	492.28
378.447	507.64
378.827	499.05
379.208	513.97
379.588	519.62
379.968	494.54
380.349	497.25
380.729	494.54
381.109	545.16
381.489	520.07
381.87	538.15
382.25	516
382.63	547.64
383.01	557.58
383.39	546.74
383.77	566.4
384.15	574.08
384.53	584.93
384.91	601.2
385.29	606.62
385.67	601.88
386.049	597.58
386.429	618.37
386.809	631.03
387.189	629.9
387.568	636.45
387.948	620.41
388.328	621.99
388.707	660.41
389.087	663.34
389.466	683.91
389.846	690.91
390.225	699.05
390.605	694.53
390.984	686.17
391.363	697.92
391.743	731.82
392.122	722.1
392.501	720.29
392.881	727.52
393.26	747.64
393.639	720.97
394.018	739.27
394.397	772.04
394.776	773.4
395.155	779.95
395.534	764.13
395.913	801.42
396.292	815.66
396.671	821.53
397.05	816.33
397.429	821.31
397.808	838.93
398.186	825.6
398.565	866.05
398.944	857.69
399.323	881.19
399.701	874.41
400.08	891.13
400.458	903.34
400.837	928.2
401.215	892.94
401.594	938.59
401.972	934.07
402.351	955.99
402.729	965.48
403.107	939.27
403.486	986.27
403.864	985.14
404.242	983.56
404.62	1018.82
404.999	1002.54
405.377	1030.57
405.755	1027.18
406.133	1074.18
406.511	1061.98
406.889	1092.94
407.267	1098.59
407.645	1125.48
408.023	1122.54
408.401	1162.99
408.779	1155.31
409.156	1190.11
409.534	1181.07
409.912	1207.28
410.29	1247.06
410.667	1262.65
411.045	1266.27
411.422	1277.57
411.8	1268.75
412.178	1329.54
412.555	1322.54
412.933	1369.09
413.31	1372.03
413.687	1387.17
414.065	1400.5
414.442	1414.51
414.819	1441.18
415.197	1459.71
415.574	1487.05
415.951	1500.38
416.328	1498.12
416.705	1534.28
417.082	1552.59
417.46	1560.95
417.837	1558.46
418.214	1566.6
418.591	1609.53
418.967	1614.73
419.344	1625.13
419.721	1675.29
420.098	1669.42
420.475	1693.6
420.852	1707.38
421.228	1722.98
421.605	1734.73
421.982	1790.32
422.358	1762.07
422.735	1809.3
423.111	1780.15
423.488	1823.77
423.864	1814.95
424.241	1870.32
424.617	1898.79
424.994	1887.27
425.37	1931.56
425.746	1930.43
426.123	1974.5
426.499	1991.44
426.875	2014.72
427.251	2086.13
427.627	2115.51
428.003	2128.16
428.379	2116.64
428.756	2208.61
429.132	2204.77
429.507	2242.51
429.883	2288.39
430.259	2304.88
430.635	2324.32
431.011	2348.95
431.387	2426.91
431.763	2439.12
432.138	2423.75
432.514	2505.1
432.89	2487.7
433.265	2599.34
433.641	2595.5
434.016	2610.19
434.392	2680.69
434.767	2724.31
435.143	2766.79
435.518	2757.53
435.894	2826.45
436.269	2825.32
436.644	2869.39
437.02	2881.82
437.395	2900.57
437.77	2941.25
438.145	2976.96
438.52	3010.4
438.895	3032.32
439.271	3077.52
439.646	3122.71
440.021	3137.18
440.395	3187.12
440.77	3181.92
441.145	3214.69
441.52	3272.54
441.895	3260.56
442.27	3323.39
442.645	3291.3
443.019	3369.04
443.394	3391.41
443.769	3411.07
444.143	3399.32
444.518	3459.65
444.892	3481.8
445.267	3520.22
445.641	3500.78
446.016	3543.95
446.39	3577.62
446.764	3621.23
447.139	3606.54
447.513	3642.25
447.887	3706.88
448.262	3661.91
448.636	3741.23
449.01	3794.34
449.384	3813.09
449.758	3830.49
450.132	3877.04
450.506	3940.55
450.88	3964.95
451.254	3944.84
451.628	3983.93
452.002	4050.6
452.376	4111.62
452.75	4116.13
453.123	4188.68
453.497	4232.97
453.871	4281.1
454.244	4364.04
454.618	4412.17
454.992	4466.18
455.365	4508.21
455.739	4575.33
456.112	4620.75
456.486	4745.5
456.859	4682
457.232	4801.54
457.606	4825.04
457.979	4901.88
458.352	5015.09
458.725	5000.63
459.099	5062.78
459.472	5176.45
459.845	5253.28
460.218	5281.53
460.591	5322.43
460.964	5358.81
461.337	5477.68
461.71	5552.71
462.083	5632.48
462.456	5723.78
462.829	5724
463.201	5808.97
463.574	5828.18
463.947	5914.96
464.32	6041.06
464.692	6068.17
465.065	6132.35
465.438	6290.54
465.81	6266.13
466.183	6369.86
466.555	6499.12
466.928	6514.49
467.3	6526.01
467.672	6690.98
468.045	6843.29
468.417	6862.73
468.789	6907.47
469.161	7038.77
469.534	7191.76
469.906	7356.05
470.278	7373.22
470.65	7456.84
471.022	7585.42
471.394	7819.31
471.766	7796.04
472.138	7984.73
472.51	8058.86
472.882	8220.89
473.253	8299.08
473.625	8448.22
473.997	8634.43
474.369	8594.89
474.74	8801.44
475.112	8974.99
475.484	9105.16
475.855	9258.82
476.227	9366.84
476.598	9626.05
476.97	9695.65
477.341	9884.8
477.713	10054.51
478.084	10152.36
478.455	10421.51
478.827	10496.31
479.198	10816.3
479.569	10783.08
479.94	11103.3
480.311	11240.24
480.682	11358.88
481.053	11748.02
481.424	12011.75
481.795	12024.85
482.166	12243.38
482.537	12404.05
482.908	12676.14
483.279	12799.97
483.65	13028.89
484.021	13276.57
484.391	13335.78
484.762	13528.54
485.133	13700.74
485.503	13945.93
485.874	14241.97
486.244	14360.16
486.615	14569.87
486.985	14803.54
487.356	15067.26
487.726	15203.75
488.097	15492.11
488.467	15539.11
488.837	15842.38
489.207	16097.06
489.578	16301.58
489.948	16468.58
490.318	16711.06
490.688	16686.2
491.058	17000.77
491.428	17243.25
491.798	17431.72
492.168	17799.16
492.538	17707.87
492.908	18073.51
493.278	18310.79
493.648	18313.28
494.017	18589.65
494.387	18688.86
494.757	18957.1
495.126	19070.54
495.496	19092.24
495.866	19323.19
496.235	19659
496.605	19836.4
496.974	19865.78
497.344	20106.9
497.713	20183.51
498.082	20301.7
498.452	20530.39
498.821	20601.58
499.19	20854.45
499.559	20991.4
499.928	21027.1
500.298	21263.93
500.667	21454.89
501.036	21432.29
501.405	21728.78
501.774	21795.44
502.143	21973.29
502.512	22108.2
502.88	22246.96
503.249	22343.9
503.618	22519.04
503.987	22715.87
504.356	22802.65
504.724	23003.55
505.093	23105.24
505.462	23200.38
505.83	23298
506.199	23657.09
506.567	23902.28
506.936	23833.58
507.304	24118.77
507.672	24274.7
508.041	24319.67
508.409	24619.1
508.777	24833.1
509.145	24930.73
509.514	24962.82
509.882	25247.56
510.25	25264.51
510.618	25444.16
510.986	25682.12
511.354	26005.28
511.722	26175.67
512.09	26522.1
512.458	26304.93
512.826	26610.46
513.193	26715.09
513.561	26955.76
513.929	27078.92
514.297	27469.64
514.664	27557.78
515.032	27675.74
515.4	28046.58
515.767	28089.74
516.135	28330.87
516.502	28061.27
516.869	28740.35
517.237	28784.86
517.604	28820.34
517.972	29243.16
518.339	29405.19
518.706	29424.4
519.073	29624.39
519.44	29880.88
519.808	30153.19
520.175	30233.19
520.542	30562.9
520.909	30742.33
521.276	30971.02
521.643	31222.77
522.009	31461.63
522.376	31608.52
522.743	31773.71
523.11	32220.03
523.477	32434.71
523.843	32692.56
524.21	33054.36
524.577	33291.64
524.943	33390.62
525.31	33508.58
525.676	33910.38
526.043	34037.83
526.409	34325.74
526.776	34695.44
527.142	34772.28
527.508	35038.94
527.874	35240.97
528.241	35501.98
528.607	35619.04
528.973	35999.36
529.339	35951.46
529.705	36311.45
530.071	36587.37
530.437	36811.55
530.803	36984.87
531.169	37168.37
531.535	37166.11
531.901	37452.66
532.267	37596.84
532.632	37835.93
532.998	37959.54
533.364	38168.57
533.73	38385.52
534.095	38570.37
534.461	38604.72
534.826	38917.03
535.192	38980.3
535.557	39411.93
535.923	39349.11
536.288	39610.12
536.653	39727.18
537.019	39712.49
537.384	39937.34
537.749	40234.06
538.114	40263.43
538.479	40356.54
538.845	40643.54
539.21	40580.49
539.575	40685.34
539.94	40881.27
540.305	41176.4
540.67	41055.28
541.034	41252.56
541.399	41460.24
541.764	41392.89
542.129	41716.28
542.494	41805.09
542.858	41915.37
543.223	41989.94
543.587	42385.41
543.952	42270.16
544.316	42539.76
544.681	42382.02
545.045	42669.25
545.41	43034.89
545.774	43057.26
546.138	43066.97
546.503	43295.9
546.867	43264.48
547.231	43706.73
547.595	43704.02
547.959	43955.09
548.324	43962.54
548.688	44053.39
549.052	44199.83
549.416	44425.13
549.779	44323.89
550.143	44603.66
550.507	44812.01
550.871	44957.55
551.235	45073.93
551.599	45400.47
551.962	45433.92
552.326	45637.98
552.689	45680.01
553.053	45624.2
553.417	45927.69
553.78	46191.86
554.143	46173.79
554.507	46282.48
554.87	46460.11
555.234	46856.93
555.597	46642.47
555.96	46897.83
556.323	47260.76
556.686	47227.32
557.05	47488.78
557.413	47578.27
557.776	47781.65
558.139	47956.56
558.502	48096.45
558.865	48120.4
559.228	48385.93
559.59	48484.69
559.953	48724.23
560.316	49107.04
560.679	48939.14
561.041	49303.65
561.404	49413.47
561.767	49524.43
562.129	49551.32
562.492	49969.84
562.854	50001.26
563.217	49899.11
563.579	50238.09
563.941	50345.2
564.304	50478.08
564.666	50772.08
565.028	50893.44
565.39	50980.67
565.753	51062.47
566.115	51153.54
566.477	51347.66
566.839	51487.77
567.201	51628.11
567.563	51662.91
567.925	51904.26
568.287	52005.72
568.648	52038.26
569.01	52238.71
569.372	52493.62
569.734	52442.1
570.095	52603
570.457	52714.18
570.819	52795.98
571.18	52807.96
571.542	52922.76
571.903	53049.54
572.265	53165.69
572.626	53202.08
572.987	53240.27
573.349	53368.62
573.71	53483.2
574.071	53570.88
574.432	53603.2
574.794	53859.01
575.155	53811.1
575.516	53787.82
575.877	53864.66
576.238	53957.31
576.599	54058.55
576.96	54200.69
577.32	54061.71
577.681	54254.25
578.042	54254.48
578.403	54349.84
578.763	54329.96
579.124	54362.27
579.485	54504.64
579.845	54496.73
580.206	54529.95
580.566	54566.33
580.927	54626.9
581.287	54687.01
581.648	54534.24
582.008	54701.7
582.368	54685.2
582.728	54743.28
583.089	54691.75
583.449	54688.14
583.809	54753.67
584.169	54825.08
584.529	54755.71
584.889	54955.7
585.249	54723.62
585.609	54736.27
585.969	54785.08
586.329	54805.65
586.688	54789.38
587.048	54831.86
587.408	54754.58
587.768	54796.38
588.127	54736.72
588.487	54730.62
588.846	54930.62
589.206	54774.46
589.565	54810.85
589.925	54890.17
590.284	54813.56
590.643	54847.68
591.003	54875.93
591.362	55032.54
591.721	54936.49
592.08	54955.02
592.44	54911.41
592.799	54991.63
593.158	54907.79
593.517	54911.18
593.876	54987.34
594.235	54868.92
594.593	54947.57
594.952	55009.03
595.311	54916.15
595.67	55030.28
596.029	55227.33
596.387	55100.56
596.746	55208.58
597.104	55089.48
597.463	55090.39
597.822	55244.06
598.18	55116.6
598.538	55053.33
598.897	55275.24
599.255	54952.09
599.613	55446.99
599.972	55272.3
600.33	55368.12
600.688	55289.03
601.046	55347.1
601.404	55464.16
601.762	55425.75
602.12	55482.02
602.478	55476.37
602.836	55456.71
603.194	55393.66
603.552	55373.54
603.91	55325.18
604.268	55599.53
604.625	55441.56
604.983	55608.57
605.341	55461
605.698	55621.45
606.056	55674.55
606.413	55600.43
606.771	55711.16
607.128	55748.68
607.485	55582.8
607.843	55730.82
608.2	55831.61
608.557	55897.15
608.914	55848.33
609.272	55955.45
609.629	55989.35
609.986	56053.98
610.343	55872.51
610.7	56006.52
611.057	56015.56
611.414	56009.23
611.771	56064.15
612.127	56142.56
612.484	56164.26
612.841	56202.45
613.198	56076.58
613.554	56143.24
613.911	56292.39
614.267	56246.97
614.624	56229.79
614.98	56217.82
615.337	56463.23
615.693	56276.8
616.05	56360.86
616.406	56458.94
616.762	56393.18
617.118	56330.36
617.475	56359.28
617.831	56491.25
618.187	56462.55
618.543	56513.85
618.899	56665.71
619.255	56555.21
619.611	56559.73
619.967	56614.64
620.323	56653.06
620.678	56543.23
621.034	56481.31
621.39	56635.66
621.746	56549.11
622.101	56732.15
622.457	56505.04
622.812	56568.99
623.168	56612.16
623.523	56603.79
623.879	56757.69
624.234	56515.89
624.589	56607.18
624.945	56631.14
625.3	56669.1
625.655	56595.66
626.01	56677.24
626.365	56692.83
626.72	56570.8
627.075	56536
627.43	56575.55
627.785	56542.33
628.14	56534.87
628.495	56607.64
628.85	56546.85
629.205	56482.44
629.559	56586.17
629.914	56417.13
630.269	56451.48
630.623	56366.06
630.978	56365.38
631.332	56455.32
631.687	56474.31
632.041	56325.38
632.396	56362.22
632.75	56310.92
633.104	56307.76
633.459	56162.45
633.813	56176.69
634.167	56184.6
634.521	56113.86
634.875	56260.07
635.229	56091.49
635.583	55960.65
635.937	55979.4
636.291	55953.42
636.645	55990.48
636.999	55859.86
637.352	56023.7
637.706	55821.44
638.06	55892.63
638.413	55788.9
638.767	55775.12
639.121	55804.95
639.474	55546.87
639.828	55665.29
640.181	55623.93
640.534	55571.73
640.888	55582.35
641.241	55451.73
641.594	55524.95
641.947	55559.98
642.301	55398.18
642.654	55392.75
643.007	55417.38
643.36	55351.85
643.713	55275.47
644.066	55364.28
644.419	55199.99
644.771	55034.8
645.124	54718.87
645.477	54715.03
645.83	54489.27
646.182	54443.62
646.535	54308.04
646.888	54421.7
647.24	54176.97
647.593	54289.73
647.945	54224.87
648.298	54037.99
648.65	54016.97
649.002	53939.46
649.355	54151.2
649.707	53992.11
650.059	54168.83
650.411	54424.64
650.763	54482.95
651.115	54769.49
651.467	54693.56
651.819	54644.75
652.171	54536.5
652.523	54477.07
652.875	54444.75
653.227	54379.67
653.578	54567.69
653.93	54371.54
654.282	54290.41
654.633	54246.12
654.985	54308.26
655.337	54289.5
655.688	54285.44
656.039	54326.57
656.391	54110.53
656.742	54176.97
657.094	54077.98
657.445	54193.01
657.796	54146.68
658.147	54048.83
658.498	54059.68
658.849	54145.55
659.2	53991.89
659.551	53952.56
659.902	54077.08
660.253	53962.96
660.604	53983.52
660.955	53910.08
661.306	53954.15
661.656	53849.97
662.007	53955.95
662.358	53912.11
662.708	53857.65
663.059	53878.89
663.409	53644.32
663.76	53860.59
664.11	53831.44
664.461	53798.9
664.811	53813.81
665.161	53842.06
665.511	53655.17
665.862	53673.02
666.212	53830.08
666.562	53692.01
666.912	53723.87
667.262	53743.3
667.612	53628.28
667.962	53612.23
668.312	53485.46
668.662	53668.05
669.011	53603.87
669.361	53518.45
669.711	53523.42
670.06	53418.34
670.41	53383.99
670.76	53353.03
671.109	53434.39
671.459	53413.14
671.808	53283.66
672.157	53338.34
672.507	53136.99
672.856	53198.46
673.205	53317.55
673.554	53332.24
673.904	53210.21
674.253	53300.15
674.602	53204.79
674.951	52751.24
675.3	52598.02
675.649	53097.9
675.998	52990.1
676.346	52996.66
676.695	53184
677.044	52778.81
677.393	52923.89
677.741	52957.11
678.09	52989.65
678.438	52826.72
678.787	52867.17
679.135	52822.88
679.484	52700.85
679.832	52709.43
680.181	52605.26
680.529	52675.54
680.877	52575.43
681.225	52522.09
681.573	52822.2
681.922	52436.45
682.27	52298.37
682.618	52493.39
682.966	52302.21
683.314	52360.52
683.661	52211.82
684.009	52097.7
684.357	52061.77
684.705	51881.43
685.053	52002.33
685.4	51834.65
685.748	51837.14
686.095	51758.72
686.443	51645.28
686.79	51493.42
687.138	51588.56
687.485	51622.68
687.832	51416.81
688.18	51386.3
688.527	51229.25
688.874	51232.18
689.221	51172.3
689.568	50980.21
689.915	50924.4
690.262	50978.86
690.609	50876.04
690.956	50634.01
691.303	50741.35
691.65	50588.36
691.997	50532.99
692.344	50197.18
692.69	50329.16
693.037	50274.24
693.383	49977.53
693.73	50087.81
694.077	49854.14
694.423	49891.43
694.769	49739.12
695.116	49657.08
695.462	49662.73
695.808	49425.45
696.155	49492.79
696.501	49251.9
696.847	49175.06
697.193	49051
697.539	49173.93
697.885	48852.13
698.231	48655.75
698.577	48722.65
698.923	48596.55
699.269	48537.34
699.614	48273.84
699.96	48100.51
700.306	48272.49
700.651	48048.31
700.997	47876.79
701.342	47855.1
701.688	47791.6
702.033	47646.97
702.379	47721.54
702.724	47404.49
703.069	47566.74
703.415	47024.84
703.76	47219.41
704.105	47036.14
704.45	46976.02
704.795	46817.61
705.14	46593.44
705.485	46702.81
705.83	46415.36
706.175	46646.32
706.52	46325.42
706.865	46257.85
707.209	46063.96
707.554	45934.02
707.899	46116.84
708.243	45842.04
708.588	45794.59
708.932	45564.31
709.277	45604.76
709.621	45480.24
709.966	45227.14
710.31	45463.07
710.654	45021.5
710.998	45151.67
711.342	45087.03
711.687	44896.08
712.031	44725.24
712.375	44637.1
712.719	44627.84
713.063	44547.84
713.407	44592.81
713.75	44352.36
714.094	44195.98
714.438	44127.96
714.782	44198.92
715.125	43971.81
715.469	44082.09
715.812	43938.36
716.156	43648.88
716.499	43680.07
716.843	43668.54
717.186	43428.32
717.53	43658.6
717.873	43547.19
718.216	43523.46
718.559	43238.27
718.902	43001.44
719.246	43064.94
719.589	42969.58
719.932	42773.42
720.275	42794.67
720.617	42831.27
720.96	42639.42
721.303	42650.49
721.646	42600.77
721.989	42293.44
722.331	42546.54
722.674	42299.54
723.016	42360.33
723.359	42218.41
723.701	42289.37
724.044	41979.77
724.386	41834.01
724.729	42078.98
725.071	41995.14
725.413	41863.16
725.755	41779.1
726.097	41521.7
726.439	41363.29
726.782	41447.81
727.124	41598.76
727.465	41217.76
727.807	41128.49
728.149	41169.17
728.491	41123.75
728.833	41053.02
729.175	40980.25
729.516	40972.34
729.858	40773.7
730.199	40861.61
730.541	40850.99
730.882	40732.12
731.224	40725.57
731.565	40466.37
731.906	40625.23
732.248	40557.89
732.589	40224.11
732.93	40221.63
733.271	40207.62
733.612	40225.24
733.953	40285.13
734.294	39956.55
734.635	40006.49
734.976	40067.28
735.317	39721.3
735.658	39742.99
735.999	39851.69
736.339	39590.91
736.68	39591.36
737.021	39554.75
737.361	39234.76
737.702	39583
738.042	39465.94
738.383	39372.16
738.723	39255.55
739.063	39189.11
739.404	39221.43
739.744	39145.27
740.084	38903.02
740.424	38918.38
740.764	38798.16
741.104	38970.13
741.444	38661.44
741.784	38665.96
742.124	38638.16
742.464	38665.28
742.804	38590.03
743.143	38444.27
743.483	38498.96
743.823	38202.24
744.162	38181
744.502	38258.97
744.841	37972.87
745.181	38189.59
745.52	37971.29
745.86	38072.76
746.199	37930.16
746.538	37800.45
746.877	37904.4
747.216	37966.09
747.556	37666.89
747.895	37630.06
748.234	37598.64
748.573	37375.6
748.911	37428.48
749.25	37353.45
749.589	37182.61
749.928	37210.18
750.267	37249.73
750.605	37087.02
750.944	37021.03
751.283	36960.02
751.621	36944.42
751.96	36659.91
752.298	36689.06
752.636	36820.81
752.975	36431.44
753.313	36341.28
753.651	36438.45
753.989	36300.6
754.327	36192.81
754.666	35936.09
755.004	36098.8
755.342	36136.08
755.679	35997.78
756.017	35747.17
756.355	35822.87
756.693	35664.01
757.031	35701.74
757.368	35426.05
757.706	35500.85
758.044	35297.01
758.381	35251.81
758.719	35066.73
759.056	35071.03
759.394	34843.01
759.731	34662
760.068	34648.89
760.405	34539.52
760.743	34445.51
761.08	34481.89
761.417	34365.51
761.754	34154.89
762.091	34090.26
762.428	34195.12
762.765	33745.41
763.102	34018.4
763.438	33765.07
763.775	33578.41
764.112	33538.86
764.449	33566.43
764.785	33339.77
765.122	33111.53
765.458	33111.76
765.795	33066.11
766.131	32899.78
766.467	32805.55
766.804	32727.13
767.14	32534.14
767.476	32532.11
767.812	32399.46
768.148	32355.84
768.485	32153.59
768.821	31964.89
769.157	32023.2
769.492	31945.69
769.828	31836.99
770.164	31679.7
770.5	31479.03
770.836	31456.66
771.171	31263.67
771.507	31318.13
771.842	30980.74
772.178	30948.88
772.513	30972.6
772.849	30808.31
773.184	30619.62
773.519	30804.47
773.855	30501.2
774.19	30322.9
774.525	30259.63
774.86	30209.91
775.195	30048.11
775.53	29995.91
775.865	29827.32
776.2	29608.12
776.535	29515.69
776.87	29402.7
777.205	29287.9
777.539	29127.91
777.874	29285.87
778.209	28931.98
778.543	28955.03
778.878	28708.03
779.212	28671.87
779.547	28605.66
779.881	28571.76
780.215	28424.42
780.55	28535.15
780.884	28267.36
781.218	28205.22
781.552	28050.19
781.886	27976.07
782.22	27766.36
782.554	27740.37
782.888	27505.58
783.222	27340.16
783.556	27336.99
783.889	27218.13
784.223	27015.19
784.557	26940.17
784.89	27079.15
785.224	26843.9
785.557	26772.04
785.891	26636.45
786.224	26729.55
786.558	26493.17
786.891	26297.7
787.224	26225.16
787.557	26117.59
787.891	26118.27
788.224	26087.76
788.557	26030.13
788.89	25878.27
789.223	25836.02
789.556	25656.36
789.888	25593.31
790.221	25610.26
790.554	25391.96
790.887	25276.03
791.219	25178.63
791.552	25094.57
791.884	25001.91
792.217	24836.72
792.549	24867.68
792.882	24725.76
793.214	24585.88
793.546	24624.07
793.879	24428.82
794.211	24409.16
794.543	24448.71
794.875	24387.69
795.207	24303.17
795.539	24140.47
795.871	24093.24
796.203	23882.39
796.535	23769.4
796.867	23745
797.198	23564.89
797.53	23675.62
797.862	23488.28
798.193	23556.08
798.525	23406.47
798.856	23377.55
799.188	23169.42
799.519	23141.4
799.85	23087.39
800.182	22996.09
800.513	22975.3
800.844	22853.72
801.175	22888.52
801.506	22808.07
801.837	22698.7
802.168	22642.65
802.499	22543.45
802.83	22361.98
803.161	22411.47
803.491	22360.63
803.822	22277.01
804.153	22199.5
804.483	21956.34
804.814	21973.07
805.145	22064.59
805.475	21987.08
805.805	21760.64
806.136	21839.51
806.466	21825.27
806.796	21780.98
807.126	21623.47
807.457	21676.58
807.787	21642.68
808.117	21435.45
808.447	21333.31
808.777	21459.41
809.107	21256.93
809.436	21232.52
809.766	21168.57
810.096	21039.53
810.426	21053.77
810.755	20988.23
811.085	20835.24
811.414	20837.95
811.744	20744.62
812.073	20710.73
812.403	20623.95
812.732	20599.32
813.061	20556.83
813.39	20402.71
813.719	20437.51
814.049	20369.27
814.378	20367.91
814.707	20268.93
815.036	20129.27
815.365	20022.61
815.693	20015.6
816.022	19981.71
816.351	19877.08
816.68	19759.11
817.008	19887.25
817.337	19618.55
817.665	19753.46
817.994	19701.26
818.322	19665.56
818.651	19600.25
818.979	19526.35
819.307	19596.63
819.636	19522.96
819.964	19447.03
820.292	19443.87
820.62	19369.29
820.948	19412
821.276	19342.85
821.604	19513.24
821.932	19351.89
822.259	19441.38
822.587	19368.16
822.915	19339.92
823.243	19337.66
823.57	19310.76
823.898	19296.98
824.225	19247.94
824.553	19343.76
824.88	19292.01
825.207	19329.07
825.535	19334.72
825.862	19239.35
826.189	19161.61
826.516	19297.43
826.843	19326.13
827.17	19318.67
827.497	19244.32
827.824	19181.05
828.151	19319.12
828.478	19264.89
828.805	19270.76
829.131	19160.71
829.458	19139.02
829.785	19166.59
830.111	19188.96
830.438	19257.21
830.764	19204.1
831.09	19176.53
831.417	18978.34
831.743	19078.91
832.069	19228.05
832.395	19055.18
832.722	19213.14
833.048	19023.99
833.374	19080.49
833.7	19006.82
834.026	18922.07
834.351	18918.68
834.677	19014.95
835.003	19011.11
835.329	19049.08
835.654	18890.66
835.98	18775.86
836.306	18860.38
836.631	18803.43
836.956	18832.36
837.282	18793.94
837.607	18685.47
837.932	18641.85
838.258	18629.88
838.583	18657.22
838.908	18583.1
839.233	18635.07
839.558	18535.19
839.883	18394.18
840.208	18374.97
840.533	18438.02
840.858	18430.11
841.182	18312.15
841.507	18307.4
841.832	18263.11
842.156	18279.38
842.481	18206.84
842.805	18166.84
843.13	18087.07
843.454	18002.55
843.778	18023.11
844.103	18014.07
844.427	17907.41
844.751	17916.9
845.075	17900.86
845.399	17736.57
845.723	17786.96
846.047	17783.12
846.371	17611.15
846.695	17651.15
847.019	17373.64
847.343	17377.93
847.666	17302.68
847.99	17236.02
848.313	17245.73
848.637	16986.76
848.96	17007.77
849.284	17015.91
849.607	16902.92
849.931	16872.41
850.254	16803.48
850.577	16651.4
850.9	16564.17
851.223	16518.29
851.546	16453.66
851.869	16367.11
852.192	16450.05
852.515	16235.14
852.838	16172.99
853.161	16201.92
853.483	16097.06
853.806	16028.36
854.129	16014.58
854.451	15972.55
854.774	15842.38
855.096	15802.38
855.419	15750.86
855.741	15714.47
856.063	15669.28
856.385	15631.09
856.708	15560.13
857.03	15487.81
857.352	15495.72
857.674	15406.01
857.996	15373.69
858.318	15226.35
858.64	15316.07
858.961	15354.26
859.283	15146.81
859.605	15123.98
859.926	15148.39
860.248	15116.52
860.57	15112.68
860.891	14998.56
861.212	14947.26
861.534	14874.04
861.855	14826.14
862.176	14870.88
862.498	14953.14
862.819	14905.46
863.14	14759.24
863.461	14776.19
863.782	14576.65
864.103	14689.64
864.424	14625.01
864.745	14665.91
865.065	14564.45
865.386	14486.48
865.707	14592.24
866.027	14555.18
866.348	14532.13
866.668	14428.63
866.989	14411.23
867.309	14316.09
867.63	14334.62
867.95	14336.2
868.27	14336.2
868.59	14323.32
868.91	14206.49
869.23	14206.26
869.55	14101.41
869.87	14234.06
870.19	14189.09
870.51	14184.34
870.83	14098.02
871.15	13952.71
871.469	14003.56
871.789	14143.22
872.109	14095.08
872.428	14037
872.748	14024.57
873.067	14013.5
873.386	13986.16
873.706	13982.54
874.025	13876.1
874.344	13882.66
874.663	13893.5
874.982	13821.19
875.301	13853.96
875.62	13792.26
875.939	13669.33
876.258	13749.55
876.577	13692.38
876.896	13623.23
877.214	13690.12
877.533	13666.39
877.852	13625.49
878.17	13620.07
878.489	13592.04
878.807	13607.86
879.125	13545.94
879.444	13504.36
879.762	13481.54
880.08	13430.47
880.398	13373.97
880.716	13378.72
881.034	13333.07
881.352	13382.78
881.67	13316.34
881.988	13324.25
882.306	13244.26
882.624	13187.99
882.941	13166.29
883.259	13157.7
883.577	13134.65
883.894	13150.02
884.212	13063.02
884.529	13072.96
884.846	13059.63
885.164	12994.55
885.481	12925.17
885.798	12936.69
886.115	12800.2
886.432	12873.87
886.75	12795.91
887.067	12864.61
887.383	12735.8
887.7	12762.46
888.017	12699.19
888.334	12730.82
888.651	12656.48
888.967	12638.17
889.284	12506.2
889.6	12446.76
889.917	12428.46
890.233	12478.17
890.55	12394.79
890.866	12388.91
891.182	12245.41
891.498	12274.34
891.815	12266.88
892.131	12213.32
892.447	12204.51
892.763	12165.19
893.079	12156.6
893.395	12015.81
893.71	12104.4
894.026	11978.3
894.342	11930.84
894.657	11921.13
894.973	11889.94
895.289	11768.81
895.604	11892.88
895.92	11767.46
896.235	11723.17
896.55	11743.96
896.865	11683.85
897.181	11590.74
897.496	11584.86
897.811	11515.94
898.126	11548.26
898.441	11447.69
898.756	11441.59
899.071	11404.08
899.386	11357.3
899.7	11247.25
900.015	11289.51
900.33	11111.88
900.644	11159.34
900.959	11194.14
901.273	11050.64
901.588	11023.75
901.902	10959.57
902.216	10905.33
902.531	10838.9
902.845	10962.51
903.159	10804.32
903.473	10731.78
903.787	10692.68
904.101	10710.76
904.415	10676.87
904.729	10622.86
905.042	10577.89
905.356	10567.26
905.67	10502.63
905.984	10484.78
906.297	10488.4
906.611	10353.71
906.924	10361.17
907.237	10380.38
907.551	10334.95
907.864	10268.29
908.177	10236.43
908.491	10164.79
908.804	10089.31
909.117	10071.46
909.43	10046.83
909.743	9974.29
910.056	9948.07
910.368	9918.47
910.681	9869.2
910.994	9849.77
911.307	9770
911.619	9710.79
911.932	9743.11
912.244	9667.4
912.557	9616.56
912.869	9599.38
913.181	9564.81
913.494	9520.51
913.806	9510.57
914.118	9467.41
914.43	9350.12
914.742	9391.7
915.054	9332.49
915.366	9257.02
915.678	9209.33
915.99	9221.09
916.302	9096.34
916.613	9109.22
916.925	9100.86
917.236	9032.62
917.548	9028.32
917.859	8948.32
918.171	8929.79
918.482	8890.02
918.794	8814.77
919.105	8850.02
919.416	8741.32
919.727	8715.79
920.038	8719.86
920.349	8689.35
920.66	8625.17
920.971	8652.74
921.282	8606.41
921.593	8488
921.903	8436.25
922.214	8411.61
922.525	8418.62
922.835	8396.93
923.146	8372.52
923.456	8305.63
923.767	8242.58
924.077	8197.84
924.387	8223.6
924.697	8095.92
925.008	8114.45
925.318	8114.22
925.628	8152.86
925.938	8022.7
926.248	7964.62
926.558	7936.6
926.867	7856.6
927.177	7831.29
927.487	7827.45
927.796	7728.92
928.106	7709.03
928.416	7670.62
928.725	7729.15
929.034	7603.05
929.344	7674.69
929.653	7621.58
929.962	7534.12
930.271	7531.64
930.581	7467.69
930.89	7484.41
931.199	7379.1
931.508	7467.69
931.817	7415.26
932.125	7304.75
932.434	7316.05
932.743	7271.31
933.051	7224.75
933.36	7178.43
933.669	7127.35
933.977	7136.17
934.286	7104.3
934.594	7050.07
934.902	7050.07
935.21	6973.01
935.519	6981.37
935.827	6935.27
936.135	6873.58
936.443	6839.68
936.751	6839.45
937.059	6821.37
937.367	6757.65
937.674	6752.9
937.982	6730.08
938.29	6668.84
938.597	6719.91
938.905	6625.22
939.213	6592.23
939.52	6603.07
939.827	6604.66
940.135	6517.2
940.442	6496.41
940.749	6496.64
941.056	6483.08
941.363	6422.97
941.67	6392.46
941.977	6309.3
942.284	6252.58
942.591	6266.13
942.898	6239.47
943.205	6251.45
943.511	6210.99
943.818	6194.5
944.125	6102.75
944.431	6095.52
944.738	6119.7
945.044	6072.92
945.35	6127.83
945.657	6027.5
945.963	5987.05
946.269	5940.04
946.575	5927.39
946.881	5912.7
947.187	5905.01
947.493	5809.65
947.799	5831.57
948.105	5834.73
948.41	5772.81
948.716	5758.35
949.022	5749.54
949.327	5714.51
949.633	5689.65
949.938	5653.04
950.244	5593.16
950.549	5623.67
950.854	5554.29
951.16	5576.66
951.465	5510.67
951.77	5528.98
952.075	5444.69
952.38	5455.76
952.685	5483.78
952.99	5418.02
953.294	5357.46
953.599	5360.62
953.904	5320.4
954.209	5283.79
954.513	5294.18
954.818	5239.95
955.122	5239.5
955.426	5250.57
955.731	5222.32
956.035	5163.79
956.339	5161.98
956.643	5131.02
956.948	5083.11
957.252	5064.36
957.556	5046.51
957.86	5053.29
958.163	4970.8
958.467	4997.47
958.771	5020.07
959.075	4984.13
959.378	4902.1
959.682	4886.74
959.985	4890.13
960.289	4835.44
960.592	4849.22
960.896	4830.69
961.199	4783.24
961.502	4790.92
961.805	4788.66
962.108	4683.58
962.411	4681.54
962.714	4688.55
963.017	4653.97
963.32	4624.6
963.623	4638.83
963.926	4615.56
964.228	4573.98
964.531	4550.47
964.833	4531.94
965.136	4493.3
965.438	4498.72
965.741	4518.61
966.043	4475
966.345	4408.1
966.648	4407.2
966.95	4347.32
967.252	4356.13
967.554	4349.57
967.856	4358.16
968.158	4362
968.46	4318.62
968.761	4289.46
969.063	4230.48
969.365	4255.57
969.666	4211.27
969.968	4172.18
970.269	4192.97
970.571	4139.64
970.872	4142.8
971.174	4129.02
971.475	4124.72
971.776	4098.73
972.077	4100.09
972.378	4039.07
972.679	3999.3
972.98	4004.27
973.281	3991.17
973.582	3966.76
973.883	3995.01
974.183	3953.65
974.484	3914.56
974.785	3906.42
975.085	3900.77
975.386	3836.82
975.686	3857.16
975.986	3849.7
976.287	3867.1
976.587	3801.11
976.887	3763.38
977.187	3748.91
977.487	3748.23
977.787	3733.09
978.087	3704.85
978.387	3691.97
978.687	3705.75
978.987	3636.37
979.286	3661.46
979.586	3658.29
979.885	3610.84
980.185	3629.37
980.484	3590.27
980.784	3552.99
981.083	3530.16
981.382	3497.39
981.682	3521.8
981.981	3503.27
982.28	3494.68
982.579	3430.95
982.878	3467.11
983.177	3429.6
983.475	3468.92
983.774	3424.4
984.073	3366.32
984.372	3358.64
984.67	3351.64
984.969	3342.14
985.267	3340.79
985.566	3328.13
985.864	3298.76
986.162	3276.83
986.461	3283.39
986.759	3276.83
987.057	3227.8
987.355	3198.64
987.653	3202.49
987.951	3176.27
988.249	3222.15
988.547	3187.57
988.844	3149.38
989.142	3124.07
989.44	3134.92
989.737	3072.55
990.035	3057.63
990.332	3043.39
990.63	3064.41
990.927	3066.22
991.224	3018.31
991.521	3030.29
991.819	3028.48
992.116	2978.54
992.413	2957.75
992.71	2925.88
993.006	2932.44
993.303	2922.27
993.6	2919.56
993.897	2906.45
994.193	2854.47
994.49	2844.3
994.787	2859.67
995.083	2812.67
995.379	2832.33
995.676	2834.81
995.972	2780.35
996.268	2759.79
996.565	2799.56
996.861	2726.57
997.157	2771.54
997.453	2658.09
997.749	2684.08
998.044	2717.98
998.34	2690.41
998.636	2653.57
998.932	2637.08
999.227	2645.44
999.523	2608.38
999.818	2614.03
1000.114	2555.95
1000.409	2573.8
1000.704	2596.17
1001	2545.78
1001.295	2504.2
1001.59	2527.7
1001.885	2534.93
1002.18	2517.98
1002.475	2482.51
1002.77	2457.65
1003.065	2474.14
1003.359	2420.36
1003.654	2383.75
1003.949	2408.16
1004.243	2451.09
1004.538	2379.01
1004.832	2355.96
1005.127	2341.49
1005.421	2355.73
1005.715	2336.97
1006.009	2322.28
1006.304	2318.67
1006.598	2275.28
1006.892	2289.06
1007.186	2293.13
1007.48	2257.88
1007.773	2239.57
1008.067	2239.8
1008.361	2191.21
1008.655	2188.73
1008.948	2176.75
1009.242	2188.5
1009.535	2149.18
1009.829	2137.2
1010.122	2147.6
1010.415	2145.57
1010.708	2091.33
1011.001	2070.76
1011.295	2085.23
1011.588	2070.76
1011.881	2052.69
1012.173	2048.39
1012.466	2036.87
1012.759	1999.58
1013.052	2023.76
1013.344	1991.22
1013.637	2012.46
1013.93	1953.25
1014.222	1959.58
1014.514	1953.03
1014.807	1948.28
1015.099	1934.72
1015.391	1904.89
1015.683	1926.36
1015.976	1891.79
1016.268	1868.28
1016.56	1866.48
1016.851	1856.31
1017.143	1851.56
1017.435	1842.75
1017.727	1826.7
1018.018	1783.31
1018.31	1783.54
1018.602	1785.57
1018.893	1762.3
1019.185	1793.71
1019.476	1718.68
1019.767	1715.75
1020.058	1720.94
1020.35	1708.97
1020.641	1713.49
1020.932	1657.22
1021.223	1674.62
1021.514	1680.04
1021.804	1644.11
1022.095	1648.63
1022.386	1628.06
1022.677	1614.05
1022.967	1624.22
1023.258	1611.57
1023.548	1598.23
1023.839	1564.11
1024.129	1568.18
1024.419	1559.82
1024.709	1557.56
1025	1525.02
1025.29	1513.94
1025.58	1489.54
1025.87	1502.87
1026.16	1491.12
1026.449	1496.09
1026.739	1466.49
1027.029	1466.71
1027.319	1431.91
1027.608	1446.83
1027.898	1436.88
1028.187	1416.54
1028.477	1400.05
1028.766	1398.47
1029.055	1382.42
1029.344	1378.58
1029.634	1370.67
1029.923	1386.26
1030.212	1347.39
1030.501	1321.18
1030.79	1319.37
1031.078	1322.31
1031.367	1317.79
1031.656	1308.3
1031.945	1265.81
1032.233	1301.75
1032.522	1287.06
1032.81	1265.81
1033.099	1258.13
1033.387	1234.4
1033.675	1228.53
1033.963	1198.02
1034.251	1191.47
1034.54	1208.19
1034.828	1232.37
1035.116	1200.96
1035.403	1178.58
1035.691	1184.91
1035.979	1170.45
1036.267	1167.29
1036.554	1152.14
1036.842	1160.05
1037.129	1137.68
1037.417	1143.78
1037.704	1099.04
1037.992	1108.98
1038.279	1132.26
1038.566	1122.09
1038.853	1122.09
1039.14	1122.09
