Data from white_steel_sheet_FLMS001491_065.txt Node
Date: Tue Feb 07 10:58:16 GMT 2017
User: dcchb
Spectrometer: FLMS00149
Trigger mode: 0
Integration Time (sec): 2.000000E-2
Scans to average: 10
Electric dark correction enabled: true
Nonlinearity correction enabled: false
Boxcar width: 0
XAxis mode: Wavelengths
Number of Pixels in Spectrum: 2048
>>>>>Begin Spectral Data<<<<<
341.393	5.31
341.776	5.31
342.16	5.31
342.543	-78.08
342.927	-60.22
343.31	-62.26
343.693	-85.53
344.077	-70.17
344.46	-50.96
344.843	-41.92
345.226	-26.33
345.61	-29.94
345.993	-12.99
346.376	2.37
346.759	21.36
347.142	10.73
347.525	22.71
347.908	47.8
348.291	72.65
348.674	76.27
349.057	126.21
349.44	107.45
349.823	123.73
350.206	160.33
350.588	217.06
350.971	218.64
351.354	215.7
351.737	234.91
352.119	260.67
352.502	270.84
352.884	276.72
353.267	285.98
353.65	298.86
354.032	309.48
354.414	301.12
354.797	321.69
355.179	327.56
355.562	309.03
355.944	327.79
356.326	332.99
356.709	337.28
357.091	328.92
357.473	330.73
357.855	336.38
358.238	354.91
358.62	343.38
359.002	354.68
359.384	347.67
359.766	349.71
360.148	347.9
360.53	337.28
360.912	342.25
361.294	350.16
361.676	349.03
362.057	341.8
362.439	337.51
362.821	336.15
363.203	330.73
363.584	342.7
363.966	332.99
364.348	339.77
364.729	342.25
365.111	341.57
365.493	320.33
365.874	325.98
366.256	322.82
366.637	317.17
367.019	321.01
367.4	328.47
367.781	330.05
368.163	336.83
368.544	316.94
368.925	340.89
369.306	317.62
369.688	326.43
370.069	326.43
370.45	318.3
370.831	321.01
371.212	329.82
371.593	315.36
371.974	338.86
372.355	317.84
372.736	334.57
373.117	334.57
373.498	332.76
373.879	331.4
374.26	321.46
374.641	325.75
375.021	337.28
375.402	318.3
375.783	310.39
376.163	338.41
376.544	350.39
376.925	341.57
377.305	348.58
377.686	314.46
378.066	346.77
378.447	323.72
378.827	362.36
379.208	349.03
379.588	357.39
379.968	354.68
380.349	355.58
380.729	332.08
381.109	361.01
381.489	350.16
381.87	348.13
382.25	355.81
382.63	367.56
383.01	379.54
383.39	354.45
383.77	371.63
384.15	376.15
384.53	345.19
384.91	373.89
385.29	382.93
385.67	365.08
386.049	361.01
386.429	364.62
386.809	408.69
387.189	378.41
387.568	389.71
387.948	387.67
388.328	389.71
388.707	408.92
389.087	401.01
389.466	410.05
389.846	402.81
390.225	422.02
390.605	419.31
390.984	417.05
391.363	427.45
391.743	414.57
392.122	419.99
392.501	422.47
392.881	454.11
393.26	445.75
393.639	471.06
394.018	463.38
394.397	448.24
394.776	443.27
395.155	459.08
395.534	466.77
395.913	475.35
396.292	475.81
396.671	476.48
397.05	517.39
397.429	496.15
397.808	502.25
398.186	504.73
398.565	527.33
398.944	520.55
399.323	508.35
399.701	534.34
400.08	539.99
400.458	530.49
400.837	530.72
401.215	566.2
401.594	565.52
401.972	566.2
402.351	581.57
402.729	580.21
403.107	601
403.486	603.71
403.864	630.6
404.242	607.1
404.62	609.81
404.999	641.68
405.377	626.09
405.755	640.1
406.133	637.38
406.511	669.47
406.889	678.51
407.267	682.81
407.645	698.4
408.023	699.53
408.401	713.31
408.779	709.7
409.156	748.12
409.534	744.05
409.912	734.78
410.29	779.08
410.667	800.54
411.045	795.8
411.422	810.49
411.8	818.17
412.178	826.53
412.555	867.21
412.933	869.02
413.31	863.59
413.687	885.97
414.065	865.63
414.442	867.66
414.819	927.55
415.197	940.2
415.574	953.53
415.951	943.37
416.328	951.27
416.705	956.7
417.082	993.53
417.46	972.06
417.837	1006.64
418.214	992.86
418.591	1018.17
418.967	1037.37
419.344	1027.88
419.721	1045.74
420.098	1052.74
420.475	1033.76
420.852	1093.19
421.228	1066.53
421.605	1108.33
421.982	1090.93
422.358	1113.53
422.735	1124.6
423.111	1111.04
423.488	1151.72
423.864	1149.01
424.241	1166.18
424.617	1204.38
424.994	1210.48
425.37	1222.68
425.746	1220.87
426.123	1225.17
426.499	1264.03
426.875	1268.78
427.251	1291.83
427.627	1284.37
428.003	1333.41
428.379	1358.72
428.756	1335.22
429.132	1385.39
429.507	1385.16
429.883	1396.69
430.259	1389.91
430.635	1444.14
431.011	1420.64
431.387	1440.3
431.763	1501.77
432.138	1508.32
432.514	1527.76
432.89	1549.68
433.265	1575.66
433.641	1596.46
434.016	1581.77
434.392	1631.93
434.767	1663.12
435.143	1652.05
435.518	1670.35
435.894	1699.05
436.269	1717.13
436.644	1761.42
437.02	1767.52
437.395	1737.47
437.77	1790.57
438.145	1827.86
438.52	1845.04
438.895	1889.55
439.271	1893.4
439.646	1880.97
440.021	1943.34
440.395	1935.43
440.77	1913.06
441.145	1977.91
441.52	1987.86
441.895	2014.98
442.27	2021.75
442.645	1993.05
443.019	2028.31
443.394	2048.65
443.769	2045.26
444.143	2062.21
444.518	2104.01
444.892	2085.71
445.267	2118.7
445.641	2124.35
446.016	2144.01
446.39	2178.36
446.764	2207.96
447.139	2184.46
447.513	2193.5
447.887	2202.31
448.262	2234.18
448.636	2243.67
449.01	2301.52
449.384	2291.8
449.758	2335.42
450.132	2374.06
450.506	2360.28
450.88	2376.77
451.254	2365.02
451.628	2414.74
452.002	2497
452.376	2476.43
452.75	2492.93
453.123	2507.84
453.497	2539.26
453.871	2578.12
454.244	2635.07
454.618	2641.4
454.992	2674.84
455.365	2700.83
455.739	2737.89
456.112	2778.12
456.486	2794.62
456.859	2847.95
457.232	2873.03
457.606	2869.87
457.979	2932.01
458.352	2973.37
458.725	3003.2
459.099	3005.91
459.472	3094.27
459.845	3100.37
460.218	3147.6
460.591	3153.25
460.964	3173.81
461.337	3239.8
461.71	3299.46
462.083	3322.29
462.456	3366.13
462.829	3366.8
463.201	3413.81
463.574	3452.9
463.947	3514.37
464.32	3535.61
464.692	3574.48
465.065	3595.27
465.438	3660.13
465.81	3723.63
466.183	3764.53
466.555	3857.64
466.928	3838.2
467.3	3877.75
467.672	3909.84
468.045	4000.91
468.417	4005.21
468.789	4018.76
469.161	4138.99
469.534	4170.85
469.906	4255.14
470.278	4262.37
470.65	4337.85
471.022	4394.12
471.394	4515.02
471.766	4530.16
472.138	4557.06
472.51	4675.47
472.882	4770.16
473.253	4822.59
473.625	4885.63
473.997	4945.52
474.369	5017.16
474.74	5053.54
475.112	5118.85
475.484	5211.5
475.855	5371.5
476.227	5436.81
476.598	5509.12
476.97	5603.13
477.341	5650.81
477.713	5724.03
478.084	5764.48
478.455	5921.77
478.827	5973.97
479.198	6227.97
479.569	6190.68
479.94	6392.49
480.311	6372.6
480.682	6545.03
481.053	6757.45
481.424	6774.4
481.795	6853.72
482.166	6970.33
482.537	7070.89
482.908	7233.6
483.279	7295.06
483.65	7467.49
484.021	7617.77
484.391	7695.05
484.762	7761.94
485.133	7830.19
485.503	7870.41
485.874	8092.78
486.244	8209.61
486.615	8317.41
486.985	8428.82
487.356	8598.08
487.726	8685.99
488.097	8847.79
488.467	8857.73
488.837	9070.16
489.207	9165.75
489.578	9265.41
489.948	9330.94
490.318	9467.43
490.688	9506.3
491.058	9699.52
491.428	9807.99
491.798	9877.14
492.168	10118.27
492.538	10211.37
492.908	10311.93
493.278	10394.87
493.648	10464.02
494.017	10577.01
494.387	10657.23
494.757	10806.16
495.126	10945.14
495.496	10944.23
495.866	11064.91
496.235	11146.94
496.605	11237.11
496.974	11359.81
497.344	11432.35
497.713	11612.46
498.082	11653.59
498.452	11693.14
498.821	11822.63
499.19	11846.81
499.559	11947.14
499.928	12087.25
500.298	12187.59
500.667	12343.52
501.036	12232.11
501.405	12411.99
501.774	12403.4
502.143	12625.09
502.512	12632.32
502.88	12806.1
503.249	12859.21
503.618	12941.24
503.987	13013.33
504.356	13025.53
504.724	13149.15
505.093	13225.75
505.462	13312.53
505.83	13424.17
506.199	13492.64
506.567	13730.83
506.936	13704.16
507.304	13895.11
507.672	13982.12
508.041	14001.78
508.409	14138.05
508.777	14214.88
509.145	14315.44
509.514	14399.96
509.882	14456.91
510.25	14581.2
510.618	14803.57
510.986	14783
511.354	14919.49
511.722	15038.59
512.09	15212.14
512.458	15281.07
512.826	15348.86
513.193	15449.2
513.561	15524.22
513.929	15713.82
514.297	15803.77
514.664	15979.13
515.032	16101.16
515.4	16245.34
515.767	16116.3
516.135	16376.86
516.502	16294.15
516.869	16543.41
517.237	16684.87
517.604	16780.91
517.972	16885.32
518.339	16981.81
518.706	17059.1
519.073	17118.53
519.44	17298.87
519.808	17591.51
520.175	17613.89
520.542	17741.57
520.909	17955.57
521.276	17965.52
521.643	18130.71
522.009	18229.92
522.376	18317.6
522.743	18531.83
523.11	18706.97
523.477	18899.96
523.843	19013.17
524.21	19268.76
524.577	19350.11
524.943	19473.95
525.31	19606.15
525.676	19792.13
526.043	19970.89
526.409	19990.1
526.776	20298.11
527.142	20359.35
527.508	20516.41
527.874	20626.01
528.241	20706.46
528.607	20791.2
528.973	20920.92
529.339	21041.82
529.705	21247.46
530.071	21410.17
530.437	21479.77
530.803	21659.88
531.169	21785.53
531.535	21844.28
531.901	21847.67
532.267	22106.65
532.632	22215.12
532.998	22195.46
533.364	22406.98
533.73	22488.11
534.095	22638.39
534.461	22787.08
534.826	22806.97
535.192	23043.8
535.557	23110.24
535.923	23084.03
536.288	23234.3
536.653	23262.78
537.019	23415.32
537.384	23557.46
537.749	23685.59
538.114	23731.69
538.479	23772.6
538.845	23926.49
539.21	23878.58
539.575	24059.82
539.94	24064.79
540.305	24227.05
540.67	24199.48
541.034	24380.71
541.399	24601.27
541.764	24505.23
542.129	24680.59
542.494	24714.49
542.858	24724.21
543.223	24867.71
543.587	25139.79
543.952	25041.26
544.316	25095.72
544.681	25116.51
545.045	25254.59
545.41	25340.01
545.774	25464.08
546.138	25560.12
546.503	25662.72
546.867	25658.65
547.231	25863.84
547.595	25966.21
547.959	26078.98
548.324	26075.81
548.688	26248.46
549.052	26226.32
549.416	26261.57
549.779	26268.12
550.143	26381.57
550.507	26611.62
550.871	26711.95
551.235	26704.5
551.599	26958.5
551.962	27012.06
552.326	27044.15
552.689	27289.11
553.053	27118.95
553.417	27168.89
553.78	27566.39
554.143	27454.31
554.507	27637.8
554.87	27742.89
555.234	27959.15
555.597	27986.5
555.96	28024.69
556.323	28169.77
556.686	28186.72
557.05	28361.85
557.413	28504.67
557.776	28525.69
558.139	28752.13
558.502	28803.65
558.865	28911.9
559.228	29121.38
559.59	29165.67
559.953	29182.62
560.316	29613.12
560.679	29514.14
561.041	29686.79
561.404	29729.05
561.767	29905.09
562.129	29964.97
562.492	30413.55
562.854	30378.75
563.217	30472.08
563.579	30499.42
563.941	30578.97
564.304	30870.71
564.666	31004.04
565.028	31026.64
565.39	31136.47
565.753	31312.74
566.115	31363.58
566.477	31511.83
566.839	31534.43
567.201	31810.35
567.563	31861.42
567.925	32074.3
568.287	32103.22
568.648	32152.04
569.01	32281.07
569.372	32534.17
569.734	32472.48
570.095	32703.66
570.457	32934.16
570.819	32973.26
571.18	33048.74
571.542	33078.11
571.903	33123.31
572.265	33341.16
572.626	33242.4
572.987	33340.03
573.349	33502.06
573.71	33591.55
574.071	33556.97
574.432	33850.3
574.794	33900.92
575.155	33900.46
575.516	34005.32
575.877	34084.41
576.238	34220.23
576.599	34191.3
576.96	34336.61
577.32	34333.9
577.681	34458.87
578.042	34535.7
578.403	34431.75
578.763	34538.87
579.124	34561.24
579.485	34739.31
579.845	34810.05
580.206	34589.94
580.566	34800.33
580.927	34734.79
581.287	34887.33
581.648	34793.1
582.008	34850.27
582.368	34795.81
582.728	34797.62
583.089	34898.18
583.449	34952.41
583.809	34819.99
584.169	35147.44
584.529	34846.88
584.889	35172.97
585.249	34917.84
585.609	34919.42
585.969	35095.91
586.329	35049.36
586.688	35010.27
587.048	34940.89
587.408	34983.37
587.768	35057.27
588.127	34981.57
588.487	35010.72
588.846	35277.6
589.206	34811.85
589.565	35066.76
589.925	35142.01
590.284	35082.35
590.643	35106.08
591.003	35195.57
591.362	35246.42
591.721	35193.09
592.08	35109.47
592.44	35197.61
592.799	35133.65
593.158	35051.85
593.517	35132.52
593.876	35053.88
594.235	35080.32
594.593	34944.28
594.952	35146.31
595.311	35066.31
595.67	35046.42
596.029	35232.18
596.387	35199.87
596.746	35468.33
597.104	35175.91
597.463	35138.17
597.822	35276.93
598.18	35200.77
598.538	35151.73
598.897	35439.41
599.255	35146.76
599.613	35624.26
599.972	35362.12
600.33	35357.83
600.688	35282.12
601.046	35473.3
601.404	35553.08
601.762	35327.77
602.12	35557.14
602.478	35593.08
602.836	35529.8
603.194	35380.43
603.552	35544.94
603.91	35318.96
604.268	35513.08
604.625	35390.14
604.983	35531.61
605.341	35350.37
605.698	35588.1
606.056	35534.09
606.413	35596.47
606.771	35596.69
607.128	35721.89
607.485	35611.15
607.843	35654.77
608.2	35827.87
608.557	35884.82
608.914	35652.96
609.272	35956.23
609.629	35928.21
609.986	36052.27
610.343	35894.99
610.7	36280.29
611.057	36010.92
611.414	36107.86
611.771	36034.65
612.127	36283.23
612.484	36260.63
612.841	36175.66
613.198	36094.53
613.554	36179.95
613.911	36355.54
614.267	36501.07
614.624	36373.39
614.98	36523.22
615.337	36636.21
615.693	36503.79
616.05	36562.54
616.406	36691.8
616.762	36768.41
617.118	36568.19
617.475	36611.13
617.831	36746.94
618.187	36802.54
618.543	36757.11
618.899	36949.42
619.255	36784.68
619.611	36892.02
619.967	37015.86
620.323	37085.24
620.678	36888.63
621.034	36960.72
621.39	36794.4
621.746	36823.55
622.101	37192.13
622.457	36880.95
622.812	37060.83
623.168	37083.88
623.523	37096.76
623.879	37282.3
624.234	36957.79
624.589	37071.91
624.945	37072.36
625.3	37056.09
625.655	37176.31
626.01	37170.89
626.365	37171.56
626.72	37089.76
627.075	37013.6
627.43	37029.87
627.785	36863.78
628.14	37075.3
628.495	37139.7
628.85	36942.87
629.205	36855.87
629.559	37045.01
629.914	36886.83
630.269	36943.55
630.623	36784.68
630.978	36788.98
631.332	36798.92
631.687	37133.6
632.041	36797.34
632.396	36729.09
632.75	36624.01
633.104	36826.94
633.459	36537.46
633.813	36634.63
634.167	36488.42
634.521	36516.44
634.875	36478.25
635.229	36569.77
635.583	36349.44
635.937	36275.54
636.291	36210.69
636.645	36278.93
636.999	36205.04
637.352	36334.3
637.706	35993.74
638.06	36201.2
638.413	36074.64
638.767	35851.6
639.121	36050.24
639.474	35839.17
639.828	35811.83
640.181	35817.25
640.534	35814.09
640.888	35721.43
641.241	35456.81
641.594	35616.13
641.947	35597.82
642.301	35449.35
642.654	35551.27
643.007	35591.95
643.36	35467.43
643.713	35316.47
644.066	35514.43
644.419	35172.07
644.771	35007.1
645.124	34625.42
645.477	34639.65
645.83	34384.52
646.182	34263.84
646.535	34230.4
646.888	34280.79
647.24	34074.25
647.593	34305.65
647.945	34149.05
648.298	34094.36
648.65	33973.01
649.002	33881.93
649.355	34062.49
649.707	33837.19
650.059	33952.44
650.411	34315.82
650.763	34454.8
651.115	34745.87
651.467	34763.27
651.819	34686.43
652.171	34578.41
652.523	34580.22
652.875	34500.45
653.227	34263.62
653.578	34548.13
653.93	34406.44
654.282	34229.04
654.633	34276.95
654.985	34229.95
655.337	34170.29
655.688	34210.51
656.039	34344.29
656.391	33991.08
656.742	34015.94
657.094	34064.53
657.445	34236.27
657.796	34065.21
658.147	33858.43
658.498	34068.6
658.849	34108.37
659.2	34118.99
659.551	33991.76
659.902	33903.63
660.253	33742.5
660.604	33810.98
660.955	33713.8
661.306	33684.65
661.656	33521.04
662.007	33518.1
662.358	33580.25
662.708	33527.59
663.059	33573.02
663.409	33212.8
663.76	33508.38
664.11	33387.03
664.461	33512.23
664.811	33443.3
665.161	33269.07
665.511	33075.85
665.862	33067.27
666.212	33137.32
666.562	33216.64
666.912	33053.48
667.262	32917.21
667.612	32887.84
667.962	32785.24
668.312	32645.58
668.662	32828.18
669.011	32665.02
669.361	32521.52
669.711	32399.71
670.06	32510.44
670.41	32357.45
670.76	32150.45
671.109	32396.1
671.459	32170.34
671.808	32098.48
672.157	32207.85
672.507	31786.85
672.856	31907.52
673.205	31982.32
673.554	31948.65
673.904	31805.15
674.253	31832.72
674.602	31764.48
674.951	31329.91
675.3	31124.94
675.649	31543.46
675.998	31561.77
676.346	31524.26
676.695	31673.4
677.044	31336.01
677.393	31426.63
677.741	31518.38
678.09	31253.98
678.438	31144.38
678.787	31348.89
679.135	31335.33
679.484	31056.92
679.832	31305.28
680.181	31175.11
680.529	31202.68
680.877	31028
681.225	31093.53
681.573	31277.71
681.922	31064.61
682.27	30954.1
682.618	31106.41
682.966	30981.45
683.314	31169.91
683.661	31112.52
684.009	30940.54
684.357	31005.17
684.705	30990.26
685.053	31009.02
685.4	31055.12
685.748	30853.31
686.095	30910.71
686.443	30790.72
686.79	30894.22
687.138	30855.57
687.485	30976.7
687.832	30861.9
688.18	31114.1
688.527	30789.59
688.874	30867.32
689.221	30698.97
689.568	30808.34
689.915	30682.92
690.262	30712.98
690.609	30646.54
690.956	30560.89
691.303	30585.75
691.65	30466.43
691.997	30472.31
692.344	30389.14
692.69	30393.66
693.037	30419.88
693.383	30129.94
693.73	30210.17
694.077	30171.07
694.423	30228.7
694.769	30197.29
695.116	30041.13
695.462	30126.55
695.808	30008.36
696.155	30036.39
696.501	29701.48
696.847	29832.32
697.193	29666.9
697.539	29773.34
697.885	29551.43
698.231	29484.99
698.577	29437.08
698.923	29351.43
699.269	29297.2
699.614	29207.03
699.96	29214.71
700.306	29220.14
700.651	29066.92
700.997	28951.44
701.342	28808.4
701.688	28825.34
702.033	28692.01
702.379	28739.92
702.724	28728.62
703.069	28714.84
703.415	28396.65
703.76	28475.97
704.105	28471.91
704.45	28357.56
704.795	28128.86
705.14	28091.13
705.485	28104.01
705.83	27953.5
706.175	28026.49
706.52	27902.88
706.865	27848.19
707.209	27765.71
707.554	27706.73
707.899	27803
708.243	27563.23
708.588	27440.52
708.932	27349
709.277	27351.94
709.621	27344.03
709.966	27201.88
710.31	27260.41
710.654	27013.87
710.998	27258.38
711.342	27024.49
711.687	26950.59
712.031	26915.34
712.375	26940.87
712.719	26704.72
713.063	26708.56
713.407	26957.6
713.75	26525.07
714.094	26718.05
714.438	26569.81
714.782	26556.25
715.125	26384.5
715.469	26480.32
715.812	26268.35
716.156	26312.64
716.499	26219.76
716.843	26228.35
717.186	26052.99
717.53	26157.84
717.873	26216.6
718.216	25988.36
718.559	25872.43
718.902	25641.02
719.246	25915.82
719.589	25772.99
719.932	25731.41
720.275	25725.99
720.617	25664.3
720.96	25664.97
721.303	25644.86
721.646	25634.24
721.989	25414.59
722.331	25505.88
722.674	25486.9
723.016	25363.06
723.359	25282.16
723.701	25404.19
724.044	25264.76
724.386	25047.36
724.729	25111.54
725.071	25147.93
725.413	25083.3
725.755	25047.14
726.097	24936.18
726.439	24846.69
726.782	24913.58
727.124	25015.05
727.465	24866.8
727.807	24828.39
728.149	24820.48
728.491	24656.19
728.833	24751.33
729.175	24535.74
729.516	24513.82
729.858	24469.3
730.199	24523.76
730.541	24440.15
730.882	24422.07
731.224	24452.35
731.565	24182.3
731.906	24368.06
732.248	24261.85
732.589	24165.13
732.93	23995.64
733.271	24128.52
733.612	24116.32
733.953	24076.09
734.294	24014.62
734.635	23923.78
734.976	23960.39
735.317	23848.75
735.658	23808.53
735.999	23891.01
736.339	23786.83
736.68	23869.32
737.021	23735.53
737.361	23589.1
737.702	23737.57
738.042	23601.3
738.383	23535.54
738.723	23536.67
739.063	23447.41
739.404	23507.07
739.744	23453.73
740.084	23299.39
740.424	23326.96
740.764	23181.42
741.104	23304.81
741.444	23148.88
741.784	23109.11
742.124	23225.72
742.464	23052.16
742.804	23075.66
743.143	23173.74
743.483	23074.53
743.823	22958.15
744.162	22848.1
744.502	22900.75
744.841	22861.66
745.181	22854.43
745.52	22794.09
745.86	22877.48
746.199	22692.62
746.538	22682.68
746.877	22742.57
747.216	22786.18
747.556	22528.56
747.895	22481.56
748.234	22421.44
748.573	22543.7
748.911	22413.99
749.25	22444.72
749.589	22344.84
749.928	22272.07
750.267	22199.76
750.605	22210.15
750.944	22179.19
751.283	21991.85
751.621	22027.78
751.96	21974.9
752.298	21897.16
752.636	21948.46
752.975	21936.26
753.313	21830.05
753.651	21890.16
753.989	21819.43
754.327	21666.21
754.666	21581.01
755.004	21646.55
755.342	21563.16
755.679	21488.36
756.017	21417.63
756.355	21487.68
756.693	21348.48
757.031	21364.97
757.368	21313
757.706	21218.54
758.044	21090.63
758.381	21156.39
758.719	21060.35
759.056	21103.51
759.394	20910.75
759.731	20730.64
760.068	20798.44
760.405	20716.63
760.743	20637.99
761.08	20715.5
761.417	20473.92
761.754	20598.22
762.091	20482.29
762.428	20439.12
762.765	20244.55
763.102	20356.64
763.438	20269.64
763.775	20126.59
764.112	20167.49
764.449	20211.78
764.785	19928.85
765.122	19912.58
765.458	19826.94
765.795	19820.38
766.131	19828.74
766.467	19665.81
766.804	19485.02
767.14	19588.52
767.476	19400.28
767.812	19362.99
768.148	19382.65
768.485	19249.55
768.821	19148.08
769.157	19251.13
769.492	19085.26
769.828	19077.13
770.164	18888.43
770.5	18799.17
770.836	18847.98
771.171	18701.99
771.507	18614.54
771.842	18421.32
772.178	18500.19
772.513	18494.09
772.849	18332.51
773.184	18311.04
773.519	18292.29
773.855	18175.23
774.19	18107.21
774.525	18113.76
774.86	18073.54
775.195	18047.55
775.53	17899.53
775.865	17802.36
776.2	17638.75
776.535	17563.94
776.87	17643.72
777.205	17533.66
777.539	17560.1
777.874	17491.63
778.209	17302.71
778.543	17243.73
778.878	17078.31
779.212	17212.32
779.547	17071.08
779.881	17089.61
780.215	16930.97
780.55	17011.87
780.884	16833.34
781.218	16720.58
781.552	16819.11
781.886	16732.33
782.22	16572.33
782.554	16639.22
782.888	16440.81
783.222	16311.1
783.556	16251.66
783.889	16253.92
784.223	16241.95
784.557	16121.05
784.89	16211.89
785.224	16048.73
785.557	15953.14
785.891	15921.95
786.224	15852.13
786.558	15844.67
786.891	15668.85
787.224	15751.56
787.557	15668.63
787.891	15637.22
788.224	15554.05
788.557	15513.15
788.89	15516.32
789.223	15504.56
789.556	15364.23
789.888	15331.69
790.221	15196.1
790.554	15114.29
790.887	15004.69
791.219	15020.96
791.552	15100.28
791.884	14933.51
792.217	14978.7
792.549	14791.81
792.882	14689.22
793.214	14674.76
793.546	14663.23
793.879	14612.61
794.211	14549.33
794.543	14558.15
794.875	14545.49
795.207	14494.2
795.539	14531.71
795.871	14396.57
796.203	14308.21
796.535	14223.24
796.867	14192.96
797.198	14178.95
797.53	14167.65
797.862	14042.68
798.193	14035.22
798.525	14042
798.856	14006.07
799.188	13844.49
799.519	13837.72
799.85	13679.53
800.182	13618.06
800.513	13691.28
800.844	13538.51
801.175	13683.14
801.506	13692.63
801.837	13505.52
802.168	13471.17
802.499	13492.64
802.83	13443.15
803.161	13341.01
803.491	13434.56
803.822	13409.25
804.153	13175.59
804.483	13194.34
804.814	13115.7
805.145	13158.86
805.475	13131.52
805.805	13004.06
806.136	13091.75
806.466	13064.18
806.796	12943.5
807.126	12899.43
807.457	12754.58
807.787	12797.52
808.117	12763.17
808.447	12690.4
808.777	12786.22
809.107	12674.58
809.436	12650.63
809.766	12593.45
810.096	12620.8
810.426	12554.36
810.755	12496.28
811.085	12463.51
811.414	12416.06
811.744	12389.62
812.073	12350.3
812.403	12328.83
812.732	12331.09
813.061	12300.35
813.39	12226.01
813.719	12225.78
814.049	12277.76
814.378	12208.83
814.707	12102.39
815.036	12181.94
815.365	12000.93
815.693	11946.92
816.022	12007.48
816.351	11840.25
816.68	11791.44
817.008	11846.36
817.337	11729.07
817.665	11709.18
817.994	11761.61
818.322	11751.22
818.651	11676.64
818.979	11634.16
819.307	11652.91
819.636	11680.71
819.964	11592.8
820.292	11615.85
820.62	11663.31
820.948	11588.96
821.276	11563.65
821.604	11522.52
821.932	11519.81
822.259	11569.53
822.587	11573.59
822.915	11495.4
823.243	11529.75
823.57	11534.05
823.898	11479.59
824.225	11446.37
824.553	11480.49
824.88	11422.64
825.207	11506.03
825.535	11487.72
825.862	11536.98
826.189	11368.85
826.516	11511.45
826.843	11381.51
827.17	11475.29
827.497	11469.64
827.824	11462.64
828.151	11485.69
828.478	11431.45
828.805	11383.54
829.131	11400.49
829.458	11457.89
829.785	11358.91
830.111	11402.3
830.438	11465.12
830.764	11416.54
831.09	11427.16
831.417	11416.99
831.743	11435.97
832.069	11378.34
832.395	11314.17
832.722	11411.34
833.048	11282.53
833.374	11341.96
833.7	11286.82
834.026	11251.79
834.351	11326.14
834.677	11281.85
835.003	11270.1
835.329	11335.86
835.654	11246.14
835.98	11177.22
836.306	11235.3
836.631	11206.37
836.956	11230.33
837.282	11164.57
837.607	11143.32
837.932	11139.03
838.258	11061.97
838.583	11041.86
838.908	11071.46
839.233	11040.27
839.558	10984
839.883	10999.37
840.208	10982.88
840.533	11001.63
840.858	10978.58
841.182	10928.19
841.507	10971.58
841.832	10821.07
842.156	10851.13
842.481	10817.68
842.805	10835.08
843.13	10840.73
843.454	10844.8
843.778	10735.2
844.103	10689.32
844.427	10647.74
844.751	10666.27
845.075	10630.79
845.399	10632.6
845.723	10540.63
846.047	10581.76
846.371	10493.4
846.695	10448.2
847.019	10427.18
847.343	10342.89
847.666	10252.05
847.99	10268.77
848.313	10261.99
848.637	10198.94
848.96	10181.77
849.284	10107.19
849.607	10080.07
849.931	10014.31
850.254	9983.13
850.577	9963.69
850.9	9909.91
851.223	9876.92
851.546	9806.41
851.869	9738.39
852.192	9768.67
852.515	9652.51
852.838	9688.45
853.161	9592.4
853.483	9584.04
853.806	9573.87
854.129	9534.78
854.451	9494.1
854.774	9455.68
855.096	9497.04
855.419	9405.52
855.741	9397.61
856.063	9344.73
856.385	9333.88
856.708	9334.56
857.03	9238.51
857.352	9263.82
857.674	9203.26
857.996	9134.34
858.318	9131.17
858.64	9219.76
858.961	9092.08
859.283	9056.82
859.605	9093.43
859.926	9075.81
860.248	9014.11
860.57	8957.39
860.891	9008.01
861.212	8927.11
861.534	8854.12
861.855	8929.37
862.176	8960.1
862.498	8951.29
862.819	8834.91
863.14	8806.66
863.461	8778.41
863.782	8791.52
864.103	8825.64
864.424	8744.29
864.745	8774.35
865.065	8760.79
865.386	8705.65
865.707	8683.05
866.027	8656.38
866.348	8696.16
866.668	8606.21
866.989	8612.77
867.309	8533.9
867.63	8623.16
867.95	8557.18
868.27	8518.08
868.59	8545.65
868.91	8519.66
869.23	8526.89
869.55	8481.25
869.87	8486.67
870.19	8427.24
870.51	8473.79
870.83	8468.59
871.15	8408.48
871.469	8470.17
871.789	8431.08
872.109	8388.37
872.428	8326
872.748	8338.88
873.067	8384.53
873.386	8372.77
873.706	8374.58
874.025	8288.48
874.344	8320.35
874.663	8255.04
874.982	8259.78
875.301	8259.78
875.62	8222.5
875.939	8192.89
876.258	8192.21
876.577	8151.09
876.896	8109.28
877.214	8110.86
877.533	8164.64
877.852	8181.59
878.17	8141.59
878.489	8136.4
878.807	8095.27
879.125	8127.13
879.444	8121.48
879.762	8079.9
880.08	8093.69
880.398	7999.22
880.716	8059.11
881.034	7986.57
881.352	8019.34
881.67	7906.12
881.988	7950.86
882.306	7902.28
882.624	7856.18
882.941	7855.27
883.259	7866.8
883.577	7835.39
883.894	7890.08
884.212	7763.07
884.529	7759.46
884.846	7759.46
885.164	7748.16
885.481	7725.79
885.798	7759.46
886.115	7702.51
886.432	7658.67
886.75	7624.32
887.067	7688.05
887.383	7621.38
887.7	7609.4
888.017	7551.1
888.334	7572.12
888.651	7521.95
888.967	7523.08
889.284	7506.81
889.6	7479.46
889.917	7443.31
890.233	7456.87
890.55	7393.82
890.866	7362.63
891.182	7371.44
891.498	7397.43
891.815	7317.89
892.131	7319.69
892.447	7289.64
892.763	7257.32
893.079	7228.85
893.395	7226.82
893.71	7166.48
894.026	7202.18
894.342	7187.95
894.657	7108.17
894.973	7156.99
895.289	7105.46
895.604	7134.16
895.92	7068.85
896.235	7030.21
896.55	7049.42
896.865	6996.77
897.181	6945.24
897.496	6938.91
897.811	6912.7
898.126	6921.96
898.441	6806.26
898.756	6816.2
899.071	6768.52
899.386	6799.26
899.7	6771.46
900.015	6738.47
900.33	6659.37
900.644	6683.78
900.959	6687.39
901.273	6634.06
901.588	6682.42
901.902	6636.32
902.216	6627.06
902.531	6565.59
902.845	6511.58
903.159	6525.37
903.473	6538.92
903.787	6433.16
904.101	6432.94
904.415	6394.3
904.729	6383.67
905.042	6352.26
905.356	6287.63
905.67	6336.9
905.984	6301.19
906.297	6302.09
906.611	6215.99
906.924	6209.89
907.237	6188.65
907.551	6167.18
907.864	6121.53
908.177	6136
908.491	6153.17
908.804	6076.79
909.117	6013.74
909.43	5995.21
909.743	6027.07
910.056	5952.05
910.368	5968.77
910.681	5925.15
910.994	5896.68
911.307	5882.44
911.619	5865.95
911.932	5829.34
912.244	5830.47
912.557	5770.58
912.869	5743.24
913.181	5777.14
913.494	5739.85
913.806	5717.02
914.118	5654.2
914.43	5638.83
914.742	5647.2
915.054	5562.23
915.366	5610.36
915.678	5551.61
915.99	5511.61
916.302	5537.82
916.613	5474.77
916.925	5484.94
917.236	5453.75
917.548	5395
917.859	5438.39
918.171	5347.32
918.482	5362.68
918.794	5366.75
919.105	5277.71
919.416	5242.91
919.727	5315
920.038	5276.36
920.349	5266.87
920.66	5178.28
920.971	5158.85
921.282	5153.2
921.593	5089.47
921.903	5113.88
922.214	5154.78
922.525	5093.09
922.835	5042.24
923.146	5046.53
923.456	4973.99
923.767	4998.4
924.077	5007.89
924.387	4944.84
924.697	4964.95
925.008	4951.17
925.318	4867.1
925.628	4840.89
925.938	4859.19
926.248	4794.56
926.558	4780.33
926.867	4768.8
927.177	4759.76
927.487	4741.91
927.796	4661.69
928.106	4721.12
928.416	4670.5
928.725	4677.73
929.034	4630.73
929.344	4632.76
929.653	4645.19
929.962	4582.37
930.271	4552.54
930.581	4550.95
930.89	4507.79
931.199	4478.41
931.508	4484.51
931.817	4473.89
932.125	4451.52
932.434	4422.82
932.743	4423.73
933.051	4349.6
933.36	4332.2
933.669	4322.71
933.977	4322.71
934.286	4306.44
934.594	4291.53
934.902	4281.36
935.21	4263.96
935.519	4225.76
935.827	4216.5
936.135	4196.39
936.443	4196.61
936.751	4165.88
937.059	4172.43
937.367	4112.32
937.674	4157.74
937.982	4130.63
938.29	4079.1
938.597	4095.82
938.905	4043.62
939.213	4050.4
939.52	3997.3
939.827	4044.07
940.135	3987.13
940.442	3974.02
940.749	3953.23
941.056	3927.24
941.363	3932.21
941.67	3885.43
941.977	3886.56
942.284	3895.38
942.591	3841.14
942.898	3796.4
943.205	3828.03
943.511	3824.19
943.818	3821.03
944.125	3752.1
944.431	3742.39
944.738	3768.83
945.044	3734.93
945.35	3731.99
945.657	3640.92
945.963	3687.47
946.269	3652.9
946.575	3685.89
946.881	3645.67
947.187	3623.29
947.493	3590.08
947.799	3595.27
948.105	3553.24
948.41	3538.55
948.716	3531.32
949.022	3526.57
949.327	3510.08
949.633	3476.41
949.938	3457.65
950.244	3505.33
950.549	3427.59
950.854	3430.98
951.16	3393.47
951.465	3414.94
951.77	3405.67
952.075	3378.56
952.38	3327.48
952.685	3328.39
952.99	3312.12
953.294	3298.33
953.599	3292.46
953.904	3277.09
954.209	3239.8
954.513	3252.23
954.818	3212.68
955.122	3226.24
955.426	3192.57
955.731	3201.38
956.035	3172.01
956.339	3185.79
956.643	3139.69
956.948	3113.48
957.252	3097.88
957.556	3119.13
957.86	3084.55
958.163	3091.56
958.467	3048.17
958.771	3083.42
959.075	3070.54
959.378	3035.06
959.682	3006.59
959.985	3014.05
960.289	3000.94
960.592	3003.2
960.896	2967.04
961.199	2951.45
961.502	2920.94
961.805	2934.27
962.108	2940.6
962.411	2918.91
962.714	2886.82
963.017	2930.66
963.32	2892.47
963.623	2878.91
963.926	2856.76
964.228	2836.87
964.531	2814.95
964.833	2817.21
965.136	2804.56
965.438	2799.36
965.741	2772.24
966.043	2773.37
966.345	2738.57
966.648	2744
966.95	2722.98
967.252	2734.73
967.554	2735.41
967.856	2709.42
968.158	2664.9
968.46	2682.75
968.761	2650.89
969.063	2660.61
969.365	2626.94
969.666	2620.16
969.968	2605.47
970.269	2571.12
970.571	2562.53
970.872	2571.34
971.174	2602.3
971.475	2558.46
971.776	2564.79
972.077	2548.97
972.378	2540.39
972.679	2505.36
972.98	2522.76
973.281	2543.1
973.582	2462.65
973.883	2475.3
974.183	2475.98
974.484	2460.16
974.785	2442.31
975.085	2448.64
975.386	2453.61
975.686	2419.71
975.986	2412.48
976.287	2390.56
976.587	2403.67
976.887	2384.91
977.187	2365.02
977.487	2372.25
977.787	2366.6
978.087	2316.89
978.387	2328.41
978.687	2297.91
978.987	2287.96
979.286	2290.9
979.586	2294.74
979.885	2274.4
980.185	2238.02
980.484	2266.72
980.784	2208.64
981.083	2234.4
981.382	2204.8
981.682	2234.86
981.981	2207.29
982.28	2215.2
982.579	2194.86
982.878	2186.04
983.177	2163.9
983.475	2163.22
983.774	2157.12
984.073	2095.65
984.372	2117.8
984.67	2118.7
984.969	2097.68
985.267	2072.37
985.566	2104.46
985.864	2101.3
986.162	2078.25
986.461	2074.63
986.759	2057.46
987.057	2023.56
987.355	2025.6
987.653	2055.65
987.951	2036.22
988.249	1991.02
988.547	1997.8
988.844	2009.55
989.142	1959.61
989.44	1963.9
989.737	1960.06
990.035	1973.85
990.332	1944.92
990.63	1943.11
990.927	1958.71
991.224	1902.89
991.521	1895.43
991.819	1890.91
992.116	1899.95
992.413	1890.68
992.71	1878.93
993.006	1850.91
993.303	1865.37
993.6	1858.6
993.897	1853.85
994.193	1814.75
994.49	1822.44
994.787	1852.95
995.083	1811.14
995.379	1788.09
995.676	1768.88
995.972	1791.25
996.268	1811.82
996.565	1783.34
996.861	1754.19
997.157	1732.72
997.453	1746.73
997.749	1708.99
998.044	1705.6
998.34	1729.33
998.636	1702.89
998.932	1691.59
999.227	1673.97
999.523	1688.43
999.818	1642.1
1000.114	1687.75
1000.409	1676.68
1000.704	1648.88
1001	1668.32
1001.295	1629.9
1001.59	1657.02
1001.885	1651.14
1002.18	1621.31
1002.475	1597.81
1002.77	1594.87
1003.065	1618.6
1003.359	1598.26
1003.654	1576.12
1003.949	1552.61
1004.243	1558.94
1004.538	1559.85
1004.832	1527.98
1005.127	1540.64
1005.421	1522.78
1005.715	1512.62
1006.009	1509.68
1006.304	1460.64
1006.598	1471.49
1006.892	1489.79
1007.186	1469.9
1007.48	1456.35
1007.773	1496.34
1008.067	1456.35
1008.361	1431.49
1008.655	1433.75
1008.948	1431.04
1009.242	1417.7
1009.535	1417.02
1009.829	1388.55
1010.122	1377.93
1010.415	1378.61
1010.708	1403.01
1011.001	1387.65
1011.295	1368.89
1011.588	1372.05
1011.881	1332.51
1012.173	1328.44
1012.466	1318.72
1012.759	1332.73
1013.052	1324.37
1013.344	1326.18
1013.637	1313.75
1013.93	1314.2
1014.222	1283.92
1014.514	1271.49
1014.807	1267.88
1015.099	1267.2
1015.391	1252.51
1015.683	1245.96
1015.976	1252.96
1016.268	1268.33
1016.56	1224.49
1016.851	1235.79
1017.143	1218.61
1017.435	1212.06
1017.727	1216.13
1018.018	1176.35
1018.31	1158.5
1018.602	1193.98
1018.893	1202.79
1019.185	1175.45
1019.476	1177.03
1019.767	1166.86
1020.058	1149.91
1020.35	1122.57
1020.641	1132.96
1020.932	1118.5
1021.223	1109.01
1021.514	1143.59
1021.804	1112.85
1022.095	1104.94
1022.386	1115.34
1022.677	1079.86
1022.967	1108.11
1023.258	1085.28
1023.548	1081.21
1023.839	1065.17
1024.129	1059.29
1024.419	1058.84
1024.709	1066.07
1025	1021.56
1025.29	1050.25
1025.58	1034.89
1025.87	1038.5
1026.16	987.43
1026.449	991.95
1026.739	977.94
1027.029	1001.67
1027.319	992.4
1027.608	975
1027.898	973.87
1028.187	974.32
1028.477	969.13
1028.766	937.26
1029.055	973.65
1029.344	960.54
1029.634	947.66
1029.923	957.83
1030.212	936.59
1030.501	909.69
1030.79	930.48
1031.078	904.04
1031.367	895.68
1031.656	892.74
1031.945	880.99
1032.233	909.24
1032.522	876.02
1032.81	868.34
1033.099	892.74
1033.387	874.44
1033.675	868.79
1033.963	881.22
1034.251	856.81
1034.54	857.94
1034.828	862.01
1035.116	857.94
1035.403	838.74
1035.691	826.31
1035.979	857.49
1036.267	816.36
1036.554	798.74
1036.842	805.06
1037.129	808
1037.417	774.33
1037.704	828.11
1037.992	789.92
1038.279	774.33
1038.566	782.47
1038.853	782.47
1039.14	782.47
