Data from white_steel_sheet_FLMS001491_052.txt Node
Date: Tue Feb 07 10:58:04 GMT 2017
User: dcchb
Spectrometer: FLMS00149
Trigger mode: 0
Integration Time (sec): 2.000000E-2
Scans to average: 10
Electric dark correction enabled: true
Nonlinearity correction enabled: false
Boxcar width: 0
XAxis mode: Wavelengths
Number of Pixels in Spectrum: 2048
>>>>>Begin Spectral Data<<<<<
341.393	-7.7
341.776	-7.7
342.16	-7.7
342.543	-62.39
342.927	-59.67
343.31	-59.67
343.693	-80.69
344.077	-58.09
344.46	-55.61
344.843	-42.5
345.226	-40.47
345.61	-28.26
345.993	-32.33
346.376	-12.44
346.759	19.42
347.142	6.09
347.525	49.93
347.908	52.87
348.291	71.17
348.674	89.48
349.057	121.11
349.44	135.35
349.823	132.41
350.206	172.41
350.588	202.01
350.971	246.08
351.354	229.13
351.737	261.9
352.119	265.74
352.502	278.4
352.884	272.3
353.267	298.28
353.65	310.26
354.032	287.89
354.414	318.62
354.797	326.08
355.179	309.58
355.562	336.47
355.944	335.57
356.326	347.77
356.709	341.9
357.091	346.64
357.473	334.67
357.855	329.69
358.238	380.31
358.62	330.37
359.002	345.29
359.384	352.97
359.766	351.62
360.148	340.77
360.53	351.16
360.912	359.98
361.294	365.85
361.676	337.38
362.057	345.29
362.439	361.56
362.821	334.21
363.203	355.46
363.584	340.09
363.966	321.79
364.348	340.99
364.729	348.9
365.111	343.25
365.493	343.93
365.874	356.36
366.256	327.89
366.637	340.77
367.019	352.52
367.4	347.55
367.781	307.77
368.163	339.19
368.544	323.37
368.925	336.02
369.306	340.32
369.688	333.54
370.069	317.27
370.45	341.22
370.831	349.81
371.212	314.78
371.593	333.99
371.974	332.63
372.355	340.77
372.736	330.6
373.117	337.15
373.498	320.88
373.879	352.52
374.26	360.2
374.641	330.6
375.021	347.32
375.402	344.38
375.783	348.45
376.163	353.2
376.544	359.3
376.925	358.39
377.305	348
377.686	352.97
378.066	348.9
378.447	350.71
378.827	364.04
379.208	357.26
379.588	357.04
379.968	366.76
380.349	370.37
380.729	378.73
381.109	364.27
381.489	379.86
381.87	376.7
382.25	371.95
382.63	378.96
383.01	366.53
383.39	359.75
383.77	366.3
384.15	421.67
384.53	386.19
384.91	397.94
385.29	380.77
385.67	391.39
386.049	387.55
386.429	399.3
386.809	392.97
387.189	410.37
387.568	410.82
387.948	413.31
388.328	432.29
388.707	422.35
389.087	422.35
389.466	421.22
389.846	426.42
390.225	429.81
390.605	420.54
390.984	428.68
391.363	448.34
391.743	453.08
392.122	456.25
392.501	458.96
392.881	470.48
393.26	480.65
393.639	467.77
394.018	464.15
394.397	466.64
394.776	496.02
395.155	479.52
395.534	476.81
395.913	489.46
396.292	494.21
396.671	512.97
397.05	518.84
397.429	510.03
397.808	536.92
398.186	537.6
398.565	532.4
398.944	540.08
399.323	555.68
399.701	562.46
400.08	570.59
400.458	568.33
400.837	595.22
401.215	612.85
401.594	601.78
401.972	590.7
402.351	601.78
402.729	599.52
403.107	643.13
403.486	647.43
403.864	651.27
404.242	651.27
404.62	639.52
404.999	664.15
405.377	672.28
405.755	693.07
406.133	719.74
406.511	719.51
406.889	741.66
407.267	737.82
407.645	740.08
408.023	778.72
408.401	752.96
408.779	787.08
409.156	810.81
409.534	824.37
409.912	805.16
410.29	848.1
410.667	861.88
411.045	857.14
411.422	872.51
411.8	878.83
412.178	910.24
412.555	913.18
412.933	901.66
413.31	945.05
413.687	965.38
414.065	948.21
414.442	969.68
414.819	994.76
415.197	997.93
415.574	973.75
415.951	1014.65
416.328	1029.34
416.705	1059.85
417.082	1059.62
417.46	1065.95
417.837	1070.47
418.214	1074.99
418.591	1110.01
418.967	1095.78
419.344	1130.58
419.721	1145.49
420.098	1129.45
420.475	1139.84
420.852	1159.05
421.228	1161.99
421.605	1195.21
421.982	1224.36
422.358	1204.7
422.735	1227.98
423.111	1228.65
423.488	1265.26
423.864	1292.83
424.241	1248.09
424.617	1296.22
424.994	1293.96
425.37	1322.44
425.746	1316.79
426.123	1329.67
426.499	1366.05
426.875	1345.04
427.251	1433.85
427.627	1414.41
428.003	1426.39
428.379	1416.9
428.756	1429.1
429.132	1470.91
429.507	1501.19
429.883	1531.25
430.259	1528.99
430.635	1563.79
431.011	1554.75
431.387	1602.66
431.763	1646.27
432.138	1664.57
432.514	1687.85
432.89	1663.22
433.265	1726.49
433.641	1740.96
434.016	1739.15
434.392	1790.45
434.767	1807.4
435.143	1815.08
435.518	1804.68
435.894	1885.81
436.269	1879.94
436.644	1932.14
437.02	1926.71
437.395	1936.66
437.77	1962.42
438.145	1997.9
438.52	2022.98
438.895	2032.93
439.271	2026.83
439.646	2119.03
440.021	2094.39
440.395	2101.4
440.77	2083.09
441.145	2136.88
441.52	2165.13
441.895	2203.32
442.27	2187.27
442.645	2220.94
443.019	2227.05
443.394	2243.77
443.769	2260.27
444.143	2237.22
444.518	2336.65
444.892	2274.5
445.267	2309.08
445.641	2354.27
446.016	2336.87
446.39	2387.72
446.764	2385.23
447.139	2411.9
447.513	2414.16
447.887	2442.86
448.262	2483.76
448.636	2481.95
449.01	2543.65
449.384	2528.96
449.758	2545.68
450.132	2563.76
450.506	2562.63
450.88	2619.13
451.254	2628.17
451.628	2700.25
452.002	2716.07
452.376	2723.08
452.75	2755.62
453.123	2744.32
453.497	2836.75
453.871	2852.11
454.244	2911.77
454.618	2916.75
454.992	2978.89
455.365	2956.52
455.739	3053.46
456.112	3052.56
456.486	3064.09
456.859	3113.8
457.232	3150.86
457.606	3182.5
457.979	3222.27
458.352	3246
458.725	3297.53
459.099	3348.15
459.472	3415.49
459.845	3420.91
460.218	3474.24
460.591	3506.56
460.964	3530.74
461.337	3604.41
461.71	3626.11
462.083	3737.74
462.456	3692.54
462.829	3714.46
463.201	3739.55
463.574	3784.97
463.947	3835.82
464.32	3951.75
464.692	3978.41
465.065	4012.08
465.438	4068.13
465.81	4121.69
466.183	4137.05
466.555	4252.08
466.928	4285.52
467.3	4206.43
467.672	4322.36
468.045	4500.88
468.417	4451.17
468.789	4525.97
469.161	4542.47
469.534	4617.04
469.906	4732.06
470.278	4767.54
470.65	4805.96
471.022	4920.99
471.394	4975.45
471.766	5051.6
472.138	5080.08
472.51	5210.7
472.882	5301.32
473.253	5318.04
473.625	5414.53
473.997	5534.53
474.369	5587.18
474.74	5628.99
475.112	5717.35
475.484	5794.18
475.855	5885.48
476.227	5993.05
476.598	6110.56
476.97	6160.73
477.341	6292.48
477.713	6389.65
478.084	6464.67
478.455	6708.74
478.827	6672.13
479.198	6918.9
479.569	6876.42
479.94	7113.92
480.311	7161.15
480.682	7316.86
481.053	7474.14
481.424	7621.48
481.795	7633.01
482.166	7772.66
482.537	7914.81
482.908	8087.46
483.279	8159.77
483.65	8283.38
484.021	8435.02
484.391	8553.66
484.762	8646.76
485.133	8739.42
485.503	8834.56
485.874	9066.41
486.244	9131.95
486.615	9293.07
486.985	9359.06
487.356	9547.08
487.726	9645.16
488.097	9865.49
488.467	9892.83
488.837	10062.55
489.207	10245.82
489.578	10328.75
489.948	10467.51
490.318	10608.97
490.688	10662.08
491.058	10761.74
491.428	10931.68
491.798	11021.62
492.168	11282.18
492.538	11345.68
492.908	11435.39
493.278	11717.64
493.648	11666.12
494.017	11818.88
494.387	11948.6
494.757	12068.82
495.126	12242.83
495.496	12156.95
495.866	12336.61
496.235	12514.01
496.605	12643.04
496.974	12717.39
497.344	12784.28
497.713	12866.54
498.082	13001.9
498.452	13132.75
498.821	13223.59
499.19	13240.99
499.559	13451.16
499.928	13491.16
500.298	13546.75
500.667	13713.75
501.036	13736.12
501.405	13881.2
501.774	13857.47
502.143	14122.1
502.512	14093.85
502.88	14281.87
503.249	14351.02
503.618	14448.19
503.987	14546.04
504.356	14636.21
504.724	14711.01
505.093	14776.55
505.462	14862.65
505.83	14949.65
506.199	15173.37
506.567	15329.07
506.936	15308.28
507.304	15501.27
507.672	15565.68
508.041	15695.17
508.409	15773.13
508.777	15928.83
509.145	16048.6
509.514	16105.1
509.882	16343.28
510.25	16286.79
510.618	16435.26
510.986	16447.24
511.354	16719.09
511.722	16792.54
512.09	17091.51
512.458	16994.12
512.826	17100.1
513.193	17187.56
513.561	17380.55
513.929	17408.12
514.297	17677.49
514.664	17865.96
515.032	17884.71
515.4	18107.08
515.767	18147.31
516.135	18308.88
516.502	18173.07
516.869	18673.85
517.237	18524.47
517.604	18645.37
517.972	18885.14
518.339	19007.62
518.706	19084.23
519.073	19139.6
519.44	19335.97
519.808	19552.47
520.175	19510.89
520.542	19899.12
520.909	19964.66
521.276	19949.74
521.643	20302.95
522.009	20378.66
522.376	20584.08
522.743	20772.55
523.11	21041.24
523.477	21110.39
523.843	21290.27
524.21	21458.86
524.577	21601.9
524.943	21713.09
525.31	21886.19
525.676	22047.99
526.043	22294.09
526.409	22403.69
526.776	22622.44
527.142	22705.15
527.508	22778.6
527.874	22862.44
528.241	23127.51
528.607	23283.67
528.973	23422.42
529.339	23429.2
529.705	23778.34
530.071	23857.66
530.437	23988.06
530.803	24214.72
531.169	24325.45
531.535	24425.11
531.901	24459
532.267	24682.95
532.632	24917.3
532.998	24868.03
533.364	25158.19
533.73	25177.4
534.095	25312.31
534.461	25432.31
534.826	25581.01
535.192	25597.5
535.557	25838.85
535.923	25770.38
536.288	25818.06
536.653	26202.69
537.019	26200.65
537.384	26296.7
537.749	26529.01
538.114	26378.73
538.479	26573.3
538.845	26690.36
539.21	26671.6
539.575	26854.2
539.94	26875.66
540.305	27019.61
540.67	27015.09
541.034	27255.09
541.399	27376.44
541.764	27393.16
542.129	27555.19
542.494	27640.39
542.858	27658.69
543.223	27711.57
543.587	27881.74
543.952	28001.28
544.316	28134.16
544.681	28077.67
545.045	28256.19
545.41	28391.33
545.774	28394.49
546.138	28499.8
546.503	28552.23
546.867	28700.02
547.231	28884.42
547.595	28930.3
547.959	28985.66
548.324	28959
548.688	29075.61
549.052	29311.31
549.416	29262.04
549.779	29309.95
550.143	29623.84
550.507	29728.24
550.871	29848.69
551.235	29730.96
551.599	30031.96
551.962	29950.16
552.326	30186.54
552.689	30377.94
553.053	30170.72
553.417	30254.78
553.78	30835.11
554.143	30582.01
554.507	30828.78
554.87	30918.72
555.234	31162.33
555.597	31090.24
555.96	31278.03
556.323	31252.27
556.686	31459.95
557.05	31742.43
557.413	31741.07
557.776	31843.22
558.139	32068.3
558.502	32164.11
558.865	32144.45
559.228	32571.11
559.59	32559.81
559.953	32653.14
560.316	33019.46
560.679	32898.56
561.041	33205.21
561.404	33355.27
561.767	33496.05
562.129	33363.4
562.492	33775.59
562.854	33844.75
563.217	33854.24
563.579	33941.69
563.941	34202.25
564.304	34277.73
564.666	34522.24
565.028	34581.22
565.39	34667.1
565.753	34888.79
566.115	34948.45
566.477	35078.16
566.839	35240.19
567.201	35486.51
567.563	35350.02
567.925	35671.82
568.287	35742.55
568.648	35858.03
569.01	36095.31
569.372	36165.14
569.734	36095.99
570.095	36429.08
570.457	36604.45
570.819	36612.36
571.18	36594.05
571.542	36883.99
571.903	36922.18
572.265	37103.42
572.626	37208.95
572.987	37166.01
573.349	37321.04
573.71	37417.08
574.071	37426.8
574.432	37643.74
574.794	37988.14
575.155	37745.43
575.516	37733.68
575.877	37940.01
576.238	38107.01
576.599	38062.49
576.96	38152.88
577.32	38033.11
577.681	38293.22
578.042	38253.9
578.403	38415.92
578.763	38446.43
579.124	38568.24
579.485	38648.46
579.845	38619.08
580.206	38647.78
580.566	38730.94
580.927	38607.78
581.287	38795.35
581.648	38629.93
582.008	38892.75
582.368	38786.54
582.728	38946.31
583.089	38771.17
583.449	38821.79
583.809	38883.94
584.169	39030.15
584.529	38812.52
584.889	39211.84
585.249	38831.06
585.609	38786.31
585.969	38893.88
586.329	38914.44
586.688	39022.01
587.048	38910.6
587.408	38779.98
587.768	38939.3
588.127	38848.46
588.487	38981.11
588.846	39166.19
589.206	38902.92
589.565	38823.82
589.925	39008.68
590.284	39105.4
590.643	38886.87
591.003	39006.19
591.362	39114.21
591.721	38957.83
592.08	38962.8
592.44	39084.16
592.799	38985.18
593.158	38924.16
593.517	39092.52
593.876	39023.14
594.235	39133.87
594.593	39113.08
594.952	39128.22
595.311	38994.21
595.67	39124.61
596.029	39216.13
596.387	39309.91
596.746	39224.04
597.104	39148.79
597.463	39170.26
597.822	39275.79
598.18	39149.46
598.538	39074.21
598.897	39309.69
599.255	38915.12
599.613	39582.45
599.972	39300.42
600.33	39354.43
600.688	39145.17
601.046	39423.13
601.404	39470.59
601.762	39504.26
602.12	39506.97
602.478	39550.58
602.836	39544.71
603.194	39417.93
603.552	39502.22
603.91	39347.65
604.268	39577.25
604.625	39489.34
604.983	39428.78
605.341	39299.07
605.698	39515.78
606.056	39692.05
606.413	39606.63
606.771	39572.05
607.128	39831.71
607.485	39654.54
607.843	39699.73
608.2	39765.04
608.557	39919.39
608.914	39886.85
609.272	39974.3
609.629	40060.85
609.986	40136.78
610.343	40085.49
610.7	40365.48
611.057	40217.01
611.414	40240.51
611.771	40226.5
612.127	40346.5
612.484	40282.77
612.841	40501.52
613.198	40351.47
613.554	40488.86
613.911	40710.78
614.267	40608.64
614.624	40525.93
614.98	40592.59
615.337	40785.13
615.693	40658.8
616.05	40682.76
616.406	40950.1
616.762	40820.83
617.118	40752.59
617.475	40871
617.831	40856.54
618.187	40861.06
618.543	41104.67
618.899	41165.91
619.255	41161.16
619.611	41116.19
619.967	41187.6
620.323	41275.28
620.678	41127.94
621.034	41012.01
621.39	41107.38
621.746	41119.58
622.101	41473.47
622.457	41162.07
622.812	41414.04
623.168	41357.99
623.523	41241.16
623.879	41432.12
624.234	41228.05
624.589	41292.01
624.945	41402.74
625.3	41426.47
625.655	41393.93
626.01	41307.6
626.365	41317.09
626.72	41327.71
627.075	41313.93
627.43	41216.53
627.785	41230.31
628.14	41231.9
628.495	41308.5
628.85	41227.83
629.205	41099.02
629.559	41320.03
629.914	41090.66
630.269	41157.55
630.623	41078.23
630.978	41022.18
631.332	41212.24
631.687	41151.22
632.041	40989.19
632.396	41189.41
632.75	40827.61
633.104	40919.36
633.459	40805.69
633.813	40657.45
634.167	40562.76
634.521	40674.62
634.875	40714.62
635.229	40725.69
635.583	40400.73
635.937	40347.85
636.291	40393.95
636.645	40472.14
636.999	40310.56
637.352	40430.11
637.706	40267.85
638.06	40236.67
638.413	40278.02
638.767	40042.77
639.121	40188.53
639.474	39848.43
639.828	39944.47
640.181	40056.79
640.534	40024.92
640.888	39804.14
641.241	39704.93
641.594	39623.35
641.947	39828.32
642.301	39639.85
642.654	39726.4
643.007	39637.81
643.36	39565.73
643.713	39393.3
644.066	39729.34
644.419	39503.81
644.771	39151.5
645.124	38735.46
645.477	38579.08
645.83	38372.76
646.182	38276.04
646.535	38105.88
646.888	38309.94
647.24	38085.76
647.593	38319.43
647.945	38100.23
648.298	37979.1
648.65	37981.36
649.002	37953.34
649.355	37928.93
649.707	37773.91
650.059	37912.89
650.411	38514
650.763	38361.46
651.115	38951.05
651.467	38667.67
651.819	38669.7
652.171	38651.85
652.523	38631.96
652.875	38619.76
653.227	38425.87
653.578	38452.53
653.93	38586.09
654.282	38293.89
654.633	38164.18
654.985	38313.33
655.337	38409.82
655.688	38309.26
656.039	38419.99
656.391	38031.75
656.742	38145.2
657.094	38230.62
657.445	38266.78
657.796	38269.71
658.147	38100.68
658.498	38067.46
658.849	38112.66
659.2	38063.84
659.551	37996.95
659.902	37920.12
660.253	37887.13
660.604	37881.02
660.955	37601.94
661.306	37751.08
661.656	37619.79
662.007	37627.25
662.358	37620.47
662.708	37670.41
663.059	37599.45
663.409	37365.56
663.76	37439.23
664.11	37430.87
664.461	37503.41
664.811	37473.12
665.161	37215.5
665.511	37010.09
665.862	37100.48
666.212	37107.94
666.562	37129.86
666.912	36924.21
667.262	36858
667.612	36765.8
667.962	36732.81
668.312	36453.72
668.662	36857.1
669.011	36674.05
669.361	36555.18
669.711	36413.72
670.06	36291.24
670.41	36087.4
670.76	36099.38
671.109	36202.65
671.459	36107.06
671.808	35971.24
672.157	36104.57
672.507	35643.12
672.856	35604.47
673.205	35626.62
673.554	35664.13
673.904	35608.77
674.253	35807.18
674.602	35493.06
674.951	35020.76
675.3	34715.01
675.649	35408.77
675.998	35333.29
676.346	35243.13
676.695	35327.64
677.044	35030.93
677.393	35220.08
677.741	35177.14
678.09	35020.76
678.438	34995.22
678.787	34980.99
679.135	35107.76
679.484	34780.54
679.832	35063.24
680.181	34839.3
680.529	34926.53
680.877	34857.83
681.225	34693.31
681.573	34923.81
681.922	34750.71
682.27	34635.46
682.618	34807.43
682.966	34745.74
683.314	34937.37
683.661	34778.28
684.009	34629.58
684.357	34609.25
684.705	34482.47
685.053	34740.54
685.4	34584.16
685.748	34472.3
686.095	34646.76
686.443	34419.65
686.79	34431.62
687.138	34654.22
687.485	34655.12
687.832	34578.29
688.18	34494.22
688.527	34447.44
688.874	34502.36
689.221	34305.75
689.568	34464.84
689.915	34227.11
690.262	34438.4
690.609	34326.99
690.956	34202.7
691.303	34319.99
691.65	34202.25
691.997	34163.38
692.344	33972.88
692.69	33985.98
693.037	34178.97
693.383	33853.11
693.73	34103.04
694.077	33841.58
694.423	33840.68
694.769	33783.05
695.116	33746.22
695.462	33698.53
695.808	33721.81
696.155	33858.53
696.501	33543.74
696.847	33550.52
697.193	33345.1
697.539	33585.32
697.885	33143.52
698.231	33213.35
698.577	33153.69
698.923	33003.64
699.269	32936.75
699.614	32728.84
699.96	32792.57
700.306	32680.71
700.651	32693.82
700.997	32537.21
701.342	32520.03
701.688	32438.91
702.033	32223.32
702.379	32287.27
702.724	32218.57
703.069	32376.54
703.415	31910.56
703.76	31964.34
704.105	31850
704.45	31983.1
704.795	31693.84
705.14	31736.33
705.485	31505.6
705.83	31520.96
706.175	31636.44
706.52	31511.47
706.865	31247.75
707.209	31228.32
707.554	31145.16
707.899	31307.64
708.243	31235.32
708.588	30909.23
708.932	30867.42
709.277	30851.83
709.621	30787.42
709.966	30638.95
710.31	30777.48
710.654	30440.99
710.998	30553.31
711.342	30539.75
711.687	30403.03
712.031	30241.45
712.375	30255.91
712.719	30253.2
713.063	30124.84
713.407	30213.43
713.75	30017.95
714.094	29895.02
714.438	29907.45
714.782	29848.47
715.125	29766.43
715.469	29836.94
715.812	29785.42
716.156	29566.89
716.499	29513.11
716.843	29555.37
717.186	29349.27
717.53	29465.88
717.873	29443.73
718.216	29304.07
718.559	29310.4
718.902	29123.51
719.246	29168.71
719.589	29030.41
719.932	28856.85
720.275	28912.67
720.617	28982.95
720.96	28815.27
721.303	28820.47
721.646	28772.11
721.989	28550.87
722.331	28677.42
722.674	28577.31
723.016	28625
723.359	28510.42
723.701	28488.28
724.044	28406.47
724.386	28243.99
724.729	28403.31
725.071	28250.54
725.413	28223.65
725.755	28295.06
726.097	28093.94
726.439	27978.91
726.782	28121.73
727.124	28166.48
727.465	27989.53
727.807	27908.4
728.149	27929.42
728.491	27905.92
728.833	27931.68
729.175	27733.95
729.516	27613.5
729.858	27599.71
730.199	27658.69
730.541	27629.32
730.882	27488.98
731.224	27570.11
731.565	27401.75
731.906	27329.44
732.248	27376.22
732.589	27218.03
732.93	27155.66
733.271	27238.14
733.612	27234.07
733.953	27231.36
734.294	27054.64
734.635	26991.82
734.976	27090.8
735.317	26915.66
735.658	26841.31
735.999	26971.71
736.339	26835.44
736.68	26965.6
737.021	26748.89
737.361	26771.26
737.702	26894.19
738.042	26507.99
738.383	26599.74
738.723	26628.66
739.063	26443.13
739.404	26625.95
739.744	26439.29
740.084	26378.5
740.424	26392.96
740.764	26306.64
741.104	26487.43
741.444	26192.29
741.784	26316.81
742.124	26299.63
742.464	26193.42
742.804	26161.11
743.143	26044.72
743.483	26124.5
743.823	25868.68
744.162	25962.02
744.502	25918.17
744.841	25835.01
745.181	25948.91
745.52	25813.32
745.86	25814.45
746.199	25738.07
746.538	25582.14
746.877	25697.62
747.216	25601.35
747.556	25504.63
747.895	25527
748.234	25405.87
748.573	25403.39
748.911	25366.78
749.25	25396.83
749.589	25272.99
749.928	25167.69
750.267	25151.41
750.605	25145.31
750.944	25092.21
751.283	24997.52
751.621	25140.34
751.96	24908.71
752.298	24841.37
752.636	24869.16
752.975	24687.47
753.313	24613.58
753.651	24725.21
753.989	24703.52
754.327	24526.8
754.666	24436.41
755.004	24480.25
755.342	24472.56
755.679	24381.72
756.017	24173.14
756.355	24398.89
756.693	24211.55
757.031	24135.4
757.368	24029.18
757.706	23940.37
758.044	23845.23
758.381	24030.31
758.719	23771.56
759.056	23747.84
759.394	23653.38
759.731	23541.51
760.068	23425.58
760.405	23444.34
760.743	23412.93
761.08	23375.64
761.417	23229.66
761.754	23233.5
762.091	23227.17
762.428	23092.94
762.765	22940.17
763.102	23030.57
763.438	22862.21
763.775	22806.84
764.112	22850.91
764.449	22793.06
764.785	22750.35
765.122	22577.25
765.458	22469.23
765.795	22437.81
766.131	22379.51
766.467	22298.16
766.804	22157.82
767.14	22015.45
767.476	22011.38
767.812	21817.27
768.148	21974.1
768.485	21686.2
768.821	21692.75
769.157	21669.7
769.492	21634.22
769.828	21603.03
770.164	21332.98
770.5	21219.09
770.836	21297.5
771.171	21192.42
771.507	21155.14
771.842	20997.17
772.178	20982.71
772.513	20998.3
772.849	20872.21
773.184	20766.45
773.519	20769.16
773.855	20605.55
774.19	20479.9
774.525	20542.27
774.86	20436.06
775.195	20458.21
775.53	20398.09
775.865	20192
776.2	20014.37
776.535	19987.71
776.87	19942.74
777.205	19970.99
777.539	19768.73
777.874	19861.16
778.209	19656.19
778.543	19677.89
778.878	19571.9
779.212	19487.84
779.547	19319.48
779.881	19391.34
780.215	19205.81
780.55	19175.07
780.884	19104.34
781.218	19065.93
781.552	19057.79
781.886	18893.73
782.22	18802.43
782.554	18685.82
782.888	18605.82
783.222	18514.08
783.556	18522.66
783.889	18458.03
784.223	18363.8
784.557	18241.99
784.89	18281.54
785.224	18186.63
785.557	18201.09
785.891	17987.54
786.224	18027.31
786.558	18034.77
786.891	17865.05
787.224	17808.33
787.557	17676.13
787.891	17748.22
788.224	17738.05
788.557	17644.72
788.89	17560.2
789.223	17461.45
789.556	17455.57
789.888	17428.45
790.221	17398.17
790.554	17073.21
790.887	17131.51
791.219	17058.75
791.552	17082.02
791.884	16914.57
792.217	16905.3
792.549	16839.54
792.882	16724.52
793.214	16594.35
793.546	16738.98
793.879	16507.8
794.211	16403.85
794.543	16621.92
794.875	16526.56
795.207	16460.57
795.539	16424.86
795.871	16356.62
796.203	16257.86
796.535	16137.64
796.867	16130.18
797.198	16066.91
797.53	16046.8
797.862	16031.43
798.193	15965.44
798.525	15871.43
798.856	15865.78
799.188	15646.35
799.519	15663.75
799.85	15505.11
800.182	15642.96
800.513	15517.09
800.844	15360.94
801.175	15429.64
801.506	15422.86
801.837	15381.95
802.168	15321.62
802.499	15263.31
802.83	15224.22
803.161	15161.85
803.491	15130.89
803.822	15082.98
804.153	14951.68
804.483	14828.52
804.814	14895.19
805.145	14835.3
805.475	14803.66
805.805	14788.98
806.136	14779.26
806.466	14728.86
806.796	14700.16
807.126	14670.11
807.457	14544.69
807.787	14559.15
808.117	14467.63
808.447	14457.23
808.777	14512.15
809.107	14458.81
809.436	14322.1
809.766	14264.24
810.096	14224.92
810.426	14181.31
810.755	14196.9
811.085	14136.56
811.414	14096.11
811.744	14003.91
812.073	14043.01
812.403	14021.76
812.732	13952.84
813.061	13935.21
813.39	13797.36
813.719	13719.85
814.049	13883.46
814.378	13852.28
814.707	13752.84
815.036	13764.82
815.365	13605.28
815.693	13560.76
816.022	13557.37
816.351	13500.65
816.68	13468.33
817.008	13559.4
817.337	13397.6
817.665	13324.38
817.994	13394.66
818.322	13390.82
818.651	13285.51
818.979	13191.73
819.307	13327.77
819.636	13244.84
819.964	13089.59
820.292	13191.05
820.62	13178.4
820.948	13212.29
821.276	13143.14
821.604	13139.98
821.932	13094.56
822.259	13087.1
822.587	13080.77
822.915	13133.43
823.243	13187.66
823.57	13064.95
823.898	13105.18
824.225	13073.99
824.553	13074.22
824.88	13035.58
825.207	13098.85
825.535	12995.58
825.862	13048.91
826.189	12916.93
826.516	13032.86
826.843	13054.33
827.17	13108.57
827.497	13110.15
827.824	13095.91
828.151	13113.77
828.478	13046.65
828.805	13071.05
829.131	13017.95
829.458	12990.6
829.785	12960.78
830.111	12971.62
830.438	12979.98
830.764	12963.94
831.09	12998.97
831.417	12870.61
831.743	12945.63
832.069	12922.36
832.395	12905.18
832.722	12932.75
833.048	12867.9
833.374	12911.74
833.7	12868.35
834.026	12873.09
834.351	12855.92
834.677	12850.5
835.003	12788.12
835.329	12830.83
835.654	12795.13
835.98	12785.86
836.306	12803.04
836.631	12718.07
836.956	12711.29
837.282	12658.64
837.607	12617.06
837.932	12607.34
838.258	12609.82
838.583	12659.77
838.908	12677.17
839.233	12649.14
839.558	12566.44
839.883	12457.51
840.208	12430.85
840.533	12480.56
840.858	12419.55
841.182	12389.26
841.507	12537.51
841.832	12392.43
842.156	12283.73
842.481	12360.79
842.805	12330.06
843.13	12304.07
843.454	12256.39
843.778	12158.31
844.103	12197.86
844.427	12183.17
844.751	12227.91
845.075	12158.99
845.399	12077.18
845.723	12042.61
846.047	11998.31
846.371	11930.29
846.695	11934.14
847.019	11855.72
847.343	11803.29
847.666	11732.33
847.99	11726.01
848.313	11657.31
848.637	11523.98
848.96	11550.64
849.284	11555.84
849.607	11475.62
849.931	11447.59
850.254	11321.95
850.577	11310.2
850.9	11263.19
851.223	11244.21
851.546	11217.09
851.869	11133.48
852.192	11219.8
852.515	11081.28
852.838	10981.62
853.161	10998.57
853.483	10925.57
853.806	10857.78
854.129	10839.47
854.451	10771
854.774	10838.57
855.096	10795.86
855.419	10685.58
855.741	10706.37
856.063	10647.62
856.385	10617.56
856.708	10567.17
857.03	10537.79
857.352	10548.86
857.674	10460.95
857.996	10485.81
858.318	10512.48
858.64	10447.85
858.961	10412.59
859.283	10336.21
859.605	10318.81
859.926	10327.17
860.248	10221.19
860.57	10225.71
860.891	10185.25
861.212	10118.36
861.534	10192.94
861.855	10151.13
862.176	10133.5
862.498	10103
862.819	10155.65
863.14	10085.37
863.461	10015.99
863.782	9946.62
864.103	9966.5
864.424	9935.77
864.745	9945.71
865.065	9961.08
865.386	9928.31
865.707	9926.73
866.027	9914.98
866.348	9885.6
866.668	9828.88
866.989	9803.8
867.309	9689.22
867.63	9872.95
867.95	9757.24
868.27	9725.83
868.59	9694.65
868.91	9724.48
869.23	9666.17
869.55	9671.82
869.87	9679.96
870.19	9651.71
870.51	9617.81
870.83	9623.69
871.15	9566.97
871.469	9589.79
871.789	9550.24
872.109	9535.33
872.428	9482.67
872.748	9460.3
873.067	9473.86
873.386	9525.61
873.706	9464.6
874.025	9428.21
874.344	9429.34
874.663	9446.52
874.982	9353.64
875.301	9427.76
875.62	9355.22
875.939	9325.39
876.258	9306.18
876.577	9277.48
876.896	9290.14
877.214	9238.84
877.533	9284.26
877.852	9207.43
878.17	9243.58
878.489	9270.48
878.807	9344.37
879.125	9183.7
879.444	9232.51
879.762	9190.93
880.08	9241.1
880.398	9140.31
880.716	9092.18
881.034	9120.88
881.352	9112.74
881.67	9057.6
881.988	9062.57
882.306	9007.66
882.624	9019.18
882.941	8997.26
883.259	8936.02
883.577	8903.93
883.894	8911.62
884.212	8889.92
884.529	8916.59
884.846	8921.11
885.164	8879.3
885.481	8864.39
885.798	8851.5
886.115	8722.47
886.432	8752.98
886.75	8682.24
887.067	8737.61
887.383	8692.86
887.7	8611.28
888.017	8599.76
888.334	8660.32
888.651	8588.23
888.967	8558.63
889.284	8541.23
889.6	8510.27
889.917	8448.13
890.233	8527.67
890.55	8428.01
890.866	8361.35
891.182	8472.76
891.498	8446.09
891.815	8382.82
892.131	8267.34
892.447	8348.24
892.763	8258.07
893.079	8290.62
893.395	8204.06
893.71	8260.11
894.026	8169.71
894.342	8206.55
894.657	8101.69
894.973	8097.63
895.289	8074.12
895.604	8059.21
895.92	8037.97
896.235	7981.7
896.55	8039.55
896.865	7983.05
897.181	7911.87
897.496	7881.59
897.811	7941.25
898.126	7790.97
898.441	7824.64
898.756	7753.91
899.071	7784.19
899.386	7711.87
899.7	7689.05
900.015	7642.27
900.33	7575.61
900.644	7626.45
900.959	7596.17
901.273	7614.25
901.588	7601.14
901.902	7536.06
902.216	7481.15
902.531	7510.07
902.845	7477.98
903.159	7393.69
903.473	7408.6
903.787	7371.09
904.101	7280.7
904.415	7296.07
904.729	7228.27
905.042	7231.89
905.356	7178.33
905.67	7208.38
905.984	7175.62
906.297	7091.32
906.611	7084.55
906.924	7040.03
907.237	7049.29
907.551	7030.76
907.864	6978.11
908.177	6996.86
908.491	6970.88
908.804	6886.81
909.117	6787.15
909.43	6832.8
909.743	6793.93
910.056	6766.81
910.368	6769.98
910.681	6741.5
910.994	6703.31
911.307	6657.21
911.619	6633.26
911.932	6686.14
912.244	6640.26
912.557	6581.73
912.869	6589.64
913.181	6522.75
913.494	6538.35
913.806	6416.31
914.118	6456.09
914.43	6382.87
914.742	6422.19
915.054	6389.65
915.366	6358.24
915.678	6348.97
915.99	6340.38
916.302	6232.14
916.613	6292.7
916.925	6232.82
917.236	6201.63
917.548	6161.41
917.859	6123.67
918.171	6099.26
918.482	6148.98
918.794	6032.14
919.105	6048.64
919.416	6014.97
919.727	5999.38
920.038	5929.55
920.349	5934.52
920.66	5880.06
920.971	5878.25
921.282	5877.12
921.593	5816.56
921.903	5815.2
922.214	5794.18
922.525	5688.2
922.835	5673.73
923.146	5704.92
923.456	5683.45
923.767	5672.38
924.077	5672.61
924.387	5590.8
924.697	5618.37
925.008	5590.35
925.318	5527.07
925.628	5588.09
925.938	5529.56
926.248	5476
926.558	5439.84
926.867	5448.88
927.177	5376.34
927.487	5416.57
927.796	5321.43
928.106	5355.55
928.416	5320.07
928.725	5259.06
929.034	5235.1
929.344	5218.61
929.653	5229.45
929.962	5160.98
930.271	5176.8
930.581	5229.45
930.89	5189
931.199	5125.95
931.508	5090.93
931.817	5110.59
932.125	5066.29
932.434	5059.06
932.743	5014.09
933.051	4993.07
933.36	4926.18
933.669	4949.46
933.977	4925.96
934.286	4935
934.594	4904.04
934.902	4877.82
935.21	4871.27
935.519	4818.16
935.827	4824.72
936.135	4806.19
936.443	4695.46
936.751	4730.48
937.059	4708.56
937.367	4649.58
937.674	4672.63
937.982	4638.06
938.29	4653.42
938.597	4619.98
938.905	4560.54
939.213	4618.62
939.52	4575.23
939.827	4609.81
940.135	4537.49
940.442	4486.42
940.749	4492.98
941.056	4477.16
941.363	4430.6
941.67	4384.05
941.977	4424.05
942.284	4388.35
942.591	4342.02
942.898	4325.97
943.205	4317.61
943.511	4299.53
943.818	4285.75
944.125	4298.18
944.431	4208.46
944.738	4245.98
945.044	4244.39
945.35	4219.99
945.657	4178.41
945.963	4161.91
946.269	4203.04
946.575	4140.67
946.881	4094.34
947.187	4057.28
947.493	4091.63
947.799	4028.81
948.105	4024.29
948.41	4031.74
948.716	4041.46
949.022	3986.77
949.327	3991.07
949.633	3956.27
949.938	3950.16
950.244	3897.51
950.549	3926.89
950.854	3843.73
951.16	3867.45
951.465	3819.77
951.77	3848.25
952.075	3806.44
952.38	3809.15
952.685	3794.69
952.99	3757.63
953.294	3750.85
953.599	3752.2
953.904	3759.44
954.209	3688.93
954.513	3704.97
954.818	3653.45
955.122	3647.8
955.426	3646.67
955.731	3577.52
956.035	3615.94
956.339	3597.63
956.643	3532.77
956.948	3563.96
957.252	3536.39
957.556	3537.07
957.86	3492.78
958.163	3489.39
958.467	3547.24
958.771	3482.15
959.075	3441.25
959.378	3449.39
959.682	3415.72
959.985	3422.49
960.289	3365.55
960.592	3385.43
960.896	3344.76
961.199	3318.32
961.502	3355.38
961.805	3329.39
962.108	3343.4
962.411	3290.97
962.714	3274.93
963.017	3244.65
963.32	3273.8
963.623	3267.92
963.926	3242.39
964.228	3191.77
964.531	3208.49
964.833	3196.06
965.136	3133.46
965.438	3146.57
965.741	3159.68
966.043	3122.62
966.345	3090.3
966.648	3135.27
966.95	3067.48
967.252	3071.77
967.554	3088.49
967.856	3097.76
968.158	3044.43
968.46	3009.85
968.761	3012.79
969.063	2994.71
969.365	2943.19
969.666	2982.51
969.968	2926.69
970.269	2921.49
970.571	2909.97
970.872	2902.51
971.174	2902.96
971.475	2905.67
971.776	2881.04
972.077	2887.82
972.378	2884.43
972.679	2825.9
972.98	2832
973.281	2826.8
973.582	2852.11
973.883	2785.68
974.183	2781.83
974.484	2797.88
974.785	2750.65
975.085	2780.7
975.386	2740.03
975.686	2737.77
975.986	2712.23
976.287	2698.45
976.587	2694.6
976.887	2690.76
977.187	2706.81
977.487	2660.25
977.787	2638.33
978.087	2648.05
978.387	2621.84
978.687	2639.92
978.987	2576.42
979.286	2598.56
979.586	2559.47
979.885	2572.12
980.185	2556.98
980.484	2497.55
980.784	2562.18
981.083	2522.18
981.382	2522.86
981.682	2501.62
981.981	2481.95
982.28	2472.69
982.579	2447.83
982.878	2443.09
983.177	2398.11
983.475	2417.1
983.774	2413.48
984.073	2379.81
984.372	2391.11
984.67	2377.55
984.969	2357.21
985.267	2367.38
985.566	2343.88
985.864	2341.62
986.162	2340.04
986.461	2321.28
986.759	2282.64
987.057	2326.93
987.355	2285.8
987.653	2240.6
987.951	2259.14
988.249	2258.23
988.547	2238.35
988.844	2204.9
989.142	2249.64
989.44	2192.7
989.737	2210.32
990.035	2211.68
990.332	2199.7
990.63	2174.84
990.927	2181.62
991.224	2154.96
991.521	2163.77
991.819	2118.35
992.116	2135.07
992.413	2099.37
992.71	2090.33
993.006	2098.69
993.303	2083.09
993.6	2123.55
993.897	2070.89
994.193	2064.79
994.49	2046.71
994.787	2048.07
995.083	2021.4
995.379	2018.69
995.676	1982.53
995.972	2010.1
996.268	1988.86
996.565	1984.79
996.861	1991.35
997.157	1943.44
997.453	1943.44
997.749	1936.43
998.044	1949.77
998.34	1934.17
998.636	1857.79
998.932	1876.55
999.227	1888.52
999.523	1911.35
999.818	1894.4
1000.114	1892.82
1000.409	1842.2
1000.704	1827.28
1001	1879.03
1001.295	1825.47
1001.59	1821.63
1001.885	1808.53
1002.18	1801.75
1002.475	1776.44
1002.77	1784.57
1003.065	1774.63
1003.359	1760.39
1003.654	1764.91
1003.949	1746.38
1004.243	1732.82
1004.538	1735.76
1004.832	1730.11
1005.127	1708.64
1005.421	1701.41
1005.715	1689.66
1006.009	1684.46
1006.304	1674.07
1006.598	1669.55
1006.892	1678.81
1007.186	1651.02
1007.48	1642.88
1007.773	1625.48
1008.067	1627.06
1008.361	1604.69
1008.655	1624.8
1008.948	1583.45
1009.242	1599.72
1009.535	1534.63
1009.829	1560.17
1010.122	1542.09
1010.415	1551.58
1010.708	1533.28
1011.001	1552.04
1011.295	1499.38
1011.588	1531.25
1011.881	1476.33
1012.173	1495.99
1012.466	1491.02
1012.759	1478.37
1013.052	1476.11
1013.344	1483.79
1013.637	1448.76
1013.93	1442.43
1014.222	1434.3
1014.514	1464.58
1014.807	1440.4
1015.099	1421.87
1015.391	1398.82
1015.683	1398.59
1015.976	1393.4
1016.268	1396.11
1016.56	1378.03
1016.851	1373.96
1017.143	1357.69
1017.435	1336.67
1017.727	1334.64
1018.018	1315.21
1018.31	1329.22
1018.602	1308.88
1018.893	1280.18
1019.185	1299.39
1019.476	1291.48
1019.767	1256.22
1020.058	1293.96
1020.35	1288.54
1020.641	1267.3
1020.932	1250.35
1021.223	1243.79
1021.514	1237.02
1021.804	1226.62
1022.095	1243.34
1022.386	1202.89
1022.677	1205.15
1022.967	1195.43
1023.258	1191.14
1023.548	1219.61
1023.839	1195.43
1024.129	1186.17
1024.419	1173.51
1024.709	1144.36
1025	1149.11
1025.29	1149.79
1025.58	1128.77
1025.87	1137.13
1026.16	1142.78
1026.449	1103.46
1026.739	1110.01
1027.029	1073.86
1027.319	1079.28
1027.608	1080.86
1027.898	1094.42
1028.187	1081.99
1028.477	1076.34
1028.766	1037.7
1029.055	1026.85
1029.344	1053.74
1029.634	1018.04
1029.923	1020.3
1030.212	1023.01
1030.501	1027.53
1030.79	1004.48
1031.078	1000.86
1031.367	1002.22
1031.656	1009.22
1031.945	979.4
1032.233	972.16
1032.522	990.24
1032.81	989.56
1033.099	957.02
1033.387	949.11
1033.675	972.62
1033.963	988.43
1034.251	946.85
1034.54	936.23
1034.828	901.43
1035.116	923.8
1035.403	903.69
1035.691	890.13
1035.979	905.72
1036.267	907.53
1036.554	879.74
1036.842	882.45
1037.129	880.19
1037.417	877.48
1037.704	855.78
1037.992	873.64
1038.279	868.21
1038.566	831.6
1038.853	831.6
1039.14	831.6
