Data from white_poster_card_FLMS001491_00011.txt Node
Date: Wed Feb 08 11:51:08 GMT 2017
User: dcchb
Spectrometer: FLMS00149
Trigger mode: 0
Integration Time (sec): 2.000000E-2
Scans to average: 10
Electric dark correction enabled: true
Nonlinearity correction enabled: false
Boxcar width: 0
XAxis mode: Wavelengths
Number of Pixels in Spectrum: 2048
>>>>>Begin Spectral Data<<<<<
341.393	-10.4
341.776	-10.4
342.16	-10.4
342.543	-79.09
342.927	-64.86
343.31	-71.18
343.693	-77.96
344.077	-44.29
344.46	-56.04
344.843	-49.72
345.226	-43.16
345.61	-29.83
345.993	-26.67
346.376	-12.88
346.759	-5.88
347.142	25.99
347.525	51.98
347.908	58.53
348.291	84.74
348.674	84.52
349.057	111.86
349.44	120.22
349.823	146.89
350.206	169.94
350.588	188.7
350.971	213.1
351.354	214.23
351.737	233.44
352.119	259.43
352.502	257.17
352.884	275.7
353.267	281.12
353.65	282.93
354.032	292.2
354.414	301.24
354.797	334.68
355.179	308.01
355.562	321.35
355.944	340.33
356.326	314.57
356.709	335.58
357.091	333.78
357.473	350.5
357.855	347.11
358.238	336.49
358.62	325.42
359.002	335.36
359.384	326.32
359.766	331.97
360.148	359.09
360.53	333.1
360.912	328.8
361.294	344.85
361.676	333.32
362.057	338.75
362.439	328.13
362.821	320.9
363.203	327.67
363.584	308.92
363.966	319.99
364.348	298.3
364.729	299.65
365.111	326.77
365.493	320.44
365.874	334.45
366.256	321.35
366.637	323.83
367.019	311.86
367.4	322.03
367.781	314.12
368.163	301.46
368.544	315.02
368.925	315.25
369.306	302.59
369.688	305.08
370.069	310.95
370.45	316.15
370.831	327
371.212	307.79
371.593	324.96
371.974	306.43
372.355	319.31
372.736	322.93
373.117	314.12
373.498	325.64
373.879	321.12
374.26	328.35
374.641	309.82
375.021	307.34
375.402	321.12
375.783	324.96
376.163	343.49
376.544	312.99
376.925	336.26
377.305	341.23
377.686	339.43
378.066	341.01
378.447	318.64
378.827	342.82
379.208	324.51
379.588	344.17
379.968	345.75
380.349	339.88
380.729	356.6
381.109	338.97
381.489	348.69
381.87	352.31
382.25	341.01
382.63	344.85
383.01	362.7
383.39	338.07
383.77	351.86
384.15	363.38
384.53	360.89
384.91	352.76
385.29	359.54
385.67	357.28
386.049	340.33
386.429	366.09
386.809	374.91
387.189	365.19
387.568	369.26
387.948	360.22
388.328	358.41
388.707	369.03
389.087	369.26
389.466	368.13
389.846	372.87
390.225	388.24
390.605	386.43
390.984	395.02
391.363	377.17
391.743	390.95
392.122	375.13
392.501	387.33
392.881	376.94
393.26	405.64
393.639	387.33
394.018	392.53
394.397	411.74
394.776	395.92
395.155	415.13
395.534	425.07
395.913	421.46
396.292	414.45
396.671	413.77
397.05	423.04
397.429	403.38
397.808	404.51
398.186	414
398.565	419.2
398.944	419.88
399.323	451.74
399.701	430.27
400.08	421.46
400.458	448.12
400.837	434.79
401.215	470.27
401.594	451.06
401.972	461.23
402.351	448.35
402.729	438.41
403.107	459.87
403.486	469.37
403.864	474.56
404.242	474.11
404.62	470.5
404.999	501
405.377	477.73
405.755	490.83
406.133	506.2
406.511	498.29
406.889	511.4
407.267	523.15
407.645	545.52
408.023	528.35
408.401	536.48
408.779	528.57
409.156	559.76
409.534	544.84
409.912	562.25
410.29	566.76
410.667	552.3
411.045	596.82
411.422	598.63
411.8	633.66
412.178	629.36
412.555	641.34
412.933	649.93
413.31	678.4
413.687	677.72
414.065	683.6
414.442	724.95
414.819	722.24
415.197	705.97
415.574	731.73
415.951	757.49
416.328	783.26
416.705	763.37
417.082	789.58
417.46	830.71
417.837	837.04
418.214	844.27
418.591	799.08
418.967	861.9
419.344	871.84
419.721	887.66
420.098	901.45
420.475	900.09
420.852	922.01
421.228	923.14
421.605	973.53
421.982	961.33
422.358	983.93
422.735	993.65
423.111	999.3
423.488	1037.71
423.864	1031.16
424.241	1043.36
424.617	1050.14
424.994	1067.32
425.37	1093.53
425.746	1106.64
426.123	1124.26
426.499	1101.67
426.875	1127.43
427.251	1149.12
427.627	1177.6
428.003	1200.65
428.379	1207.2
428.756	1212.62
429.132	1245.39
429.507	1291.49
429.883	1237.03
430.259	1298.27
430.635	1318.38
431.011	1322.9
431.387	1342.11
431.763	1379.17
432.138	1399.96
432.514	1394.77
432.89	1428.66
433.265	1428.89
433.641	1498.94
434.016	1480.87
434.392	1495.33
434.767	1531.03
435.143	1527.42
435.518	1583.91
435.894	1572.61
436.269	1636.79
436.644	1650.13
437.02	1660.97
437.395	1647.64
437.77	1674.98
438.145	1713.63
438.52	1703.23
438.895	1722.44
439.271	1697.36
439.646	1767.86
440.021	1777.13
440.395	1766.73
440.77	1793.85
441.145	1803.34
441.52	1825.71
441.895	1831.36
442.27	1860.29
442.645	1862.78
443.019	1883.57
443.394	1849.22
443.769	1895.32
444.143	1885.83
444.518	1926.95
444.892	1920.4
445.267	1929.89
445.641	1983
446.016	1980.74
446.39	1964.69
446.764	1971.7
447.139	1998.37
447.513	1990.68
447.887	2019.16
448.262	2014.18
448.636	2063.22
449.01	2051.02
449.384	2103.22
449.758	2112.03
450.132	2125.37
450.506	2162.43
450.88	2153.39
451.254	2170.34
451.628	2205.14
452.002	2255.99
452.376	2222.54
452.75	2238.36
453.123	2289.21
453.497	2299.6
453.871	2309.77
454.244	2335.76
454.618	2352.71
454.992	2419.15
455.365	2388.41
455.739	2500.27
456.112	2462.99
456.486	2503.21
456.859	2498.01
457.232	2555.41
457.606	2566.49
457.979	2599.93
458.352	2648.97
458.725	2681.74
459.099	2689.65
459.472	2761.06
459.845	2753.37
460.218	2770.32
460.591	2761.06
460.964	2844.22
461.337	2927.38
461.71	2908.4
462.083	2971.45
462.456	2968.28
462.829	2956.76
463.201	3043.31
463.574	3020.03
463.947	3129.86
464.32	3149.07
464.692	3140.48
465.065	3193.81
465.438	3257.32
465.81	3327.14
466.183	3335.96
466.555	3379.57
466.928	3382.74
467.3	3408.27
467.672	3472.23
468.045	3567.82
468.417	3580.92
468.789	3563.07
469.161	3618.21
469.534	3718.32
469.906	3721.71
470.278	3777.08
470.65	3825.89
471.022	3912.89
471.394	3926.9
471.766	3971.42
472.138	4028.14
472.51	4115.82
472.882	4161.7
473.253	4202.83
473.625	4259.77
473.997	4315.59
474.369	4379.09
474.74	4465.87
475.112	4518.98
475.484	4581.35
475.855	4679.42
476.227	4715.81
476.598	4803.72
476.97	4839.42
477.341	4941.34
477.713	5015.69
478.084	5004.84
478.455	5207.55
478.827	5234.44
479.198	5370.03
479.569	5373.87
479.94	5497.03
480.311	5549.46
480.682	5676.91
481.053	5811.6
481.424	5913.97
481.795	5937.02
482.166	6041.88
482.537	6118.48
482.908	6285.26
483.279	6255.43
483.65	6358.7
484.021	6562.54
484.391	6572.03
484.762	6638.24
485.133	6685.7
485.503	6789.2
485.874	6946.94
486.244	6965.01
486.615	7118.68
486.985	7252.01
487.356	7324.78
487.726	7408.39
488.097	7526.81
488.467	7646.58
488.837	7770.19
489.207	7830.53
489.578	8006.57
489.948	8034.14
490.318	8214.47
490.688	8199.56
491.058	8316.17
491.428	8511.41
491.798	8480.68
492.168	8661.92
492.538	8785.76
492.908	8840.45
493.278	8975.58
493.648	8976.04
494.017	9091.06
494.387	9206.76
494.757	9241.11
495.126	9370.83
495.496	9320.21
495.866	9443.14
496.235	9571.5
496.605	9707.99
496.974	9705.51
497.344	9809.23
497.713	9903.02
498.082	9966.07
498.452	10077.02
498.821	10136
499.19	10145.04
499.559	10323.57
499.928	10340.29
500.298	10462.32
500.667	10486.73
501.036	10480.4
501.405	10606.95
501.774	10683.79
502.143	10743.22
502.512	10820.51
502.88	10884.23
503.249	10972.59
503.618	10976.66
503.987	11049.43
504.356	11180.5
504.724	11232.47
505.093	11296.88
505.462	11269.99
505.83	11434.73
506.199	11511.11
506.567	11709.07
506.936	11803.53
507.304	11825
507.672	11884.43
508.041	11970.08
508.409	12119.68
508.777	12229.06
509.145	12267.47
509.514	12269.73
509.882	12423.85
510.25	12471.54
510.618	12523.96
510.986	12551.99
511.354	12790.17
511.722	12825.43
512.09	12903.62
512.458	12945.42
512.826	13047.57
513.193	13207.79
513.561	13255.47
513.929	13315.36
514.297	13465.18
514.664	13561.23
515.032	13661.34
515.4	13790.82
515.767	13791.05
516.135	13832.86
516.502	13920.31
516.869	14112.17
517.237	14181.55
517.604	14206.41
517.972	14416.57
518.339	14461.99
518.706	14442.56
519.073	14629.22
519.44	14770.46
519.808	14859.5
520.175	14896.11
520.542	15112.37
520.909	15140.39
521.276	15198.02
521.643	15391.46
522.009	15477.11
522.376	15631.68
522.743	15814.73
523.11	15925
523.477	16064.21
523.843	16114.38
524.21	16290.65
524.577	16398.66
524.943	16461.94
525.31	16570.86
525.676	16726.11
526.043	16915.26
526.409	16922.04
526.776	17205.42
527.142	17157.51
527.508	17331.07
527.874	17459.88
528.241	17451.29
528.607	17661.46
528.973	17901
529.339	17895.8
529.705	17994.56
530.071	18183.25
530.437	18281.1
530.803	18326.75
531.169	18408.78
531.535	18543.92
531.901	18524.94
532.267	18731.03
532.632	18817.81
532.998	18830.47
533.364	19019.39
533.73	19012.38
534.095	19215.99
534.461	19216.9
534.826	19361.75
535.192	19481.75
535.557	19572.14
535.923	19631.8
536.288	19681.06
536.653	19791.8
537.019	19737.11
537.384	19949.76
537.749	20077.89
538.114	20049.19
538.479	20034.73
538.845	20300.71
539.21	20257.77
539.575	20336.64
539.94	20389.07
540.305	20524.43
540.67	20510.87
541.034	20612.57
541.399	20707.48
541.764	20781.37
542.129	21017.53
542.494	20928.49
542.858	20960.58
543.223	21083.51
543.587	21295.49
543.952	21183.17
544.316	21322.15
544.681	21290.06
545.045	21487.57
545.41	21509.49
545.774	21585.2
546.138	21587.68
546.503	21701.35
546.867	21718.52
547.231	21945.19
547.595	21955.81
547.959	22088.46
548.324	22057.05
548.688	22097.95
549.052	22142.69
549.416	22241.45
549.779	22453.19
550.143	22398.28
550.507	22552.85
550.871	22650.7
551.235	22623.36
551.599	22861.55
551.962	22913.3
552.326	22927.98
552.689	23152.61
553.053	23045.27
553.417	23193.51
553.78	23392.61
554.143	23391.02
554.507	23477.35
554.87	23521.42
555.234	23760.51
555.597	23605.93
555.96	23778.81
556.323	23932.48
556.686	23975.87
557.05	24115.3
557.413	24279.36
557.776	24367.95
558.139	24469.87
558.502	24554.16
558.865	24593.03
559.228	24853.81
559.59	24898.1
559.953	24917.99
560.316	25213.57
560.679	25215.38
561.041	25270.97
561.404	25410.41
561.767	25624.86
562.129	25514.58
562.492	25837.29
562.854	25877.06
563.217	25912.99
563.579	25999.77
563.941	26122.25
564.304	26369.48
564.666	26402.92
565.028	26538.96
565.39	26707.09
565.753	26752.74
566.115	26927.2
566.477	26954.55
566.839	27132.62
567.201	27231.37
567.563	27293.52
567.925	27506.4
568.287	27542.55
568.648	27492.38
569.01	27847.18
569.372	27829.32
569.734	27854.41
570.095	28012.14
570.457	28099.6
570.819	28221.86
571.18	28211.69
571.542	28387.5
571.903	28446.71
572.265	28481.74
572.626	28621.39
572.987	28548.63
573.349	28798.11
573.71	28815.74
574.071	28930.54
574.432	29031.55
574.794	29350.19
575.155	29158.78
575.516	29049.41
575.877	29342.28
576.238	29399.9
576.599	29502.28
576.96	29386.57
577.32	29548.6
577.681	29578.66
578.042	29750.4
578.403	29608.94
578.763	29758.09
579.124	29706.79
579.485	29846.67
579.845	29860.01
580.206	29908.82
580.566	29834.24
580.927	29883.51
581.287	30015.26
581.648	29898.2
582.008	30102.03
582.368	30089.15
582.728	30061.58
583.089	30107
583.449	30137.06
583.809	30132.09
584.169	30240.11
584.529	30079.89
584.889	30513.32
585.249	30236.72
585.609	30154.46
585.969	30435.13
586.329	30208.02
586.688	30306.77
587.048	30239.66
587.408	30234.91
587.768	30340.9
588.127	30254.8
588.487	30208.47
588.846	30449.14
589.206	30309.71
589.565	30299.32
589.925	30421.35
590.284	30325.98
590.643	30374.34
591.003	30380.9
591.362	30554
591.721	30451.4
592.08	30360.33
592.44	30583.6
592.799	30523.49
593.158	30504.06
593.517	30506.99
593.876	30351.52
594.235	30458.86
594.593	30454.11
594.952	30624.28
595.311	30539.31
595.67	30556.94
596.029	30747.21
596.387	30715.12
596.746	30757.61
597.104	30552.87
597.463	30693.66
597.822	30704.73
598.18	30582.47
598.538	30644.39
598.897	30824.95
599.255	30555.58
599.613	31007.55
599.972	30847.1
600.33	30836.7
600.688	30834.44
601.046	30910.6
601.404	31012.52
601.762	30931.16
602.12	31204.38
602.478	31092.74
602.836	31173.42
603.194	30931.39
603.552	31142.23
603.91	30934.1
604.268	31210.7
604.625	30963.03
604.983	31033.08
605.341	30999.86
605.698	31186.3
606.056	31263.81
606.413	31229.69
606.771	31338.16
607.128	31355.56
607.485	31195.56
607.843	31318.27
608.2	31480.53
608.557	31652.28
608.914	31396.24
609.272	31532.05
609.629	31555.1
609.986	31715.1
610.343	31583.8
610.7	31770.24
611.057	31793.29
611.414	31741.99
611.771	31681.43
612.127	31876.9
612.484	31840.52
612.841	31851.14
613.198	31820.63
613.554	32071.7
613.911	32177.23
614.267	32019.5
614.624	31984.02
614.98	31979.95
615.337	32229.66
615.693	32142.21
616.05	32039.84
616.406	32313.73
616.762	32095.43
617.118	32130.91
617.475	32350.11
617.831	32344.46
618.187	32291.13
618.543	32285.93
618.899	32566.6
619.255	32332.03
619.611	32454.29
619.967	32384.91
620.323	32418.81
620.678	32421.75
621.034	32377
621.39	32399.15
621.746	32363.89
622.101	32562.99
622.457	32433.27
622.812	32376.55
623.168	32509.65
623.523	32419.71
623.879	32640.95
624.234	32359.15
624.589	32592.59
624.945	32558.24
625.3	32578.13
625.655	32456.77
626.01	32535.64
626.365	32459.03
626.72	32540.16
627.075	32422.2
627.43	32448.86
627.785	32355.53
628.14	32552.14
628.495	32495.64
628.85	32525.7
629.205	32195.31
629.559	32579.71
629.914	32268.53
630.269	32399.6
630.623	32332.48
630.978	32195.99
631.332	32390.79
631.687	32370.45
632.041	32153.96
632.396	32308.76
632.75	32112.38
633.104	32150.57
633.459	31935.43
633.813	32068.08
634.167	32121.19
634.521	31964.36
634.875	32129.55
635.229	31878.48
635.583	31784.02
635.937	31825.6
636.291	31787.19
636.645	31857.69
636.999	31789.45
637.352	31747.64
637.706	31587.19
638.06	31658.15
638.413	31631.03
638.767	31459.96
639.121	31553.97
639.474	31398.72
639.828	31267.65
640.181	31352.4
640.534	31439.85
640.888	31302.23
641.241	31097.26
641.594	31243.25
641.947	31265.84
642.301	31184.04
642.654	31037.15
643.007	31047.09
643.36	31093.19
643.713	31140.42
644.066	31113.98
644.419	30925.51
644.771	30682.36
645.124	30435.36
645.477	30330.5
645.83	30198.53
646.182	30019.78
646.535	29905.2
646.888	29962.15
647.24	29735.49
647.593	29988.36
647.945	29996.27
648.298	29804.19
648.65	29627.7
649.002	29580.69
649.355	29685.32
649.707	29673.8
650.059	29711.99
650.411	30194.23
650.763	30209.15
651.115	30436.49
651.467	30316.49
651.819	30281.01
652.171	30274.23
652.523	30132.09
652.875	30131.64
653.227	30039.89
653.578	30233.33
653.93	30208.02
654.282	29988.14
654.633	29932.09
654.985	29991.75
655.337	30020.23
655.688	29949.95
656.039	30000.34
656.391	29746.34
656.742	29868.59
657.094	29792.44
657.445	29848.48
657.796	29823.85
658.147	29790.18
658.498	29608.71
658.849	29842.15
659.2	29686
659.551	29587.7
659.902	29743.62
660.253	29732.78
660.604	29728.48
660.955	29539.56
661.306	29710.63
661.656	29639.67
662.007	29563.06
662.358	29673.8
662.708	29614.14
663.059	29488.26
663.409	29342.96
663.76	29543.86
664.11	29331.43
664.461	29477.42
664.811	29403.29
665.161	29442.62
665.511	29318.78
665.862	29362.17
666.212	29482.61
666.562	29464.99
666.912	29450.98
667.262	29275.16
667.612	29360.36
667.962	29321.26
668.312	29224.09
668.662	29405.78
669.011	29309.29
669.361	29212.34
669.711	29217.99
670.06	29211.44
670.41	29131.89
670.76	29124.66
671.109	29282.62
671.459	29034.72
671.808	29039.91
672.157	29145.45
672.507	28872.24
672.856	28962.63
673.205	29008.28
673.554	28931.44
673.904	28851.22
674.253	29003.98
674.602	28826.36
674.951	28512.92
675.3	28496.88
675.649	28950.43
675.998	28742.97
676.346	28817.77
676.695	28911.78
677.044	28684.67
677.393	28844.89
677.741	28856.19
678.09	28686.03
678.438	28676.31
678.787	28739.58
679.135	28622.3
679.484	28533.94
679.832	28668.62
680.181	28389.76
680.529	28462.3
680.877	28383.89
681.225	28437.9
681.573	28434.05
681.922	28273.61
682.27	28238.81
682.618	28273.61
682.966	28203.33
683.314	28264.57
683.661	28144.12
684.009	27971.47
684.357	27959.94
684.705	27926.72
685.053	27984.12
685.4	27784.35
685.748	27768.54
686.095	27552.5
686.443	27591.82
686.79	27565.6
687.138	27566.05
687.485	27601.31
687.832	27616.45
688.18	27460.97
688.527	27447.19
688.874	27276.12
689.221	27247.19
689.568	27124.94
689.915	27001.78
690.262	27091.04
690.609	26983.25
690.956	26922.91
691.303	26782.57
691.65	26757.94
691.997	26782.8
692.344	26539.64
692.69	26555.01
693.037	26586.42
693.383	26303.72
693.73	26341.23
694.077	26237.73
694.423	26259.87
694.769	26037.06
695.116	26103.04
695.462	26085.19
695.808	26044.06
696.155	26110.73
696.501	25799.77
696.847	25737.4
697.193	25560.68
697.539	25604.52
697.885	25544.19
698.231	25451.08
698.577	25358.43
698.923	25411.76
699.269	25226
699.614	25173.8
699.96	25175.38
700.306	25136.29
700.651	24917.76
700.997	24930.64
701.342	24902.17
701.688	24918.67
702.033	24804.55
702.379	24649.52
702.724	24624.21
703.069	24663.31
703.415	24480.26
703.76	24470.99
704.105	24490.2
704.45	24369.08
704.795	24209.76
705.14	24240.94
705.485	24120.04
705.83	24115.98
706.175	24138.12
706.52	23969.31
706.865	23826.49
707.209	23922.08
707.554	23857.68
707.899	23927.96
708.243	23732.71
708.588	23769.77
708.932	23494.75
709.277	23579.72
709.621	23547.18
709.966	23382.66
710.31	23436.22
710.654	23245.49
710.998	23252.72
711.342	23207.3
711.687	23079.39
712.031	23079.39
712.375	22902.67
712.719	22960.75
713.063	22993.52
713.407	23058.38
713.75	22878.04
714.094	22824.26
714.438	22699.52
714.782	22828.55
715.125	22679.86
715.469	22639.4
715.812	22626.07
716.156	22345.63
716.499	22462.69
716.843	22455.91
717.186	22229.92
717.53	22472.86
717.873	22384.95
718.216	22237.61
718.559	22254.78
718.902	22125.07
719.246	22205.07
719.589	22032.42
719.932	21945.86
720.275	21947.9
720.617	21836.94
720.96	21876.49
721.303	21966.2
721.646	21924.4
721.989	21793.55
722.331	21781.12
722.674	21599.43
723.016	21652.54
723.359	21662.03
723.701	21619.32
724.044	21546.33
724.386	21394.24
724.729	21507.01
725.071	21472.88
725.413	21457.74
725.755	21380
726.097	21405.54
726.439	21168.48
726.782	21164.87
727.124	21399.44
727.465	21137.98
727.807	21172.1
728.149	21073.8
728.491	21020.46
728.833	21111.31
729.175	20907.92
729.516	21002.84
729.858	20881.26
730.199	20926.23
730.541	20973.23
730.882	20898.43
731.224	20878.32
731.565	20732.34
731.906	20719.91
732.248	20666.58
732.589	20615.96
732.93	20582.06
733.271	20520.36
733.612	20599.01
733.953	20579.57
734.294	20422.29
734.635	20383.64
734.976	20393.14
735.317	20208.51
735.658	20260.26
735.999	20282.18
736.339	20230.88
736.68	20312.91
737.021	20164.22
737.361	20050.32
737.702	20232.69
738.042	20122.86
738.383	19986.59
738.723	19990.66
739.063	20031.79
739.404	20093.71
739.744	20013.03
740.084	19923.54
740.424	19877.67
740.764	19786.15
741.104	19919.93
741.444	19794.28
741.784	19735.75
742.124	19811.91
742.464	19819.14
742.804	19681.52
743.143	19606.04
743.483	19627.05
743.823	19543.89
744.162	19568.75
744.502	19578.47
744.841	19533.05
745.181	19555.64
745.52	19437.68
745.86	19483.56
746.199	19464.8
746.538	19461.64
746.877	19426.16
747.216	19401.52
747.556	19305.71
747.895	19397.23
748.234	19122.89
748.573	19115.66
748.911	19203.56
749.25	19205.82
749.589	19128.76
749.928	19079.95
750.267	19028.43
750.605	18950.91
750.944	18901.42
751.283	18878.15
751.621	18842.44
751.96	18745.27
752.298	18725.61
752.636	18731.94
752.975	18658.49
753.313	18559.96
753.651	18638.38
753.989	18600.87
754.327	18501.89
754.666	18415.11
755.004	18444.49
755.342	18467.99
755.679	18487.2
756.017	18325.39
756.355	18325.85
756.693	18164.49
757.031	18325.17
757.368	18227.32
757.706	18103.93
758.044	18022.58
758.381	18023.25
758.719	17863.03
759.056	17961.79
759.394	17985.97
759.731	17720.21
760.068	17755.92
760.405	17677.5
760.743	17616.26
761.08	17627.33
761.417	17610.38
761.754	17461.69
762.091	17475.02
762.428	17444.29
762.765	17286.1
763.102	17280.9
763.438	17191.41
763.775	17129.95
764.112	17138.31
764.449	17179.66
764.785	17103.05
765.122	16961.59
765.458	16861.48
765.795	16856.51
766.131	16884.75
766.467	16808.6
766.804	16768.82
767.14	16680.01
767.476	16601.6
767.812	16555.5
768.148	16597.76
768.485	16467.36
768.821	16357.08
769.157	16343.75
769.492	16382.17
769.828	16282.51
770.164	16145.11
770.5	16106.7
770.836	16066.47
771.171	16016.3
771.507	15945.8
771.842	15859.24
772.178	15761.85
772.513	15828.51
772.849	15646.82
773.184	15651.57
773.519	15619.25
773.855	15533.38
774.19	15506.26
774.525	15447.5
774.86	15377.9
775.195	15351.69
775.53	15289.32
775.865	15221.97
776.2	15157.79
776.535	14988.76
776.87	14955.09
777.205	14881.64
777.539	14995.76
777.874	14901.76
778.209	14834.64
778.543	14741.53
778.878	14657.92
779.212	14663.12
779.547	14532.27
779.881	14575.89
780.215	14552.16
780.55	14523.69
780.884	14404.37
781.218	14360.07
781.552	14339.51
781.886	14240.76
782.22	14174.32
782.554	14178.84
782.888	14036.47
783.222	13991.27
783.556	13898.17
783.889	13903.14
784.223	13868.11
784.557	13849.35
784.89	13858.62
785.224	13766.19
785.557	13672.63
785.891	13704.95
786.224	13507.89
786.558	13675.12
786.891	13504.96
787.224	13529.59
787.557	13394.45
787.891	13386.99
788.224	13369.59
788.557	13288.01
788.89	13251.63
789.223	13251.85
789.556	13203.04
789.888	13131.86
790.221	12995.14
790.554	12963.5
790.887	13022.71
791.219	12873.56
791.552	12871.07
791.884	12790.85
792.217	12722.38
792.549	12749.5
792.882	12639.44
793.214	12627.69
793.546	12604.87
793.879	12552.44
794.211	12488.26
794.543	12460.92
794.875	12427.92
795.207	12502.04
795.539	12396.28
795.871	12368.04
796.203	12211.66
796.535	12252.79
796.867	12165.33
797.198	12086.24
797.53	12155.39
797.862	11965.11
798.193	12082.39
798.525	11956.52
798.856	12022.28
799.188	11877.88
799.519	11879.01
799.85	11674.04
800.182	11794.27
800.513	11766.02
800.844	11725.12
801.175	11771.89
801.506	11736.64
801.837	11607.38
802.168	11580.71
802.499	11483.99
802.83	11500.94
803.161	11413.49
803.491	11460.49
803.822	11409.42
804.153	11441.06
804.483	11294.17
804.814	11220.95
805.145	11272.25
805.475	11312.7
805.805	11231.12
806.136	11162.19
806.466	11203.32
806.796	11111.12
807.126	11017.11
807.457	11036.32
807.787	10991.12
808.117	11020.95
808.447	10911.8
808.777	10973.5
809.107	10899.15
809.436	10852.82
809.766	10877.68
810.096	10863.44
810.426	10736.21
810.755	10735.31
811.085	10712.94
811.414	10646.73
811.744	10587.97
812.073	10654.41
812.403	10574.64
812.732	10516.11
813.061	10570.57
813.39	10453.96
813.719	10435.21
814.049	10508.65
814.378	10474.53
814.707	10416
815.036	10358.15
815.365	10318.82
815.693	10258.71
816.022	10243.57
816.351	10183.24
816.68	10194.99
817.008	10268.43
817.337	10158.6
817.665	10097.59
817.994	10115.67
818.322	10176.68
818.651	10005.84
818.979	9996.8
819.307	10021.88
819.636	10034.09
819.964	10013.97
820.292	10000.64
820.62	9963.35
820.948	9926.74
821.276	9942.56
821.604	9869.12
821.932	9916.58
822.259	10004.03
822.587	9873.64
822.915	9894.66
823.243	9879.97
823.57	9805.62
823.898	9963.35
824.225	9885.16
824.553	9878.61
824.88	9910.7
825.207	9861.66
825.535	9855.79
825.862	9888.33
826.189	9873.86
826.516	9914.77
826.843	9937.82
827.17	9940.76
827.497	9937.59
827.824	9952.28
828.151	9898.72
828.478	9873.64
828.805	9940.08
829.131	9886.29
829.458	9830.93
829.785	9824.6
830.111	9802.23
830.438	9854.66
830.764	9880.42
831.09	9889.68
831.417	9837.93
831.743	9857.82
832.069	9851.49
832.395	9836.8
832.722	9844.71
833.048	9854.66
833.374	9867.54
833.7	9732.17
834.026	9763.36
834.351	9825.96
834.677	9783.25
835.003	9761.78
835.329	9750.93
835.654	9742.12
835.98	9652.4
836.306	9700.54
836.631	9675.68
836.956	9651.27
837.282	9700.76
837.607	9663.93
837.932	9633.64
838.258	9629.13
838.583	9612.63
838.908	9602.23
839.233	9606.08
839.558	9511.61
839.883	9520.88
840.208	9428.68
840.533	9474.33
840.858	9484.72
841.182	9412.41
841.507	9429.58
841.832	9440.88
842.156	9433.42
842.481	9439.98
842.805	9326.08
843.13	9269.59
843.454	9320.88
843.778	9248.34
844.103	9323.6
844.427	9277.95
844.751	9197.27
845.075	9190.04
845.399	9259.87
845.723	9145.97
846.047	9107.56
846.371	9079.76
846.695	9063.26
847.019	8982.59
847.343	9011.29
847.666	8938.97
847.99	8872.76
848.313	8887.68
848.637	8872.31
848.96	8781.46
849.284	8825.53
849.607	8691.97
849.931	8756.15
850.254	8599.1
850.577	8585.09
850.9	8556.39
851.223	8499.21
851.546	8479.55
851.869	8461.02
852.192	8538.08
852.515	8403.62
852.838	8347.8
853.161	8309.84
853.483	8328.37
853.806	8363.4
854.129	8255.6
854.451	8194.13
854.774	8178.99
855.096	8197.98
855.419	8147.13
855.741	8136.28
856.063	8084.53
856.385	8059.9
856.708	8022.61
857.03	8025.33
857.352	7981.94
857.674	7990.3
857.996	7926.8
858.318	7887.93
858.64	7900.36
858.961	7828.27
859.283	7875.27
859.605	7804.31
859.926	7776.97
860.248	7799.34
860.57	7773.81
860.891	7820.36
861.212	7719.8
861.534	7745.11
861.855	7752.34
862.176	7733.13
862.498	7770.87
862.819	7747.59
863.14	7685
863.461	7570.65
863.782	7571.78
864.103	7593.7
864.424	7569.07
864.745	7573.59
865.065	7542.17
865.386	7553.02
865.707	7539.01
866.027	7554.38
866.348	7544.89
866.668	7527.03
866.989	7503.53
867.309	7448.17
867.63	7486.81
867.95	7470.31
868.27	7364.1
868.59	7449.75
868.91	7429.41
869.23	7401.39
869.55	7375.85
869.87	7347.6
870.19	7375.17
870.51	7392.12
870.83	7365.46
871.15	7330.2
871.469	7332.69
871.789	7305.34
872.109	7285.01
872.428	7267.61
872.748	7270.77
873.067	7280.94
873.386	7276.42
873.706	7230.09
874.025	7207.04
874.344	7202.3
874.663	7207.27
874.982	7141.96
875.301	7165.69
875.62	7161.62
875.939	7110.77
876.258	7145.57
876.577	7120.26
876.896	7139.93
877.214	7096.08
877.533	7075.75
877.852	7045.24
878.17	7012.24
878.489	7057.44
878.807	7069.87
879.125	6941.06
879.444	6977.67
879.762	6954.85
880.08	6932.02
880.398	6937.67
880.716	6973.6
881.034	6923.21
881.352	6935.18
881.67	6945.35
881.988	6895.86
882.306	6899.93
882.624	6883.21
882.941	6819.03
883.259	6820.61
883.577	6780.39
883.894	6763.66
884.212	6790.33
884.529	6776.32
884.846	6746.94
885.164	6726.15
885.481	6689.09
885.798	6743.33
886.115	6641.18
886.432	6706.26
886.75	6628.98
887.067	6655.87
887.383	6619.49
887.7	6611.8
888.017	6581.07
888.334	6613.16
888.651	6590.56
888.967	6519.15
889.284	6520.28
889.6	6550.79
889.917	6452.49
890.233	6468.53
890.55	6394.86
890.866	6424.69
891.182	6400.51
891.498	6380.62
891.815	6411.36
892.131	6303.79
892.447	6349.89
892.763	6299.27
893.079	6288.87
893.395	6259.95
893.71	6274.41
894.026	6240.74
894.342	6235.09
894.657	6184.02
894.973	6140.86
895.289	6200.29
895.604	6152.83
895.92	6148.76
896.235	6086.62
896.55	6097.69
896.865	6091.59
897.181	6078.03
897.496	6085.04
897.811	5981.31
898.126	5973.18
898.441	5948.32
898.756	5979.96
899.071	5953.06
899.386	5930.92
899.7	5892.5
900.015	5844.14
900.33	5814.31
900.644	5804.37
900.959	5782.9
901.273	5801.66
901.588	5771.83
901.902	5716.23
902.216	5713.07
902.531	5713.07
902.845	5751.71
903.159	5621.1
903.473	5647.99
903.787	5626.07
904.101	5588.33
904.415	5565.28
904.729	5574.77
905.042	5566.63
905.356	5519.85
905.67	5463.59
905.984	5484.6
906.297	5474.21
906.611	5477.37
906.924	5432.4
907.237	5435.56
907.551	5385.4
907.864	5375.68
908.177	5327.09
908.491	5355.11
908.804	5312.85
909.117	5307.66
909.43	5253.87
909.743	5238.73
910.056	5193.54
910.368	5166.19
910.681	5163.93
910.994	5172.75
911.307	5159.41
911.619	5089.58
911.932	5091.17
912.244	5092.3
912.557	5039.64
912.869	5033.09
913.181	5057.72
913.494	5029.47
913.806	5011.39
914.118	4975.69
914.43	4928.68
914.742	4935.46
915.054	4912.19
915.366	4854.34
915.678	4868.8
915.99	4868.35
916.302	4840.78
916.613	4796.03
916.925	4737.05
917.236	4776.15
917.548	4765.98
917.859	4724.62
918.171	4689.37
918.482	4721.23
918.794	4683.72
919.105	4682.36
919.416	4609.14
919.727	4612.76
920.038	4608.24
920.349	4583.83
920.66	4520.33
920.971	4578.86
921.282	4516.27
921.593	4518.98
921.903	4487.57
922.214	4467.68
922.525	4483.95
922.835	4419.09
923.146	4437.62
923.456	4408.7
923.767	4416.16
924.077	4379.32
924.387	4380.45
924.697	4331.64
925.008	4308.81
925.318	4254.13
925.628	4293.67
925.938	4267.01
926.248	4218.42
926.558	4260.9
926.867	4215.71
927.177	4194.47
927.487	4182.04
927.796	4142.49
928.106	4143.17
928.416	4148.37
928.725	4142.49
929.034	4108.37
929.344	4090.74
929.653	4062.27
929.962	4056.84
930.271	4036.5
930.581	3986.34
930.89	4001.93
931.199	3968.26
931.508	3976.62
931.817	3918.32
932.125	3959.22
932.434	3921.03
932.743	3854.81
933.051	3900.24
933.36	3882.84
933.669	3857.07
933.977	3846
934.286	3834.48
934.594	3842.84
934.902	3811.88
935.21	3753.12
935.519	3749.28
935.827	3778.21
936.135	3712.9
936.443	3682.16
936.751	3679.23
937.059	3721.71
937.367	3688.72
937.674	3645.1
937.982	3668.83
938.29	3634.71
938.597	3608.72
938.905	3608.72
939.213	3555.39
939.52	3538.89
939.827	3570.08
940.135	3551.55
940.442	3521.04
940.749	3521.49
941.056	3483.98
941.363	3495.05
941.67	3450.3
941.977	3437.42
942.284	3432
942.591	3396.07
942.898	3417.99
943.205	3407.37
943.511	3325.34
943.818	3325.11
944.125	3320.59
944.431	3329.18
944.738	3331.66
945.044	3284.89
945.35	3273.59
945.657	3262.06
945.963	3265.9
946.269	3274.49
946.575	3265.45
946.881	3199.46
947.187	3210.76
947.493	3193.14
947.799	3189.07
948.105	3215.28
948.41	3173.7
948.716	3171.67
949.022	3118.11
949.327	3130.54
949.633	3069.98
949.938	3088.73
950.244	3070.65
950.549	3049.86
950.854	3029.75
951.16	3033.59
951.465	3023.65
951.77	3032.01
952.075	2987.27
952.38	2973.71
952.685	3015.29
952.99	2956.08
953.294	2944.56
953.599	2924.89
953.904	2919.47
954.209	2918.12
954.513	2897.78
954.818	2898.23
955.122	2867.5
955.426	2890.77
955.731	2875.63
956.035	2859.13
956.339	2834.5
956.643	2853.48
956.948	2836.54
957.252	2786.82
957.556	2820.72
957.86	2763.54
958.163	2741.4
958.467	2761.74
958.771	2756.99
959.075	2762.41
959.378	2735.52
959.682	2716.09
959.985	2723.54
960.289	2669.99
960.592	2693.04
960.896	2678.8
961.199	2642.42
961.502	2667.73
961.805	2625.69
962.108	2590.21
962.411	2618.46
962.714	2566.26
963.017	2593.83
963.32	2594.96
963.623	2571.91
963.926	2589.31
964.228	2544.57
964.531	2532.36
964.833	2568.07
965.136	2482.19
965.438	2501.63
965.741	2505.24
966.043	2528.97
966.345	2507.96
966.648	2482.87
966.95	2466.6
967.252	2449.88
967.554	2451.69
967.856	2399.26
968.158	2425.47
968.46	2415.76
968.761	2392.71
969.063	2398.36
969.365	2373.27
969.666	2379.37
969.968	2323.33
970.269	2340.73
970.571	2325.14
970.872	2348.41
971.174	2270.67
971.475	2278.13
971.776	2315.65
972.077	2274.97
972.378	2298.47
972.679	2285.14
972.98	2265.48
973.281	2256.21
973.582	2241.07
973.883	2237.68
974.183	2233.39
974.484	2221.64
974.785	2220.73
975.085	2218.7
975.386	2216.44
975.686	2195.87
975.986	2164.69
976.287	2156.33
976.587	2167.4
976.887	2151.58
977.187	2117.23
977.487	2144.58
977.787	2106.39
978.087	2125.82
978.387	2104.35
978.687	2107.97
978.987	2111.36
979.286	2077.23
979.586	2055.31
979.885	2074.97
980.185	2057.8
980.484	2054.18
980.784	2030.68
981.083	2029.55
981.382	2012.6
981.682	2005.82
981.981	2019.83
982.28	2026.39
982.579	2009.44
982.878	1966.28
983.177	1990.23
983.475	1946.84
983.774	1970.57
984.073	1935.32
984.372	1967.18
984.67	1914.3
984.969	1931.47
985.267	1933.06
985.566	1908.42
985.864	1874.53
986.162	1887.41
986.461	1859.84
986.759	1892.61
987.057	1859.84
987.355	1841.53
987.653	1865.26
987.951	1831.14
988.249	1834.75
988.547	1824.58
988.844	1811.03
989.142	1834.3
989.44	1807.41
989.737	1790.01
990.035	1760.41
990.332	1753.63
990.63	1752.27
990.927	1763.8
991.224	1743.23
991.521	1761.76
991.819	1744.13
992.116	1731.71
992.413	1737.58
992.71	1714.08
993.006	1685.83
993.303	1691.48
993.6	1697.36
993.897	1695.77
994.193	1681.76
994.49	1662.78
994.787	1668.88
995.083	1665.27
995.379	1631.6
995.676	1610.58
995.972	1637.25
996.268	1624.36
996.565	1646.96
996.861	1608.77
997.157	1618.49
997.453	1582.78
997.749	1609.22
998.044	1581.2
998.34	1559.73
998.636	1543.91
998.932	1578.72
999.227	1569.22
999.523	1532.62
999.818	1534.65
1000.114	1522.45
1000.409	1521.54
1000.704	1519.96
1001	1529
1001.295	1509.56
1001.59	1498.27
1001.885	1481.32
1002.18	1444.71
1002.475	1468.21
1002.77	1459.17
1003.065	1450.81
1003.359	1426.18
1003.654	1452.84
1003.949	1446.06
1004.243	1444.71
1004.538	1409.23
1004.832	1396.35
1005.127	1438.15
1005.421	1396.12
1005.715	1396.35
1006.009	1385.05
1006.304	1366.74
1006.598	1365.39
1006.892	1355.9
1007.186	1340.53
1007.48	1351.38
1007.773	1331.49
1008.067	1350.25
1008.361	1330.59
1008.655	1303.47
1008.948	1335.11
1009.242	1288.33
1009.535	1297.59
1009.829	1305.95
1010.122	1255.33
1010.415	1300.76
1010.708	1277.48
1011.001	1272.28
1011.295	1261.21
1011.588	1290.36
1011.881	1245.84
1012.173	1236.35
1012.466	1229.35
1012.759	1223.24
1013.052	1242.91
1013.344	1207.2
1013.637	1216.92
1013.93	1196.58
1014.222	1184.83
1014.514	1197.26
1014.807	1178.05
1015.099	1177.6
1015.391	1196.8
1015.683	1172.4
1015.976	1154.55
1016.268	1148.44
1016.56	1131.5
1016.851	1140.08
1017.143	1145.51
1017.435	1125.85
1017.727	1104.15
1018.018	1114.55
1018.31	1108.67
1018.602	1110.25
1018.893	1083.59
1019.185	1123.36
1019.476	1064.83
1019.767	1071.38
1020.058	1065.51
1020.35	1058.96
1020.641	1053.08
1020.932	1064.83
1021.223	1056.47
1021.514	1039.75
1021.804	1044.72
1022.095	1031.84
1022.386	1049.24
1022.677	1005.85
1022.967	1027.32
1023.258	1019.41
1023.548	1010.14
1023.839	989.8
1024.129	986.19
1024.419	983.93
1024.709	964.27
1025	990.26
1025.29	965.4
1025.58	954.1
1025.87	971.27
1026.16	939.41
1026.449	948
1026.739	929.92
1027.029	938.28
1027.319	912.97
1027.608	911.61
1027.898	920.2
1028.187	909.81
1028.477	916.59
1028.766	894.21
1029.055	915.91
1029.344	897.38
1029.634	894.21
1029.923	877.27
1030.212	891.05
1030.501	887.21
1030.79	846.76
1031.078	828.9
1031.367	848.11
1031.656	840.88
1031.945	840.66
1032.233	852.63
1032.522	861.9
1032.81	817.15
1033.099	828.45
1033.387	817.15
1033.675	811.28
1033.963	813.09
1034.251	810.6
1034.54	813.31
1034.828	811.5
1035.116	776.93
1035.403	800.88
1035.691	778.74
1035.979	775.35
1036.267	776.02
1036.554	765.4
1036.842	774.22
1037.129	757.04
1037.417	756.59
1037.704	759.75
1037.992	754.1
1038.279	747.78
1038.566	745.97
1038.853	745.97
1039.14	745.97
