Data from white_poster_card_FLMS001491_00063.txt Node
Date: Wed Feb 08 11:51:50 GMT 2017
User: dcchb
Spectrometer: FLMS00149
Trigger mode: 0
Integration Time (sec): 2.000000E-2
Scans to average: 10
Electric dark correction enabled: true
Nonlinearity correction enabled: false
Boxcar width: 0
XAxis mode: Wavelengths
Number of Pixels in Spectrum: 2048
>>>>>Begin Spectral Data<<<<<
341.393	-3.56
341.776	-3.56
342.16	-3.56
342.543	-74.29
342.927	-78.36
343.31	-60.51
343.693	-62.99
344.077	-72.71
344.46	-63.44
344.843	-64.8
345.226	-39.49
345.61	-30.45
345.993	-8.3
346.376	-11.47
346.759	0.28
347.142	28.98
347.525	43.9
347.908	66.27
348.291	74.63
348.674	90
349.057	110.11
349.44	144.23
349.823	131.8
350.206	173.84
350.588	191.46
350.971	221.97
351.354	210.22
351.737	233.5
352.119	255.19
352.502	269.43
352.884	292.93
353.267	289.54
353.65	297.9
354.032	304.46
354.414	320.27
354.797	306.26
355.179	300.39
355.562	340.84
355.944	329.09
356.326	336.54
356.709	345.13
357.091	353.72
357.473	344.68
357.855	346.04
358.238	359.37
358.62	331.12
359.002	352.14
359.384	341.74
359.766	348.52
360.148	346.04
360.53	343.55
360.912	343.32
361.294	330.44
361.676	327.05
362.057	322.99
362.439	319.6
362.821	327.96
363.203	319.14
363.584	335.64
363.966	344.91
364.348	344.45
364.729	337.45
365.111	311.01
365.493	317.34
365.874	308.52
366.256	324.34
366.637	320.95
367.019	294.51
367.4	309.65
367.781	312.14
368.163	340.39
368.544	321.4
368.925	346.04
369.306	314.17
369.688	303.33
370.069	315.53
370.45	306.72
370.831	322.08
371.212	301.29
371.593	294.74
371.974	311.91
372.355	308.75
372.736	309.43
373.117	330.67
373.498	334.74
373.879	324.79
374.26	339.26
374.641	334.51
375.021	308.97
375.402	326.15
375.783	340.39
376.163	323.21
376.544	338.58
376.925	328.86
377.305	341.97
377.686	316.66
378.066	318.47
378.447	341.29
378.827	339.48
379.208	345.36
379.588	348.52
379.968	356.66
380.349	350.78
380.729	325.92
381.109	348.07
381.489	334.96
381.87	371.12
382.25	335.19
382.63	357.79
383.01	365.7
383.39	354.62
383.77	342.42
384.15	371.35
384.53	366.15
384.91	368.41
385.29	375.19
385.67	356.21
386.049	363.44
386.429	359.14
386.809	362.53
387.189	362.08
387.568	368.86
387.948	380.84
388.328	351.01
388.707	369.99
389.087	376.77
389.466	385.36
389.846	381.29
390.225	380.39
390.605	383.32
390.984	391.46
391.363	403.44
391.743	416.54
392.122	418.35
392.501	438.01
392.881	416.77
393.26	397.33
393.639	407.28
394.018	419.71
394.397	404.34
394.776	434.4
395.155	417.45
395.534	423.77
395.913	427.16
396.292	422.64
396.671	436.2
397.05	426.71
397.429	437.79
397.808	426.94
398.186	438.24
398.565	442.76
398.944	462.87
399.323	441.63
399.701	455.86
400.08	463.77
400.458	476.88
400.837	463.32
401.215	477.78
401.594	462.87
401.972	456.77
402.351	475.07
402.729	488.18
403.107	474.39
403.486	499.25
403.864	485.24
404.242	492.02
404.62	494.96
404.999	502.64
405.377	498.35
405.755	533.38
406.133	520.27
406.511	541.06
406.889	536.31
407.267	525.69
407.645	565.01
408.023	543.09
408.401	581.51
408.779	583.32
409.156	585.8
409.534	582.41
409.912	595.07
410.29	590.78
410.667	609.08
411.045	616.76
411.422	626.25
411.8	628.29
412.178	662.64
412.555	686.37
412.933	693.37
413.31	713.26
413.687	718.46
414.065	716.65
414.442	703.99
414.819	742.18
415.197	743.09
415.574	778.12
415.951	796.65
416.328	821.05
416.705	821.73
417.082	833.48
417.46	861.5
417.837	865.8
418.214	868.51
418.591	894.27
418.967	915.06
419.344	913.25
419.721	907.6
420.098	938.79
420.475	972.69
420.852	958
421.228	1008.62
421.605	1013.14
421.982	1006.36
422.358	1045.45
422.735	1052.68
423.111	1035.06
423.488	1105.56
423.864	1094.04
424.241	1115.06
424.617	1125
424.994	1118.22
425.37	1129.97
425.746	1183.3
426.123	1187.82
426.499	1217.2
426.875	1206.35
427.251	1225.11
427.627	1269.85
428.003	1282.28
428.379	1299.01
428.756	1310.3
429.132	1326.58
429.507	1371.77
429.883	1365.9
430.259	1370.19
430.635	1395.73
431.011	1408.38
431.387	1457.19
431.763	1497.64
432.138	1490.19
432.514	1510.3
432.89	1506.68
433.265	1549.85
433.641	1573.12
434.016	1602.95
434.392	1593.91
434.767	1666.23
435.143	1633.23
435.518	1653.35
435.894	1679.11
436.269	1724.53
436.644	1759.56
437.02	1738.32
437.395	1760.24
437.77	1789.16
438.145	1833.45
438.52	1813.34
438.895	1850.63
439.271	1849.27
439.646	1910.97
440.021	1890.63
440.395	1885.43
440.77	1900.57
441.145	1923.4
441.52	1941.47
441.895	1936.05
442.27	1978.54
442.645	1982.83
443.019	2013.34
443.394	2007.91
443.769	2019.89
444.143	1997.74
444.518	2054.92
444.892	2045.43
445.267	2090.17
445.641	2116.84
446.016	2106.22
446.39	2127.91
446.764	2114.8
447.139	2134.01
447.513	2168.81
447.887	2181.47
448.262	2158.19
448.636	2162.03
449.01	2206.78
449.384	2250.84
449.758	2272.31
450.132	2259.43
450.506	2286.78
450.88	2264.4
451.254	2283.16
451.628	2347.79
452.002	2350.96
452.376	2360.22
452.75	2458.52
453.123	2423.95
453.497	2480.44
453.871	2472.99
454.244	2512.53
454.618	2551.85
454.992	2581.23
455.365	2552.31
455.739	2642.25
456.112	2635.92
456.486	2705.97
456.859	2692.64
457.232	2739.65
457.606	2708.01
457.979	2777.61
458.352	2802.69
458.725	2867.33
459.099	2830.26
459.472	2903.48
459.845	2931.28
460.218	2983.93
460.591	3015.12
460.964	3028.9
461.337	3069.81
461.71	3138.73
462.083	3183.93
462.456	3188.45
462.829	3190.26
463.201	3252.85
463.574	3261.21
463.947	3321.33
464.32	3393.64
464.692	3409.46
465.065	3467.08
465.438	3484.71
465.81	3552.96
466.183	3572.62
466.555	3632.96
466.928	3689.9
467.3	3651.03
467.672	3718.6
468.045	3799.73
468.417	3815.32
468.789	3863.68
469.161	3885.83
469.534	3982.55
469.906	4023.45
470.278	4041.76
470.65	4132.38
471.022	4185.94
471.394	4259.38
471.766	4297.12
472.138	4338.7
472.51	4385.48
472.882	4428.64
473.253	4531.46
473.625	4595.19
473.997	4664.34
474.369	4729.42
474.74	4768.07
475.112	4872.92
475.484	4942.3
475.855	4968.06
476.227	5041.05
476.598	5183.2
476.97	5218.22
477.341	5323.31
477.713	5416.19
478.084	5455.28
478.455	5626.35
478.827	5653.69
479.198	5781.6
479.569	5727.36
479.94	5900.01
480.311	6041.71
480.682	6140.69
481.053	6241.47
481.424	6402.6
481.795	6459.77
482.166	6538.19
482.537	6642.82
482.908	6715.36
483.279	6747.9
483.65	6876.49
484.021	7038.52
484.391	7092.98
484.762	7190.15
485.133	7300.2
485.503	7385.63
485.874	7565.06
486.244	7605.73
486.615	7730.02
486.985	7815.9
487.356	7995.1
487.726	8069.9
488.097	8266.28
488.467	8339.27
488.837	8428.76
489.207	8558.93
489.578	8621.3
489.948	8759.83
490.318	8847.28
490.688	8847.28
491.058	9018.58
491.428	9178.8
491.798	9228.06
492.168	9377.21
492.538	9419.92
492.908	9618.56
493.278	9661.95
493.648	9659.46
494.017	9828.5
494.387	9931.77
494.757	9964.31
495.126	10094.03
495.496	10207.7
495.866	10214.25
496.235	10330.18
496.605	10458.99
496.974	10557.29
497.344	10606.78
497.713	10681.13
498.082	10793.9
498.452	10871.41
498.821	10928.81
499.19	10898.3
499.559	11103.04
499.928	11199.31
500.298	11258.07
500.667	11418.97
501.036	11399.76
501.405	11476.14
501.774	11473.88
502.143	11683.82
502.512	11643.82
502.88	11833.87
503.249	11840.65
503.618	11972.17
503.987	11988.22
504.356	12010.14
504.724	12190.7
505.093	12305.95
505.462	12309.11
505.83	12436.34
506.199	12548.43
506.567	12686.73
506.936	12629.1
507.304	12795.43
507.672	12899.6
508.041	12897.8
508.409	13052.59
508.777	13080.16
509.145	13185.25
509.514	13223.21
509.882	13373.26
510.25	13368.29
510.618	13561.96
510.986	13542.3
511.354	13735.97
511.722	13860.48
512.09	14024.55
512.458	14015.28
512.826	14125.79
513.193	14256.63
513.561	14333.69
513.929	14402.39
514.297	14554.25
514.664	14661.37
515.032	14767.58
515.4	14885.99
515.767	14925.09
516.135	15059.55
516.502	14982.04
516.869	15281.91
517.237	15310.61
517.604	15322.59
517.972	15435.13
518.339	15632.41
518.706	15671.51
519.073	15824.05
519.44	15908.79
519.808	16062.01
520.175	16099.75
520.542	16229.01
520.909	16480.3
521.276	16458.38
521.643	16626.96
522.009	16881.65
522.376	16912.15
522.743	16921.87
523.11	17120.74
523.477	17372.48
523.843	17380.39
524.21	17566.83
524.577	17821.06
524.943	17783.09
525.31	18006.36
525.676	18182.63
526.043	18132.24
526.409	18261.05
526.776	18524.09
527.142	18577.2
527.508	18724.54
527.874	18861.26
528.241	18984.19
528.607	19142.15
528.973	19240.23
529.339	19156.16
529.705	19458.08
530.071	19524.29
530.437	19741.68
530.803	19847.67
531.169	19914.79
531.535	19960.66
531.901	19967.44
532.267	20202.69
532.632	20386.41
532.998	20333.31
533.364	20535.56
533.73	20622.11
534.095	20733.52
534.461	20771.04
534.826	21009.67
535.192	21055.32
535.557	21218.48
535.923	21124.25
536.288	21341.87
536.653	21391.81
537.019	21468.87
537.384	21489.66
537.749	21626.38
538.114	21690.79
538.479	21783.44
538.845	21889.42
539.21	21833.83
539.575	21976.43
539.94	22078.8
540.305	22155.18
540.67	22165.12
541.034	22406.25
541.399	22379.58
541.764	22534.15
542.129	22580.25
542.494	22646.47
542.858	22791.32
543.223	22824.54
543.587	22936.18
543.952	22980.7
544.316	23022.05
544.681	22979.34
545.045	23197.64
545.41	23271.08
545.774	23368.26
546.138	23311.31
546.503	23375.04
546.867	23583.39
547.231	23710.62
547.595	23761.47
547.959	23858.64
548.324	23953.55
548.688	23973.66
549.052	23930.73
549.416	24140.44
549.779	24169.82
550.143	24222.47
550.507	24482.12
550.871	24541.11
551.235	24446.42
551.599	24668.11
551.962	24768.44
552.326	24850.7
552.689	25007.31
553.053	24919.85
553.417	24923.92
553.78	25250.01
554.143	25214.31
554.507	25264.7
554.87	25541.31
555.234	25700.17
555.597	25657.46
555.96	25743.79
556.323	25838.02
556.686	25959.6
557.05	26115.53
557.413	26211.8
557.776	26137.45
558.139	26474.39
558.502	26540.6
558.865	26636.19
559.228	26831.89
559.59	26851.78
559.953	26985.79
560.316	27174.94
560.679	27382.84
561.041	27363.18
561.404	27480.69
561.767	27731.53
562.129	27667.13
562.492	27901.92
562.854	27916.16
563.217	27876.61
563.579	28205.64
563.941	28334.45
564.304	28327.22
564.666	28440.89
565.028	28697.16
565.39	28724.5
565.753	28862.12
566.115	28999.29
566.477	29118.84
566.839	29183.92
567.201	29451.71
567.563	29362
567.925	29598.83
568.287	29547.08
568.648	29702.1
569.01	30015.76
569.372	30051.24
569.734	30094.63
570.095	30277.23
570.457	30388.18
570.819	30419.14
571.18	30449.88
571.542	30623.21
571.903	30689.87
572.265	30759.25
572.626	30843.54
572.987	30853.03
573.349	31106.36
573.71	31191.33
574.071	31308.16
574.432	31436.52
574.794	31589.06
575.155	31436.29
575.516	31365.79
575.877	31673.12
576.238	31749.05
576.599	31886.68
576.96	31791.76
577.32	31958.54
577.681	32078.76
578.042	32147.91
578.403	32238.76
578.763	32111.98
579.124	32188.81
579.485	32269.72
579.845	32375.93
580.206	32396.49
580.566	32374.8
580.927	32408.47
581.287	32540.9
581.648	32435.36
582.008	32622.25
582.368	32540.22
582.728	32686.88
583.089	32512.65
583.449	32657.28
583.809	32696.82
584.169	32585.64
584.529	32491.86
584.889	32889.59
585.249	32683.94
585.609	32611.85
585.969	32892.98
586.329	32700.89
586.688	32786.99
587.048	32706.09
587.408	32728.24
587.768	32756.48
588.127	32874.67
588.487	32694.34
588.846	33004.16
589.206	32678.97
589.565	32720.33
589.925	32903.37
590.284	32784.28
590.643	32809.14
591.003	32888.68
591.362	32891.62
591.721	32787.67
592.08	32881.45
592.44	32987.89
592.799	32826.31
593.158	32928
593.517	32913.54
593.876	32898.17
594.235	32969.13
594.593	32937.5
594.952	33047.32
595.311	33000.77
595.67	32954.22
596.029	33137.49
596.387	33258.62
596.746	33181.33
597.104	33250.93
597.463	33145.4
597.822	33215.68
598.18	33068.34
598.538	33051.84
598.897	33262.01
599.255	33059.53
599.613	33408.9
599.972	33240.09
600.33	33427.65
600.688	33210.03
601.046	33447.54
601.404	33544.94
601.762	33419.06
602.12	33626.52
602.478	33664.93
602.836	33627.87
603.194	33511.72
603.552	33469.23
603.91	33574.77
604.268	33640.75
604.625	33608.66
604.983	33671.71
605.341	33509.23
605.698	33899.96
606.056	33821.77
606.413	33689.34
606.771	33901.54
607.128	33916
607.485	33840.75
607.843	33891.59
608.2	34099.5
608.557	34161.64
608.914	33997.58
609.272	34120.29
609.629	34216.11
609.986	34361.41
610.343	34193.51
610.7	34354.63
611.057	34341.07
611.414	34183.34
611.771	34325.48
612.127	34443.44
612.484	34597.56
612.841	34534.74
613.198	34367.74
613.554	34483.22
613.911	34681.4
614.267	34560.96
614.624	34549.66
614.98	34623.78
615.337	34753.27
615.693	34737
616.05	34658.81
616.406	34948.97
616.762	34683.44
617.118	34781.29
617.475	34743.55
617.831	34933.15
618.187	34969.76
618.543	34816.77
618.899	35121.17
619.255	34992.58
619.611	34964.11
619.967	35359.58
620.323	35192.8
620.678	34974.28
621.034	34915.3
621.39	35058.34
621.746	35021.06
622.101	35364.55
622.457	35064.22
622.812	35165.69
623.168	35294.04
623.523	35236.19
623.879	35272.35
624.234	35112.13
624.589	35210.43
624.945	35209.75
625.3	35193.26
625.655	35172.92
626.01	35159.58
626.365	35194.84
626.72	35133.37
627.075	35092.92
627.43	35152.8
627.785	35035.97
628.14	35036.65
628.495	35315.74
628.85	35203.88
629.205	34902.19
629.559	35117.78
629.914	34949.87
630.269	35036.2
630.623	34934.96
630.978	34925.47
631.332	34875.07
631.687	34915.52
632.041	34939.25
632.396	34862.19
632.75	34605.25
633.104	34753.49
633.459	34597.34
633.813	34600.95
634.167	34676.66
634.521	34588.53
634.875	34611.12
635.229	34463.11
635.583	34318.25
635.937	34376.1
636.291	34376.1
636.645	34371.58
636.999	34384.69
637.352	34454.97
637.706	34107.41
638.06	34311.92
638.413	34256.33
638.767	34105.6
639.121	34187.63
639.474	33810.47
639.828	33984.7
640.181	34009.11
640.534	33935.44
640.888	33829
641.241	33847.08
641.594	33633.07
641.947	33710.13
642.301	33597.82
642.654	33750.13
643.007	33710.36
643.36	33623.35
643.713	33538.84
644.066	33711.71
644.419	33498.16
644.771	33226.53
645.124	32994.9
645.477	32950.6
645.83	32689.14
646.182	32614.34
646.535	32436.49
646.888	32412.54
647.24	32398.75
647.593	32477.85
647.945	32398.98
648.298	32208.02
648.65	32075.15
649.002	31925.54
649.355	32216.84
649.707	32163.5
650.059	32254.12
650.411	32703.6
650.763	32629.26
651.115	32921.68
651.467	32735.92
651.819	32912.86
652.171	32800.32
652.523	32725.75
652.875	32748.35
653.227	32554.68
653.578	32745.64
653.93	32596.04
654.282	32585.41
654.633	32393.1
654.985	32440.56
655.337	32387
655.688	32495.25
656.039	32560.78
656.391	32130.06
656.742	32315.59
657.094	32209.83
657.445	32350.39
657.796	32375.02
658.147	32214.58
658.498	32184.52
658.849	32314.91
659.2	32145.2
659.551	32118.99
659.902	32221.13
660.253	32169.15
660.604	32170.74
660.955	31897.97
661.306	32023.85
661.656	31971.87
662.007	31988.14
662.358	32014.81
662.708	32037.86
663.059	31966
663.409	31828.6
663.76	31989.95
664.11	31901.59
664.461	32015.03
664.811	32099.1
665.161	31930.52
665.511	31872.66
665.862	31835.6
666.212	32008.48
666.562	32006.22
666.912	31777.75
667.262	31841.25
667.612	31783.63
667.962	31799.67
668.312	31674.25
668.662	31873.79
669.011	31803.51
669.361	31746.79
669.711	31574.82
670.06	31544.76
670.41	31543.41
670.76	31541.6
671.109	31649.17
671.459	31615.72
671.808	31514.71
672.157	31538.21
672.507	31480.81
672.856	31396.52
673.205	31489.17
673.554	31506.8
673.904	31309.97
674.253	31500.25
674.602	31386.58
674.951	30950.88
675.3	30817.33
675.649	31281.95
675.998	31254.83
676.346	31215.05
676.695	31255.28
677.044	31050.54
677.393	31247.14
677.741	31208.28
678.09	31140.25
678.438	30971.45
678.787	31107.26
679.135	31120.37
679.484	30826.82
679.832	30994.04
680.181	30622.98
680.529	30802.86
680.877	30635.64
681.225	30655.07
681.573	30987.26
681.922	30704.79
682.27	30548.63
682.618	30664.56
682.966	30438.35
683.314	30608.07
683.661	30385.7
684.009	30292.37
684.357	30303.67
684.705	30197.45
685.053	30229.09
685.4	30132.37
685.748	30100.51
686.095	30017.57
686.443	29883.56
686.79	29908.65
687.138	29953.39
687.485	29886.73
687.832	29811.25
688.18	29767.18
688.527	29698.03
688.874	29622.55
689.221	29587.75
689.568	29405.16
689.915	29410.81
690.262	29275.9
690.609	29198.38
690.956	29075
691.303	29119.52
691.65	28923.82
691.997	28998.16
692.344	28933.98
692.69	28926.98
693.037	28783.71
693.383	28593.65
693.73	28662.13
694.077	28505.97
694.423	28459.87
694.769	28420.33
695.116	28421.68
695.462	28221.24
695.808	28189.82
696.155	28294
696.501	28032.31
696.847	27975.59
697.193	27761.81
697.539	27987.57
697.885	27711.19
698.231	27654.02
698.577	27641.59
698.923	27609.05
699.269	27391.43
699.614	27415.15
699.96	27157.31
700.306	27289.96
700.651	27139.68
700.997	27017.88
701.342	27027.82
701.688	26873.02
702.033	26902.17
702.379	26922.06
702.724	26875.28
703.069	26831.22
703.415	26500.38
703.76	26515.52
704.105	26508.06
704.45	26432.13
704.795	26345.58
705.14	26231.01
705.485	26270.78
705.83	26197.79
706.175	26155.3
706.52	26032.59
706.865	25965.25
707.209	25967.96
707.554	25797.8
707.899	25687.52
708.243	25673.51
708.588	25634.18
708.932	25434.19
709.277	25479.84
709.621	25468.09
709.966	25431.93
710.31	25328.88
710.654	25080.75
710.998	25077.59
711.342	25138.6
711.687	25085.72
712.031	25019.29
712.375	24910.36
712.719	25004.82
713.063	24856.58
713.407	25047.31
713.75	24795.79
714.094	24735
714.438	24653.87
714.782	24679.18
715.125	24515.12
715.469	24523.25
715.812	24488.9
716.156	24399.19
716.499	24361.9
716.843	24408.91
717.186	24246.65
717.53	24319.19
717.873	24273.54
718.216	24218.85
718.559	24094.11
718.902	23791.3
719.246	24063.83
719.589	23942.7
719.932	23836.49
720.275	23857.73
720.617	23715.37
720.96	23639.43
721.303	23758.53
721.646	23884.4
721.989	23520.34
722.331	23580.68
722.674	23623.84
723.016	23620
723.359	23554.47
723.701	23502.72
724.044	23394.92
724.386	23367.8
724.729	23407.8
725.071	23330.06
725.413	23313.79
725.755	23233.8
726.097	23106.57
726.439	23022.5
726.782	22953.8
727.124	23111.09
727.465	22918.1
727.807	22979.57
728.149	22865.22
728.491	22794.71
728.833	22904.31
729.175	22788.38
729.516	22763.3
729.858	22735.73
730.199	22638.56
730.541	22664.32
730.882	22552.01
731.224	22610.76
731.565	22453.48
731.906	22449.41
732.248	22556.98
732.589	22336.64
732.93	22316.76
733.271	22389.3
733.612	22382.29
733.953	22323.99
734.294	22289.19
734.635	22158.34
734.976	22360.37
735.317	22166.93
735.658	22158.34
735.999	22181.39
736.339	22110.21
736.68	22092.81
737.021	22055.07
737.361	21926.94
737.702	21964.22
738.042	21851.91
738.383	21813.27
738.723	21874.28
739.063	21798.35
739.404	21723.1
739.744	21692.82
740.084	21839.03
740.424	21663.22
740.764	21640.84
741.104	21757
741.444	21406.73
741.784	21434.07
742.124	21537.12
742.464	21397.01
742.804	21326.95
743.143	21300.06
743.483	21349.33
743.823	21261.87
744.162	21232.27
744.502	21264.13
744.841	21144.81
745.181	21245.6
745.52	21090.12
745.86	21188.2
746.199	21142.33
746.538	20997.47
746.877	21051.25
747.216	21006.06
747.556	20930.81
747.895	20989.79
748.234	20736.91
748.573	20823.92
748.911	20757.93
749.25	20726.74
749.589	20547.31
749.928	20735.78
750.267	20753.18
750.605	20645.39
750.944	20569.01
751.283	20451.27
751.621	20534.43
751.96	20399.07
752.298	20354.55
752.636	20395
752.975	20275.91
753.313	20244.72
753.651	20335.79
753.989	20182.35
754.327	20158.4
754.666	20052.41
755.004	20138.74
755.342	20142.13
755.679	20030.72
756.017	19959.31
756.355	19915.69
756.693	19888.8
757.031	19859.65
757.368	19786.88
757.706	19700.78
758.044	19638.18
758.381	19656.71
758.719	19535.14
759.056	19546.21
759.394	19408.13
759.731	19328.14
760.068	19298.98
760.405	19216.27
760.743	19198.42
761.08	19224.64
761.417	19058.31
761.754	19057.41
762.091	18956.62
762.428	18955.49
762.765	18670.07
763.102	18837.3
763.438	18673.69
763.775	18641.15
764.112	18564.77
764.449	18663.07
764.785	18583.75
765.122	18533.58
765.458	18373.13
765.795	18336.98
766.131	18238.22
766.467	18216.98
766.804	18137.66
767.14	18129.98
767.476	18008.85
767.812	17998.23
768.148	17998
768.485	17782.19
768.821	17841.4
769.157	17727.73
769.492	17716.43
769.828	17671.91
770.164	17483.66
770.5	17523.44
770.836	17615.86
771.171	17329.09
771.507	17396.89
771.842	17167.51
772.178	17221.52
772.513	17175.42
772.849	17137.23
773.184	17007.29
773.519	17073.51
773.855	16889.56
774.19	16916.45
774.525	16809.11
774.86	16813.17
775.195	16711.48
775.53	16592.84
775.865	16600.75
776.2	16472.62
776.535	16273.3
776.87	16365.73
777.205	16258.39
777.539	16256.13
777.874	16246.18
778.209	16102.46
778.543	16026.53
778.878	15917.6
779.212	15986.3
779.547	15859.75
779.881	15923.93
780.215	15790.15
780.55	15819.53
780.884	15657.95
781.218	15636.93
781.552	15655.92
781.886	15460.67
782.22	15419.09
782.554	15448.24
782.888	15311.29
783.222	15262.25
783.556	15140.9
783.889	15172.31
784.223	15060.68
784.557	15001.02
784.89	15072.88
785.224	14948.82
785.557	14949.49
785.891	14910.17
786.224	14898.87
786.558	14772.32
786.891	14653
787.224	14507.47
787.557	14577.07
787.891	14444.65
788.224	14488.72
788.557	14454.14
788.89	14389.51
789.223	14418.21
789.556	14302.28
789.888	14197.65
790.221	14177.76
790.554	14017.99
790.887	14079.46
791.219	14007.37
791.552	13983.64
791.884	13837.43
792.217	13845.79
792.549	13810.77
792.882	13653.26
793.214	13670.88
793.546	13718.11
793.879	13638.79
794.211	13540.72
794.543	13627.49
794.875	13552.02
795.207	13593.6
795.539	13462.75
795.871	13401.51
796.203	13286.71
796.535	13281.74
796.867	13279.93
797.198	13247.62
797.53	13039.49
797.862	13052.14
798.193	13049.2
798.525	13011.92
798.856	12995.65
799.188	12926.72
799.519	12871.13
799.85	12810.57
800.182	12828.19
800.513	12778.7
800.844	12687.86
801.175	12750.68
801.506	12666.62
801.837	12645.15
802.168	12594.3
802.499	12540.52
802.83	12444.48
803.161	12476.79
803.491	12424.36
803.822	12427.3
804.153	12400.41
804.483	12262.33
804.814	12242.67
805.145	12270.69
805.475	12128.33
805.805	12188.44
806.136	12227.31
806.466	12177.14
806.796	12124.94
807.126	12017.37
807.457	11900.53
807.787	11991.61
808.117	11928.78
808.447	11958.61
808.777	11844.94
809.107	11847.43
809.436	11752.74
809.766	11806.53
810.096	11743.7
810.426	11720.65
810.755	11703.03
811.085	11712.97
811.414	11651.05
811.744	11606.53
812.073	11597.49
812.403	11527.66
812.732	11511.17
813.061	11476.59
813.39	11392.53
813.719	11376.71
814.049	11446.08
814.378	11354.33
814.707	11297.16
815.036	11314.79
815.365	11271.85
815.693	11192.08
816.022	11159.54
816.351	11152.53
816.68	11076.38
817.008	11178.29
817.337	11103.04
817.665	11026.89
817.994	11023.27
818.322	11020.11
818.651	10961.35
818.979	10905.98
819.307	10947.11
819.636	10848.81
819.964	10835.25
820.292	10899.66
820.62	10884.97
820.948	10837.74
821.276	10772.65
821.604	10817.4
821.932	10856.04
822.259	10756.38
822.587	10847.68
822.915	10749.15
823.243	10798.87
823.57	10747.57
823.898	10754.35
824.225	10680.45
824.553	10727.01
824.88	10712.54
825.207	10841.58
825.535	10688.59
825.862	10751.64
826.189	10722.94
826.516	10820.56
826.843	10755.71
827.17	10783.05
827.497	10800.45
827.824	10770.62
828.151	10822.37
828.478	10696.05
828.805	10818.3
829.131	10702.6
829.458	10817.17
829.785	10633.68
830.111	10701.24
830.438	10748.02
830.764	10703.5
831.09	10689.94
831.417	10700.57
831.743	10666.44
832.069	10687.23
832.395	10639.32
832.722	10695.14
833.048	10614.92
833.374	10636.16
833.7	10621.02
834.026	10542.38
834.351	10642.71
834.677	10603.62
835.003	10632.32
835.329	10613.79
835.654	10538.31
835.98	10565.65
836.306	10522.94
836.631	10495.83
836.956	10495.15
837.282	10469.61
837.607	10489.05
837.932	10454.92
838.258	10487.24
838.583	10475.49
838.908	10314.14
839.233	10308.71
839.558	10411.08
839.883	10346
840.208	10334.02
840.533	10319.56
840.858	10321.82
841.182	10343.74
841.507	10281.82
841.832	10169.73
842.156	10173.12
842.481	10243.63
842.805	10142.61
843.13	10141.26
843.454	10147.81
843.778	10110.75
844.103	10142.84
844.427	10029.4
844.751	10065.55
845.075	10037.53
845.399	9995.05
845.723	9957.99
846.047	9936.52
846.371	9887.93
846.695	9930.19
847.019	9795.51
847.343	9718.9
847.666	9658.11
847.99	9689.75
848.313	9655.85
848.637	9570.43
848.96	9537.88
849.284	9614.27
849.607	9489.52
849.931	9426.93
850.254	9432.58
850.577	9388.06
850.9	9272.58
851.223	9271.68
851.546	9241.17
851.869	9198.23
852.192	9256.54
852.515	9144.45
852.838	9141.74
853.161	9066.94
853.483	9031.46
853.806	8962.53
854.129	8983.55
854.451	8979.03
854.774	8916.21
855.096	8887.28
855.419	8882.08
855.741	8855.64
856.063	8769.77
856.385	8871.46
856.708	8789.2
857.03	8749.66
857.352	8682.99
857.674	8676.89
857.996	8644.8
858.318	8588.53
858.64	8611.58
858.961	8622.2
859.283	8484.35
859.605	8484.58
859.926	8486.39
860.248	8497.46
860.57	8447.07
860.891	8534.52
861.212	8407.97
861.534	8439.83
861.855	8480.74
862.176	8375.66
862.498	8368.65
862.819	8357.58
863.14	8283.45
863.461	8310.8
863.782	8292.49
864.103	8305.83
864.424	8265.38
864.745	8259.27
865.065	8212.5
865.386	8175.43
865.707	8210.46
866.027	8185.83
866.348	8156.23
866.668	8217.02
866.989	8181.99
867.309	8111.71
867.63	8076.45
867.95	8113.29
868.27	8070.58
868.59	8065.61
868.91	8127.53
869.23	8048.66
869.55	7977.25
869.87	8028.32
870.19	7984.71
870.51	7998.72
870.83	7978.83
871.15	8006.63
871.469	8006.17
871.789	8012.5
872.109	7986.29
872.428	7937.7
872.748	7917.36
873.067	7981.99
873.386	7885.95
873.706	7916.23
874.025	7869.23
874.344	7770.7
874.663	7861.32
874.982	7792.62
875.301	7836.46
875.62	7785.84
875.939	7698.39
876.258	7727.31
876.577	7688.89
876.896	7742.68
877.214	7654.09
877.533	7672.17
877.852	7637.82
878.17	7722.34
878.489	7677.59
878.807	7654.54
879.125	7559.86
879.444	7611.16
879.762	7627.88
880.08	7609.8
880.398	7569.12
880.716	7484.15
881.034	7525.73
881.352	7548.56
881.67	7493.19
881.988	7518.05
882.306	7490.03
882.624	7445.51
882.941	7435.79
883.259	7368
883.577	7412.29
883.894	7375.46
884.212	7406.64
884.529	7393.53
884.846	7336.13
885.164	7350.6
885.481	7261.11
885.798	7352.41
886.115	7249.58
886.432	7279.19
886.75	7237.15
887.067	7241.45
887.383	7227.66
887.7	7234.89
888.017	7134.56
888.334	7187.21
888.651	7205.52
888.967	7165.29
889.284	7068.8
889.6	7113.09
889.917	7020.21
890.233	7057.27
890.55	7022.7
890.866	7019.98
891.182	6940.89
891.498	6937.73
891.815	6946.99
892.131	6866.99
892.447	6877.39
892.763	6824.96
893.079	6835.58
893.395	6797.39
893.71	6790.61
894.026	6781.12
894.342	6747.68
894.657	6703.84
894.973	6697.28
895.289	6688.24
895.604	6671.29
895.92	6668.58
896.235	6638.3
896.55	6624.06
896.865	6661.35
897.181	6563.95
897.496	6580.45
897.811	6554.46
898.126	6503.39
898.441	6518.08
898.756	6478.98
899.071	6415.26
899.386	6433.79
899.7	6401.47
900.015	6390.4
900.33	6336.84
900.644	6291.64
900.959	6309.04
901.273	6309.27
901.588	6263.62
901.902	6239.89
902.216	6223.62
902.531	6241.02
902.845	6238.99
903.159	6145.43
903.473	6147.69
903.787	6129.39
904.101	6131.42
904.415	6089.84
904.729	6067.24
905.042	6043.51
905.356	5988.37
905.67	5966.23
905.984	5999.67
906.297	5948.37
906.611	5975.94
906.924	5926
907.237	5924.42
907.551	5880.35
907.864	5878.55
908.177	5811.66
908.491	5786.8
908.804	5757.42
909.117	5753.58
909.43	5713.58
909.743	5703.64
910.056	5701.83
910.368	5694.37
910.681	5655.5
910.994	5643.07
911.307	5574.83
911.619	5515.39
911.932	5593.58
912.244	5514.49
912.557	5549.74
912.869	5460.03
913.181	5439.91
913.494	5449.4
913.806	5438.78
914.118	5402.63
914.43	5326.47
914.742	5364.66
915.054	5331.89
915.366	5325.79
915.678	5274.72
915.99	5236.53
916.302	5247.6
916.613	5215.06
916.925	5232.91
917.236	5215.74
917.548	5208.96
917.859	5171.67
918.171	5114.05
918.482	5132.35
918.794	5086.93
919.105	5075.63
919.416	5016.65
919.727	5026.82
920.038	4995.86
920.349	4981.85
920.66	4961.96
920.971	4929.19
921.282	4930.32
921.593	4907.27
921.903	4828.86
922.214	4865.47
922.525	4799.25
922.835	4804.68
923.146	4830.44
923.456	4774.39
923.767	4795.18
924.077	4696.43
924.387	4750.21
924.697	4688.29
925.008	4697.56
925.318	4644.45
925.628	4637.22
925.938	4670.44
926.248	4589.54
926.558	4567.39
926.867	4568.07
927.177	4571.91
927.487	4512.03
927.796	4471.35
928.106	4506.38
928.416	4489.2
928.725	4438.58
929.034	4435.19
929.344	4417.34
929.653	4434.74
929.962	4383.22
930.271	4324.24
930.581	4356.78
930.89	4334.41
931.199	4317.68
931.508	4284.24
931.817	4267.51
932.125	4240.62
932.434	4268.64
932.743	4194.97
933.051	4177.57
933.36	4175.77
933.669	4136.9
933.977	4178.25
934.286	4128.76
934.594	4170.57
934.902	4109.1
935.21	4081.76
935.519	4116.11
935.827	4056.9
936.135	4053.96
936.443	4026.62
936.751	3992.95
937.059	3997.92
937.367	3977.35
937.674	4011.02
937.982	3998.14
938.29	3922.21
938.597	3938.26
938.905	3897.36
939.213	3857.13
939.52	3855.32
939.827	3849.9
940.135	3815.55
940.442	3832.27
940.749	3812.84
941.056	3832.95
941.363	3770.8
941.67	3752.95
941.977	3748.88
942.284	3707.08
942.591	3695.78
942.898	3698.49
943.205	3659.85
943.511	3652.39
943.818	3633.18
944.125	3626.4
944.431	3609.68
944.738	3592.73
945.044	3586.63
945.35	3540.08
945.657	3534.2
945.963	3526.97
946.269	3526.74
946.575	3522.9
946.881	3527.42
947.187	3459.63
947.493	3436.12
947.799	3453.53
948.105	3490.36
948.41	3445.39
948.716	3451.04
949.022	3373.3
949.327	3399.29
949.633	3358.16
949.938	3358.16
950.244	3339.4
950.549	3337.82
950.854	3295.11
951.16	3274.55
951.465	3238.39
951.77	3283.81
952.075	3258.95
952.38	3252.4
952.685	3244.04
952.99	3188.67
953.294	3252.63
953.599	3186.19
953.904	3160.65
954.209	3126.08
954.513	3185.06
954.818	3170.37
955.122	3123.59
955.426	3113.19
955.731	3128.79
956.035	3093.53
956.339	3068.45
956.643	3038.62
956.948	3025.51
957.252	3007.21
957.556	3035.46
957.86	2999.3
958.163	3007.66
958.467	2994.55
958.771	2937.83
959.075	2997.72
959.378	2950.71
959.682	2965.4
959.985	2898.06
960.289	2938.51
960.592	2854.9
960.896	2893.31
961.199	2893.99
961.502	2861.45
961.805	2861.45
962.108	2816.48
962.411	2809.25
962.714	2810.38
963.017	2807.44
963.32	2758.4
963.623	2739.42
963.926	2744.84
964.228	2738.74
964.531	2757.72
964.833	2732.41
965.136	2734
965.438	2708.46
965.741	2680.44
966.043	2690.38
966.345	2663.26
966.648	2647.22
966.95	2654.68
967.252	2613.77
967.554	2625.07
967.856	2629.59
968.158	2572.64
968.46	2589.82
968.761	2588.46
969.063	2576.26
969.365	2568.8
969.666	2553.89
969.968	2548.69
970.269	2510.5
970.571	2475.47
970.872	2511.63
971.174	2474.12
971.475	2507.11
971.776	2436.6
972.077	2463.04
972.378	2425.98
972.679	2447.9
972.98	2446.32
973.281	2432.53
973.582	2432.31
973.883	2375.59
974.183	2430.95
974.484	2395.47
974.785	2407.9
975.085	2349.15
975.386	2369.49
975.686	2347.34
975.986	2356.6
976.287	2337.17
976.587	2280.9
976.887	2313.44
977.187	2290.62
977.487	2296.27
977.787	2263.5
978.087	2305.31
978.387	2261.47
978.687	2240.45
978.987	2225.08
979.286	2228.47
979.586	2227.12
979.885	2244.52
980.185	2209.26
980.484	2178.08
980.784	2201.13
981.083	2187.12
981.382	2161.36
981.682	2166.1
981.981	2155.93
982.28	2152.54
982.579	2101.24
982.878	2148.25
983.177	2082.04
983.475	2116.61
983.774	2104.18
984.073	2113.67
984.372	2075.93
984.67	2084.07
984.969	2101.02
985.267	2062.6
985.566	2043.39
985.864	2035.94
986.162	2036.16
986.461	2023.28
986.759	1974.24
987.057	1982.38
987.355	1980.8
987.653	2007.01
987.951	1965.43
988.249	1971.08
988.547	1969.95
988.844	1936.73
989.142	1964.75
989.44	1916.62
989.737	1919.33
990.035	1929.27
990.332	1889.27
990.63	1912.1
990.927	1899.44
991.224	1886.56
991.521	1863.74
991.819	1867.58
992.116	1856.96
992.413	1863.74
992.71	1835.49
993.006	1848.14
993.303	1836.39
993.6	1815.38
993.897	1821.7
994.193	1807.47
994.49	1802.04
994.787	1774.47
995.083	1797.3
995.379	1762.27
995.676	1762.5
995.972	1775.15
996.268	1731.08
996.565	1750.52
996.861	1739.22
997.157	1739.45
997.453	1711.42
997.749	1678.88
998.044	1680.69
998.34	1684.98
998.636	1686.34
998.932	1670.75
999.227	1676.17
999.523	1637.08
999.818	1617.64
1000.114	1641.6
1000.409	1642.95
1000.704	1649.96
1001	1655.15
1001.295	1605.89
1001.59	1566.12
1001.885	1618.77
1002.18	1549.39
1002.475	1592.56
1002.77	1558.21
1003.065	1547.59
1003.359	1569.28
1003.654	1534.93
1003.949	1521.37
1004.243	1510.07
1004.538	1543.29
1004.832	1526.8
1005.127	1532.22
1005.421	1503.52
1005.715	1484.31
1006.009	1486.8
1006.304	1471.66
1006.598	1442.28
1006.892	1454.71
1007.186	1449.06
1007.48	1452.9
1007.773	1398.66
1008.067	1429.62
1008.361	1416.97
1008.655	1404.09
1008.948	1407.93
1009.242	1424.88
1009.535	1384.65
1009.829	1392.56
1010.122	1364.54
1010.415	1360.7
1010.708	1349.85
1011.001	1353.24
1011.295	1349.4
1011.588	1347.14
1011.881	1340.81
1012.173	1321.38
1012.466	1323.86
1012.759	1308.04
1013.052	1309.63
1013.344	1316.41
1013.637	1294.26
1013.93	1263.75
1014.222	1282.06
1014.514	1265.79
1014.807	1264.66
1015.099	1266.69
1015.391	1236.86
1015.683	1263.75
1015.976	1242.74
1016.268	1235.5
1016.56	1236.63
1016.851	1199.35
1017.143	1209.06
1017.435	1219.69
1017.727	1173.58
1018.018	1161.38
1018.31	1196.41
1018.602	1197.09
1018.893	1171.55
1019.185	1171.55
1019.476	1148.73
1019.767	1148.95
1020.058	1165.22
1020.35	1134.49
1020.641	1141.5
1020.932	1123.87
1021.223	1103.08
1021.514	1131.1
1021.804	1082.29
1022.095	1112.12
1022.386	1100.82
1022.677	1086.81
1022.967	1094.94
1023.258	1061.95
1023.548	1048.16
1023.839	1041.39
1024.129	1051.1
1024.419	1058.11
1024.709	1030.09
1025	1029.41
1025.29	997.54
1025.58	1019.92
1025.87	1016.75
1026.16	1003.65
1026.449	1005.91
1026.739	990.76
1027.029	982.18
1027.319	981.27
1027.608	979.47
1027.898	968.84
1028.187	950.31
1028.477	981.05
1028.766	967.04
1029.055	942.18
1029.344	919.13
1029.634	951.67
1029.923	921.61
1030.212	923.87
1030.501	920.94
1030.79	911.9
1031.078	925.46
1031.367	888.85
1031.656	879.81
1031.945	902.18
1032.233	893.37
1032.522	892.69
1032.81	874.84
1033.099	866.47
1033.387	856.98
1033.675	865.12
1033.963	879.81
1034.251	857.44
1034.54	846.59
1034.828	856.08
1035.116	842.75
1035.403	829.64
1035.691	815.18
1035.979	835.97
1036.267	815.4
1036.554	806.81
1036.842	796.65
1037.129	794.16
1037.417	809.07
1037.704	798.91
1037.992	789.87
1038.279	785.57
1038.566	800.71
1038.853	800.71
1039.14	800.71
