Data from White_reflection_standard_FLMS001491_054.txt Node
Date: Tue Feb 07 10:32:06 GMT 2017
User: dcchb
Spectrometer: FLMS00149
Trigger mode: 0
Integration Time (sec): 2.000000E-2
Scans to average: 10
Electric dark correction enabled: true
Nonlinearity correction enabled: false
Boxcar width: 0
XAxis mode: Wavelengths
Number of Pixels in Spectrum: 2048
>>>>>Begin Spectral Data<<<<<
341.393	-5.4
341.776	-5.4
342.16	-5.4
342.543	-48.78
342.927	-61.67
343.31	-67.77
343.693	-70.03
344.077	-69.57
344.46	-54.89
344.843	-44.04
345.226	-35.23
345.61	-22.34
345.993	-7.88
346.376	8.39
346.759	-0.65
347.142	23.08
347.525	48.16
347.908	58.11
348.291	68.28
348.674	71.89
349.057	94.49
349.44	126.35
349.823	141.49
350.206	175.84
350.588	227.37
350.971	266.91
351.354	281.38
351.737	317.53
352.119	289.06
352.502	318.66
352.884	334.93
353.267	339
353.65	334.71
354.032	354.14
354.414	344.65
354.797	371.54
355.179	386.68
355.562	388.72
355.944	379
356.326	387.59
356.709	412.9
357.091	411.32
357.473	405.89
357.855	388.72
358.238	421.03
358.62	403.41
359.002	401.37
359.384	405.44
359.766	418.55
360.148	393.69
360.53	406.12
360.912	403.18
361.294	406.35
361.676	403.18
362.057	426.68
362.439	425.78
362.821	430.75
363.203	425.33
363.584	414.71
363.966	419.45
364.348	417.64
364.729	417.87
365.111	429.85
365.493	412.67
365.874	430.75
366.256	415.84
366.637	414.48
367.019	397.31
367.4	437.3
367.781	418.55
368.163	435.27
368.544	432.33
368.925	428.04
369.306	434.14
369.688	439.11
370.069	447.47
370.45	456.74
370.831	457.19
371.212	446.34
371.593	462.61
371.974	454.71
372.355	473.01
372.736	440.47
373.117	442.28
373.498	472.56
373.879	441.82
374.26	474.14
374.641	436.85
375.021	463.52
375.402	483.86
375.783	483.18
376.163	514.14
376.544	511.43
376.925	487.02
377.305	503.74
377.686	503.07
378.066	521.82
378.447	520.01
378.827	492.9
379.208	525.89
379.588	542.84
379.968	538.55
380.349	540.13
380.729	508.26
381.109	546.23
381.489	534.25
381.87	583.74
382.25	549.84
382.63	574.02
383.01	564.76
383.39	590.97
383.77	569.05
384.15	582.16
384.53	582.84
384.91	594.14
385.29	584.87
385.67	652.89
386.049	626.9
386.429	611.76
386.809	608.15
387.189	637.75
387.568	647.47
387.948	653.57
388.328	679.56
388.707	656.28
389.087	673.46
389.466	699.9
389.846	688.6
390.225	701.25
390.605	702.16
390.984	681.82
391.363	723.4
391.743	730.63
392.122	761.36
392.501	726.79
392.881	747.35
393.26	750.74
393.639	764.08
394.018	759.1
394.397	796.84
394.776	773.34
395.155	791.65
395.534	813.79
395.913	826.45
396.292	807.69
396.671	833.9
397.05	870.97
397.429	863.96
397.808	860.8
398.186	873.68
398.565	896.73
398.944	873
399.323	888.82
399.701	896.5
400.08	901.47
400.458	915.03
400.837	919.33
401.215	934.92
401.594	942.38
401.972	937.4
402.351	976.95
402.729	967.01
403.107	974.47
403.486	981.92
403.864	1002.94
404.242	1020.11
404.62	992.09
404.999	1002.94
405.377	1063.96
405.755	1063.96
406.133	1095.59
406.511	1088.59
406.889	1101.02
407.267	1113.45
407.645	1159.77
408.023	1107.34
408.401	1184.4
408.779	1170.84
409.156	1215.36
409.534	1195.7
409.912	1243.39
410.29	1261.24
410.667	1268.47
411.045	1293.55
411.422	1285.64
411.8	1323.61
412.178	1313.89
412.555	1373.78
412.933	1376.72
413.31	1411.74
413.687	1407.22
414.065	1432.53
414.442	1436.6
414.819	1456.26
415.197	1453.78
415.574	1512.3
415.951	1486.99
416.328	1538.74
416.705	1561.34
417.082	1543.49
417.46	1573.55
417.837	1600.66
418.214	1614.45
418.591	1615.35
418.967	1639.99
419.344	1639.08
419.721	1701.45
420.098	1701.9
420.475	1720.89
420.852	1718.63
421.228	1733.77
421.605	1753.65
421.982	1788.23
422.358	1808.34
422.735	1822.13
423.111	1837.72
423.488	1867.32
423.864	1865.74
424.241	1883.14
424.617	1894.89
424.994	1933.08
425.37	1961.78
425.746	1958.17
426.123	1981.22
426.499	2013.31
426.875	2050.6
427.251	2036.81
427.627	2138.73
428.003	2109.35
428.379	2184.15
428.756	2187.77
429.132	2222.57
429.507	2254.43
429.883	2291.95
430.259	2296.69
430.635	2329.68
431.011	2346.18
431.387	2395.9
431.763	2422.56
432.138	2447.87
432.514	2522.9
432.89	2540.75
433.265	2600.86
433.641	2623.01
434.016	2625.72
434.392	2644.93
434.767	2738.26
435.143	2741.2
435.518	2771.71
435.894	2785.04
436.269	2857.58
436.644	2845.83
437.02	2944.13
437.395	2934.19
437.77	2963.57
438.145	3000.18
438.52	3056.9
438.895	3091.92
439.271	3086.27
439.646	3163.33
440.021	3184.13
440.395	3192.03
440.77	3177.12
441.145	3209.44
441.52	3271.81
441.895	3279.49
442.27	3310.9
442.645	3328.3
443.019	3358.36
443.394	3401.07
443.769	3417.34
444.143	3391.13
444.518	3467.51
444.892	3488.52
445.267	3502.54
445.641	3542.08
446.016	3568.3
446.39	3640.38
446.764	3574.62
447.139	3624.11
447.513	3657.79
447.887	3673.15
448.262	3703.66
448.636	3720.38
449.01	3794.28
449.384	3828.4
449.758	3849.87
450.132	3889.64
450.506	3936.65
450.88	3937.33
451.254	3923.99
451.628	4041.96
452.002	4090.54
452.376	4126.47
452.75	4181.84
453.123	4228.17
453.497	4294.15
453.871	4348.61
454.244	4401.72
454.618	4427.26
454.992	4485.56
455.365	4489.85
455.739	4603.3
456.112	4635.61
456.486	4643.3
456.859	4724.42
457.232	4847.58
457.606	4815.95
457.979	4854.14
458.352	4974.13
458.725	5130.29
459.099	5089.16
459.472	5202.38
459.845	5217.74
460.218	5262.94
460.591	5342.49
460.964	5393.78
461.337	5532.54
461.71	5555.81
462.083	5699.99
462.456	5677.85
462.829	5717.39
463.201	5786.77
463.574	5798.52
463.947	5966.88
464.32	6030.83
464.692	6107.44
465.065	6147.44
465.438	6237.83
465.81	6326.42
466.183	6427.66
466.555	6532.06
466.928	6563.92
467.3	6569.12
467.672	6767.53
468.045	6891.6
468.417	6869
468.789	6958.72
469.161	7088.2
469.534	7143.34
469.906	7370
470.278	7348.99
470.65	7428.53
471.022	7623.78
471.394	7795.3
471.766	7812.93
472.138	7954.4
472.51	8139.7
472.882	8239.36
473.253	8297.66
473.625	8434.38
473.997	8660.14
474.369	8689.74
474.74	8808.16
475.112	8982.39
475.484	9103.29
475.855	9236.62
476.227	9347.35
476.598	9534.69
476.97	9683.16
477.341	9912.76
477.713	10033.44
478.084	10079.54
478.455	10443.82
478.827	10487.66
479.198	10756.36
479.569	10770.37
479.94	11126.97
480.311	11293.74
480.682	11467.52
481.053	11728.08
481.424	11940.51
481.795	12075.42
482.166	12276.99
482.537	12400.61
482.908	12714.95
483.279	12812.57
483.65	13028.16
484.021	13338.21
484.391	13431.54
484.762	13601.93
485.133	13811.42
485.503	13910.4
485.874	14240.11
486.244	14278.75
486.615	14643.03
486.985	14763.71
487.356	15051.38
487.726	15222.23
488.097	15502.45
488.467	15594.87
488.837	15901.08
489.207	15993.05
489.578	16346.04
489.948	16402.99
490.318	16662.64
490.688	16789.42
491.058	17092.23
491.428	17350.31
491.798	17451.32
492.168	17806.34
492.538	17771.76
492.908	18065.54
493.278	18322.48
493.648	18339.43
494.017	18555.25
494.387	18788.01
494.757	18990.49
495.126	19138.51
495.496	19257.38
495.866	19326.53
496.235	19593.19
496.605	19774.88
496.974	19873.63
497.344	20126.5
497.713	20170.57
498.082	20422.09
498.452	20601.97
498.821	20762.65
499.19	20790.67
499.559	21060.72
499.928	21081.96
500.298	21203.31
500.667	21560.14
501.036	21506.13
501.405	21677.88
501.774	21890.3
502.143	22046.45
502.512	22090.97
502.88	22395.82
503.249	22432.88
503.618	22559.89
503.987	22627.23
504.356	22849.82
504.724	23004.85
505.093	23040.78
505.462	23130.95
505.83	23382.01
506.199	23576.81
506.567	23918.72
506.936	23842.79
507.304	24278.26
507.672	24249.56
508.041	24314.42
508.409	24635.09
508.777	24835.31
509.145	24967.96
509.514	24998.47
509.882	25193.04
510.25	25449.75
510.618	25569.3
510.986	25720.03
511.354	25989.63
511.722	26190.53
512.09	26333.12
512.458	26412.44
512.826	26684.07
513.193	26718.2
513.561	26883.16
513.929	27135.13
514.297	27459.42
514.664	27679.53
515.032	27691.5
515.4	27915.9
515.767	28098.95
516.135	28237.03
516.502	28227.08
516.869	28749.33
517.237	28876.33
517.604	28792.72
517.972	29127.85
518.339	29486.48
518.706	29352.25
519.073	29676.31
519.44	29915.17
519.808	30310.64
520.175	30324.65
520.542	30761.71
520.909	30943.62
521.276	30995.6
521.643	31290.5
522.009	31527.11
522.376	31694.34
522.743	31971.39
523.11	32241.21
523.477	32500.19
523.843	32572.51
524.21	33061.53
524.577	33218.59
524.943	33314.63
525.31	33517.79
525.676	33972.47
526.043	34083.2
526.409	34406.58
526.776	34652
527.142	34827.14
527.508	35197.29
527.874	35494.69
528.241	35370.4
528.607	35604.29
528.973	36141.9
529.339	36026.2
529.705	36370.37
530.071	36601.33
530.437	36866.63
530.803	37041.77
531.169	37200.63
531.535	37333.06
531.901	37557.68
532.267	37565.82
532.632	37884.68
532.998	38053.49
533.364	38308.17
533.73	38293.94
534.095	38635.85
534.461	38790.42
534.826	39009.17
535.192	39043.3
535.557	39327.36
535.923	39395.15
536.288	39573
536.653	39797.4
537.019	39776.38
537.384	39953.1
537.749	40306.99
538.114	40205.07
538.479	40313.54
538.845	40497.95
539.21	40498.62
539.575	40727.77
539.94	40829.69
540.305	41151.71
540.67	41055.22
541.034	41337.02
541.399	41532.95
541.764	41631.02
542.129	41709.67
542.494	41890.23
542.858	41995.76
543.223	42108.3
543.587	42271.69
543.952	42437.56
544.316	42383.32
544.681	42447.95
545.045	42679.13
545.41	42951.44
545.774	43099.91
546.138	43084.09
546.503	43173.13
546.867	43282.51
547.231	43651.31
547.595	43775.15
547.959	43968.36
548.324	43991.41
548.688	44079.32
549.052	44230.73
549.416	44314.8
549.779	44494.45
550.143	44482.93
550.507	44906.87
550.871	44925.63
551.235	44847.44
551.599	45307.99
551.962	45355.67
552.326	45572.16
552.689	45756.79
553.053	45508.89
553.417	45840.86
553.78	46415.98
554.143	46151.81
554.507	46393.38
554.87	46448.75
555.234	47029.07
555.597	46851.9
555.96	46966.02
556.323	47086.25
556.686	47144.78
557.05	47421.61
557.413	47560.81
557.776	47723.97
558.139	48086.22
558.502	48050.97
558.865	48142.72
559.228	48400.11
559.59	48576.38
559.953	48639.2
560.316	48992.64
560.679	49081.45
561.041	49318.73
561.404	49358.73
561.767	49721.66
562.129	49607.31
562.492	49991.48
562.854	49900.64
563.217	49982.22
563.579	50146.96
563.941	50350.79
564.304	50561.86
564.666	50810.67
565.028	50810.22
565.39	51035.75
565.753	51178.34
566.115	51315.29
566.477	51416.08
566.839	51482.52
567.201	51673.25
567.563	51832.34
567.925	51984.65
568.287	51955.95
568.648	52138.32
569.01	52223.74
569.372	52436.39
569.734	52447.01
570.095	52614.69
570.457	52698.53
570.819	52774.46
571.18	52832.54
571.542	53079.08
571.903	53037.05
572.265	53162.02
572.626	53244.28
572.987	53278.18
573.349	53371.28
573.71	53517.27
574.071	53579.18
574.432	53730.14
574.794	53879.97
575.155	53859.63
575.516	53719.52
575.877	53864.15
576.238	54001.77
576.599	54119.51
576.96	54144.37
577.32	54151.6
577.681	54245.61
578.042	54345.49
578.403	54337.81
578.763	54405.38
579.124	54421.42
579.485	54505.04
579.845	54519.5
580.206	54487.41
580.566	54561.76
580.927	54499.39
581.287	54687.18
581.648	54605.82
582.008	54753.16
582.368	54674.97
582.728	54789.1
583.089	54727.63
583.449	54697.35
583.809	54768.98
584.169	54721.75
584.529	54707.52
584.889	54966.04
585.249	54767.85
585.609	54671.81
585.969	54783.45
586.329	54773.96
586.688	54831.58
587.048	54843.56
587.408	54779.83
587.768	54790.9
588.127	54793.84
588.487	54773.73
588.846	55000.16
589.206	54771.7
589.565	54763.79
589.925	54942.31
590.284	54830.45
590.643	54863.22
591.003	54953.16
591.362	55016.43
591.721	54954.97
592.08	55064.57
592.44	54972.59
592.799	54980.5
593.158	54944.35
593.517	54935.76
593.876	55024.8
594.235	54953.61
594.593	54990.67
594.952	55068.18
595.311	54937.11
595.67	55072.7
596.029	55194.28
596.387	55251.46
596.746	55272.93
597.104	55100.27
597.463	55066.38
597.822	55183.44
598.18	55144.57
598.538	55164.91
598.897	55349.31
599.255	55052.59
599.613	55499.81
599.972	55250.55
600.33	55344.79
600.688	55242.87
601.046	55369.65
601.404	55408.74
601.762	55359.7
602.12	55547.04
602.478	55459.81
602.836	55479.02
603.194	55423.2
603.552	55453.49
603.91	55360.61
604.268	55515.86
604.625	55430.21
604.983	55597.44
605.341	55463.43
605.698	55662.07
606.056	55631.33
606.413	55650.77
606.771	55698.68
607.128	55702.97
607.485	55601.96
607.843	55690.32
608.2	55805.11
608.557	55908.16
608.914	55732.8
609.272	55942.51
609.629	55994.04
609.986	56083.07
610.343	55909.74
610.7	56111.77
611.057	56047.59
611.414	55966.24
611.771	56082.85
612.127	56150.64
612.484	56212.34
612.841	56256.4
613.198	56194.48
613.554	56187.25
613.911	56337.76
614.267	56289.17
614.624	56242.39
614.98	56323.07
615.337	56390.64
615.693	56344.31
616.05	56377.53
616.406	56520.12
616.762	56346.34
617.118	56415.04
617.475	56390.18
617.831	56525.32
618.187	56409.84
618.543	56549.05
618.899	56689.61
619.255	56602.61
619.611	56555.15
619.967	56604.42
620.323	56734.81
620.678	56538.88
621.034	56495.49
621.39	56504.76
621.746	56467.92
622.101	56783.17
622.457	56569.16
622.812	56637.18
623.168	56702.27
623.523	56605.09
623.879	56716.73
624.234	56518.77
624.589	56632.21
624.945	56614.81
625.3	56644.41
625.655	56668.59
626.01	56636.73
626.365	56763.73
626.72	56605.55
627.075	56620.01
627.43	56614.58
627.785	56535.94
628.14	56624.53
628.495	56636.51
628.85	56602.61
629.205	56537.98
629.559	56638.31
629.914	56508.37
630.269	56526
630.623	56420.69
630.978	56357.64
631.332	56504.31
631.687	56565.55
632.041	56322.39
632.396	56366.23
632.75	56305.44
633.104	56306.12
633.459	56262.05
633.813	56301.82
634.167	56244.2
634.521	56130.53
634.875	56177.76
635.229	56104.54
635.583	55968.5
635.937	55924.21
636.291	55932.12
636.645	55933.02
636.999	55936.64
637.352	56054.83
637.706	55794.72
638.06	55994.94
638.413	55799.24
638.767	55679.02
639.121	55845.57
639.474	55613.93
639.828	55683.76
640.181	55699.35
640.534	55665.91
640.888	55572.13
641.241	55406.48
641.594	55536.87
641.947	55581.62
642.301	55460.49
642.654	55463.43
643.007	55460.49
643.36	55497.33
643.713	55262.08
644.066	55435.86
644.419	55128.52
644.771	55055.3
645.124	54794.97
645.477	54718.36
645.83	54514.08
646.182	54422.1
646.535	54279.05
646.888	54300.07
647.24	54200.86
647.593	54395.43
647.945	54285.61
648.298	54167.87
648.65	54099.62
649.002	53925.16
649.355	54104.82
649.707	54059.4
650.059	54191.6
650.411	54501.65
650.763	54440.86
651.115	54846.04
651.467	54620.96
651.819	54727.18
652.171	54534.41
652.523	54579.84
652.875	54621.64
653.227	54327.64
653.578	54538.71
653.93	54445.38
654.282	54324.7
654.633	54287.41
654.985	54313.18
655.337	54248.09
655.688	54256
656.039	54386.62
656.391	54216
656.742	54129.23
657.094	54114.76
657.445	54217.59
657.796	54124.71
658.147	54155.21
658.498	54098.72
658.849	54145.72
659.2	54019.17
659.551	53940.3
659.902	54074.99
660.253	53966.74
660.604	54005.84
660.955	53893.3
661.306	54034.99
661.656	53963.13
662.007	53949.8
662.358	53911.15
662.708	53877.93
663.059	53839.97
663.409	53659.18
663.76	53806.98
664.11	53837.03
664.461	53921.32
664.811	53828.67
665.161	53812.4
665.511	53687.88
665.862	53710.71
666.212	53820.76
666.562	53829.12
666.912	53664.38
667.262	53551.61
667.612	53711.16
667.962	53580.31
668.312	53529.69
668.662	53698.73
669.011	53589.81
669.361	53493.31
669.711	53493.54
670.06	53393.65
670.41	53389.36
670.76	53282.47
671.109	53402.92
671.459	53351.17
671.808	53362.69
672.157	53407.66
672.507	53192.08
672.856	53242.47
673.205	53218.06
673.554	53242.24
673.904	53117.28
674.253	53353.65
674.602	53289.93
674.951	52782.37
675.3	52610.85
675.649	53135.13
675.998	53105.52
676.346	53066.2
676.695	53174.45
677.044	52860.11
677.393	53007.67
677.741	53030.27
678.09	52980.1
678.438	52912.31
678.787	52844.74
679.135	52854.68
679.484	52717.74
679.832	52767
680.181	52653.79
680.529	52739.21
680.877	52594.8
681.225	52539.89
681.573	52681.81
681.922	52546.22
682.27	52264.42
682.618	52380.8
682.966	52307.35
683.314	52367.01
683.661	52247.92
684.009	52089.96
684.357	51947.81
684.705	51950.98
685.053	52000.92
685.4	51931.54
685.748	51800.25
686.095	51705.11
686.443	51585.11
686.79	51606.35
687.138	51554.83
687.485	51529.75
687.832	51455.85
688.18	51430.54
688.527	51370.2
688.874	51274.84
689.221	51252.24
689.568	51063.54
689.915	50942.42
690.262	51046.6
690.609	50897.22
690.956	50712.59
691.303	50655.19
691.65	50497.91
691.997	50557.79
692.344	50341.53
692.69	50304.02
693.037	50355.54
693.383	50051.14
693.73	50150.57
694.077	49853.63
694.423	49975.44
694.769	49708.1
695.116	49687.31
695.462	49622.45
695.808	49327.77
696.155	49523.02
696.501	49258.85
696.847	49261.56
697.193	49124.16
697.539	49186.98
697.885	48845.98
698.231	48733.44
698.577	48918.97
698.923	48582.93
699.269	48441.69
699.614	48213
699.96	48187.46
700.306	48230.85
700.651	48048.03
700.997	47923.29
701.342	47823.86
701.688	47862.72
702.033	47628.61
702.379	47686.23
702.724	47525.78
703.069	47554.26
703.415	47073.59
703.76	47145.46
704.105	47197.43
704.45	46944.78
704.795	46683.09
705.14	46581.63
705.485	46598.58
705.83	46495.98
706.175	46508.86
706.52	46428.41
706.865	46211.69
707.209	46088.53
707.554	46086.27
707.899	46081.08
708.243	45883.79
708.588	45812.61
708.932	45481.32
709.277	45567.87
709.621	45650.13
709.966	45209.69
710.31	45267.09
710.654	44924.5
710.998	45070.03
711.342	45160.87
711.687	44925.85
712.031	44836.59
712.375	44597.05
712.719	44631.62
713.063	44602.92
713.407	44675.69
713.75	44324.96
714.094	44487.45
714.438	44221.46
714.782	44239.54
715.125	44061.47
715.469	44049.72
715.812	43895.15
716.156	43641.82
716.499	43731.08
716.843	43618.99
717.186	43391.43
717.53	43741.48
717.873	43602.5
718.216	43445.67
718.559	43264.65
718.902	43025.11
719.246	42987.15
719.589	42955.28
719.932	42773.14
720.275	42833.03
720.617	42890.88
720.96	42753.48
721.303	42717.55
721.646	42620.38
721.989	42397.33
722.331	42477.78
722.674	42351.91
723.016	42364.34
723.359	42159.15
723.701	42242.99
724.044	42026.27
724.386	41867.18
724.729	42055.19
725.071	41894.29
725.413	41762.55
725.755	41786.27
726.097	41599.61
726.439	41282.56
726.782	41417.24
727.124	41578.14
727.465	41414.98
727.807	41193.75
728.149	41190.36
728.491	41019.51
728.833	41240.07
729.175	40977.93
729.516	40845.28
729.858	40804.38
730.199	40828.56
730.541	40848.9
730.882	40736.81
731.224	40843.02
731.565	40431.73
731.906	40565.52
732.248	40516.93
732.589	40380.21
732.93	40244.85
733.271	40213.89
733.612	40237.84
733.953	40211.17
734.294	40096.15
734.635	39848.92
734.976	39982.93
735.317	39739.1
735.658	39741.58
735.999	39784.97
736.339	39579.1
736.68	39678.31
737.021	39510.85
737.361	39434.7
737.702	39530.29
738.042	39433.79
738.383	39283.52
738.723	39270.18
739.063	39097.98
739.404	39208.26
739.744	39016.86
740.084	39110.19
740.424	38956.74
740.764	38902.51
741.104	38914.49
741.444	38817.54
741.784	38705.45
742.124	38629.52
742.464	38665.9
742.804	38530.31
743.143	38480.82
743.483	38479.69
743.823	38270.89
744.162	38140.72
744.502	38211.9
744.841	38072.7
745.181	38360.15
745.52	38154.96
745.86	38089.42
746.199	37975.53
746.538	37935.08
746.877	37873.83
747.216	37875.64
747.556	37715.42
747.895	37640.17
748.234	37524.69
748.573	37540.06
748.911	37485.82
749.25	37338.93
749.589	37185.94
749.928	37224.81
750.267	37242.89
750.605	37113.85
750.944	36928.1
751.283	36917.25
751.621	36964.93
751.96	36698.72
752.298	36763.81
752.636	36659.4
752.975	36566.07
753.313	36452.18
753.651	36530.82
753.989	36274.33
754.327	36213.54
754.666	36095.58
755.004	36155.24
755.342	35971.29
755.679	36067.33
756.017	35834.79
756.355	35920.89
756.693	35643.16
757.031	35715.7
757.368	35557.51
757.706	35476.16
758.044	35169.72
758.381	35263.28
758.719	35096.96
759.056	35192.78
759.394	34863.29
759.731	34762.96
760.068	34738.78
760.405	34585.33
760.743	34489.97
761.08	34432.12
761.417	34385.56
761.754	34301.27
762.091	34179.24
762.428	33967.5
762.765	33828.07
763.102	34066.03
763.438	33758.46
763.775	33628.07
764.112	33563.44
764.449	33550.78
764.785	33440.28
765.122	33282.77
765.458	33010.46
765.795	33057.01
766.131	33087.75
766.467	32870.8
766.804	32737.92
767.14	32611.37
767.476	32544.71
767.812	32379.06
768.148	32428.78
768.485	32143.36
768.821	31984.05
769.157	31965.74
769.492	31917.83
769.828	31884.61
770.164	31629.71
770.5	31573.44
770.836	31424.74
771.171	31270.17
771.507	31120.34
771.842	31029.27
772.178	31076.27
772.513	30982.04
772.849	30790.18
773.184	30684.65
773.519	30681.26
773.855	30453.24
774.19	30318.55
774.525	30243.53
774.86	30126.24
775.195	30041.05
775.53	30030.2
775.865	29928.96
776.2	29673.15
776.535	29492.59
776.87	29534.84
777.205	29276.77
777.539	29297.34
777.874	29279.03
778.209	28920.4
778.543	29092.6
778.878	28795.2
779.212	28681.08
779.547	28547.3
779.881	28702.32
780.215	28390.47
780.55	28308.89
780.884	28182.34
781.218	28246.52
781.552	28145.05
781.886	28005.17
782.22	27788.68
782.554	27755.46
782.888	27585.97
783.222	27413.54
783.556	27349.59
783.889	27262.59
784.223	27036.83
784.557	27036.83
784.89	27173.78
785.224	26871.41
785.557	26777.63
785.891	26669.38
786.224	26656.05
786.558	26584.19
786.891	26372.22
787.224	26352.78
787.557	26275.27
787.891	26113.24
788.224	26090.19
788.557	25944.2
788.89	25928.39
789.223	25865.34
789.556	25601.84
789.888	25636.64
790.221	25506.7
790.554	25243.43
790.887	25350.1
791.219	25201.63
791.552	25171.8
791.884	25008.41
792.217	24959.37
792.549	24932.48
792.882	24639.38
793.214	24555.09
793.546	24625.82
793.879	24465.15
794.211	24456.33
794.543	24438.48
794.875	24257.02
795.207	24398.26
795.539	24199.84
795.871	24193.74
796.203	23935.44
796.535	23852.51
796.867	23827.2
797.198	23671.72
797.53	23685.28
797.862	23555.79
798.193	23576.13
798.525	23376.81
798.856	23425.4
799.188	23210.94
799.519	23162.58
799.85	23038.97
800.182	23091.85
800.513	23088.23
800.844	22741.13
801.175	22951.29
801.506	22915.58
801.837	22620.9
802.168	22765.08
802.499	22637.17
802.83	22432.66
803.161	22381.59
803.491	22424.98
803.822	22345.2
804.153	22198.54
804.483	22044.65
804.814	22035.83
805.145	22090.29
805.475	22019.79
805.805	21800.58
806.136	21960.13
806.466	21749.29
806.796	21750.64
807.126	21581.61
807.457	21576.86
807.787	21522.63
808.117	21535.06
808.447	21392.69
808.777	21484.89
809.107	21308.17
809.436	21132.35
809.766	21201.96
810.096	21191.34
810.426	20952.7
810.755	20987.05
811.085	20964
811.414	20843.55
811.744	20755.19
812.073	20672.93
812.403	20722.2
812.732	20577.34
813.061	20601.97
813.39	20444.01
813.719	20396.33
814.049	20497.57
814.378	20346.61
814.707	20269.78
815.036	20306.39
815.365	20109.1
815.693	19954.31
816.022	19957.92
816.351	19957.7
816.68	19697.36
817.008	19871.37
817.337	19834.53
817.665	19685.84
817.994	19778.04
818.322	19634.09
818.651	19598.61
818.979	19561.77
819.307	19673.41
819.636	19617.14
819.964	19438.16
820.292	19574.43
820.62	19369.46
820.948	19392.06
821.276	19444.71
821.604	19394.77
821.932	19436.13
822.259	19396.81
822.587	19350.48
822.915	19338.05
823.243	19350.71
823.57	19216.47
823.898	19344.6
824.225	19263.7
824.553	19300.31
824.88	19306.19
825.207	19288.56
825.535	19263.7
825.862	19287.43
826.189	19260.54
826.516	19366.98
826.843	19311.38
827.17	19297.6
827.497	19372.4
827.824	19216.92
828.151	19269.8
828.478	19271.16
828.805	19341.21
829.131	19269.58
829.458	19225.96
829.785	19169.02
830.111	19207.88
830.438	19332.63
830.764	19197.26
831.09	19196.36
831.417	19156.13
831.743	19142.58
832.069	19137.83
832.395	19043.37
832.722	19093.99
833.048	19040.88
833.374	19125.18
833.7	18875.46
834.026	18967.44
834.351	19014.44
834.677	19047.44
835.003	19051.96
835.329	18979.42
835.654	18915.92
835.98	18780.78
836.306	18823.04
836.631	18788.91
836.956	18881.11
837.282	18823.94
837.607	18754.56
837.932	18807.67
838.258	18690.61
838.583	18736.71
838.908	18469.83
839.233	18630.05
839.558	18562.7
839.883	18402.26
840.208	18496.72
840.533	18511.86
840.858	18362.48
841.182	18468.7
841.507	18368.58
841.832	18218.31
842.156	18329.72
842.481	18153.22
842.805	18185.09
843.13	18204.97
843.454	18069.84
843.778	18101.02
844.103	17961.82
844.427	17924.75
844.751	17937.86
845.075	17861.71
845.399	17784.65
845.723	17722.95
846.047	17788.04
846.371	17605.22
846.695	17614.71
847.019	17514.14
847.343	17418.55
847.666	17209.52
847.99	17169.07
848.313	17273.02
848.637	17089.97
848.96	17064.21
849.284	16937.44
849.607	16842.52
849.931	16856.99
850.254	16741.96
850.577	16653.15
850.9	16558.46
851.223	16482.98
851.546	16472.59
851.869	16302.2
852.192	16450.22
852.515	16225.82
852.838	16135.65
853.161	16200.05
853.483	16069.89
853.806	15994.64
854.129	16028.76
854.451	15929.78
854.774	15853.62
855.096	15861.31
855.419	15791.03
855.741	15770.91
856.063	15633.29
856.385	15575.21
856.708	15523.69
857.03	15542.22
857.352	15517.81
857.674	15443.01
857.996	15366.86
858.318	15362.11
858.64	15203.24
858.961	15250.02
859.283	15172.96
859.605	15078.28
859.926	15177.48
860.248	15111.5
860.57	15112.63
860.891	15009.13
861.212	14991.5
861.534	14924.16
861.855	14880.77
862.176	14871.05
862.498	15025.4
862.819	14849.58
863.14	14884.61
863.461	14779.3
863.782	14790.83
864.103	14753.99
864.424	14657.5
864.745	14636.48
865.065	14671.05
865.386	14575.01
865.707	14581.79
866.027	14481.46
866.348	14539.76
866.668	14503.15
866.989	14446.2
867.309	14314.45
867.63	14407.56
867.95	14249.15
868.27	14286.66
868.59	14382.25
868.91	14227.22
869.23	14249.15
869.55	14193.33
869.87	14260.67
870.19	14221.8
870.51	14157.85
870.83	14228.13
871.15	14062.26
871.469	14117.17
871.789	14112.65
872.109	14032.2
872.428	14017.74
872.748	14101.13
873.067	14001.02
873.386	13986.33
873.706	13975.03
874.025	13874.24
874.344	13828.37
874.663	13920.57
874.982	13839.44
875.301	13848.25
875.62	13842.15
875.939	13739.78
876.258	13762.15
876.577	13675.83
876.896	13696.17
877.214	13628.14
877.533	13697.75
877.852	13610.29
878.17	13583.63
878.489	13636.51
878.807	13573.46
879.125	13512.44
879.444	13532.1
879.762	13527.36
880.08	13486
880.398	13421.14
880.716	13373.91
881.034	13350.64
881.352	13359.23
881.67	13338.89
881.988	13306.57
882.306	13310.19
882.624	13225.9
882.941	13152.68
883.259	13126.01
883.577	13083.75
883.894	13054.6
884.212	13039.69
884.529	13007.14
884.846	13082.85
885.164	13012.12
885.481	12922.63
885.798	13041.04
886.115	12847.15
886.432	12876.75
886.75	12865.9
887.067	12784.78
887.383	12751.78
887.7	12708.39
888.017	12708.39
888.334	12701.84
888.651	12608.51
888.967	12630.66
889.284	12476.99
889.6	12549.08
889.917	12434.05
890.233	12495.07
890.55	12453.94
890.866	12399.93
891.182	12271.57
891.498	12290.33
891.815	12234.73
892.131	12245.81
892.447	12208.29
892.763	12225.24
893.079	12140.5
893.395	12094.17
893.71	11996.1
894.026	11997.68
894.342	11932.82
894.657	11876.78
894.973	11887.85
895.289	11944.12
895.604	11852.6
895.92	11849.89
896.235	11729.89
896.55	11685.6
896.865	11699.38
897.181	11736.89
897.496	11585.71
897.811	11539.16
898.126	11545.04
898.441	11463.46
898.756	11465.04
899.071	11320.63
899.386	11349.33
899.7	11305.27
900.015	11250.13
900.33	11218.26
900.644	11188.66
900.959	11171.03
901.273	11118.61
901.588	11063.47
901.902	11019.17
902.216	10986.63
902.531	10947.99
902.845	10933.3
903.159	10821.21
903.473	10772.63
903.787	10838.39
904.101	10704.38
904.415	10669.8
904.729	10655.57
905.042	10544.38
905.356	10575.12
905.67	10571.73
905.984	10544.84
906.297	10446.76
906.611	10418.74
906.924	10336.25
907.237	10356.59
907.551	10343.94
907.864	10263.49
908.177	10226.65
908.491	10180.33
908.804	10117.95
909.117	10093.55
909.43	10083.83
909.743	9955.25
910.056	9956.15
910.368	9928.58
910.681	9859.88
910.994	9842.93
911.307	9834.35
911.619	9703.73
911.932	9767.68
912.244	9715.48
912.557	9671.64
912.869	9595.48
913.181	9530.4
913.494	9533.34
913.806	9498.99
914.118	9410.85
914.43	9334.92
914.742	9403.85
915.054	9324.53
915.366	9218.54
915.678	9268.71
915.99	9193.91
916.302	9131.09
916.613	9108.26
916.925	9053.12
917.236	9043.41
917.548	9007.02
917.859	9041.15
918.171	8944.88
918.482	8888.83
918.794	8856.74
919.105	8868.72
919.416	8757.09
919.727	8786.01
920.038	8694.04
920.349	8623.3
920.66	8594.15
920.971	8604.55
921.282	8590.76
921.593	8488.84
921.903	8413.14
922.214	8438.68
922.525	8390.54
922.835	8361.62
923.146	8337.44
923.456	8311.45
923.767	8280.04
924.077	8266.7
924.387	8194.84
924.697	8137.67
925.008	8142.41
925.318	8098.35
925.628	8153.71
925.938	8053.6
926.248	8004.34
926.558	7929.31
926.867	7901.29
927.177	7925.47
927.487	7881.85
927.796	7762.31
928.106	7776.77
928.416	7756.43
928.725	7741.75
929.034	7663.1
929.344	7638.7
929.653	7619.94
929.962	7516.44
930.271	7510.11
930.581	7444.8
930.89	7493.16
931.199	7416.56
931.508	7400.74
931.817	7338.37
932.125	7357.12
932.434	7313.73
932.743	7267.63
933.051	7274.64
933.36	7140.63
933.669	7142.21
933.977	7102.67
934.286	7120.97
934.594	7045.72
934.902	7018.83
935.21	7030.35
935.519	6975.21
935.827	7004.59
936.135	6971.6
936.443	6846.85
936.751	6856.8
937.059	6800.3
937.367	6791.26
937.674	6781.32
937.982	6730.92
938.29	6673.75
938.597	6704.03
938.905	6640.76
939.213	6601.44
939.52	6610.48
939.827	6603.7
940.135	6559.63
940.442	6531.38
940.749	6438.73
941.056	6489.8
941.363	6396.24
941.67	6362.8
941.977	6370.93
942.284	6332.74
942.591	6344.72
942.898	6250.94
943.205	6268.11
943.511	6249.13
943.818	6202.58
944.125	6176.36
944.431	6139.75
944.738	6103.37
945.044	6113.99
945.35	6058.85
945.657	6033.32
945.963	5980.66
946.269	5942.24
946.575	5971.17
946.881	5948.8
947.187	5906.09
947.493	5857.73
947.799	5871.96
948.105	5780.44
948.41	5695.92
948.716	5792.64
949.022	5716.49
949.327	5718.52
949.633	5659.99
949.938	5677.85
950.244	5648.24
950.549	5585.19
950.854	5597.85
951.16	5591.52
951.465	5565.08
951.77	5512.88
952.075	5425.2
952.38	5460.45
952.685	5478.08
952.99	5383.62
953.294	5383.84
953.599	5434.01
953.904	5336.61
954.209	5307.23
954.513	5348.36
954.818	5296.84
955.122	5258.87
955.426	5249.16
955.731	5215.26
956.035	5133.68
956.339	5138.88
956.643	5155.15
956.948	5083.28
957.252	5020.46
957.556	5081.7
957.86	5003.74
958.163	5045.77
958.467	5044.64
958.771	4955.6
959.075	4957.19
959.378	4958.32
959.682	4909.96
959.985	4858.21
960.289	4901.59
960.592	4865.66
960.896	4791.31
961.199	4783.63
961.502	4786.12
961.805	4744.08
962.108	4694.14
962.411	4719.45
962.714	4697.98
963.017	4616.63
963.32	4699.79
963.623	4656.18
963.926	4640.58
964.228	4571.66
964.531	4578.66
964.833	4560.59
965.136	4516.75
965.438	4502.51
965.741	4525.78
966.043	4477.42
966.345	4428.16
966.648	4490.08
966.95	4380.03
967.252	4443.98
967.554	4375.28
967.856	4374.83
968.158	4324.66
968.46	4308.16
968.761	4296.19
969.063	4265.68
969.365	4265.9
969.666	4228.62
969.968	4200.6
970.269	4164.44
970.571	4175.51
970.872	4172.57
971.174	4158.56
971.475	4118.56
971.776	4101.16
972.077	4068.62
972.378	4078.79
972.679	4070.66
972.98	4037.89
973.281	4019.13
973.582	3942.98
973.883	3959.92
974.183	3955.86
974.484	3918.57
974.785	3924.22
975.085	3920.83
975.386	3893.94
975.686	3934.39
975.986	3828.18
976.287	3853.49
976.587	3824.79
976.887	3788.4
977.187	3782.98
977.487	3791.34
977.787	3743.43
978.087	3700.5
978.387	3719.03
978.687	3686.94
978.987	3675.19
979.286	3666.37
979.586	3647.62
979.885	3585.7
980.185	3601.74
980.484	3585.02
980.784	3560.39
981.083	3536.88
981.382	3545.92
981.682	3550.67
981.981	3531.69
982.28	3486.04
982.579	3453.27
982.878	3481.07
983.177	3439.94
983.475	3429.77
983.774	3447.4
984.073	3390.9
984.372	3364.01
984.67	3368.98
984.969	3341.64
985.267	3345.7
985.566	3304.57
985.864	3335.99
986.162	3282.88
986.461	3252.6
986.759	3258.93
987.057	3245.59
987.355	3220.51
987.653	3209.89
987.951	3175.09
988.249	3190.45
988.547	3183.22
988.844	3155.2
989.142	3152.49
989.44	3133.28
989.737	3116.1
990.035	3089.89
990.332	3066.61
990.63	3045.82
990.927	3052.15
991.224	3043.11
991.521	3066.84
991.819	3004.7
992.116	3036.78
992.413	2988.42
992.71	2970.57
993.006	2962.44
993.303	2901.19
993.6	2931.48
993.897	2882.44
994.193	2881.76
994.49	2894.19
994.787	2890.8
995.083	2803.34
995.379	2824.13
995.676	2825.04
995.972	2804.47
996.268	2800.41
996.565	2785.94
996.861	2780.97
997.157	2780.07
997.453	2744.81
997.749	2704.82
998.044	2673.4
998.34	2705.72
998.636	2666.4
998.932	2685.16
999.227	2657.59
999.523	2617.36
999.818	2605.84
1000.114	2601.09
1000.409	2600.86
1000.704	2537.14
1001	2581.2
1001.295	2543.69
1001.59	2533.29
1001.885	2493.3
1002.18	2503.47
1002.475	2489.91
1002.77	2471.38
1003.065	2486.74
1003.359	2482.9
1003.654	2422.34
1003.949	2434.54
1004.243	2412.62
1004.538	2387.54
1004.832	2406.74
1005.127	2378.04
1005.421	2367.65
1005.715	2364.71
1006.009	2319.06
1006.304	2340.31
1006.598	2303.92
1006.892	2269.8
1007.186	2268.67
1007.48	2266.86
1007.773	2256.69
1008.067	2238.61
1008.361	2208.33
1008.655	2179.18
1008.948	2172.4
1009.242	2185.28
1009.535	2135.79
1009.829	2147.32
1010.122	2122.46
1010.415	2135.57
1010.708	2128.33
1011.001	2104.61
1011.295	2079.07
1011.588	2076.81
1011.881	2031.84
1012.173	2042.23
1012.466	2036.13
1012.759	2024.83
1013.052	2018.05
1013.344	1980.32
1013.637	2002.24
1013.93	2004.72
1014.222	1969.47
1014.514	1948
1014.807	1942.12
1015.099	1934.89
1015.391	1925.4
1015.683	1891.28
1015.976	1906.19
1016.268	1899.64
1016.56	1878.17
1016.851	1869.81
1017.143	1854.67
1017.435	1809.7
1017.727	1842.01
1018.018	1809.92
1018.31	1809.92
1018.602	1787.1
1018.893	1769.25
1019.185	1781.22
1019.476	1765.86
1019.767	1735.58
1020.058	1743.49
1020.35	1705.29
1020.641	1691.51
1020.932	1720.89
1021.223	1694.9
1021.514	1681.34
1021.804	1679.76
1022.095	1672.75
1022.386	1624.84
1022.677	1630.49
1022.967	1628.23
1023.258	1615.35
1023.548	1600.89
1023.839	1584.62
1024.129	1566.54
1024.419	1605.64
1024.709	1529.48
1025	1564.28
1025.29	1540.55
1025.58	1530.84
1025.87	1517.95
1026.16	1491.06
1026.449	1484.28
1026.739	1506.2
1027.029	1472.98
1027.319	1457.84
1027.608	1455.13
1027.898	1455.36
1028.187	1409.03
1028.477	1416.26
1028.766	1398.18
1029.055	1379.65
1029.344	1402.93
1029.634	1376.49
1029.923	1378.52
1030.212	1385.3
1030.501	1334
1030.79	1327.9
1031.078	1334.91
1031.367	1311.41
1031.656	1328.58
1031.945	1328.58
1032.233	1313.89
1032.522	1291.75
1032.81	1260.79
1033.099	1274.35
1033.387	1290.62
1033.675	1276.38
1033.963	1232.76
1034.251	1265.31
1034.54	1208.36
1034.828	1205.65
1035.116	1201.8
1035.403	1173.1
1035.691	1193.67
1035.979	1200.22
1036.267	1177.4
1036.554	1205.65
1036.842	1164.52
1037.129	1153.22
1037.417	1150.28
1037.704	1164.07
1037.992	1121.35
1038.279	1146.44
1038.566	1095.14
1038.853	1095.14
1039.14	1095.14
