Data from white_steel_sheet_FLMS001491_044.txt Node
Date: Tue Feb 07 10:57:55 GMT 2017
User: dcchb
Spectrometer: FLMS00149
Trigger mode: 0
Integration Time (sec): 2.000000E-2
Scans to average: 10
Electric dark correction enabled: true
Nonlinearity correction enabled: false
Boxcar width: 0
XAxis mode: Wavelengths
Number of Pixels in Spectrum: 2048
>>>>>Begin Spectral Data<<<<<
341.393	-20.88
341.776	-20.88
342.16	-20.88
342.543	-84.83
342.927	-48.45
343.31	-66.3
343.693	-64.49
344.077	-83.25
344.46	-44.15
344.843	-49.8
345.226	-41.67
345.61	-42.8
345.993	-25.17
346.376	-1.21
346.759	9.18
347.142	32.23
347.525	54.83
347.908	44.43
348.291	65
348.674	93.47
349.057	119.69
349.44	130.53
349.823	147.03
350.206	171.66
350.588	211.66
350.971	221.15
351.354	243.75
351.737	246.24
352.119	239.46
352.502	251.66
352.884	267.03
353.267	290.76
353.65	302.73
354.032	309.06
354.414	295.27
354.797	325.56
355.179	316.29
355.562	334.82
355.944	343.86
356.326	321.71
356.709	342.73
357.091	311.09
357.473	349.96
357.855	337.53
358.238	349.96
358.62	345.67
359.002	346.35
359.384	347.48
359.766	348.15
360.148	342.73
360.53	353.13
360.912	344.09
361.294	334.82
361.676	357.19
362.057	350.64
362.439	323.07
362.821	348.38
363.203	331.43
363.584	320.36
363.966	326.91
364.348	308.38
364.729	323.07
365.111	347.25
365.493	338.21
365.874	319.23
366.256	333.24
366.637	313.13
367.019	328.27
367.4	333.24
367.781	303.86
368.163	331.88
368.544	332.56
368.925	332.79
369.306	344.31
369.688	335.5
370.069	320.36
370.45	315.61
370.831	328.95
371.212	326.46
371.593	327.36
371.974	320.81
372.355	355.84
372.736	329.4
373.117	322.17
373.498	362.84
373.879	333.92
374.26	335.5
374.641	338.44
375.021	322.39
375.402	319.91
375.783	331.21
376.163	336.86
376.544	343.41
376.925	326.91
377.305	331.66
377.686	345.44
378.066	337.31
378.447	344.09
378.827	341.83
379.208	350.41
379.588	348.61
379.968	351.54
380.349	364.2
380.729	353.35
381.109	378.44
381.489	355.16
381.87	355.39
382.25	353.35
382.63	344.54
383.01	374.14
383.39	389.28
383.77	377.98
384.15	394.03
384.53	372.79
384.91	368.27
385.29	375.72
385.67	382.5
386.049	398.77
386.429	384.54
386.809	376.18
387.189	380.92
387.568	395.39
387.948	394.03
388.328	395.16
388.707	387.02
389.087	393.35
389.466	403.29
389.846	405.33
390.225	415.95
390.605	415.95
390.984	419.11
391.363	425.44
391.743	434.03
392.122	435.16
392.501	442.39
392.881	443.97
393.26	436.29
393.639	443.52
394.018	451.65
394.397	448.94
394.776	457.08
395.155	454.14
395.534	456.17
395.913	477.19
396.292	462.5
396.671	462.5
397.05	474.25
397.429	509.51
397.808	493.01
398.186	511.31
398.565	515.61
398.944	517.42
399.323	530.3
399.701	508.83
400.08	524.65
400.458	537.53
400.837	535.27
401.215	566.68
401.594	564.19
401.972	563.74
402.351	540.92
402.729	571.65
403.107	609.62
403.486	598.54
403.864	591.54
404.242	620.69
404.62	624.76
404.999	614.59
405.377	628.37
405.755	653.91
406.133	671.76
406.511	643.97
406.889	692.55
407.267	696.39
407.645	715.38
408.023	705.89
408.401	744.3
408.779	736.17
409.156	754.92
409.534	775.94
409.912	770.97
410.29	801.7
410.667	777.75
411.045	824.53
411.422	824.53
411.8	825.88
412.178	831.98
412.555	845.32
412.933	862.72
413.31	883.06
413.687	893
414.065	883.73
414.442	910.4
414.819	909.95
415.197	916.28
415.574	918.99
415.951	940.91
416.328	942.49
416.705	944.52
417.082	936.84
417.46	990.85
417.837	1010.51
418.214	1019.55
418.591	1008.93
418.967	1019.55
419.344	1024.75
419.721	1043.28
420.098	1036.05
420.475	1071.75
420.852	1072.88
421.228	1080.34
421.605	1091.86
421.982	1140.9
422.358	1117.85
422.735	1134.57
423.111	1146.33
423.488	1155.59
423.864	1154.69
424.241	1200.56
424.617	1193.1
424.994	1172.09
425.37	1214.8
425.746	1240.11
426.123	1245.08
426.499	1233.78
426.875	1274.91
427.251	1306.1
427.627	1296.38
428.003	1305.19
428.379	1336.6
428.756	1342.7
429.132	1385.42
429.507	1391.52
429.883	1388.58
430.259	1448.69
430.635	1431.74
431.011	1442.82
431.387	1477.39
431.763	1544.06
432.138	1494.79
432.514	1520.33
432.89	1518.97
433.265	1579.31
433.641	1603.26
434.016	1603.94
434.392	1637.61
434.767	1676.71
435.143	1664.5
435.518	1658.63
435.894	1713.54
436.269	1753.99
436.644	1742.02
437.02	1761.45
437.395	1747.89
437.77	1798.51
438.145	1841.9
438.52	1832.64
438.895	1856.59
439.271	1857.49
439.646	1912.41
440.021	1927.77
440.395	1957.38
440.77	1930.71
441.145	1940.88
441.52	2002.57
441.895	1965.29
442.27	2008
442.645	2003.03
443.019	2062.91
443.394	2082.12
443.769	2074.66
444.143	2095.91
444.518	2130.03
444.892	2080.99
445.267	2119.18
445.641	2130.71
446.016	2163.47
446.39	2200.08
446.764	2176.36
447.139	2193.98
447.513	2208.9
447.887	2249.12
448.262	2249.12
448.636	2248.9
449.01	2285.73
449.384	2320.31
449.758	2335.22
450.132	2370.25
450.506	2378.84
450.88	2389.91
451.254	2402.56
451.628	2407.99
452.002	2483.24
452.376	2478.49
452.75	2515.1
453.123	2508.32
453.497	2561.88
453.871	2577.7
454.244	2626.06
454.618	2632.16
454.992	2703.57
455.365	2687.98
455.739	2784.25
456.112	2775.44
456.486	2813.4
456.859	2826.73
457.232	2873.51
457.606	2889.56
457.979	2930.01
458.352	2980.63
458.725	3027.86
459.099	3047.97
459.472	3097.01
459.845	3145.82
460.218	3176.1
460.591	3159.15
460.964	3176.33
461.337	3290.45
461.71	3337.91
462.083	3338.81
462.456	3350.56
462.829	3401.18
463.201	3445.47
463.574	3471.91
463.947	3527.73
464.32	3589.43
464.692	3588.3
465.065	3591.69
465.438	3712.81
465.81	3701.74
466.183	3783.09
466.555	3833.94
466.928	3861.96
467.3	3909.42
467.672	3931.79
468.045	3970.43
468.417	4009.98
468.789	4076.42
469.161	4156.42
469.534	4208.17
469.906	4278.45
470.278	4329.52
470.65	4374.04
471.022	4468.05
471.394	4525.45
471.766	4597.08
472.138	4607.7
472.51	4755.27
472.882	4803.18
473.253	4790.07
473.625	4906
473.997	5052.89
474.369	5058.09
474.74	5105.32
475.112	5155.71
475.484	5255.6
475.855	5321.58
476.227	5425.76
476.598	5589.6
476.97	5566.32
477.341	5717.96
477.713	5809.71
478.084	5811.29
478.455	5985.75
478.827	6023.71
479.198	6182.13
479.569	6208.34
479.94	6451.95
480.311	6450.37
480.682	6609.68
481.053	6795.22
481.424	6866.85
481.795	6923.8
482.166	7077.92
482.537	7100.75
482.908	7289.67
483.279	7358.59
483.65	7527.85
484.021	7673.16
484.391	7717.45
484.762	7811.24
485.133	7871.12
485.503	8002.64
485.874	8130.77
486.244	8260.49
486.615	8417.55
486.985	8545.45
487.356	8641.72
487.726	8677.88
488.097	8872.68
488.467	8926.91
488.837	9129.17
489.207	9239.22
489.578	9354.92
489.948	9449.61
490.318	9514.02
490.688	9626.1
491.058	9775.7
491.428	9908.81
491.798	10024.06
492.168	10201
492.538	10246.43
492.908	10363.03
493.278	10477.38
493.648	10573.2
494.017	10690.26
494.387	10800.76
494.757	10943.81
495.126	10905.17
495.496	11066.06
495.866	11046.86
496.235	11215.89
496.605	11322.1
496.974	11436.68
497.344	11455.89
497.713	11588.76
498.082	11699.04
498.452	11787.63
498.821	11892.48
499.19	11904.01
499.559	12054.06
499.928	12139.03
500.298	12267.16
500.667	12409.08
501.036	12396.88
501.405	12495.18
501.774	12541.05
502.143	12641.84
502.512	12679.13
502.88	12835.28
503.249	12882.06
503.618	12950.54
503.987	13103.75
504.356	13146.01
504.724	13174.48
505.093	13352.11
505.462	13413.35
505.83	13570.63
506.199	13644.53
506.567	13825.09
506.936	13820.57
507.304	14052.2
507.672	14094.69
508.041	14100.11
508.409	14266.43
508.777	14397.05
509.145	14367.22
509.514	14503.26
509.882	14590.72
510.25	14641.79
510.618	14801.79
510.986	14874.55
511.354	15033.42
511.722	15165.84
512.09	15318.83
512.458	15309.8
512.826	15449.23
513.193	15551.82
513.561	15601.09
513.929	15727.64
514.297	15858.93
514.664	16005.37
515.032	16012.15
515.4	16263.89
515.767	16265.48
516.135	16449.43
516.502	16357.9
516.869	16764.22
517.237	16846.03
517.604	16833.37
517.972	17046.92
518.339	17175.28
518.706	17134.61
519.073	17325.11
519.44	17459.57
519.808	17681.48
520.175	17673.12
520.542	17907.92
520.909	18011.65
521.276	18062.94
521.643	18266.33
522.009	18441.92
522.376	18633.32
522.743	18694.34
523.11	18809.59
523.477	19036.7
523.843	19190.6
524.21	19355.11
524.577	19601.21
524.943	19543.13
525.31	19699.96
525.676	19799.62
526.043	19997.36
526.409	20080.52
526.776	20360.74
527.142	20424.01
527.508	20568.87
527.874	20863.55
528.241	20796.2
528.607	20822.87
528.973	21051.79
529.339	21177.44
529.705	21426.7
530.071	21532
530.437	21633.24
530.803	21733.58
531.169	21959.79
531.535	21854.48
531.901	22007.02
532.267	22160.69
532.632	22354.58
532.998	22463.51
533.364	22581.92
533.73	22600
534.095	22905.98
534.461	22907.34
534.826	22964.51
535.192	23065.98
535.557	23348.23
535.923	23303.94
536.288	23394.33
536.653	23512.52
537.019	23502.8
537.384	23606.75
537.749	23770.14
538.114	23940.75
538.479	23913.64
538.845	24048.1
539.21	24025.27
539.575	24202.89
539.94	24222.56
540.305	24421.65
540.67	24345.72
541.034	24549.33
541.399	24656.89
541.764	24742.77
542.129	24767.63
542.494	24898.24
542.858	25007.39
543.223	25043.78
543.587	25217.56
543.952	25070.89
544.316	25179.14
544.681	25372.13
545.045	25446.48
545.41	25583.42
545.774	25653.03
546.138	25728.96
546.503	25854.6
546.867	25854.6
547.231	26056.18
547.595	26062.05
547.959	26142.05
548.324	26209.4
548.688	26229.73
549.052	26400.13
549.416	26457.75
549.779	26549.05
550.143	26624.3
550.507	26874.69
550.871	26800.34
551.235	26809.61
551.599	26936.38
551.962	27150.61
552.326	27147.9
552.689	27377.73
553.053	27332.53
553.417	27480.1
553.78	27797.38
554.143	27625.86
554.507	27797.15
554.87	27917.37
555.234	28181.32
555.597	27960.76
555.96	28210.25
556.323	28320.98
556.686	28355.33
557.05	28599.84
557.413	28672.38
557.776	28845.03
558.139	28920.28
558.502	28995.99
558.865	29158.47
559.228	29236.21
559.59	29384.68
559.953	29448.18
560.316	29714.61
560.679	29673.94
561.041	29835.29
561.404	29923.2
561.767	30265.11
562.129	30182.62
562.492	30543.52
562.854	30552.11
563.217	30577.64
563.579	30632.78
563.941	30945.54
564.304	30922.49
564.666	31187.34
565.028	31189.15
565.39	31374.23
565.753	31583.04
566.115	31571.51
566.477	31815.58
566.839	31740.32
567.201	32076.36
567.563	32020.32
567.925	32150.93
568.287	32257.82
568.648	32384.15
569.01	32557.48
569.372	32712.95
569.734	32624.59
570.095	33032.94
570.457	32919.5
570.819	33116.78
571.18	33143.45
571.542	33245.37
571.903	33264.8
572.265	33502.31
572.626	33498.24
572.987	33562.42
573.349	33778.69
573.71	33891.23
574.071	33943.43
574.432	34013.26
574.794	34188.39
575.155	34219.58
575.516	33986.82
575.877	34269.07
576.238	34343.19
576.599	34508.39
576.96	34480.14
577.32	34509.74
577.681	34711.32
578.042	34693.69
578.403	34584.77
578.763	34610.08
579.124	34761.71
579.485	34911.09
579.845	34923.06
580.206	34886.23
580.566	34933.01
580.927	35047.36
581.287	35035.6
581.648	34909.96
582.008	35083.29
582.368	34879.9
582.728	35097.07
583.089	35020.46
583.449	34978.66
583.809	35138.2
584.169	35165.32
584.529	35043.06
584.889	35271.76
585.249	35143.62
585.609	34994.7
585.969	35211.87
586.329	35158.76
586.688	35177.75
587.048	35208.26
587.408	35205.32
587.768	35026.56
588.127	35161.7
588.487	35145.88
588.846	35382.49
589.206	35031.54
589.565	35199.44
589.925	35388.59
590.284	35273.79
590.643	35164.64
591.003	35166.9
591.362	35264.3
591.721	35186.33
592.08	35258.42
592.44	35370.51
592.799	35376.84
593.158	35191.31
593.517	35256.39
593.876	35343.84
594.235	35126
594.593	35305.65
594.952	35257.75
595.311	35225.2
595.67	35240.8
596.029	35440.79
596.387	35621.35
596.746	35605.08
597.104	35459.32
597.463	35276.95
597.822	35524.63
598.18	35284.41
598.538	35232.44
598.897	35577.96
599.255	35350.85
599.613	35692.08
599.972	35485.76
600.33	35575.48
600.688	35507
601.046	35553.1
601.404	35722.14
601.762	35597.62
602.12	35750.61
602.478	35649.15
602.836	35691.86
603.194	35457.29
603.552	35708.58
603.91	35407.8
604.268	35634.46
604.625	35570.96
604.983	35727.79
605.341	35571.41
605.698	35707.9
606.056	35813.21
606.413	35938.18
606.771	35929.82
607.128	35984.96
607.485	35673.1
607.843	35898.18
608.2	35961.91
608.557	36099.98
608.914	35909.93
609.272	36145.63
609.629	36086.42
609.986	36311.28
610.343	36237.38
610.7	36433.53
611.057	36260.2
611.414	36227.89
611.771	36363.03
612.127	36511.5
612.484	36420.43
612.841	36550.37
613.198	36468.79
613.554	36417.04
613.911	36650.7
614.267	36554.66
614.624	36553.98
614.98	36724.37
615.337	36830.36
615.693	36799.4
616.05	36728.89
616.406	36926.63
616.762	36861.77
617.118	36934.76
617.475	36893.41
617.831	36991.03
618.187	37099.05
618.543	37030.81
618.899	37217.92
619.255	37115.78
619.611	37171.82
619.967	37104.93
620.323	37311.02
620.678	37148.54
621.034	37100.18
621.39	37041.43
621.746	37068.32
622.101	37569.1
622.457	37089.11
622.812	37247.75
623.168	37280.74
623.523	37472.83
623.879	37239.16
624.234	37312.83
624.589	37404.58
624.945	37351.48
625.3	37287.75
625.655	37362.55
626.01	37285.49
626.365	37393.73
626.72	37325.49
627.075	37336.33
627.43	37355.32
627.785	37160.07
628.14	37267.64
628.495	37227.64
628.85	37221.31
629.205	37072.16
629.559	37303.12
629.914	37053.18
630.269	37171.14
630.623	37045.72
630.978	36961.2
631.332	37160.97
631.687	37155.55
632.041	37055.21
632.396	37023.57
632.75	36806.41
633.104	36846.63
633.459	36727.09
633.813	36756.01
634.167	36699.74
634.521	36709.91
634.875	36713.3
635.229	36650.25
635.583	36465.85
635.937	36448.67
636.291	36401.44
636.645	36452.52
636.999	36345.85
637.352	36503.81
637.706	36251.17
638.06	36265.18
638.413	36244.61
638.767	36141.56
639.121	36319.64
639.474	36059.98
639.828	36097.95
640.181	36053.66
640.534	36057.5
640.888	35868.12
641.241	35849.82
641.594	35842.81
641.947	35895.47
642.301	35808.24
642.654	35673.33
643.007	35808.92
643.36	35631.52
643.713	35530.05
644.066	35618.64
644.419	35427.01
644.771	35201.48
645.124	34947.47
645.477	34810.53
645.83	34501.38
646.182	34421.84
646.535	34379.35
646.888	34560.59
647.24	34325.11
647.593	34454.38
647.945	34329.18
648.298	34175.97
648.65	34289.41
649.002	34173.48
649.355	34222.29
649.707	34154.72
650.059	34215.51
650.411	34586.12
650.763	34556.07
651.115	35060.24
651.467	34826.12
651.819	34787.25
652.171	34885.1
652.523	34653.92
652.875	34712.22
653.227	34478.1
653.578	34794.48
653.93	34705.9
654.282	34535.96
654.633	34463.64
654.985	34437.43
655.337	34541.38
655.688	34503.87
656.039	34581.6
656.391	34374.15
656.742	34332.35
657.094	34303.87
657.445	34481.27
657.796	34370.54
658.147	34242.18
658.498	34313.14
658.849	34204.67
659.2	34054.16
659.551	34005.12
659.902	34147.49
660.253	34004.44
660.604	33938.91
660.955	33856.88
661.306	33970.1
661.656	33777.56
662.007	33889.65
662.358	33825.01
662.708	33756.77
663.059	33687.62
663.409	33458.02
663.76	33660.05
664.11	33609.88
664.461	33597.9
664.811	33667.5
665.161	33493.72
665.511	33401.3
665.862	33339.83
666.212	33554.29
666.562	33411.01
666.912	33221.19
667.262	33142.77
667.612	32995.43
667.962	33150.68
668.312	32785.27
668.662	32936
669.011	32964.02
669.361	32710.47
669.711	32654.2
670.06	32591.15
670.41	32517.93
670.76	32385.5
671.109	32448.78
671.459	32311.38
671.808	32190.26
672.157	32395.67
672.507	32118.17
672.856	31965.18
673.205	32127.43
673.554	32062.8
673.904	31997.72
674.253	32101.44
674.602	31862.35
674.951	31345.31
675.3	31277.51
675.649	31727.44
675.998	31679.53
676.346	31706.88
676.695	31830.49
677.044	31461.46
677.393	31608.8
677.741	31667.33
678.09	31529.93
678.438	31389.15
678.787	31480.22
679.135	31568.8
679.484	31265.53
679.832	31373.33
680.181	31220.11
680.529	31459.88
680.877	31197.96
681.225	31295.59
681.573	31562.48
681.922	31394.12
682.27	31324.52
682.618	31323.61
682.966	31229.38
683.314	31281.58
683.661	31286.55
684.009	31258.3
684.357	31209.04
684.705	31168.14
685.053	31209.04
685.4	31114.58
685.748	31160
686.095	31162.49
686.443	31143.5
686.79	31065.77
687.138	31165.42
687.485	31053.34
687.832	31105.31
688.18	31162.49
688.527	31011.98
688.874	31027.35
689.221	30969.95
689.568	30901.25
689.915	30875.94
690.262	30949.38
690.609	30826.9
690.956	30889.5
691.303	30938.31
691.65	30735.38
691.997	30715.72
692.344	30648.15
692.69	30637.75
693.037	30662.16
693.383	30417.19
693.73	30535.16
694.077	30327.71
694.423	30352.34
694.769	30416.97
695.116	30353.69
695.462	30375.39
695.808	30249.29
696.155	30261.94
696.501	30087.03
696.847	30119.8
697.193	29858.11
697.539	30172.68
697.885	29740.83
698.231	29650.44
698.577	29813.82
698.923	29783.76
699.269	29627.84
699.614	29472.81
699.96	29475.75
700.306	29501.51
700.651	29306.04
700.997	29250.67
701.342	29095.65
701.688	29116.89
702.033	29053.39
702.379	28990.11
702.724	28944.01
703.069	28956.44
703.415	28800.97
703.76	28689.78
704.105	28792.38
704.45	28616.34
704.795	28487.53
705.14	28207.31
705.485	28401.2
705.83	28305.84
706.175	28177.71
706.52	28213.41
706.865	28111.72
707.209	28111.94
707.554	28012.96
707.899	28069.46
708.243	27709.47
708.588	27739.3
708.932	27671.5
709.277	27618.4
709.621	27597.61
709.966	27562.35
710.31	27537.04
710.654	27473.32
710.998	27416.37
711.342	27356.26
711.687	27269.25
712.031	27063.84
712.375	26963.05
712.719	27111.74
713.063	26960.56
713.407	27062.71
713.75	26938.19
714.094	26946.78
714.438	26889.38
714.782	26879.89
715.125	26645.32
715.469	26761.47
715.812	26524.19
716.156	26494.81
716.499	26511.53
716.843	26462.27
717.186	26348.83
717.53	26427.02
717.873	26367.58
718.216	26364.42
718.559	26096.4
718.902	26004.2
719.246	26006.24
719.589	25973.92
719.932	25794.49
720.275	25910.42
720.617	25787.03
720.96	25710.2
721.303	25741.16
721.646	25868.39
721.989	25664.55
722.331	25681.95
722.674	25554.95
723.016	25583.42
723.359	25601.95
723.701	25654.38
724.044	25443.77
724.386	25349.31
724.729	25485.35
725.071	25233.15
725.413	25318.8
725.755	25291.23
726.097	25161.06
726.439	25123.77
726.782	25037.22
727.124	25206.48
727.465	24995.87
727.807	25008.52
728.149	24847.4
728.491	24899.37
728.833	24863.22
729.175	24822.31
729.516	24873.39
729.858	24728.3
730.199	24750.68
730.541	24668.42
730.882	24647.85
731.224	24635.2
731.565	24560.63
731.906	24599.04
732.248	24493.28
732.589	24367.18
732.93	24362.89
733.271	24430.23
733.612	24372.38
733.953	24333.06
734.294	24242.44
734.635	24123.35
734.976	24214.87
735.317	24136.46
735.658	24082.67
735.999	24092.16
736.339	24056.91
736.68	23972.84
737.021	23905.95
737.361	23770.36
737.702	23836.35
738.042	23857.14
738.383	23820.31
738.723	23777.6
739.063	23660.08
739.404	23709.12
739.744	23688.78
740.084	23607.88
740.424	23632.51
740.764	23580.09
741.104	23636.13
741.444	23470.48
741.784	23336.02
742.124	23467.32
742.464	23425.06
742.804	23357.72
743.143	23267.55
743.483	23242.02
743.823	23206.99
744.162	23193.43
744.502	23222.81
744.841	23119.31
745.181	23146.88
745.52	22994.56
745.86	23032.3
746.199	22903.27
746.538	22978.75
746.877	22890.61
747.216	22930.16
747.556	22839.77
747.895	22811.74
748.234	22752.99
748.573	22693.33
748.911	22702.82
749.25	22704.4
749.589	22547.34
749.928	22553.67
750.267	22549.38
750.605	22366.33
750.944	22502.83
751.283	22306
751.621	22362.27
751.96	22269.84
752.298	22223.06
752.636	22261.02
752.975	22060.35
753.313	22058.32
753.651	22173.8
753.989	21897.19
754.327	21953.01
754.666	21833.69
755.004	21885.22
755.342	21849.96
755.679	21803.18
756.017	21719.12
756.355	21711.89
756.693	21571.1
757.031	21546.02
757.368	21468.73
757.706	21552.34
758.044	21407.49
758.381	21388.96
758.719	21241.16
759.056	21193.93
759.394	21163.43
759.731	21030.55
760.068	21074.62
760.405	20916.2
760.743	20824
761.08	20883.89
761.417	20824.68
761.754	20700.84
762.091	20683.44
762.428	20662.2
762.765	20542.65
763.102	20592.59
763.438	20435.76
763.775	20323.67
764.112	20323.22
764.449	20215.88
764.785	20175.66
765.122	19995.55
765.458	19937.7
765.795	19988.77
766.131	19995.55
766.467	19922.78
766.804	19694.31
767.14	19719.17
767.476	19632.39
767.812	19631.04
768.148	19556.01
768.485	19548.33
768.821	19340.2
769.157	19406.64
769.492	19332.51
769.828	19243.93
770.164	19118.06
770.5	19105.4
770.836	19150.15
771.171	18909.02
771.507	18952.19
771.842	18760.78
772.178	18761.23
772.513	18645.75
772.849	18613.44
773.184	18542.03
773.519	18476.27
773.855	18414.35
774.19	18326.89
774.525	18349.49
774.86	18277.17
775.195	18187.91
775.53	18178.42
775.865	18054.13
776.2	17900.69
776.535	17779.11
776.87	17819.79
777.205	17715.61
777.539	17678.32
777.874	17760.13
778.209	17611.88
778.543	17510.64
778.878	17462.51
779.212	17440.13
779.547	17369.4
779.881	17307.93
780.215	17133.48
780.55	17167.37
780.884	17065.68
781.218	17052.35
781.552	16963.09
781.886	16861.17
782.22	16685.35
782.554	16803.77
782.888	16595.86
783.222	16443.55
783.556	16559.71
783.889	16511.35
784.223	16279.49
784.557	16313.38
784.89	16381.41
785.224	16225.03
785.557	16150.68
785.891	16070
786.224	16188.19
786.558	16006.73
786.891	15880.4
787.224	15744.59
787.557	15782.33
787.891	15797.47
788.224	15730.12
788.557	15712.72
788.89	15642.44
789.223	15608.32
789.556	15488.32
789.888	15397.25
790.221	15398.38
790.554	15297.59
790.887	15256.46
791.219	15235.67
791.552	15202.23
791.884	15117.26
792.217	15065.51
792.549	14957.49
792.882	14924.27
793.214	14816.25
793.546	14953.87
793.879	14734.67
794.211	14675.01
794.543	14698.06
794.875	14745.97
795.207	14714.33
795.539	14563.6
795.871	14592.07
796.203	14423.94
796.535	14382.59
796.867	14406.99
797.198	14314.34
797.53	14221.69
797.862	14178.53
798.193	14247.45
798.525	14134.23
798.856	14087.68
799.188	14003.16
799.519	13890.85
799.85	13888.59
800.182	13926.78
800.513	13841.13
800.844	13749.16
801.175	13851.08
801.506	13869.61
801.837	13713
802.168	13684.08
802.499	13573.8
802.83	13575.83
803.161	13584.87
803.491	13521.59
803.822	13485.89
804.153	13428.04
804.483	13334.48
804.814	13260.58
805.145	13215.61
805.475	13197.31
805.805	13102.62
806.136	13251.54
806.466	13193.92
806.796	13139.68
807.126	13005.45
807.457	13035.05
807.787	13101.94
808.117	12910.08
808.447	12948.5
808.777	12887.26
809.107	12836.64
809.436	12835.06
809.766	12797.09
810.096	12639.36
810.426	12566.59
810.755	12599.13
811.085	12645.46
811.414	12626.02
811.744	12505.8
812.073	12492.02
812.403	12477.78
812.732	12386.26
813.061	12447.27
813.39	12347.84
813.719	12374.51
814.049	12435.75
814.378	12379.93
814.707	12290.89
815.036	12245.69
815.365	12196.66
815.693	12122.76
816.022	12122.08
816.351	12049.99
816.68	11944.01
817.008	12075.3
817.337	11889.55
817.665	11856.78
817.994	11919.15
818.322	11903.56
818.651	11760.74
818.979	11842.09
819.307	11746.73
819.636	11804.8
819.964	11693.39
820.292	11778.14
820.62	11750.79
820.948	11696.33
821.276	11710.12
821.604	11648.87
821.932	11705.37
822.259	11624.24
822.587	11648.2
822.915	11616.33
823.243	11660.85
823.57	11604.36
823.898	11676.22
824.225	11529.33
824.553	11601.87
824.88	11567.97
825.207	11569.1
825.535	11601.42
825.862	11588.99
826.189	11597.58
826.516	11598.71
826.843	11633.28
827.17	11569.78
827.497	11685.26
827.824	11663.11
828.151	11659.5
828.478	11598.93
828.805	11586.28
829.131	11572.04
829.458	11518.71
829.785	11461.53
830.111	11522.32
830.438	11651.59
830.764	11575.2
831.09	11539.72
831.417	11489.33
831.743	11533.4
832.069	11578.14
832.395	11419.28
832.722	11448.2
833.048	11459.27
833.374	11510.57
833.7	11451.37
834.026	11437.81
834.351	11382.89
834.677	11433.96
835.003	11429.22
835.329	11457.47
835.654	11436
835.98	11354.64
836.306	11419.5
836.631	11297.47
836.956	11301.76
837.282	11369.56
837.607	11279.62
837.932	11267.64
838.258	11221.09
838.583	11316.68
838.908	11250.01
839.233	11160.75
839.558	11237.13
839.883	11196.23
840.208	11077.14
840.533	11102
840.858	11085.73
841.182	11156.91
841.507	11056.12
841.832	11022.22
842.156	11008.89
842.481	11011.15
842.805	10970.7
843.13	10896.8
843.454	10899.06
843.778	10904.71
844.103	10856.58
844.427	10815.68
844.751	10858.61
845.075	10775
845.399	10741.55
845.723	10660.88
846.047	10705.62
846.371	10589.69
846.695	10612.97
847.019	10485.52
847.343	10484.61
847.666	10452.07
847.99	10398.06
848.313	10418.85
848.637	10336.59
848.96	10274.22
849.284	10294.56
849.607	10168.46
849.931	10221.12
850.254	10075.13
850.577	10015.47
850.9	10019.09
851.223	9938.19
851.546	9963.72
851.869	9839.2
852.192	9892.76
852.515	9853.22
852.838	9793.33
853.161	9760.79
853.483	9727.12
853.806	9650.28
854.129	9700.45
854.451	9654.12
854.774	9584.75
855.096	9529.38
855.419	9474.24
855.741	9526.67
856.063	9471.76
856.385	9421.59
856.708	9443.28
857.03	9363.96
857.352	9400.57
857.674	9312.89
857.996	9318.09
858.318	9317.18
858.64	9333.23
858.961	9219.56
859.283	9223.4
859.605	9123.97
859.926	9204.87
860.248	9160.8
860.57	9150.86
860.891	9117.64
861.212	9011.88
861.534	9086.91
861.855	8988.61
862.176	8979.34
862.498	9070.86
862.819	8995.61
863.14	8969.85
863.461	8909.29
863.782	8925.56
864.103	8893.92
864.424	8824.77
864.745	8860.47
865.065	8805.79
865.386	8789.06
865.707	8823.19
866.027	8809.63
866.348	8731.21
866.668	8725.56
866.989	8739.35
867.309	8724.43
867.63	8727.6
867.95	8677.65
868.27	8590.65
868.59	8695.05
868.91	8627.26
869.23	8629.29
869.55	8541.39
869.87	8620.03
870.19	8540.71
870.51	8624.1
870.83	8602.63
871.15	8530.76
871.469	8550.65
871.789	8538
872.109	8532.12
872.428	8476.53
872.748	8429.3
873.067	8468.17
873.386	8495.51
873.706	8453.93
874.025	8354.72
874.344	8329.64
874.663	8450.54
874.982	8336.65
875.301	8379.36
875.62	8358.57
875.939	8340.71
876.258	8325.8
876.577	8291.22
876.896	8293.03
877.214	8274.05
877.533	8300.26
877.852	8206.93
878.17	8221.17
878.489	8287.83
878.807	8280.38
879.125	8241.05
879.444	8185.46
879.762	8112.92
880.08	8208.29
880.398	8190.43
880.716	8206.93
881.034	8127.16
881.352	8033.15
881.67	8050.1
881.988	8038.57
882.306	7976.65
882.624	7971.01
882.941	7991.57
883.259	7911.35
883.577	7957.67
883.894	7919.93
884.212	7926.71
884.529	7866.38
884.846	7872.02
885.164	7878.13
885.481	7817.34
885.798	7803.78
886.115	7733.5
886.432	7770.33
886.75	7740.95
887.067	7749.09
887.383	7735.76
887.7	7719.49
888.017	7702.99
888.334	7584.35
888.651	7624.57
888.967	7629.09
889.284	7599.72
889.6	7593.84
889.917	7515.65
890.233	7522.2
890.55	7535.31
890.866	7473.39
891.182	7466.39
891.498	7379.16
891.815	7359.72
892.131	7350.91
892.447	7365.82
892.763	7358.82
893.079	7239.95
893.395	7364.69
893.71	7303.68
894.026	7258.26
894.342	7194.53
894.657	7179.16
894.973	7187.07
895.289	7218.26
895.604	7223.68
895.92	7176.45
896.235	7046.51
896.55	7130.12
896.865	7077.24
897.181	7045.83
897.496	7077.47
897.811	6941.43
898.126	6986.62
898.441	6923.8
898.756	6938.72
899.071	6840.19
899.386	6904.37
899.7	6788.44
900.015	6811.26
900.33	6787.76
900.644	6751.83
900.959	6768.32
901.273	6735.78
901.588	6733.07
901.902	6677.93
902.216	6619.63
902.531	6645.84
902.845	6636.35
903.159	6559.29
903.473	6521.78
903.787	6536.01
904.101	6528.78
904.415	6504.38
904.729	6505.28
905.042	6422.8
905.356	6389.35
905.67	6356.81
905.984	6379.86
906.297	6319.75
906.611	6352.97
906.924	6315.68
907.237	6298.05
907.551	6249.24
907.864	6220.32
908.177	6197.27
908.491	6194.33
908.804	6202.24
909.117	6108.23
909.43	6073.88
909.743	6066.65
910.056	6060.09
910.368	6003.6
910.681	5974.45
910.994	5993.2
911.307	5935.35
911.619	5959.08
911.932	5924.96
912.244	5871.63
912.557	5878.86
912.869	5829.82
913.181	5810.38
913.494	5773.1
913.806	5818.07
914.118	5765.19
914.43	5711.63
914.742	5693.32
915.054	5690.61
915.366	5655.59
915.678	5633.21
915.99	5626.43
916.302	5568.81
916.613	5610.62
916.925	5557.06
917.236	5573.33
917.548	5484.52
917.859	5522.03
918.171	5495.82
918.482	5478.19
918.794	5383.73
919.105	5420.79
919.416	5304.86
919.727	5364.52
920.038	5331.07
920.349	5275.26
920.66	5290.17
920.971	5312.77
921.282	5264.41
921.593	5154.58
921.903	5185.77
922.214	5172.21
922.525	5133.34
922.835	5132.44
923.146	5072.32
923.456	5068.26
923.767	5062.61
924.077	5031.2
924.387	5039.78
924.697	4971.31
925.008	4965.43
925.318	4938.99
925.628	4976.51
925.938	4948.49
926.248	4910.29
926.558	4893.57
926.867	4874.14
927.177	4838.88
927.487	4838.88
927.796	4748.94
928.106	4727.93
928.416	4792.11
928.725	4735.16
929.034	4725.67
929.344	4700.36
929.653	4694.93
929.962	4625.78
930.271	4604.99
930.581	4593.92
930.89	4573.35
931.199	4582.39
931.508	4540.81
931.817	4532.9
932.125	4530.42
932.434	4538.78
932.743	4426.69
933.051	4417.2
933.36	4401.38
933.669	4394.15
933.977	4405.22
934.286	4350.54
934.594	4326.13
934.902	4333.59
935.21	4295.62
935.519	4276.19
935.827	4289.97
936.135	4290.42
936.443	4217.66
936.751	4234.38
937.059	4216.3
937.367	4185.79
937.674	4137.66
937.982	4202.29
938.29	4151.44
938.597	4132.46
938.905	4064.89
939.213	4082.75
939.52	4044.1
939.827	4039.81
940.135	4054.05
940.442	4002.97
940.749	4004.1
941.056	4015.4
941.363	3957.55
941.67	3924.56
941.977	3956.65
942.284	3861.73
942.591	3909.64
942.898	3889.76
943.205	3887.5
943.511	3848.85
943.818	3876.42
944.125	3834.62
944.431	3843.88
944.738	3795.07
945.044	3747.61
945.35	3763.21
945.657	3728.63
945.963	3762.53
946.269	3713.04
946.575	3700.83
946.881	3665.13
947.187	3688.86
947.493	3657.22
947.799	3641.63
948.105	3610.44
948.41	3606.6
948.716	3607.5
949.022	3525.7
949.327	3565.47
949.633	3509.43
949.938	3499.03
950.244	3485.25
950.549	3492.48
950.854	3471.46
951.16	3454.74
951.465	3439.82
951.77	3446.83
952.075	3415.64
952.38	3400.5
952.685	3415.42
952.99	3381.97
953.294	3368.19
953.599	3327.51
953.904	3315.76
954.209	3292.26
954.513	3293.84
954.818	3272.82
955.122	3233.73
955.426	3234.41
955.731	3240.28
956.035	3264.91
956.339	3177.68
956.643	3227.4
956.948	3153.05
957.252	3172.94
957.556	3150.57
957.86	3157.57
958.163	3129.1
958.467	3123.22
958.771	3115.99
959.075	3085.03
959.378	3061.3
959.682	3062.21
959.985	3052.26
960.289	3033.28
960.592	3026.5
960.896	2997.8
961.199	2992.6
961.502	3000.97
961.805	2991.25
962.108	2978.14
962.411	2949.89
962.714	2909.22
963.017	2915.32
963.32	2933.85
963.623	2905.38
963.926	2904.92
964.228	2859.05
964.531	2901.08
964.833	2848.2
965.136	2807.3
965.438	2828.77
965.741	2798.71
966.043	2797.13
966.345	2814.3
966.648	2797.81
966.95	2767.3
967.252	2763.23
967.554	2712.39
967.856	2686.85
968.158	2669
968.46	2711.93
968.761	2719.39
969.063	2677.81
969.365	2614.31
969.666	2645.72
969.968	2659.05
970.269	2592.62
970.571	2653.4
970.872	2641.88
971.174	2625.61
971.475	2605.72
971.776	2604.37
972.077	2591.94
972.378	2563.69
972.679	2576.8
972.98	2519.62
973.281	2539.96
973.582	2536.8
973.883	2482.56
974.183	2490.25
974.484	2489.79
974.785	2500.87
975.085	2488.89
975.386	2476.69
975.686	2429
975.986	2395.78
976.287	2409.34
976.587	2367.54
976.887	2374.09
977.187	2404.37
977.487	2420.19
977.787	2358.72
978.087	2351.72
978.387	2367.31
978.687	2318.27
978.987	2316.24
979.286	2310.81
979.586	2319.85
979.885	2328.22
980.185	2277.6
980.484	2266.52
980.784	2269.23
981.083	2281.89
981.382	2240.08
981.682	2274.21
981.981	2217.71
982.28	2223.59
982.579	2227.65
982.878	2193.3
983.177	2199.63
983.475	2215.9
983.774	2174.77
984.073	2154.21
984.372	2125.96
984.67	2155.56
984.969	2132.74
985.267	2132.97
985.566	2142.01
985.864	2091.16
986.162	2095.45
986.461	2096.36
986.759	2107.2
987.057	2083.93
987.355	2068.79
987.653	2052.06
987.951	2051.16
988.249	2045.96
988.547	2041.44
988.844	2048.45
989.142	2012.07
989.44	1994.89
989.737	1992.18
990.035	1989.02
990.332	1930.71
990.63	1936.81
990.927	1928.45
991.224	1963.48
991.521	1936.36
991.819	1932.29
992.116	1919.86
992.413	1926.19
992.71	1914.44
993.006	1895.46
993.303	1887.1
993.6	1882.58
993.897	1877.83
994.193	1869.7
994.49	1874.89
994.787	1826.99
995.083	1838.28
995.379	1828.12
995.676	1800.09
995.972	1804.61
996.268	1818.4
996.565	1767.1
996.861	1806.87
997.157	1803.48
997.453	1738.63
997.749	1749.25
998.044	1720.1
998.34	1763.26
998.636	1723.03
998.932	1705.86
999.227	1699.98
999.523	1702.02
999.818	1707.21
1000.114	1680.55
1000.409	1676.71
1000.704	1665.18
1001	1663.6
1001.295	1656.59
1001.59	1662.47
1001.885	1636.71
1002.18	1632.19
1002.475	1611.4
1002.77	1642.58
1003.065	1578.63
1003.359	1608.01
1003.654	1596.26
1003.949	1578.18
1004.243	1571.17
1004.538	1557.61
1004.832	1553.09
1005.127	1519.88
1005.421	1542.25
1005.715	1523.49
1006.009	1529.14
1006.304	1509.48
1006.598	1506.32
1006.892	1481.46
1007.186	1504.06
1007.48	1492.53
1007.773	1489.82
1008.067	1498.63
1008.361	1436.94
1008.655	1474.23
1008.948	1452.98
1009.242	1436.26
1009.535	1431.52
1009.829	1420.67
1010.122	1409.82
1010.415	1406.43
1010.708	1416.6
1011.001	1385.87
1011.295	1382.25
1011.588	1368.69
1011.881	1352.2
1012.173	1390.39
1012.466	1362.37
1012.759	1344.74
1013.052	1324.63
1013.344	1328.47
1013.637	1311.97
1013.93	1323.04
1014.222	1296.38
1014.514	1302.03
1014.807	1293.44
1015.099	1283.72
1015.391	1283.5
1015.683	1283.27
1015.976	1268.81
1016.268	1258.41
1016.56	1246.21
1016.851	1224.97
1017.143	1204.4
1017.435	1216.61
1017.727	1194.23
1018.018	1209.83
1018.31	1224.06
1018.602	1207.12
1018.893	1181.81
1019.185	1195.59
1019.476	1207.34
1019.767	1157.85
1020.058	1161.69
1020.35	1141.81
1020.641	1153.33
1020.932	1156.5
1021.223	1163.05
1021.514	1133.9
1021.804	1096.84
1022.095	1117.85
1022.386	1104.97
1022.677	1082.15
1022.967	1090.96
1023.258	1111.75
1023.548	1096.16
1023.839	1068.14
1024.129	1069.27
1024.419	1066.55
1024.709	1076.72
1025	1064.07
1025.29	1036.72
1025.58	1024.52
1025.87	1027.91
1026.16	1048.48
1026.449	1021.36
1026.739	994.24
1027.029	991.08
1027.319	1003.96
1027.608	976.16
1027.898	979.32
1028.187	995.14
1028.477	969.83
1028.766	976.16
1029.055	941.59
1029.344	978.19
1029.634	951.3
1029.923	966.22
1030.212	947.01
1030.501	922.38
1030.79	923.96
1031.078	920.57
1031.367	944.3
1031.656	908.82
1031.945	907.24
1032.233	898.42
1032.522	897.97
1032.81	873.56
1033.099	879.21
1033.387	882.6
1033.675	885.09
1033.963	880.34
1034.251	871.3
1034.54	866.11
1034.828	872.21
1035.116	845.54
1035.403	867.01
1035.691	824.98
1035.979	817.52
1036.267	812.32
1036.554	825.2
1036.842	802.15
1037.129	828.14
1037.417	798.31
1037.704	802.83
1037.992	794.7
1038.279	771.65
1038.566	785.21
1038.853	785.21
1039.14	785.21
