Data from white_poster_card_FLMS001491_00034.txt Node
Date: Wed Feb 08 11:51:25 GMT 2017
User: dcchb
Spectrometer: FLMS00149
Trigger mode: 0
Integration Time (sec): 2.000000E-2
Scans to average: 10
Electric dark correction enabled: true
Nonlinearity correction enabled: false
Boxcar width: 0
XAxis mode: Wavelengths
Number of Pixels in Spectrum: 2048
>>>>>Begin Spectral Data<<<<<
341.393	-20.27
341.776	-20.27
342.16	-20.27
342.543	-63.43
342.927	-51.68
343.31	-75.41
343.693	-70.89
344.077	-67.72
344.46	-69.76
344.843	-35.18
345.226	-53.94
345.61	-32.47
345.993	-11.91
346.376	4.14
346.759	12.73
347.142	19.05
347.525	56.11
347.908	37.81
348.291	73.52
348.674	112.16
349.057	101.76
349.44	140.41
349.823	163
350.206	154.87
350.588	220.4
350.971	222.21
351.354	242.55
351.737	239.61
352.119	224.02
352.502	271.93
352.884	282.32
353.267	293.85
353.65	271.93
354.032	290.46
354.414	295.43
354.797	305.83
355.179	333.62
355.562	339.72
355.944	347.18
356.326	315.32
356.709	319.84
357.091	361.64
357.473	373.62
357.855	360.74
358.238	350.57
358.62	360.51
359.002	347.18
359.384	326.84
359.766	349.89
360.148	347.41
360.53	341.3
360.912	337.69
361.294	336.11
361.676	337.01
362.057	325.49
362.439	309.22
362.821	318.03
363.203	353.06
363.584	334.3
363.966	356.22
364.348	341.08
364.729	312.6
365.111	326.84
365.493	343.56
365.874	335.43
366.256	332.04
366.637	314.41
367.019	326.84
367.4	310.12
367.781	326.62
368.163	336.11
368.544	307.63
368.925	327.75
369.306	321.42
369.688	310.12
370.069	307.63
370.45	327.29
370.831	304.92
371.212	314.64
371.593	311.02
371.974	319.38
372.355	297.24
372.736	322.55
373.117	320.97
373.498	306.5
373.879	306.28
374.26	332.94
374.641	326.62
375.021	312.6
375.402	307.41
375.783	341.53
376.163	318.71
376.544	335.66
376.925	310.8
377.305	331.59
377.686	335.2
378.066	329.78
378.447	321.19
378.827	331.36
379.208	338.37
379.588	336.11
379.968	310.12
380.349	357.58
380.729	330.68
381.109	355.09
381.489	324.36
381.87	347.41
382.25	359.38
382.63	343.79
383.01	359.16
383.39	324.13
383.77	358.71
384.15	371.59
384.53	365.03
384.91	364.58
385.29	373.85
385.67	348.31
386.049	360.29
386.429	373.39
386.809	366.16
387.189	373.17
387.568	353.06
387.948	364.35
388.328	372.94
388.707	352.83
389.087	378.82
389.466	380.85
389.846	359.61
390.225	386.5
390.605	377.24
390.984	389.66
391.363	381.98
391.743	377.91
392.122	380.63
392.501	372.26
392.881	392.6
393.26	412.72
393.639	403.68
394.018	396.44
394.397	426.5
394.776	426.27
395.155	420.17
395.534	434.18
395.913	406.39
396.292	413.62
396.671	421.53
397.05	414.75
397.429	410.91
397.808	435.99
398.186	404.58
398.565	438.93
398.944	430.79
399.323	428.76
399.701	429.89
400.08	426.95
400.458	478.25
400.837	448.19
401.215	452.26
401.594	457.01
401.972	464.92
402.351	459.49
402.729	466.27
403.107	485.03
403.486	489.78
403.864	473.73
404.242	496.33
404.62	487.97
404.999	472.83
405.377	483
405.755	494.97
406.133	513.96
406.511	508.31
406.889	534.29
407.267	512.83
407.645	513.73
408.023	550.11
408.401	565.71
408.779	538.59
409.156	562.09
409.534	560.51
409.912	590.34
410.29	578.59
410.667	611.13
411.045	582.43
411.422	598.7
411.8	614.74
412.178	646.61
412.555	641.86
412.933	654.97
413.31	653.61
413.687	675.53
414.065	693.61
414.442	711.46
414.819	702.43
415.197	723.22
415.574	744.23
415.951	755.3
416.328	758.47
416.705	761.63
417.082	772.93
417.46	825.13
417.837	830.56
418.214	845.92
418.591	864.91
418.967	860.61
419.344	860.84
419.721	889.76
420.098	900.84
420.475	918.01
420.852	938.13
421.228	951.46
421.605	925.47
421.982	983.77
422.358	981.97
422.735	1009.31
423.111	1002.76
423.488	1023.55
423.864	1061.51
424.241	1046.37
424.617	1066.71
424.994	1049.76
425.37	1125.46
425.746	1110.32
426.123	1139.7
426.499	1122.53
426.875	1142.64
427.251	1188.97
427.627	1195.07
428.003	1211.79
428.379	1207.27
428.756	1214.73
429.132	1243.88
429.507	1247.95
429.883	1280.26
430.259	1327.04
430.635	1336.76
431.011	1342.63
431.387	1359.13
431.763	1391.22
432.138	1400.94
432.514	1431.22
432.89	1441.16
433.265	1455.85
433.641	1480.26
434.016	1527.94
434.392	1546.24
434.767	1563.19
435.143	1539.69
435.518	1586.02
435.894	1607.49
436.269	1627.6
436.644	1654.04
437.02	1653.13
437.395	1691.33
437.77	1693.59
438.145	1709.4
438.52	1730.65
438.895	1733.13
439.271	1779.01
439.646	1777.65
440.021	1802.74
440.395	1808.84
440.77	1787.37
441.145	1826.24
441.52	1861.94
441.895	1840.7
442.27	1859
442.645	1866.69
443.019	1897.65
443.394	1896.97
443.769	1948.04
444.143	1905.11
444.518	1951.43
444.892	1953.24
445.267	1961.6
445.641	1984.65
446.016	2020.13
446.39	1999.34
446.764	1995.95
447.139	2051.32
447.513	2043.86
447.887	2046.12
448.262	2070.07
448.636	2089.96
449.01	2117.3
449.384	2091.32
449.758	2120.92
450.132	2141.48
450.506	2176.06
450.88	2194.14
451.254	2169.51
451.628	2220.58
452.002	2220.58
452.376	2286.34
452.75	2280.46
453.123	2295.38
453.497	2331.76
453.871	2317.07
454.244	2371.08
454.618	2383.51
454.992	2414.02
455.365	2428.03
455.739	2469.84
456.112	2501.7
456.486	2512.32
456.859	2583.51
457.232	2569.27
457.606	2603.84
457.979	2640.68
458.352	2660.11
458.725	2690.85
459.099	2713.67
459.472	2760.22
459.845	2760.9
460.218	2840
460.591	2835.48
460.964	2841.8
461.337	2920.9
461.71	2953.89
462.083	2969.48
462.456	3012.19
462.829	3051.97
463.201	3079.09
463.574	3088.35
463.947	3168.8
464.32	3178.29
464.692	3222.81
465.065	3251.74
465.438	3291.96
465.81	3326.76
466.183	3328.12
466.555	3447.21
466.928	3449.7
467.3	3434.78
467.672	3491.73
468.045	3584.16
468.417	3586.19
468.789	3618.73
469.161	3645.17
469.534	3710.71
469.906	3764.94
470.278	3807.2
470.65	3857.14
471.022	3936.69
471.394	4016.46
471.766	4028.21
472.138	4091.49
472.51	4110.47
472.882	4224.82
473.253	4269.11
473.625	4271.37
473.997	4368.32
474.369	4379.62
474.74	4452.61
475.112	4522.89
475.484	4617.8
475.855	4704.35
476.227	4688.99
476.598	4904.35
476.97	4892.15
477.341	4977.57
477.713	5037.9
478.084	5120.16
478.455	5272.93
478.827	5289.42
479.198	5397.89
479.569	5420.95
479.94	5576.65
480.311	5614.61
480.682	5712.46
481.053	5841.72
481.424	5982.74
481.795	6009.86
482.166	6079.23
482.537	6161.49
482.908	6294.59
483.279	6330.75
483.65	6513.35
484.021	6575.72
484.391	6695.71
484.762	6749.27
485.133	6811.42
485.503	6927.57
485.874	7015.71
486.244	7063.16
486.615	7226.32
486.985	7299.54
487.356	7502.92
487.726	7487.56
488.097	7659.76
488.467	7713.09
488.837	7877.83
489.207	7975.23
489.578	8044.38
489.948	8167.99
490.318	8274.43
490.688	8326.41
491.058	8436.91
491.428	8522.56
491.798	8619.28
492.168	8746.96
492.538	8825.83
492.908	8920.97
493.278	8970.91
493.648	8994.18
494.017	9228.08
494.387	9249.54
494.757	9367.06
495.126	9407.28
495.496	9496.32
495.866	9555.07
496.235	9665.81
496.605	9800.04
496.974	9809.3
497.344	9892.69
497.713	9965.01
498.082	10082.07
498.452	10165.23
498.821	10236.64
499.19	10257.88
499.559	10384.43
499.928	10528.61
500.298	10548.04
500.667	10647.47
501.036	10668.04
501.405	10786
501.774	10711.88
502.143	10849.73
502.512	10990.74
502.88	11022.61
503.249	11052.66
503.618	11145.09
503.987	11183.51
504.356	11350.73
504.724	11335.82
505.093	11416.95
505.462	11538.75
505.83	11546.89
506.199	11583.72
506.567	11871.85
506.936	11834.34
507.304	11978.51
507.672	12001.56
508.041	12094.67
508.409	12144.38
508.777	12272.29
509.145	12372.4
509.514	12431.61
509.882	12438.39
510.25	12565.62
510.618	12628.89
510.986	12815.33
511.354	12935.32
511.722	13002.44
512.09	13143.68
512.458	13121.31
512.826	13231.36
513.193	13254.19
513.561	13373.73
513.929	13493.95
514.297	13684.23
514.664	13783.66
515.032	13831.57
515.4	13873.38
515.767	13947.73
516.135	14022.3
516.502	13955.86
516.869	14212.58
517.237	14313.14
517.604	14359.24
517.972	14422.52
518.339	14628.61
518.706	14732.11
519.073	14746.8
519.44	14882.39
519.808	14972.11
520.175	15031.77
520.542	15274.92
520.909	15307.01
521.276	15391.53
521.643	15500.45
522.009	15648.92
522.376	15789.71
522.743	15822.93
523.11	15961.23
523.477	16195.13
523.843	16194.45
524.21	16453.88
524.577	16541.33
524.943	16527.09
525.31	16714.89
525.676	16905.61
526.043	17004.14
526.409	17123.69
526.776	17250.24
527.142	17433.96
527.508	17478.71
527.874	17573.85
528.241	17744.01
528.607	17826.27
528.973	17998.69
529.339	18000.95
529.705	18245.01
530.071	18309.87
530.437	18460.15
530.803	18544.89
531.169	18670.31
531.535	18708.73
531.901	18765.23
532.267	18748.5
532.632	18995.28
532.998	19071.66
533.364	19211.99
533.73	19218.1
534.095	19407.7
534.461	19516.62
534.826	19564.98
535.192	19572.89
535.557	19762.49
535.923	19802.04
536.288	19912.32
536.653	19978.75
537.019	19959.77
537.384	20098.3
537.749	20204.06
538.114	20296.26
538.479	20326.32
538.845	20425.07
539.21	20486.54
539.575	20622.35
539.94	20546.2
540.305	20759.3
540.67	20689.7
541.034	20927.43
541.399	20923.59
541.764	21021.89
542.129	20997.71
542.494	21171.94
542.858	21257.59
543.223	21228.66
543.587	21408.77
543.952	21399.51
544.316	21529.9
544.681	21539.17
545.045	21672.72
545.41	21746.62
545.774	21763.34
546.138	21911.13
546.503	21957.23
546.867	22022.54
547.231	22032.03
547.595	22204.68
547.959	22327.17
548.324	22338.24
548.688	22349.31
549.052	22482.42
549.416	22494.62
549.779	22565.8
550.143	22492.81
550.507	22726.93
550.871	22804.67
551.235	22770.09
551.599	23086.92
551.962	23116.3
552.326	23124.66
552.689	23277.88
553.053	23258.44
553.417	23368.27
553.78	23731.88
554.143	23542.73
554.507	23681.71
554.87	23781.37
555.234	23970.29
555.597	23921.93
555.96	24076.73
556.323	24161.02
556.686	24286.44
557.05	24368.92
557.413	24437.85
557.776	24457.73
558.139	24710.38
558.502	24748.35
558.865	24904.05
559.228	25070.37
559.59	25092.07
559.953	25206.41
560.316	25415.67
560.679	25370.03
561.041	25634.42
561.404	25660.41
561.767	25914.64
562.129	25862.44
562.492	25961.65
562.854	26008.2
563.217	26138.59
563.579	26129.78
563.941	26497.23
564.304	26583.33
564.666	26795.07
565.028	26777.9
565.39	26846.6
565.753	27057.89
566.115	27085.23
566.477	27257.21
566.839	27279.58
567.201	27394.38
567.563	27538.1
567.925	27739
568.287	27699.68
568.648	27828.49
569.01	27948.71
569.372	28074.59
569.734	28077.07
570.095	28254.02
570.457	28356.16
570.819	28493.33
571.18	28434.58
571.542	28592.77
571.903	28746.43
572.265	28784.85
572.626	28864.85
572.987	28846.32
573.349	28960.44
573.71	29082.47
574.071	29164.05
574.432	29429.58
574.794	29399.3
575.155	29400.88
575.516	29441.78
575.877	29524.49
576.238	29554.77
576.599	29788.89
576.96	29807.65
577.32	29760.87
577.681	29948.21
578.042	29845.39
578.403	29978.04
578.763	30072.05
579.124	30140.52
579.485	30163.57
579.845	30184.14
580.206	30177.36
580.566	30170.12
580.927	30309.33
581.287	30256.22
581.648	30249.44
582.008	30468.42
582.368	30415.54
582.728	30355.88
583.089	30292.16
583.449	30383.9
583.809	30467.97
584.169	30583.45
584.529	30444.47
584.889	30717.68
585.249	30471.13
585.609	30399.95
585.969	30752.03
586.329	30529.66
586.688	30646.5
587.048	30607.63
587.408	30607.4
587.768	30496.9
588.127	30555.88
588.487	30558.59
588.846	30745.48
589.206	30545.03
589.565	30533.28
589.925	30735.08
590.284	30719.04
590.643	30721.75
591.003	30689.43
591.362	30732.37
591.721	30784.35
592.08	30708.19
592.44	30802.42
592.799	30814.85
593.158	30705.03
593.517	30833.38
593.876	30874.74
594.235	30793.61
594.593	30820.28
594.952	30886.26
595.311	30771.69
595.67	30778.02
596.029	30940.95
596.387	31096.2
596.746	31044.23
597.104	30957
597.463	31018.46
597.822	31101.17
598.18	30903.66
598.538	30956.54
598.897	31033.83
599.255	30924.68
599.613	31296.65
599.972	31072.02
600.33	31174.84
600.688	31181.4
601.046	31169.42
601.404	31462.52
601.762	31266.37
602.12	31444.67
602.478	31390.88
602.836	31374.39
603.194	31334.16
603.552	31385.23
603.91	31193.37
604.268	31456.42
604.625	31376.42
604.983	31390.66
605.341	31394.5
605.698	31460.94
606.056	31553.59
606.413	31466.81
606.771	31634.95
607.128	31666.36
607.485	31476.98
607.843	31616.19
608.2	31740.93
608.557	31907.93
608.914	31882.4
609.272	31880.14
609.629	31838.33
609.986	31906.58
610.343	31958.78
610.7	32131.2
611.057	32093.46
611.414	32030.64
611.771	31986.8
612.127	32189.28
612.484	32126.91
612.841	32262.95
613.198	32062.05
613.554	32203.97
613.911	32285.55
614.267	32317.41
614.624	32178.66
614.98	32394.47
615.337	32462.27
615.693	32552.21
616.05	32253.23
616.406	32587.46
616.762	32434.92
617.118	32428.6
617.475	32391.99
617.831	32623.17
618.187	32566.9
618.543	32666.78
618.899	32773.67
619.255	32714.69
619.611	32681.47
619.967	32769.38
620.323	32851.18
620.678	32732.77
621.034	32711.3
621.39	32704.52
621.746	32617.07
622.101	33048.24
622.457	32730.96
622.812	32740
623.168	32833.33
623.523	32820.68
623.879	33048.02
624.234	32727.8
624.589	32780.9
624.945	32881.01
625.3	33006.89
625.655	32869.04
626.01	32908.13
626.365	32969.15
626.72	32704.75
627.075	32827.68
627.43	32745.2
627.785	32775.48
628.14	32797.85
628.495	32729.83
628.85	32780.9
629.205	32635.37
629.559	32782.49
629.914	32600.57
630.269	32617.29
630.623	32568.71
630.978	32504.75
631.332	32648.03
631.687	32602.83
632.041	32488.93
632.396	32616.16
632.75	32479.89
633.104	32464.53
633.459	32291.65
633.813	32405.55
634.167	32356.51
634.521	32296.85
634.875	32337.75
635.229	32209.62
635.583	32172.56
635.937	32116.29
636.291	32063.41
636.645	32154.71
636.999	31987.25
637.352	32059.57
637.706	31858.67
638.06	32034.48
638.413	31949.96
638.767	31768.27
639.121	31830.19
639.474	31624.78
639.828	31632.23
640.181	31723.3
640.534	31743.87
640.888	31472.24
641.241	31362.41
641.594	31319.7
641.947	31520.6
642.301	31448.51
642.654	31442.86
643.007	31429.3
643.36	31323.54
643.713	31266.59
644.066	31467.94
644.419	31138.01
644.771	30933.72
645.124	30699.15
645.477	30690.79
645.83	30467.29
646.182	30263.46
646.535	30268.65
646.888	30379.84
647.24	30137.36
647.593	30241.99
647.945	30069.11
648.298	30004.93
648.65	29970.81
649.002	29934.42
649.355	29888.32
649.707	29972.16
650.059	30069.56
650.411	30401.31
650.763	30455.32
651.115	30653.05
651.467	30586.39
651.819	30677.46
652.171	30654.41
652.523	30517.46
652.875	30423.68
653.227	30281.99
653.578	30560.62
653.93	30409.21
654.282	30269.56
654.633	30209.67
654.985	30204.02
655.337	30335.54
655.688	30278.82
656.039	30333.28
656.391	30135.78
656.742	30131.71
657.094	30157.47
657.445	30151.14
657.796	30110.01
658.147	29944.14
658.498	30057.13
658.849	30085.16
659.2	29953.41
659.551	30006.29
659.902	30071.6
660.253	29937.59
660.604	30092.16
660.955	29872.28
661.306	29935.78
661.656	29815.33
662.007	29851.26
662.358	29830.02
662.708	29813.07
663.059	29778.72
663.409	29648.1
663.76	29880.41
664.11	29843.35
664.461	29818.27
664.811	29784.15
665.161	29658.5
665.511	29643.13
665.862	29781.89
666.212	29695.56
666.562	29638.61
666.912	29535.34
667.262	29633.87
667.612	29597.03
667.962	29667.09
668.312	29519.75
668.662	29754.32
669.011	29516.58
669.361	29551.61
669.711	29599.07
670.06	29556.36
670.41	29395.91
670.76	29381.22
671.109	29502.35
671.459	29451.05
671.808	29425.74
672.157	29531.27
672.507	29214.67
672.856	29244.5
673.205	29292.18
673.554	29390.94
673.904	29238.62
674.253	29278.4
674.602	29304.84
674.951	28868.69
675.3	28704.4
675.649	29223.48
675.998	29098.74
676.346	29028.46
676.695	29130.6
677.044	28887.67
677.393	29079.31
677.741	29041.57
678.09	28962.7
678.438	28852.19
678.787	28944.62
679.135	28874.34
679.484	28855.13
679.832	28852.19
680.181	28774
680.529	28711.63
680.877	28778.07
681.225	28698.07
681.573	28774.46
681.922	28516.61
682.27	28517.06
682.618	28570.84
682.966	28338.31
683.314	28449.49
683.661	28352.77
684.009	28269.61
684.357	28231.42
684.705	28212.66
685.053	28241.81
685.4	28094.7
685.748	27973.57
686.095	27991.88
686.443	27894.7
686.79	27935.38
687.138	27866.68
687.485	27886.57
687.832	27583.07
688.18	27754.14
688.527	27519.35
688.874	27615.62
689.221	27562.28
689.568	27409.75
689.915	27159.36
690.262	27336.53
690.609	27181.5
690.956	27181.95
691.303	27082.97
691.65	26987.84
691.997	26941.96
692.344	26742.87
692.69	26760.27
693.037	26944.67
693.383	26645.25
693.73	26718.46
694.077	26433.05
694.423	26517.11
694.769	26354.63
695.116	26405.7
695.462	26330
695.808	26280.06
696.155	26208.87
696.501	26167.52
696.847	26159.16
697.193	25991.93
697.539	25994.64
697.885	25729.34
698.231	25678.94
698.577	25714.2
698.923	25698.83
699.269	25618.61
699.614	25423.58
699.96	25321.21
700.306	25456.8
700.651	25335
700.997	25169.58
701.342	25268.33
701.688	25171.39
702.033	25079.41
702.379	25082.8
702.724	24944.73
703.069	25053.88
703.415	24740.21
703.76	24720.1
704.105	24654.11
704.45	24704.73
704.795	24503.83
705.14	24485.98
705.485	24492.53
705.83	24288.92
706.175	24411.86
706.52	24246.89
706.865	24166.44
707.209	24078.08
707.554	24098.65
707.899	24073.56
708.243	23947.46
708.588	23996.95
708.932	23744.53
709.277	23663.63
709.621	23745.66
709.966	23574.82
710.31	23596.06
710.654	23417.99
710.998	23492.33
711.342	23396.97
711.687	23370.53
712.031	23328.5
712.375	23158.11
712.719	23367.14
713.063	23217.77
713.407	23220.48
713.75	23074.72
714.094	23058.22
714.438	22942.74
714.782	22954.72
715.125	22930.54
715.469	22939.35
715.812	22806.25
716.156	22864.1
716.499	22770.55
716.843	22652.58
717.186	22603.77
717.53	22703.43
717.873	22515.86
718.216	22598.8
718.559	22452.59
718.902	22274.97
719.246	22314.96
719.589	22265.02
719.932	22135.31
720.275	22127.62
720.617	22168.98
720.96	22134.63
721.303	22202.88
721.646	22043.33
721.989	22017.8
722.331	22054.41
722.674	21904.81
723.016	21899.83
723.359	21856.9
723.701	21928.08
724.044	21644.02
724.386	21619.39
724.729	21679.95
725.071	21669.33
725.413	21595.21
725.755	21759.05
726.097	21545.72
726.439	21520.41
726.782	21441.77
727.124	21642.89
727.465	21343.69
727.807	21382.33
728.149	21252.62
728.491	21257.59
728.833	21313.18
729.175	21198.16
729.516	21139.18
729.858	21151.83
730.199	21096.24
730.541	21158.38
730.882	21059.86
731.224	21093.08
731.565	20959.07
731.906	20910.03
732.248	20945.96
732.589	20784.61
732.93	20705.29
733.271	20798.17
733.612	20768.56
733.953	20740.54
734.294	20630.49
734.635	20648.57
734.976	20648.57
735.317	20548
735.658	20647.89
735.999	20516.82
736.339	20565.41
736.68	20543.94
737.021	20489.02
737.361	20400.89
737.702	20498.74
738.042	20368.57
738.383	20332.42
738.723	20390.95
739.063	20318.63
739.404	20298.07
739.744	20288.12
740.084	20183.95
740.424	20135.59
740.764	20104.4
741.104	20165.19
741.444	19995.03
741.784	19980.56
742.124	19988.92
742.464	19953.67
742.804	19946.44
743.143	19948.25
743.483	19882.26
743.823	19830.74
744.162	19727.91
744.502	19632.77
744.841	19785.31
745.181	19784.86
745.52	19703.73
745.86	19688.37
746.199	19618.76
746.538	19583.06
746.877	19652.44
747.216	19535.6
747.556	19593.68
747.895	19522.5
748.234	19368.83
748.573	19369.28
748.911	19477.98
749.25	19337.42
749.589	19251.54
749.928	19300.13
750.267	19255.84
750.605	19179.23
750.944	19175.16
751.283	19155.27
751.621	19091.32
751.96	18986.69
752.298	19006.35
752.636	18912.57
752.975	18847.94
753.313	18835.51
753.651	18725.23
753.989	18744.44
754.327	18684.55
754.666	18587.6
755.004	18670.99
755.342	18588.28
755.679	18584.89
756.017	18447.72
756.355	18529.53
756.693	18454.5
757.031	18498.34
757.368	18241.62
757.706	18215.86
758.044	18236.88
758.381	18176.09
758.719	18052.25
759.056	18186.94
759.394	18057
759.731	17939.26
760.068	17939.26
760.405	17878.47
760.743	17790.79
761.08	17809.55
761.417	17744.69
761.754	17670.11
762.091	17659.49
762.428	17692.49
762.765	17445.94
763.102	17548.08
763.438	17458.14
763.775	17309.9
764.112	17395.55
764.449	17333.85
764.785	17224.02
765.122	17108.77
765.458	17065.61
765.795	17056.8
766.131	17087.08
766.467	17040.75
766.804	16838.27
767.14	16812.74
767.476	16832.62
767.812	16730.48
768.148	16770.93
768.485	16575.91
768.821	16556.47
769.157	16553.31
769.492	16478.28
769.828	16417.04
770.164	16279.42
770.5	16247.1
770.836	16308.12
771.171	16173.66
771.507	16057.73
771.842	15997.39
772.178	15991.51
772.513	15988.58
772.849	15871.07
773.184	15894.34
773.519	15875.81
773.855	15588.81
774.19	15551.07
774.525	15602.37
774.86	15542.03
775.195	15523.05
775.53	15500
775.865	15385.88
776.2	15274.7
776.535	15241.93
776.87	15248.03
777.205	15091.88
777.539	15117.41
777.874	15110.41
778.209	14970.98
778.543	14915.84
778.878	14857.08
779.212	14830.19
779.547	14802.39
779.881	14787.03
780.215	14667.03
780.55	14748.61
780.884	14665.67
781.218	14587.48
781.552	14598.33
781.886	14482.85
782.22	14400.82
782.554	14314.72
782.888	14130.55
783.222	14073.15
783.556	14074.5
783.889	14116.76
784.223	14084.22
784.557	14048.74
784.89	13999.93
785.224	13941.17
785.557	13853.49
785.891	13809.43
786.224	13797.9
786.558	13747.73
786.891	13596.55
787.224	13556.78
787.557	13451.47
787.891	13460.51
788.224	13561.52
788.557	13479.04
788.89	13392.49
789.223	13379.83
789.556	13214.19
789.888	13228.42
790.221	13142.55
790.554	13145.04
790.887	13081.08
791.219	13011.93
791.552	12983.01
791.884	12976.9
792.217	12892.16
792.549	12853.74
792.882	12726.06
793.214	12733.52
793.546	12720.64
793.879	12640.64
794.211	12591.83
794.543	12625.5
794.875	12631.83
795.207	12611.26
795.539	12548.67
795.871	12461.66
796.203	12312.29
796.535	12298.05
796.867	12266.41
797.198	12320.2
797.53	12247.88
797.862	12172.86
798.193	12186.87
798.525	12062.13
798.856	12109.81
799.188	12054.67
799.519	11983.48
799.85	11910.72
800.182	11922.92
800.513	11826.2
800.844	11825.07
801.175	11852.87
801.506	11821.45
801.837	11782.59
802.168	11770.38
802.499	11705.53
802.83	11695.58
803.161	11616.71
803.491	11601.8
803.822	11590.5
804.153	11579.88
804.483	11428.24
804.814	11405.87
805.145	11394.57
805.475	11445.19
805.805	11298.3
806.136	11317.06
806.466	11366.33
806.796	11263.5
807.126	11169.27
807.457	11121.81
807.787	11181.25
808.117	11086.11
808.447	11055.6
808.777	11061.25
809.107	11041.59
809.436	10983.06
809.766	10961.82
810.096	10904.42
810.426	10852.21
810.755	10869.16
811.085	10827.58
811.414	10789.62
811.744	10688.15
812.073	10729.05
812.403	10746
812.732	10657.19
813.061	10660.58
813.39	10604.76
813.719	10536.06
814.049	10607.25
814.378	10530.87
814.707	10508.27
815.036	10509.62
815.365	10483.86
815.693	10481.83
816.022	10376.52
816.351	10306.92
816.68	10311.89
817.008	10364.09
817.337	10245.45
817.665	10184.89
817.994	10264.21
818.322	10145.34
818.651	10155.06
818.979	10174.04
819.307	10193.25
819.636	10132.01
819.964	10084.1
820.292	10092.23
820.62	10085.91
820.948	10116.41
821.276	10130.88
821.604	10089.97
821.932	10094.04
822.259	10102.86
822.587	10023.31
822.915	10001.39
823.243	10097.21
823.57	10007.72
823.898	10020.6
824.225	9958.9
824.553	9953.26
824.88	9982.63
825.207	10030.54
825.535	10025.8
825.862	10087.49
826.189	9971.56
826.516	10014.72
826.843	10042.74
827.17	10039.13
827.497	9968.4
827.824	10023.76
828.151	10094.95
828.478	9997.32
828.805	10055.4
829.131	10018.11
829.458	9975.4
829.785	9919.58
830.111	9987.15
830.438	9985.12
830.764	9987.83
831.09	9992.35
831.417	9927.95
831.743	9896.99
832.069	9971.33
832.395	9923.65
832.722	9950.32
833.048	9830.77
833.374	9892.92
833.7	9896.08
834.026	9876.87
834.351	9923.2
834.677	9874.39
835.003	9919.81
835.329	9840.49
835.654	9848.4
835.98	9762.07
836.306	9802.75
836.631	9784.9
836.956	9785.8
837.282	9817.44
837.607	9793.03
837.932	9760.72
838.258	9720.27
838.583	9725.24
838.908	9661.29
839.233	9708.52
839.558	9607.73
839.883	9624.22
840.208	9605.24
840.533	9566.37
840.858	9551.46
841.182	9594.39
841.507	9595.3
841.832	9443.44
842.156	9463.32
842.481	9454.74
842.805	9414.74
843.13	9448.41
843.454	9426.94
843.778	9344.68
844.103	9327.06
844.427	9392.59
844.751	9303.33
845.075	9275.53
845.399	9293.39
845.723	9233.73
846.047	9243.22
846.371	9174.52
846.695	9172.71
847.019	9136.1
847.343	9046.39
847.666	9048.65
847.99	8976.11
848.313	8991.92
848.637	8893.4
848.96	8853.62
849.284	8901.53
849.607	8784.47
849.931	8810.01
850.254	8742.89
850.577	8622.44
850.9	8610.92
851.223	8678.49
851.546	8606.4
851.869	8513.97
852.192	8609.56
852.515	8433.07
852.838	8467.64
853.161	8495.89
853.483	8408.44
853.806	8347.42
854.129	8367.76
854.451	8254.09
854.774	8251.38
855.096	8290.47
855.419	8252.73
855.741	8199.86
856.063	8159.4
856.385	8175.22
856.708	8087.54
857.03	8100.42
857.352	8131.38
857.674	8033.53
857.996	8059.29
858.318	8000.54
858.64	7981.56
858.961	7982.01
859.283	7926.87
859.605	7938.62
859.926	7963.03
860.248	7930.94
860.57	7896.59
860.891	7933.42
861.212	7833.76
861.534	7865.4
861.855	7884.84
862.176	7793.31
862.498	7751.73
862.819	7786.98
863.14	7778.4
863.461	7743.82
863.782	7689.59
864.103	7728.91
864.424	7636.93
864.745	7695.01
865.065	7593.54
865.386	7670.15
865.707	7641.45
866.027	7681.22
866.348	7623.82
866.668	7581.79
866.989	7615.69
867.309	7497.73
867.63	7579.08
867.95	7538.63
868.27	7466.09
868.59	7497.27
868.91	7491.17
869.23	7507.9
869.55	7491.17
869.87	7411.18
870.19	7427.67
870.51	7491.17
870.83	7505.64
871.15	7381.8
871.469	7374.11
871.789	7372.53
872.109	7392.64
872.428	7288.69
872.748	7316.71
873.067	7344.06
873.386	7335.24
873.706	7270.39
874.025	7229.71
874.344	7290.73
874.663	7262.7
874.982	7285.53
875.301	7269.03
875.62	7171.41
875.939	7146.55
876.258	7208.24
876.577	7193.33
876.896	7174.57
877.214	7100.67
877.533	7162.37
877.852	7064.29
878.17	7161.69
878.489	7066.1
878.807	7110.17
879.125	7092.31
879.444	7059.77
879.762	7090.28
880.08	7095.7
880.398	7030.85
880.716	7022.03
881.034	7024.97
881.352	7020.23
881.67	6950.85
881.988	6972.77
882.306	6963.96
882.624	6891.19
882.941	6912.21
883.259	6883.73
883.577	6851.19
883.894	6904.75
884.212	6888.93
884.529	6786.56
884.846	6830.63
885.164	6813.45
885.481	6742.49
885.798	6816.39
886.115	6718.31
886.432	6796.28
886.75	6708.59
887.067	6758.99
887.383	6729.84
887.7	6700.01
888.017	6683.96
888.334	6694.81
888.651	6638.77
888.967	6642.38
889.284	6556.06
889.6	6579.33
889.917	6594.25
890.233	6588.15
890.55	6536.62
890.866	6594.93
891.182	6566.45
891.498	6478.09
891.815	6452.78
892.131	6445.1
892.447	6439.45
892.763	6383.41
893.079	6387.47
893.395	6352.9
893.71	6279.91
894.026	6349.28
894.342	6291.88
894.657	6277.87
894.973	6280.58
895.289	6250.53
895.604	6252.34
895.92	6192.9
896.235	6154.94
896.55	6117.65
896.865	6149.74
897.181	6139.12
897.496	6181.38
897.811	6056.18
898.126	6026.13
898.441	6052.11
898.756	5999.23
899.071	5980.7
899.386	5982.51
899.7	5963.08
900.015	5946.35
900.33	5873.59
900.644	5866.58
900.959	5863.19
901.273	5821.39
901.588	5825.68
901.902	5832.69
902.216	5821.61
902.531	5772.8
902.845	5793.36
903.159	5734.38
903.473	5701.16
903.787	5711.33
904.101	5622.97
904.415	5649.64
904.729	5650.54
905.042	5609.87
905.356	5608.06
905.67	5570.55
905.984	5598.79
906.297	5601.73
906.611	5519.02
906.924	5512.24
907.237	5460.27
907.551	5455.07
907.864	5405.58
908.177	5436.54
908.491	5397.22
908.804	5395.86
909.117	5362.87
909.43	5298.01
909.743	5295.75
910.056	5280.84
910.368	5230.89
910.681	5222.31
910.994	5218.24
911.307	5213.49
911.619	5215.53
911.932	5163.78
912.244	5131.24
912.557	5119.94
912.869	5048.75
913.181	5081.07
913.494	5058.47
913.806	5004.91
914.118	5047.62
914.43	5043.78
914.742	4986.15
915.054	4970.56
915.366	4934.63
915.678	4932.14
915.99	4890.79
916.302	4881.52
916.613	4909.55
916.925	4799.72
917.236	4833.62
917.548	4738.7
917.859	4797.91
918.171	4804.24
918.482	4767.4
918.794	4740.06
919.105	4707.29
919.416	4670
919.727	4697.57
920.038	4644.47
920.349	4642.21
920.66	4628.65
920.971	4620.51
921.282	4570.57
921.593	4570.57
921.903	4557.01
922.214	4541.19
922.525	4530.8
922.835	4449.45
923.146	4466.17
923.456	4492.16
923.767	4400.63
924.077	4413.06
924.387	4413.51
924.697	4378.71
925.008	4361.54
925.318	4371.26
925.628	4310.01
925.938	4330.13
926.248	4304.36
926.558	4262.11
926.867	4256.23
927.177	4247.42
927.487	4214.88
927.796	4191.6
928.106	4179.62
928.416	4144.37
928.725	4159.74
929.034	4128.32
929.344	4122.9
929.653	4077.7
929.962	4087.19
930.271	4076.57
930.581	4026.18
930.89	4050.81
931.199	3981.43
931.508	3994.77
931.817	3958.38
932.125	3970.36
932.434	3927.2
932.743	3939.63
933.051	3902.34
933.36	3908.22
933.669	3875.9
933.977	3896.47
934.286	3853.3
934.594	3866.18
934.902	3836.81
935.21	3799.74
935.519	3784.15
935.827	3778.73
936.135	3738.05
936.443	3742.57
936.751	3707.09
937.059	3729.01
937.367	3667.32
937.674	3710.93
937.982	3692.85
938.29	3684.27
938.597	3642.23
938.905	3630.94
939.213	3614.66
939.52	3570.37
939.827	3581.67
940.135	3573.31
940.442	3590.94
940.749	3600.88
941.056	3552.75
941.363	3556.81
941.67	3542.58
941.977	3476.82
942.284	3431.62
942.591	3478.62
942.898	3437.95
943.205	3441.34
943.511	3414.9
943.818	3436.36
944.125	3388.23
944.431	3366.08
944.738	3403.37
945.044	3331.73
945.35	3351.85
945.657	3308.46
945.963	3319.76
946.269	3276.82
946.575	3289.93
946.881	3247.67
947.187	3261.23
947.493	3190.72
947.799	3219.65
948.105	3235.92
948.41	3203.6
948.716	3200.44
949.022	3160.21
949.327	3140.55
949.633	3113.21
949.938	3113.89
950.244	3125.86
950.549	3079.54
950.854	3083.61
951.16	3064.85
951.465	3024.17
951.77	3034.12
952.075	3062.81
952.38	2989.37
952.685	3041.12
952.99	2992.99
953.294	2979.43
953.599	2967
953.904	2955.7
954.209	2935.81
954.513	2942.37
954.818	2915.25
955.122	2906.43
955.426	2927.23
955.731	2858.07
956.035	2896.49
956.339	2861.01
956.643	2850.84
956.948	2841.35
957.252	2835.02
957.556	2826.21
957.86	2789.6
958.163	2800.22
958.467	2762.71
958.771	2772.2
959.075	2736.27
959.378	2727.46
959.682	2722.94
959.985	2721.35
960.289	2712.32
960.592	2672.77
960.896	2652.88
961.199	2704.41
961.502	2655.14
961.805	2670.28
962.108	2657.85
962.411	2590.06
962.714	2616.5
963.017	2625.31
963.32	2649.49
963.623	2602.94
963.926	2599.55
964.228	2589.61
964.531	2549.38
964.833	2555.94
965.136	2551.64
965.438	2537.63
965.741	2488.37
966.043	2529.72
966.345	2478.65
966.648	2517.52
966.95	2526.33
967.252	2464.64
967.554	2453.11
967.856	2436.84
968.158	2431.65
968.46	2428.26
968.761	2442.94
969.063	2403.17
969.365	2358.88
969.666	2371.08
969.968	2372.21
970.269	2384.19
970.571	2357.07
970.872	2349.16
971.174	2341.48
971.475	2350.97
971.776	2339.44
972.077	2287.92
972.378	2296.28
972.679	2289.05
972.98	2274.59
973.281	2276.85
973.582	2275.49
973.883	2263.97
974.183	2273.68
974.484	2274.36
974.785	2218.32
975.085	2193.91
975.386	2196.4
975.686	2173.12
975.986	2207.7
976.287	2206.57
976.587	2191.88
976.887	2167.7
977.187	2163.63
977.487	2132.9
977.787	2118.21
978.087	2130.41
978.387	2129.05
978.687	2108.72
978.987	2083.63
979.286	2081.15
979.586	2056.29
979.885	2050.19
980.185	2031.66
980.484	2053.58
980.784	2055.16
981.083	2046.34
981.382	2010.41
981.682	2033.24
981.981	2028.72
982.28	2009.51
982.579	2002.5
982.878	1999.34
983.177	1967.25
983.475	1984.88
983.774	1966.12
984.073	1968.61
984.372	1922.05
984.67	1970.41
984.969	1969.06
985.267	1953.01
985.566	1908.95
985.864	1916.86
986.162	1926.35
986.461	1920.47
986.759	1912.56
987.057	1875.73
987.355	1884.31
987.653	1868.72
987.951	1863.3
988.249	1835.73
988.547	1841.38
988.844	1847.25
989.142	1827.82
989.44	1811.1
989.737	1809.06
990.035	1795.73
990.332	1790.98
990.63	1752.34
990.927	1767.26
991.224	1761.61
991.521	1752.34
991.819	1740.36
992.116	1742.85
992.413	1757.99
992.71	1749.18
993.006	1743.53
993.303	1710.08
993.6	1715.73
993.897	1733.81
994.193	1679.12
994.49	1662.63
994.787	1671.67
995.083	1665.34
995.379	1666.69
995.676	1666.69
995.972	1674.15
996.268	1640.93
996.565	1668.73
996.861	1638.67
997.157	1635.06
997.453	1584.21
997.749	1597.77
998.044	1598.67
998.34	1622.4
998.636	1579.46
998.932	1553.25
999.227	1561.39
999.523	1565.91
999.818	1577.43
1000.114	1535.4
1000.409	1539.24
1000.704	1525.23
1001	1532.01
1001.295	1494.49
1001.59	1521.16
1001.885	1506.02
1002.18	1500.6
1002.475	1466.02
1002.77	1482.97
1003.065	1471.44
1003.359	1451.11
1003.654	1448.17
1003.949	1449.52
1004.243	1424.89
1004.538	1442.52
1004.832	1429.86
1005.127	1408.17
1005.421	1425.34
1005.715	1397.55
1006.009	1382.63
1006.304	1382.41
1006.598	1377.89
1006.892	1394.38
1007.186	1329.98
1007.48	1371.11
1007.773	1366.36
1008.067	1337.44
1008.361	1356.19
1008.655	1325.91
1008.948	1312.58
1009.242	1320.26
1009.535	1299.7
1009.829	1320.71
1010.122	1284.1
1010.415	1286.59
1010.708	1276.42
1011.001	1269.42
1011.295	1263.54
1011.588	1266.48
1011.881	1264.67
1012.173	1269.87
1012.466	1233.71
1012.759	1245.24
1013.052	1242.75
1013.344	1248.4
1013.637	1250.66
1013.93	1223.99
1014.222	1211.34
1014.514	1181.73
1014.807	1172.47
1015.099	1186.25
1015.391	1191
1015.683	1175.41
1015.976	1186.93
1016.268	1152.58
1016.56	1146.26
1016.851	1156.65
1017.143	1158.01
1017.435	1147.84
1017.727	1147.16
1018.018	1132.24
1018.31	1112.58
1018.602	1112.81
1018.893	1134.28
1019.185	1109.65
1019.476	1109.65
1019.767	1100.38
1020.058	1093.38
1020.35	1071.45
1020.641	1091.12
1020.932	1044.34
1021.223	1083.88
1021.514	1047.5
1021.804	1039.82
1022.095	1027.16
1022.386	1004.56
1022.677	1008.86
1022.967	988.29
1023.258	1011.57
1023.548	1021.51
1023.839	1018.12
1024.129	1001.17
1024.419	991.23
1024.709	987.16
1025	986.71
1025.29	952.59
1025.58	995.07
1025.87	951.91
1026.16	951.91
1026.449	944.68
1026.739	966.6
1027.029	944.45
1027.319	933.15
1027.608	935.87
1027.898	962.53
1028.187	935.64
1028.477	897
1028.766	899.03
1029.055	895.19
1029.344	908.52
1029.634	878.47
1029.923	872.36
1030.212	885.92
1030.501	877.34
1030.79	866.49
1031.078	879.82
1031.367	855.64
1031.656	849.99
1031.945	834.62
1032.233	845.7
1032.522	818.35
1032.81	831.46
1033.099	816.55
1033.387	855.87
1033.675	818.81
1033.963	830.78
1034.251	817.68
1034.54	799.82
1034.828	804.57
1035.116	806.15
1035.403	780.39
1035.691	794.4
1035.979	793.5
1036.267	786.72
1036.554	786.49
1036.842	761.86
1037.129	778.81
1037.417	763.67
1037.704	740.84
1037.992	769.99
1038.279	736.77
1038.566	744.46
1038.853	744.46
1039.14	744.46
