Data from white_wall_FLMS001491_025.txt Node
Date: Tue Feb 07 11:04:01 GMT 2017
User: dcchb
Spectrometer: FLMS00149
Trigger mode: 0
Integration Time (sec): 2.000000E-2
Scans to average: 10
Electric dark correction enabled: true
Nonlinearity correction enabled: false
Boxcar width: 0
XAxis mode: Wavelengths
Number of Pixels in Spectrum: 2048
>>>>>Begin Spectral Data<<<<<
341.393	-8.18
341.776	-8.18
342.16	-8.18
342.543	-41.4
342.927	-48.18
343.31	-77.55
343.693	-73.71
344.077	-64.67
344.46	-62.64
344.843	-66.26
345.226	-54.73
345.61	-1.17
345.993	-8.86
346.376	-4.34
346.759	-1.17
347.142	41.09
347.525	33.63
347.908	67.75
348.291	68.43
348.674	100.75
349.057	103.46
349.44	126.06
349.823	133.29
350.206	145.49
350.588	209.67
350.971	244.24
351.354	252.15
351.737	255.54
352.119	269.1
352.502	288.54
352.884	293.28
353.267	294.87
353.65	295.54
354.032	312.27
354.414	328.08
354.797	321.98
355.179	331.7
355.562	329.21
355.944	348.88
356.326	321.08
356.709	342.77
357.091	342.32
357.473	344.81
357.855	332.83
358.238	350.68
358.62	359.72
359.002	349.78
359.384	356.78
359.766	350.23
360.148	326.5
360.53	368.31
360.912	340.51
361.294	361.76
361.676	354.3
362.057	327.41
362.439	371.93
362.821	346.39
363.203	337.8
363.584	332.15
363.966	333.73
364.348	321.53
364.729	349.1
365.111	311.36
365.493	318.82
365.874	339.61
366.256	345.26
366.637	331.47
367.019	336.67
367.4	336.45
367.781	324.24
368.163	331.25
368.544	332.83
368.925	335.99
369.306	337.35
369.688	312.72
370.069	316.33
370.45	339.84
370.831	337.8
371.212	328.76
371.593	337.58
371.974	332.6
372.355	310.91
372.736	319.05
373.117	340.51
373.498	336.9
373.879	338.93
374.26	340.29
374.641	331.25
375.021	364.24
375.402	327.41
375.783	346.84
376.163	347.07
376.544	338.03
376.925	375.54
377.305	359.72
377.686	354.98
378.066	363.11
378.447	371.7
378.827	354.52
379.208	391.13
379.588	365.82
379.968	336.22
380.349	359.04
380.729	344.13
381.109	360.63
381.489	348.2
381.87	373.96
382.25	394.52
382.63	371.7
383.01	380.29
383.39	362.89
383.77	385.71
384.15	393.85
384.53	371.93
384.91	391.59
385.29	378.03
385.67	383.68
386.049	389.78
386.429	407.4
386.809	411.02
387.189	389.1
387.568	391.36
387.948	396.33
388.328	419.16
388.707	411.7
389.087	404.01
389.466	411.7
389.846	404.47
390.225	425.26
390.605	423.45
390.984	441.98
391.363	431.13
391.743	448.31
392.122	456.89
392.501	455.54
392.881	469.1
393.26	458.25
393.639	483.56
394.018	484.92
394.397	493.5
394.776	501.19
395.155	504.13
395.534	522.66
395.913	511.36
396.292	520.4
396.671	521.3
397.05	526.95
397.429	534.18
397.808	535.76
398.186	544.58
398.565	585.7
398.944	584.8
399.323	585.7
399.701	575.31
400.08	587.96
400.458	592.48
400.837	617.79
401.215	632.71
401.594	611.02
401.972	651.69
402.351	649.88
402.729	674.74
403.107	654.86
403.486	690.33
403.864	686.72
404.242	689.43
404.62	704.12
404.999	739.83
405.377	736.44
405.755	731.01
406.133	759.71
406.511	767.85
406.889	771.46
407.267	800.16
407.645	810.78
408.023	825.25
408.401	853.72
408.779	851.01
409.156	854.62
409.534	877.67
409.912	899.82
410.29	909.31
410.667	921.06
411.045	931.01
411.422	992.47
411.8	984.56
412.178	977.33
412.555	1013.49
412.933	1010.78
413.31	1049.65
413.687	1077.44
414.065	1054.17
414.442	1059.82
414.819	1092.13
415.197	1118.35
415.574	1128.74
415.951	1142.98
416.328	1147.05
416.705	1161.28
417.082	1160.15
417.46	1189.08
417.837	1192.24
418.214	1203.09
418.591	1218.46
418.967	1188.17
419.344	1252.81
419.721	1280.38
420.098	1263.88
420.475	1287.83
420.852	1275.63
421.228	1291.68
421.605	1321.96
421.982	1352.92
422.358	1357.21
422.735	1348.85
423.111	1380.03
423.488	1404.21
423.864	1385.01
424.241	1391.79
424.617	1428.85
424.994	1473.82
425.37	1474.72
425.746	1477.88
426.123	1469.52
426.499	1498.22
426.875	1543.42
427.251	1550.2
427.627	1581.38
428.003	1593.14
428.379	1610.99
428.756	1632.23
429.132	1646.24
429.507	1686.92
429.883	1669.29
430.259	1736.41
430.635	1781.61
431.011	1797.65
431.387	1797.88
431.763	1824.99
432.138	1847.14
432.514	1865.22
432.89	1867.71
433.265	1926.46
433.641	1966.23
434.016	1957.65
434.392	1991.09
434.767	2025.67
435.143	2006.23
435.518	2061.15
435.894	2069.06
436.269	2101.15
436.644	2112.67
437.02	2123.97
437.395	2169.62
437.77	2203.29
438.145	2216.85
438.52	2233.8
438.895	2274.47
439.271	2284.19
439.646	2350.63
440.021	2342.95
440.395	2363.06
440.77	2336.62
441.145	2375.71
441.52	2427.69
441.895	2444.41
442.27	2460.91
442.645	2454.58
443.019	2484.64
443.394	2511.76
443.769	2517.86
444.143	2525.09
444.518	2589.27
444.892	2583.84
445.267	2608.02
445.641	2637.85
446.016	2631.53
446.39	2661.81
446.764	2671.53
447.139	2658.19
447.513	2723.5
447.887	2739.55
448.262	2741.35
448.636	2777.51
449.01	2811.64
449.384	2800.56
449.758	2838.75
450.132	2893.67
450.506	2870.62
450.88	2927.56
451.254	2921.91
451.628	3016.15
452.002	3000.56
452.376	3023.38
452.75	3040.56
453.123	3090.5
453.497	3172.53
453.871	3173.89
454.244	3205.98
454.618	3259.08
454.992	3309.48
455.365	3323.71
455.739	3389.02
456.112	3459.08
456.486	3466.99
456.859	3495.68
457.232	3577.49
457.606	3542.46
457.979	3628.56
458.352	3695.45
458.725	3763.93
459.099	3802.12
459.472	3837.37
459.845	3875.11
460.218	3893.87
460.591	3937.26
460.964	3988.1
461.337	4047.31
461.71	4113.3
462.083	4158.49
462.456	4147.87
462.829	4201.66
463.201	4276.91
463.574	4284.36
463.947	4347.19
464.32	4440.07
464.692	4472.61
465.065	4546.28
465.438	4599.61
465.81	4651.59
466.183	4738.82
466.555	4822.43
466.928	4877.12
467.3	4864.91
467.672	4917.34
468.045	5083.21
468.417	5080.05
468.789	5149.2
469.161	5181.29
469.534	5326.6
469.906	5399.82
470.278	5461.51
470.65	5526.37
471.022	5664.67
471.394	5729.98
471.766	5811.78
472.138	5911.21
472.51	5947.82
472.882	6108.95
473.253	6110.31
473.625	6234.37
473.997	6334.71
474.369	6437.75
474.74	6480.69
475.112	6598.2
475.484	6714.36
475.855	6900.57
476.227	6912.32
476.598	7065.53
476.97	7134.23
477.341	7332.19
477.713	7471.63
478.084	7474.79
478.455	7730.38
478.827	7785.97
479.198	8046.75
479.569	8019.63
479.94	8226.86
480.311	8370.13
480.682	8564.7
481.053	8701.42
481.424	8865.94
481.795	8938.93
482.166	9105.93
482.537	9113.62
482.908	9436.09
483.279	9541.85
483.65	9740.72
484.021	9885.35
484.391	9981.62
484.762	10116.3
485.133	10286.69
485.503	10391.1
485.874	10530.08
486.244	10748.83
486.615	10946.11
486.985	11117.63
487.356	11257.74
487.726	11342.94
488.097	11567.79
488.467	11642.82
488.837	11954.45
489.207	12006.42
489.578	12196.25
489.948	12366.19
490.318	12550.59
490.688	12543.81
491.058	12761.66
491.428	12931.82
491.798	13058.37
492.168	13391.7
492.538	13457.68
492.908	13572.48
493.278	13705.81
493.648	13757.34
494.017	14000.72
494.387	14165.23
494.757	14263.09
495.126	14410.88
495.496	14465.11
495.866	14580.82
496.235	14794.6
496.605	14947.81
496.974	15073.46
497.344	15177.64
497.713	15331.31
498.082	15443.17
498.452	15573.79
498.821	15683.16
499.19	15667.34
499.559	15914.34
499.928	16012.87
500.298	16155.01
500.667	16324.27
501.036	16314.33
501.405	16509.35
501.774	16543.7
502.143	16733.3
502.512	16766.75
502.88	17045.84
503.249	17041.54
503.618	17147.76
503.987	17263.68
504.356	17375.32
504.724	17497.35
505.093	17590.91
505.462	17758.81
505.83	17955.87
506.199	18009.43
506.567	18271.79
506.936	18210.78
507.304	18562.63
507.672	18552.46
508.041	18670.88
508.409	18876.75
508.777	19013.69
509.145	19156.06
509.514	19165.1
509.882	19382.27
510.25	19470.18
510.618	19690.06
510.986	19728.25
511.354	19881.47
511.722	20141.8
512.09	20295.47
512.458	20263.61
512.826	20528.91
513.193	20587.89
513.561	20682.58
513.929	20817.26
514.297	21171.83
514.664	21354.42
515.032	21415.89
515.4	21606.17
515.767	21641.42
516.135	21866.5
516.502	21776.56
516.869	22138.36
517.237	22227.4
517.604	22320.73
517.972	22584
518.339	22586.93
518.706	22739.92
519.073	22947.83
519.44	23142.85
519.808	23261.94
520.175	23293.81
520.542	23647.02
520.909	23772.21
521.276	23886.34
521.643	24026.9
522.009	24290.84
522.376	24427.79
522.743	24648.58
523.11	24884.95
523.477	25058.73
523.843	25266.19
524.21	25588.44
524.577	25583.92
524.943	25817.81
525.31	25994.53
525.676	26219.83
526.043	26352.26
526.409	26472.26
526.776	26812.13
527.142	26860.72
527.508	27071.34
527.874	27276.98
528.241	27431.78
528.607	27433.13
528.973	27796.29
529.339	27751.54
529.705	28082.16
530.071	28253
530.437	28489.6
530.803	28578.42
531.169	28692.76
531.535	28748.13
531.901	28863.15
532.267	28980.21
532.632	29188.34
532.998	29356.7
533.364	29518.5
533.73	29577.03
534.095	29847.99
534.461	29926.85
534.826	29989.45
535.192	30226.06
535.557	30486.61
535.923	30305.38
536.288	30594.18
536.653	30646.61
537.019	30800.05
537.384	30962.53
537.749	31088.86
538.114	31319.13
538.479	31272.81
538.845	31463.99
539.21	31442.75
539.575	31598.67
539.94	31796.18
540.305	31930.87
540.67	31940.36
541.034	32033.92
541.399	32215.16
541.764	32192.11
542.129	32429.84
542.494	32510.52
542.858	32676.84
543.223	32844.97
543.587	32850.85
543.952	32927.45
544.316	33173.55
544.681	33135.81
545.045	33365.18
545.41	33565.18
545.774	33587.1
546.138	33786.87
546.503	33777.37
546.867	33774.89
547.231	34177.82
547.595	34267.08
547.959	34394.53
548.324	34488.99
548.688	34615.54
549.052	34597.47
549.416	34737.12
549.779	34968.08
550.143	35117.23
550.507	35248.07
550.871	35358.8
551.235	35427.5
551.599	35720.6
551.962	35853.7
552.326	35877.88
552.689	36183.64
553.053	36275.84
553.417	36384.31
553.78	36771.65
554.143	36691.42
554.507	36934.81
554.87	37033.79
555.234	37533.43
555.597	37144.52
555.96	37402.82
556.323	37597.84
556.686	37611.62
557.05	37918.06
557.413	38042.35
557.776	38128.22
558.139	38449.12
558.502	38457.93
558.865	38573.18
559.228	38983.57
559.59	39000.74
559.953	39096.78
560.316	39728.4
560.679	39552.14
561.041	39848.85
561.404	39972.92
561.767	40263.31
562.129	40269.41
562.492	40662.84
562.854	40611.32
563.217	40655.61
563.579	40902.84
563.941	41152.1
564.304	41350.96
564.666	41647.9
565.028	41585.3
565.39	41869.37
565.753	42040.43
566.115	42103.26
566.477	42263.93
566.839	42423.93
567.201	42666.18
567.563	42731.94
567.925	43034.53
568.287	42971.48
568.648	42985.04
569.01	43396.78
569.372	43594.74
569.734	43525.82
570.095	43795.64
570.457	43921.74
570.819	43971.68
571.18	44025.69
571.542	44264.56
571.903	44356.08
572.265	44406.25
572.626	44656.64
572.987	44797.65
573.349	44986.8
573.71	45141.14
574.071	45112.9
574.432	45219.11
574.794	45597.63
575.155	45575.03
575.516	45483.28
575.877	45551.75
576.238	45752.2
576.599	45852.31
576.96	45888.24
577.32	45907.45
577.681	46117.39
578.042	46128.24
578.403	46137.28
578.763	46144.06
579.124	46318.74
579.485	46359.64
579.845	46444.16
580.206	46458.4
580.566	46366.42
580.927	46433.09
581.287	46702.23
581.648	46547.43
582.008	46667.88
582.368	46668.11
582.728	46843.92
583.089	46790.37
583.449	46753.76
583.809	46736.58
584.169	46684.38
584.529	46756.02
584.889	46994.65
585.249	46806.18
585.609	46781.33
585.969	46927.54
586.329	46807.09
586.688	46838.5
587.048	46845.96
587.408	46784.72
587.768	46860.65
588.127	46844.38
588.487	46697.49
588.846	47140.64
589.206	46782.68
589.565	46768.22
589.925	46958.5
590.284	46923.7
590.643	46856.13
591.003	47130.47
591.362	47103.13
591.721	47038.04
592.08	47057.03
592.44	47173.86
592.799	47073.97
593.158	46887.09
593.517	46938.38
593.876	47170.92
594.235	47060.42
594.593	47024.48
594.952	47050.25
595.311	46961.21
595.67	47119.17
596.029	47333.18
596.387	47371.37
596.746	47498.14
597.104	47194.42
597.463	47224.7
597.822	47486.62
598.18	47223.12
598.538	47309.22
598.897	47498.6
599.255	47319.84
599.613	47709.21
599.972	47431.7
600.33	47487.3
600.688	47400.52
601.046	47552.15
601.404	47595.54
601.762	47618.37
602.12	47807.29
602.478	47692.04
602.836	47889.77
603.194	47456.11
603.552	47692.94
603.91	47657.01
604.268	47894.07
604.625	47672.6
604.983	47812.49
605.341	47734.52
605.698	47934.29
606.056	48130.9
606.413	47997.79
606.771	48133.16
607.128	48145.58
607.485	47968.87
607.843	48084.57
608.2	48309.42
608.557	48348.06
608.914	48230.78
609.272	48485.69
609.629	48520.72
609.986	48508.74
610.343	48420.61
610.7	48621.28
611.057	48539.7
611.414	48524.78
611.771	48542.41
612.127	48856.07
612.484	48724.1
612.841	48780.14
613.198	48654.95
613.554	48819.92
613.911	48945.34
614.267	48818.34
614.624	48880.48
614.98	49035.28
615.337	49179.68
615.693	49171.32
616.05	49084.99
616.406	49243.86
616.762	49146.01
617.118	49199.57
617.475	49186.46
617.831	49382.61
618.187	49327.02
618.543	49350.75
618.899	49531.99
619.255	49332.67
619.611	49412.67
619.967	49449.96
620.323	49629.39
620.678	49421.48
621.034	49522.27
621.39	49420.13
621.746	49406.79
622.101	49738.99
622.457	49495.61
622.812	49572.44
623.168	49616.51
623.523	49587.13
623.879	49719.78
624.234	49432.33
624.589	49655.6
624.945	49647.24
625.3	49654.7
625.655	49494.02
626.01	49734.7
626.365	49610.63
626.72	49597.98
627.075	49527.02
627.43	49571.54
627.785	49517.98
628.14	49668.03
628.495	49544.64
628.85	49497.87
629.205	49438.21
629.559	49683.85
629.914	49376.96
630.269	49589.61
630.623	49357.53
630.978	49360.92
631.332	49359.34
631.687	49424.19
632.041	49290.19
632.396	49520.69
632.75	49155.5
633.104	49228.04
633.459	49176.29
633.813	49042.51
634.167	49089.06
634.521	49023.75
634.875	49223.75
635.229	49112.11
635.583	48983.98
635.937	48880.48
636.291	48982.4
636.645	48971.55
636.999	48771.78
637.352	48866.02
637.706	48722.97
638.06	48898.56
638.413	48754.38
638.767	48587.83
639.121	48760.48
639.474	48405.24
639.828	48519.59
640.181	48468.29
640.534	48518.23
640.888	48398.46
641.241	48393.26
641.594	48372.92
641.947	48368.18
642.301	48292.25
642.654	48336.77
643.007	48193.94
643.36	48235.98
643.713	48181.52
644.066	48290.21
644.419	48043.21
644.771	47748.98
645.124	47436.68
645.477	47484.36
645.83	47037.14
646.182	47016.57
646.535	46866.07
646.888	47062.9
647.24	46729.35
647.593	46933.86
647.945	46874.43
648.298	46657.71
648.65	46642.8
649.002	46423.14
649.355	46747.43
649.707	46534.78
650.059	46565.74
650.411	47093.86
650.763	47127.53
651.115	47481.87
651.467	47265.38
651.819	47364.14
652.171	47259.05
652.523	47217.7
652.875	47238.72
653.227	47122.11
653.578	47349.22
653.93	47145.61
654.282	47078.95
654.633	46956.01
654.985	46979.74
655.337	46986.29
655.688	46913.98
656.039	47019.96
656.391	46697.94
656.742	46806.18
657.094	46815.68
657.445	46943.81
657.796	46784.94
658.147	46768.22
658.498	46690.03
658.849	46772.06
659.2	46713.08
659.551	46663.36
659.902	46710.14
660.253	46583.82
660.604	46682.35
660.955	46546.98
661.306	46571.39
661.656	46474.67
662.007	46482.13
662.358	46513.99
662.708	46584.04
663.059	46479.19
663.409	46224.28
663.76	46463.37
664.11	46410.49
664.461	46429.7
664.811	46413.65
665.161	46335.01
665.511	46181.34
665.862	46181.34
666.212	46333.43
666.562	46277.84
666.912	46337.72
667.262	46280.77
667.612	46076.49
667.962	46074.68
668.312	46169.14
668.662	46259.98
669.011	46136.37
669.361	46029.71
669.711	46031.06
670.06	45988.8
670.41	45962.14
670.76	45848.47
671.109	45976.6
671.459	45894.8
671.808	45897.06
672.157	45893.21
672.507	45651.19
672.856	45676.5
673.205	45687.12
673.554	45805.31
673.904	45542.49
674.253	45920.33
674.602	45649.38
674.951	45145.66
675.3	44885.78
675.649	45552.66
675.998	45557.63
676.346	45546.78
676.695	45569.15
677.044	45266.79
677.393	45356.73
677.741	45398.31
678.09	45155.15
678.438	45092.11
678.787	45155.83
679.135	45172.1
679.484	44907.03
679.832	45048.04
680.181	44814.6
680.529	45072.22
680.877	44787.93
681.225	44787.03
681.573	44943.18
681.922	44600.82
682.27	44566.92
682.618	44638.33
682.966	44486.02
683.314	44500.48
683.661	44284.67
684.009	44239.47
684.357	44060.49
684.705	44148.18
685.053	44284.22
685.4	43949.99
685.748	43788.18
686.095	43744.57
686.443	43625.25
686.79	43567.4
687.138	43636.55
687.485	43585.93
687.832	43474.52
688.18	43447.63
688.527	43215.32
688.874	43145.94
689.221	43132.61
689.568	43012.61
689.915	42907.3
690.262	42854.65
690.609	42696.24
690.956	42724.71
691.303	42544.6
691.65	42358.84
691.997	42432.97
692.344	42103.71
692.69	42041.34
693.037	42058.29
693.383	41808.8
693.73	41969.48
694.077	41511.41
694.423	41606.77
694.769	41434.8
695.116	41404.52
695.462	41277.29
695.808	41121.14
696.155	41179.44
696.501	40840.47
696.847	40877.07
697.193	40720.47
697.539	40891.54
697.885	40586.91
698.231	40334.26
698.577	40417.88
698.923	40316.64
699.269	40219.24
699.614	39952.58
699.96	39904.67
700.306	39793.04
700.651	39777.89
700.997	39731.12
701.342	39611.12
701.688	39518.01
702.033	39372.48
702.379	39440.28
702.724	39368.19
703.069	39268.08
703.415	38847.75
703.76	38931.36
704.105	38886.39
704.45	38709
704.795	38556.01
705.14	38446.86
705.485	38601.43
705.83	38276.24
706.175	38347.42
706.52	38229.01
706.865	38115.79
707.209	38090.48
707.554	37939.53
707.899	38072.18
708.243	37709.02
708.588	37619.31
708.932	37458.18
709.277	37532.53
709.621	37443.72
709.966	37212.54
710.31	37349.71
710.654	37023.16
710.998	37086.89
711.342	37158.98
711.687	37024.29
712.031	36918.31
712.375	36817.75
712.719	36936.16
713.063	36690.52
713.407	36775.94
713.75	36543.63
714.094	36520.13
714.438	36456.85
714.782	36492.33
715.125	36199.46
715.469	36275.84
715.812	36128.27
716.156	35898.45
716.499	36001.04
716.843	35980.71
717.186	35841.95
717.53	35887.15
717.873	35946.81
718.216	35824.78
718.559	35561.96
718.902	35319.25
719.246	35420.27
719.589	35303.89
719.932	35220.73
720.275	35239.26
720.617	35133.5
720.96	35163.55
721.303	35055.99
721.646	35005.14
721.989	34835.65
722.331	34953.39
722.674	34829.55
723.016	34995.42
723.359	34770.79
723.701	34732.15
724.044	34634.08
724.386	34365.38
724.729	34522.89
725.071	34508.88
725.413	34379.17
725.755	34312.28
726.097	34188.21
726.439	34192.28
726.782	34130.13
727.124	34177.59
727.465	34037.03
727.807	33990.7
728.149	33948.44
728.491	33937.37
728.833	33859.63
729.175	33812.4
729.516	33701.44
729.858	33618.96
730.199	33688.79
730.541	33686.08
730.882	33597.27
731.224	33699.64
731.565	33455.12
731.906	33445.86
732.248	33390.27
732.589	33181.01
732.93	33172.19
733.271	33163.83
733.612	33183.04
733.953	33149.59
734.294	32931.07
734.635	32933.1
734.976	33004.97
735.317	32758.64
735.658	32864.18
735.999	32734.24
736.339	32679.78
736.68	32738.53
737.021	32701.02
737.361	32568.82
737.702	32703.96
738.042	32452.44
738.383	32442.04
738.723	32435.71
739.063	32249.05
739.404	32372.44
739.744	32296.28
740.084	32245.21
740.424	32211.31
740.764	32160.92
741.104	32241.6
741.444	31992.34
741.784	32034.37
742.124	32058.78
742.464	31934.03
742.804	31921.6
743.143	31786.92
743.483	31664.66
743.823	31648.62
744.162	31715.73
744.502	31682.97
744.841	31388.74
745.181	31632.35
745.52	31482.97
745.86	31358
746.199	31475.97
746.538	31413.37
746.877	31442.75
747.216	31440.71
747.556	31250.44
747.895	31216.99
748.234	31025.36
748.573	31049.08
748.911	31035.3
749.25	30892.7
749.589	30818.36
749.928	30833.05
750.267	30779.94
750.605	30689.55
750.944	30565.93
751.283	30495.43
751.621	30588.76
751.96	30391.7
752.298	30423.56
752.636	30318.48
752.975	30098.83
753.313	30007.76
753.651	30214.3
753.989	30110.35
754.327	29970.92
754.666	29831.04
755.004	29904.03
755.342	29919.85
755.679	29760.98
756.017	29488.22
756.355	29645.28
756.693	29608.44
757.031	29573.19
757.368	29395.57
757.706	29390.6
758.044	29253.88
758.381	29212.75
758.719	29064.73
759.056	29116.03
759.394	28999.65
759.731	28812.31
760.068	28729.6
760.405	28682.59
760.743	28607.57
761.08	28581.13
761.417	28475.37
761.754	28470.85
762.091	28379.78
762.428	28211.87
762.765	28192.66
763.102	28175.04
763.438	28167.35
763.775	27934.82
764.112	27980.92
764.449	27914.25
764.785	27657.31
765.122	27550.42
765.458	27533.92
765.795	27423.64
766.131	27434.72
766.467	27289.18
766.804	27230.2
767.14	27076.53
767.476	27027.95
767.812	26921.06
768.148	27048.74
768.485	26827.05
768.821	26615.08
769.157	26728.52
769.492	26465.02
769.828	26535.31
770.164	26232.26
770.5	26337.34
770.836	26313.62
771.171	26085.37
771.507	25909.56
771.842	25778.26
772.178	25760.18
772.513	25709.79
772.849	25492.85
773.184	25484.94
773.519	25481.77
773.855	25414.66
774.19	25139.18
774.525	25159.3
774.86	25056.47
775.195	24952.97
775.53	24950.49
775.865	24797.72
776.2	24618.97
776.535	24473.66
776.87	24557.05
777.205	24390.95
777.539	24277.74
777.874	24258.98
778.209	24073.22
778.543	24021.02
778.878	23882.04
779.212	23846.34
779.547	23750.07
779.881	23696.96
780.215	23670.97
780.55	23585.78
780.884	23511.88
781.218	23500.36
781.552	23451.54
781.886	23358.21
782.22	23242.51
782.554	23119.35
782.888	22911.9
783.222	22739.47
783.556	22806.14
783.889	22650.21
784.223	22539.7
784.557	22531.12
784.89	22541.06
785.224	22359.82
785.557	22275.08
785.891	22166.15
786.224	22087.96
786.558	22177.91
786.891	21884.35
787.224	21791.7
787.557	21863.34
787.891	21816.11
788.224	21640.29
788.557	21678.71
788.89	21650.46
789.223	21630.58
789.556	21445.04
789.888	21360.3
790.221	21271.49
790.554	21135.22
790.887	21172.73
791.219	21007.31
791.552	20949.01
791.884	20862.01
792.217	20878.28
792.549	20809.35
792.882	20681.22
793.214	20546.99
793.546	20608.46
793.879	20511.06
794.211	20353.09
794.543	20451.62
794.875	20206.43
795.207	20278.75
795.539	20179.77
795.871	20143.38
796.203	19957.17
796.535	19867.68
796.867	19796.95
797.198	19780.23
797.53	19727.57
797.862	19622.27
798.193	19664.07
798.525	19591.08
798.856	19676.73
799.188	19333.91
799.519	19292.78
799.85	19246.01
800.182	19187.7
800.513	19225.67
800.844	19064.54
801.175	19140.47
801.506	19147.02
801.837	18979.35
802.168	18872.23
802.499	18766.24
802.83	18782.06
803.161	18671.33
803.491	18703.87
803.822	18658.22
804.153	18562.41
804.483	18528.96
804.814	18396.31
805.145	18376.65
805.475	18385.91
805.805	18214.17
806.136	18253.71
806.466	18236.54
806.796	18093.49
807.126	18055.08
807.457	17971.69
807.787	18035.42
808.117	17828.42
808.447	17877.68
808.777	17814.18
809.107	17752.94
809.436	17658.48
809.766	17601.08
810.096	17582.55
810.426	17521.08
810.755	17500.97
811.085	17509.1
811.414	17419.16
811.744	17366.73
812.073	17291.03
812.403	17286.73
812.732	17209.67
813.061	17211.26
813.39	17094.2
813.719	17060.98
814.049	17100.07
814.378	17001.77
814.707	16962.22
815.036	16872.06
815.365	16867.99
815.693	16724.94
816.022	16793.41
816.351	16683.81
816.68	16592.52
817.008	16625.74
817.337	16454.21
817.665	16438.85
817.994	16495.57
818.322	16462.58
818.651	16361.79
818.979	16374.22
819.307	16419.19
819.636	16311.39
819.964	16179.65
820.292	16308.46
820.62	16315.01
820.948	16079.08
821.276	16235.01
821.604	16176.03
821.932	16175.58
822.259	16197.27
822.587	16211.96
822.915	16156.82
823.243	16138.29
823.57	16078.4
823.898	16061
824.225	16028.46
824.553	16051.96
824.88	16066.88
825.207	16144.62
825.535	16048.12
825.862	16111.85
826.189	15940.56
826.516	16143.26
826.843	16074.34
827.17	16181.91
827.497	16050.61
827.824	16034.34
828.151	16118.63
828.478	15987.56
828.805	16175.13
829.131	16026.43
829.458	16089.7
829.785	15832.54
830.111	16039.54
830.438	16048.12
830.764	16035.47
831.09	16069.59
831.417	15939.88
831.743	15963.15
832.069	15932.19
832.395	15879.31
832.722	15919.77
833.048	15849.26
833.374	15945.53
833.7	15852.42
834.026	15876.15
834.351	15860.33
834.677	15863.95
835.003	15892.2
835.329	15798.86
835.654	15749.83
835.98	15790.95
836.306	15647.91
836.631	15719.32
836.956	15694.01
837.282	15744.18
837.607	15601.36
837.932	15515.48
838.258	15557.29
838.583	15608.81
838.908	15486.56
839.233	15535.37
839.558	15397.97
839.883	15390.74
840.208	15442.04
840.533	15491.75
840.858	15444.52
841.182	15368.82
841.507	15341.25
841.832	15310.97
842.156	15219.22
842.481	15220.35
842.805	15186.68
843.13	15183.29
843.454	15129.05
843.778	15077.75
844.103	15009.05
844.427	14909.4
844.751	15019.68
845.075	14948.72
845.399	14977.42
845.723	14776.29
846.047	14824.43
846.371	14654.71
846.695	14722.06
847.019	14611.55
847.343	14539.01
847.666	14454.04
847.99	14404.55
848.313	14351.67
848.637	14276.64
848.96	14266.48
849.284	14147.83
849.607	14151.22
849.931	14102.19
850.254	14046.37
850.577	13929.99
850.9	13765.02
851.223	13798.69
851.546	13749.65
851.869	13660.39
852.192	13700.61
852.515	13613.84
852.838	13525.7
853.161	13491.13
853.483	13423.33
853.806	13426.05
854.129	13381.3
854.451	13361.87
854.774	13310.79
855.096	13248.87
855.419	13182.66
855.741	13120.29
856.063	13062.44
856.385	13085.72
856.708	12991.03
857.03	12897.47
857.352	13045.72
857.674	12884.82
857.996	12837.13
858.318	12920.75
858.64	12820.86
858.961	12761.43
859.283	12734.99
859.605	12655.22
859.926	12689.79
860.248	12618.16
860.57	12608.21
860.891	12615.9
861.212	12553.75
861.534	12480.08
861.855	12513.07
862.176	12476.01
862.498	12448.22
862.819	12381.78
863.14	12368.67
863.461	12407.09
863.782	12294.32
864.103	12388.78
864.424	12296.36
864.745	12254.1
865.065	12221.78
865.386	12149.02
865.707	12140.43
866.027	12210.94
866.348	12154.21
866.668	12157.6
866.989	12041
867.309	12033.31
867.63	12072.41
867.95	12110.6
868.27	11991.28
868.59	12021.11
868.91	11955.58
869.23	11962.58
869.55	11800.1
869.87	11906.31
870.19	11914.45
870.51	11888.46
870.83	11918.97
871.15	11802.36
871.469	11795.35
871.789	11834.67
872.109	11741.34
872.428	11718.97
872.748	11743.15
873.067	11645.75
873.386	11700.21
873.706	11598.75
874.025	11625.41
874.344	11660.44
874.663	11674.9
874.982	11544.96
875.301	11629.48
875.62	11549.26
875.939	11547.68
876.258	11526.21
876.577	11441.01
876.896	11463.16
877.214	11443.95
877.533	11405.99
877.852	11439.2
878.17	11425.19
878.489	11473.1
878.807	11377.51
879.125	11372.77
879.444	11282.37
879.762	11260.45
880.08	11293.45
880.398	11275.37
880.716	11330.51
881.034	11289.6
881.352	11261.58
881.67	11192.21
881.988	11234.46
882.306	11133.9
882.624	11165.31
882.941	11024.75
883.259	11049.38
883.577	10930.97
883.894	10981.82
884.212	10939.78
884.529	10940.46
884.846	10897.3
885.164	10869.05
885.481	10885.77
885.798	10840.12
886.115	10807.36
886.432	10777.08
886.75	10664.99
887.067	10737.08
887.383	10684.65
887.7	10679.45
888.017	10692.78
888.334	10686
888.651	10656.4
888.967	10608.04
889.284	10577.98
889.6	10535.05
889.917	10455.28
890.233	10513.58
890.55	10339.8
890.866	10379.35
891.182	10340.25
891.498	10314.71
891.815	10265
892.131	10194.27
892.447	10217.54
892.763	10205.56
893.079	10159.46
893.395	10162.18
893.71	10109.3
894.026	10116.53
894.342	10063.2
894.657	10008.28
894.973	9916.53
895.289	9952.69
895.604	9926.48
895.92	9791.56
896.235	9832.92
896.55	9846.25
896.865	9789.98
897.181	9724.22
897.496	9742.98
897.811	9717.67
898.126	9669.08
898.441	9650.55
898.756	9592.47
899.071	9573.94
899.386	9551.8
899.7	9463.44
900.015	9435.19
900.33	9312.93
900.644	9342.54
900.959	9373.27
901.273	9404.91
901.588	9330.11
901.902	9204.01
902.216	9242.88
902.531	9289.66
902.845	9153.39
903.159	9130.57
903.473	9114.52
903.787	9067.06
904.101	9062.54
904.415	9003.34
904.729	8957.46
905.042	8908.65
905.356	8883.57
905.67	8834.08
905.984	8892.61
906.297	8793.62
906.611	8788.65
906.924	8663.68
907.237	8724.47
907.551	8580.75
907.864	8671.82
908.177	8574.87
908.491	8537.36
908.804	8500.75
909.117	8434.76
909.43	8386.4
909.743	8355.9
910.056	8355.22
910.368	8312.28
910.681	8288.55
910.994	8333.52
911.307	8263.7
911.619	8208.78
911.932	8179.4
912.244	8157.03
912.557	8123.13
912.869	8050.59
913.181	8072.97
913.494	8039.75
913.806	7969.24
914.118	7905.74
914.43	7859.19
914.742	7906.64
915.054	7853.31
915.366	7784.61
915.678	7804.72
915.99	7762.47
916.302	7746.65
916.613	7635.24
916.925	7695.57
917.236	7661.23
917.548	7561.79
917.859	7571.74
918.171	7449.03
918.482	7475.24
918.794	7427.11
919.105	7436.15
919.416	7389.37
919.727	7307.34
920.038	7357.05
920.349	7268.24
920.66	7246.32
920.971	7260.33
921.282	7247.9
921.593	7190.95
921.903	7152.31
922.214	7117.06
922.525	7101.92
922.835	7041.58
923.146	7006.33
923.456	6991.86
923.767	7009.49
924.077	6946.22
924.387	6926.56
924.697	6821.02
925.008	6870.96
925.318	6876.39
925.628	6854.01
925.938	6783.28
926.248	6720.68
926.558	6762.72
926.867	6687.24
927.177	6688.6
927.487	6605.89
927.796	6556.62
928.106	6515.04
928.416	6569.05
928.725	6539.9
929.034	6492.22
929.344	6466.23
929.653	6482.05
929.962	6347.36
930.271	6339.45
930.581	6387.59
930.89	6295.39
931.199	6229.17
931.508	6259.23
931.817	6262.62
932.125	6211.32
932.434	6223.07
932.743	6166.58
933.051	6090.87
933.36	6134.49
933.669	6065.56
933.977	6021.04
934.286	5974.04
934.594	6021.95
934.902	5896.75
935.21	5945.79
935.519	5901.72
935.827	5867.6
936.135	5878
936.443	5849.3
936.751	5840.03
937.059	5780.37
937.367	5807.26
937.674	5793.7
937.982	5786.02
938.29	5703.76
938.597	5699.02
938.905	5607.72
939.213	5602.07
939.52	5573.82
939.827	5611.79
940.135	5557.33
940.442	5485.24
940.749	5472.58
941.056	5484.56
941.363	5450.89
941.67	5444.33
941.977	5376.31
942.284	5350.78
942.591	5334.28
942.898	5348.07
943.205	5359.82
943.511	5264.45
943.818	5273.49
944.125	5186.26
944.431	5214.51
944.738	5237.11
945.044	5236.88
945.35	5141.74
945.657	5082.99
945.963	5086.83
946.269	5088.64
946.575	5075.98
946.881	5055.64
947.187	5049.77
947.493	4990.11
947.799	4991.92
948.105	4962.99
948.41	4922.99
948.716	4909.89
949.022	4873.73
949.327	4879.6
949.633	4814.07
949.938	4777.23
950.244	4815.88
950.549	4765.93
950.854	4772.71
951.16	4764.35
951.465	4716.44
951.77	4674.64
952.075	4657.46
952.38	4611.81
952.685	4643.45
952.99	4584.92
953.294	4577.69
953.599	4529.56
953.904	4569.33
954.209	4544.02
954.513	4474.42
954.818	4507.41
955.122	4475.09
955.426	4468.77
955.731	4411.82
956.035	4404.36
956.339	4392.16
956.643	4397.36
956.948	4397.58
957.252	4304.7
957.556	4289.11
957.86	4305.83
958.163	4293.86
958.467	4260.18
958.771	4264.48
959.075	4232.84
959.378	4203.69
959.682	4215.67
959.985	4112.62
960.289	4179.28
960.592	4103.13
960.896	4107.65
961.199	4076.69
961.502	4014.32
961.805	4046.18
962.108	4025.39
962.411	3973.41
962.714	4019.51
963.017	3995.56
963.32	3964.6
963.623	3957.37
963.926	3938.61
964.228	3884.38
964.531	3888.22
964.833	3888.67
965.136	3830.82
965.438	3841.89
965.741	3833.08
966.043	3803.25
966.345	3806.41
966.648	3763.93
966.95	3771.16
967.252	3751.72
967.554	3732.74
967.856	3726.41
968.158	3674.66
968.46	3689.8
968.761	3620.88
969.063	3660.2
969.365	3654.1
969.666	3648.68
969.968	3631.73
970.269	3582.91
970.571	3583.14
970.872	3571.16
971.174	3534.33
971.475	3550.37
971.776	3493.88
972.077	3465.86
972.378	3479.64
972.679	3468.34
972.98	3418.4
973.281	3416.82
973.582	3414.56
973.883	3398.74
974.183	3358.97
974.484	3405.97
974.785	3368.23
975.085	3396.93
975.386	3353.77
975.686	3326.88
975.986	3282.58
976.287	3286.42
976.587	3292.53
976.887	3224.05
977.187	3288.91
977.487	3230.61
977.787	3195.13
978.087	3190.16
978.387	3176.37
978.687	3182.47
978.987	3197.84
979.286	3112.42
979.586	3175.47
979.885	3108.12
980.185	3123.49
980.484	3114.23
980.784	3090.5
981.083	3137.95
981.382	3094.79
981.682	3025.87
981.981	3044.62
982.28	2999.88
982.579	2977.51
982.878	3009.14
983.177	2951.29
983.475	2923.5
983.774	2918.98
984.073	2926.89
984.372	2907.45
984.67	2912.65
984.969	2899.77
985.267	2907.9
985.566	2855.93
985.864	2859.32
986.162	2852.09
986.461	2857.51
986.759	2846.21
987.057	2757.63
987.355	2780
987.653	2764.18
987.951	2785.87
988.249	2748.81
988.547	2725.54
988.844	2722.6
989.142	2707.68
989.44	2689.38
989.737	2694.35
990.035	2658.19
990.332	2641.92
990.63	2645.31
990.927	2622.94
991.224	2645.31
991.521	2610.96
991.819	2593.79
992.116	2576.84
992.413	2599.44
992.71	2564.64
993.006	2570.96
993.303	2528.7
993.6	2528.25
993.897	2519.44
994.193	2487.8
994.49	2500.46
994.787	2480.8
995.083	2452.55
995.379	2429.72
995.676	2450.06
995.972	2427.92
996.268	2418.2
996.565	2374.81
996.861	2375.94
997.157	2431.76
997.453	2372.32
997.749	2343.17
998.044	2335.26
998.34	2294.36
998.636	2303.4
998.932	2319.22
999.227	2301.14
999.523	2283.74
999.818	2270.86
1000.114	2241.93
1000.409	2248.94
1000.704	2229.28
1001	2216.17
1001.295	2214.81
1001.59	2202.84
1001.885	2198.54
1002.18	2192.44
1002.475	2180.01
1002.77	2156.51
1003.065	2136.62
1003.359	2146.34
1003.654	2120.13
1003.949	2092.33
1004.243	2120.81
1004.538	2068.83
1004.832	2078.32
1005.127	2076.29
1005.421	2047.59
1005.715	2032.45
1006.009	2015.05
1006.304	2031.99
1006.598	1994.03
1006.892	2008.49
1007.186	1990.41
1007.48	1977.31
1007.773	1953.13
1008.067	1959.91
1008.361	1921.72
1008.655	1929.17
1008.948	1929.17
1009.242	1890.98
1009.535	1907.03
1009.829	1876.74
1010.122	1859.57
1010.415	1857.99
1010.708	1875.39
1011.001	1856.41
1011.295	1830.87
1011.588	1798.55
1011.881	1801.04
1012.173	1823.86
1012.466	1782.28
1012.759	1761.95
1013.052	1774.83
1013.344	1752.45
1013.637	1739.57
1013.93	1740.02
1014.222	1747.93
1014.514	1685.11
1014.807	1722.85
1015.099	1695.28
1015.391	1705.68
1015.683	1657.32
1015.976	1659.58
1016.268	1642.4
1016.56	1624.55
1016.851	1621.84
1017.143	1630.2
1017.435	1611.21
1017.727	1625.68
1018.018	1597.2
1018.31	1590.65
1018.602	1581.16
1018.893	1556.98
1019.185	1534.15
1019.476	1519.69
1019.767	1563.76
1020.058	1512.01
1020.35	1501.84
1020.641	1523.53
1020.932	1506.13
1021.223	1482.86
1021.514	1443.31
1021.804	1419.36
1022.095	1453.03
1022.386	1453.93
1022.677	1373.48
1022.967	1410.32
1023.258	1401.73
1023.548	1397.44
1023.839	1401.73
1024.129	1399.92
1024.419	1390.2
1024.709	1350.2
1025	1332.13
1025.29	1355.4
1025.58	1333.26
1025.87	1343.65
1026.16	1335.97
1026.449	1313.82
1026.739	1293.71
1027.029	1312.47
1027.319	1299.81
1027.608	1271.79
1027.898	1273.37
1028.187	1281.73
1028.477	1275.4
1028.766	1235.41
1029.055	1217.33
1029.344	1234.95
1029.634	1252.58
1029.923	1236.54
1030.212	1252.81
1030.501	1187.72
1030.79	1198.57
1031.078	1182.3
1031.367	1166.03
1031.656	1165.58
1031.945	1168.06
1032.233	1171.68
1032.522	1132.58
1032.81	1145.24
1033.099	1127.39
1033.387	1115.86
1033.675	1126.71
1033.963	1100.72
1034.251	1109.76
1034.54	1082.87
1034.828	1083.77
1035.116	1068.4
1035.403	1088.97
1035.691	1093.49
1035.979	1063.43
1036.267	1029.31
1036.554	1057.33
1036.842	1057.78
1037.129	1037.22
1037.417	1015.07
1037.704	1031.34
1037.992	1012.81
1038.279	1015.3
1038.566	1022.98
1038.853	1022.98
1039.14	1022.98
