Data from white_steel_sheet_FLMS001491_012.txt Node
Date: Tue Feb 07 10:57:27 GMT 2017
User: dcchb
Spectrometer: FLMS00149
Trigger mode: 0
Integration Time (sec): 2.000000E-2
Scans to average: 10
Electric dark correction enabled: true
Nonlinearity correction enabled: false
Boxcar width: 0
XAxis mode: Wavelengths
Number of Pixels in Spectrum: 2048
>>>>>Begin Spectral Data<<<<<
341.393	6.43
341.776	6.43
342.16	6.43
342.543	-45.32
342.927	-59.79
343.31	-66.57
343.693	-73.12
344.077	-49.17
344.46	-50.97
344.843	-39.45
345.226	-42.16
345.61	-19.34
345.993	-13.69
346.376	-12.1
346.759	2.13
347.142	17.95
347.525	30.83
347.908	42.58
348.291	78.51
348.674	87.78
349.057	106.76
349.44	125.52
349.823	127.1
350.206	146.31
350.588	187.66
350.971	220.88
351.354	225.86
351.737	226.53
352.119	239.41
352.502	252.07
352.884	281.45
353.267	272.86
353.65	293.65
354.032	306.53
354.414	315.12
354.797	319.41
355.179	323.03
355.562	333.2
355.944	330.94
356.326	331.62
356.709	318.28
357.091	335.46
357.473	350.37
357.855	355.34
358.238	349.47
358.62	338.85
359.002	336.14
359.384	344.72
359.766	337.72
360.148	364.38
360.53	336.81
360.912	333.65
361.294	361.9
361.676	353.99
362.057	346.76
362.439	338.4
362.821	337.04
363.203	346.76
363.584	338.4
363.966	329.13
364.348	344.72
364.729	348.11
365.111	314.21
365.493	337.72
365.874	332.07
366.256	329.58
366.637	310.6
367.019	300.43
367.4	332.52
367.781	318.96
368.163	313.54
368.544	321.22
368.925	316.25
369.306	324.61
369.688	341.11
370.069	334.1
370.45	333.2
370.831	330.94
371.212	309.02
371.593	334.55
371.974	323.25
372.355	314.44
372.736	303.59
373.117	313.08
373.498	320.99
373.879	319.41
374.26	298.17
374.641	320.99
375.021	332.29
375.402	330.03
375.783	339.75
376.163	347.89
376.544	346.3
376.925	353.99
377.305	338.62
377.686	353.31
378.066	357.15
378.447	331.62
378.827	344.95
379.208	339.75
379.588	353.31
379.968	343.59
380.349	362.58
380.729	339.07
381.109	350.15
381.489	341.11
381.87	367.32
382.25	347.21
382.63	363.48
383.01	366.19
383.39	342.91
383.77	360.99
384.15	360.09
384.53	387.21
384.91	355.34
385.29	370.94
385.67	385.4
386.049	374.55
386.429	410.48
386.809	402.12
387.189	387.66
387.568	393.08
387.948	399.64
388.328	397.83
388.707	378.17
389.087	390.37
389.466	406.19
389.846	423.82
390.225	415.23
390.605	396.25
390.984	428.79
391.363	400.31
391.743	405.74
392.122	407.09
392.501	424.72
392.881	431.73
393.26	441.44
393.639	454.78
394.018	459.3
394.397	465.85
394.776	450.48
395.155	462.91
395.534	457.49
395.913	472.18
396.292	485.74
396.671	480.76
397.05	486.87
397.429	488
397.808	503.81
398.186	480.99
398.565	505.4
398.944	509.01
399.323	509.92
399.701	536.13
400.08	538.39
400.458	522.57
400.837	545.17
401.215	545.4
401.594	541.55
401.972	558.95
402.351	593.08
402.729	580.87
403.107	598.28
403.486	591.27
403.864	608.67
404.242	586.3
404.62	615
404.999	612.29
405.377	627.2
405.755	634.21
406.133	650.48
406.511	659.52
406.889	662.45
407.267	691.83
407.645	661.78
408.023	710.59
408.401	702.45
408.779	725.05
409.156	724.15
409.534	736.12
409.912	755.79
410.29	765.05
410.667	774.54
411.045	780.19
411.422	818.16
411.8	804.15
412.178	820.64
412.555	840.53
412.933	842.79
413.31	850.7
413.687	874.88
414.065	878.95
414.442	893.41
414.819	910.58
415.197	918.72
415.574	922.79
415.951	912.62
416.328	936.8
416.705	940.41
417.082	936.12
417.46	969.11
417.837	1007.76
418.214	960.98
418.591	973.86
418.967	1001.65
419.344	997.59
419.721	1026.29
420.098	1045.72
420.475	1040.75
420.852	1063.8
421.228	1065.16
421.605	1089.56
421.982	1093.4
422.358	1087.53
422.735	1110.8
423.111	1110.13
423.488	1140.41
423.864	1150.8
424.241	1123.46
424.617	1164.81
424.994	1157.58
425.37	1184.25
425.746	1193.06
426.123	1243
426.499	1200.97
426.875	1237.81
427.251	1268.09
427.627	1289.1
428.003	1282.33
428.379	1313.74
428.756	1316
429.132	1325.26
429.507	1347.41
429.883	1364.58
430.259	1381.08
430.635	1436.67
431.011	1404.36
431.387	1442.32
431.763	1492.49
432.138	1447.97
432.514	1507.18
432.89	1501.08
433.265	1534.07
433.641	1551.47
434.016	1587.18
434.392	1593.73
434.767	1617.68
435.143	1630.79
435.518	1617.46
435.894	1671.47
436.269	1674.41
436.644	1708.53
437.02	1728.64
437.395	1749.21
437.77	1759.37
438.145	1760.28
438.52	1786.04
438.895	1821.29
439.271	1823.78
439.646	1842.54
440.021	1857.45
440.395	1904.46
440.77	1869.65
441.145	1916.88
441.52	1928.41
441.895	1949.88
442.27	1969.54
442.645	1953.95
443.019	1982.19
443.394	2005.24
443.769	2035.98
444.143	2019.93
444.518	2068.52
444.892	2073.94
445.267	2075.3
445.641	2088.86
446.016	2092.93
446.39	2138.8
446.764	2135.41
447.139	2151
447.513	2156.65
447.887	2161.4
448.262	2210.21
448.636	2197.33
449.01	2224.22
449.384	2255.18
449.758	2259.47
450.132	2313.94
450.506	2324.33
450.88	2334.27
451.254	2342.41
451.628	2391.45
452.002	2406.59
452.376	2429.64
452.75	2475.06
453.123	2485.01
453.497	2480.71
453.871	2524.33
454.244	2574.04
454.618	2612.69
454.992	2635.96
455.365	2623.08
455.739	2713.93
456.112	2759.12
456.486	2730.87
456.859	2726.35
457.232	2806.35
457.606	2822.85
457.979	2834.15
458.352	2910.53
458.725	2958.67
459.099	2965.67
459.472	3025.56
459.845	3040.24
460.218	3091.09
460.591	3104.65
460.964	3111.43
461.337	3176.29
461.71	3266.45
462.083	3252.89
462.456	3284.98
462.829	3296.74
463.201	3330.18
463.574	3357.52
463.947	3367.69
464.32	3476.39
464.692	3508.48
465.065	3531.98
465.438	3569.95
465.81	3610.63
466.183	3657.18
466.555	3744.86
466.928	3795.03
467.3	3745.09
467.672	3833.9
468.045	3927.45
468.417	3909.37
468.789	3981.46
469.161	4027.79
469.534	4092.87
469.906	4178.07
470.278	4188.46
470.65	4217.16
471.022	4347.1
471.394	4413.99
471.766	4448.57
472.138	4525.63
472.51	4601.33
472.882	4639.07
473.253	4734.21
473.625	4754.32
473.997	4867.77
474.369	4890.37
474.74	4957.26
475.112	5068.44
475.484	5135.56
475.855	5234.31
476.227	5254.65
476.598	5422.1
476.97	5406.28
477.341	5585.49
477.713	5644.7
478.084	5628.43
478.455	5820.74
478.827	5839.95
479.198	6022.54
479.569	6065.02
479.94	6257.11
480.311	6311.35
480.682	6375.75
481.053	6497.33
481.424	6654.16
481.795	6693.93
482.166	6868.62
482.537	6902.29
482.908	7070.2
483.279	7095.96
483.65	7207.37
484.021	7418.66
484.391	7487.36
484.762	7544.31
485.133	7646.23
485.503	7737.75
485.874	7879.44
486.244	8035.37
486.615	8217.51
486.985	8282.37
487.356	8334.34
487.726	8427.67
488.097	8586.09
488.467	8670.15
488.837	8873.31
489.207	8984.95
489.578	9100.2
489.948	9156.47
490.318	9352.4
490.688	9317.82
491.058	9475.33
491.428	9566.85
491.798	9712.39
492.168	9804.59
492.538	9914.41
492.908	10061.08
493.278	10149.21
493.648	10210
494.017	10433.04
494.387	10428.75
494.757	10481.41
495.126	10631.91
495.496	10704.68
495.866	10774.05
496.235	10919.13
496.605	10974.73
496.974	11090.43
497.344	11153.03
497.713	11252.46
498.082	11354.15
498.452	11486.8
498.821	11562.51
499.19	11561.15
499.559	11799.34
499.928	11775.16
500.298	11899.22
500.667	12010.63
501.036	12000.46
501.405	12185.32
501.774	12212.66
502.143	12281.36
502.512	12395.93
502.88	12542.37
503.249	12524.06
503.618	12629.6
503.987	12647.22
504.356	12760.22
504.724	12868.24
505.093	12990.04
505.462	13035.46
505.83	13119.98
506.199	13238.85
506.567	13438.16
506.936	13465.96
507.304	13628.67
507.672	13650.59
508.041	13740.53
508.409	13861.43
508.777	13988.21
509.145	14116.11
509.514	14059.84
509.882	14145.26
510.25	14177.13
510.618	14323.34
510.986	14373.28
511.354	14608.53
511.722	14727.4
512.09	14859.37
512.458	14868.63
512.826	14970.55
513.193	15089.65
513.561	15119.25
513.929	15279.25
514.297	15491.89
514.664	15541.39
515.032	15651.44
515.4	15745
515.767	15830.19
516.135	15966.91
516.502	15968.94
516.869	16177.75
517.237	16311.08
517.604	16246.9
517.972	16439.67
518.339	16644.63
518.706	16625.65
519.073	16761.92
519.44	16900.22
519.808	17046.88
520.175	17129.82
520.542	17341.79
520.909	17447.32
521.276	17575
521.643	17649.13
522.009	17849.12
522.376	18008.66
522.743	18152.84
523.11	18276.91
523.477	18362.1
523.843	18559.61
524.21	18825.37
524.577	18889.32
524.943	18952.82
525.31	19148.75
525.676	19373.15
526.043	19525.69
526.409	19545.35
526.776	19758.22
527.142	19829.63
527.508	20011.55
527.874	20059.23
528.241	20229.17
528.607	20339
528.973	20498.54
529.339	20666.22
529.705	20778.31
530.071	20877.29
530.437	21089.94
530.803	21193.89
531.169	21287
531.535	21192.31
531.901	21388.46
532.267	21463.26
532.632	21737.15
532.998	21745.52
533.364	21969.01
533.73	21887.66
534.095	22158.84
534.461	22183.7
534.826	22407.19
535.192	22450.36
535.557	22660.52
535.923	22560.41
536.288	22694.64
536.653	22842.66
537.019	22744.81
537.384	22921.53
537.749	23065.71
538.114	23074.29
538.479	23237.68
538.845	23290.56
539.21	23364.68
539.575	23418.47
539.94	23629.08
540.305	23684
540.67	23677.44
541.034	23711.57
541.399	23925.8
541.764	23925.8
542.129	24026.36
542.494	24092.12
542.858	24223.87
543.223	24320.82
543.587	24507.48
543.952	24392.68
544.316	24510.41
544.681	24538.21
545.045	24752.89
545.41	24840.12
545.774	24871.08
546.138	24738.88
546.503	25069.95
546.867	25014.36
547.231	25331.64
547.595	25372.99
547.959	25384.29
548.324	25323.5
548.688	25398.3
549.052	25572.99
549.416	25712.42
549.779	25729.82
550.143	25854.56
550.507	26000.32
550.871	26036.25
551.235	26044.84
551.599	26289.13
551.962	26281.67
552.326	26392.85
552.689	26609.12
553.053	26537.71
553.417	26494.09
553.78	26924.36
554.143	26761.43
554.507	26925.27
554.87	27090.46
555.234	27337.46
555.597	27190.12
555.96	27361.87
556.323	27437.57
556.686	27526.61
557.05	27683.21
557.413	27821.06
557.776	27798.92
558.139	28017.89
558.502	28095.18
558.865	28159.36
559.228	28420.14
559.59	28487.94
559.953	28519.57
560.316	28775.39
560.679	28812.9
561.041	29021.93
561.404	29107.58
561.767	29410.17
562.129	29245.88
562.492	29456.05
562.854	29444.52
563.217	29615.37
563.579	29729.94
563.941	29858.97
564.304	30009.93
564.666	30201.56
565.028	30291.28
565.39	30338.06
565.753	30597.03
566.115	30676.13
566.477	30805.84
566.839	30986.18
567.201	31021.66
567.563	31047.87
567.925	31249.45
568.287	31268.43
568.648	31327.64
569.01	31498.25
569.372	31716.78
569.734	31622.09
570.095	31870.67
570.457	31945.47
570.819	32001.52
571.18	32180.27
571.542	32323.32
571.903	32420.94
572.265	32436.76
572.626	32603.76
572.987	32524.22
573.349	32839.46
573.71	32825.45
574.071	32867.26
574.432	32879.23
574.794	33139.11
575.155	33034.03
575.516	33043.07
575.877	33199
576.238	33263.86
576.599	33386.34
576.96	33404.19
577.32	33514.7
577.681	33592.21
578.042	33519.67
578.403	33610.51
578.763	33545.66
579.124	33629.05
579.485	33845.54
579.845	33929.15
580.206	33867.91
580.566	33867
580.927	33970.51
581.287	34093.67
581.648	33931.64
582.008	34066.1
582.368	34085.98
582.728	34088.69
583.089	34098.64
583.449	33999.88
583.809	34081.69
584.169	34085.76
584.529	34083.95
584.889	34217.5
585.249	34015.48
585.609	33919.43
585.969	34091.18
586.329	34123.5
586.688	34208.01
587.048	34189.03
587.408	34010.05
587.768	34163.04
588.127	34043.72
588.487	34038.75
588.846	34222.25
589.206	34124.63
589.565	33953.56
589.925	34228.58
590.284	34192.19
590.643	34201.91
591.003	34260.89
591.362	34238.52
591.721	34114.68
592.08	34205.53
592.44	34237.39
592.799	34238.07
593.158	34149.48
593.517	34166.43
593.876	34375.92
594.235	34181.8
594.593	34281.01
594.952	34366.88
595.311	34257.28
595.67	34332.08
596.029	34372.75
596.387	34483.03
596.746	34469.7
597.104	34275.81
597.463	34273.32
597.822	34427.22
598.18	34195.13
598.538	34293.66
598.897	34519.19
599.255	34099.32
599.613	34636.02
599.972	34346.99
600.33	34533.2
600.688	34421.34
601.046	34537.5
601.404	34763.48
601.762	34400.55
602.12	34715.8
602.478	34603.26
602.836	34665.85
603.194	34518.06
603.552	34726.87
603.91	34476.93
604.268	34662.92
604.625	34488.91
604.983	34645.29
605.341	34532.98
605.698	34581.34
606.056	34689.13
606.413	34739.98
606.771	34817.94
607.128	34824.49
607.485	34567.55
607.843	34822.23
608.2	34946.52
608.557	34880.09
608.914	34763.25
609.272	34872.18
609.629	35001.21
609.986	35123.92
610.343	35073.75
610.7	35187.42
611.057	35140.64
611.414	35101.77
611.771	35156.24
612.127	35358.04
612.484	35264.93
612.841	35340.86
613.198	35313.75
613.554	35273.52
613.911	35522.78
614.267	35548.09
614.624	35510.8
614.98	35486.85
615.337	35683.45
615.693	35659.05
616.05	35663.79
616.406	35873.73
616.762	35645.94
617.118	35775.2
617.475	35581.99
617.831	35793.96
618.187	35757.8
618.543	36006.84
618.899	36157.34
619.255	36008.19
619.611	36008.19
619.967	36132.03
620.323	36155.98
620.678	35989.89
621.034	36018.13
621.39	35981.98
621.746	35965.48
622.101	36364.57
622.457	36019.49
622.812	36226.72
623.168	36286.83
623.523	36237.79
623.879	36280.5
624.234	35964.35
624.589	36239.6
624.945	36241.63
625.3	36263.78
625.655	36204.57
626.01	36265.13
626.365	36390.55
626.72	36284.34
627.075	36079.6
627.43	36014.97
627.785	36126.15
628.14	36190.33
628.495	36241.18
628.85	36057.91
629.205	35997.8
629.559	36142.88
629.914	35946.95
630.269	36008.19
630.623	35996.44
630.978	35876.67
631.332	36059.72
631.687	36038.47
632.041	35814.07
632.396	35924.58
632.75	35896.1
633.104	35862.43
633.459	35763
633.813	35740.63
634.167	35826.28
634.521	35665.38
634.875	35616.56
635.229	35650.23
635.583	35437.81
635.937	35253.86
636.291	35439.84
636.645	35348.32
636.999	35300.41
637.352	35480.97
637.706	35165.95
638.06	35300.41
638.413	35089.8
638.767	35075.56
639.121	35178.38
639.474	35060.42
639.828	35022.68
640.181	35073.98
640.534	34943.36
640.888	34785.17
641.241	34672.41
641.594	34673.09
641.947	34892.29
642.301	34720.09
642.654	34583.82
643.007	34641.22
643.36	34532.75
643.713	34477.16
644.066	34558.51
644.419	34334.11
644.771	34189.03
645.124	33874.91
645.477	33679.44
645.83	33537.3
646.182	33362.61
646.535	33181.6
646.888	33389.5
647.24	33268.38
647.593	33389.05
647.945	33257.98
648.298	33169.4
648.65	33186.34
649.002	33047.14
649.355	33096.63
649.707	32964.66
650.059	33170.98
650.411	33582.72
650.763	33478.77
651.115	33845.31
651.467	33749.72
651.819	33822.49
652.171	33729.61
652.523	33702.04
652.875	33711.53
653.227	33505.43
653.578	33822.94
653.93	33648.25
654.282	33393.8
654.633	33361.48
654.985	33456.62
655.337	33438.32
655.688	33451.42
656.039	33537.3
656.391	33287.59
656.742	33386.11
657.094	33315.38
657.445	33372.1
657.796	33336.17
658.147	33197.64
658.498	33212.56
658.849	33260.24
659.2	33125.78
659.551	33005.11
659.902	33223.18
660.253	33046.69
660.604	33061.6
660.955	32910.87
661.306	33056.18
661.656	32862.51
662.007	32880.59
662.358	32850.76
662.708	32811.89
663.059	32690.99
663.409	32481.5
663.76	32812.12
664.11	32669.3
664.461	32571.67
664.811	32617.09
665.161	32416.87
665.511	32384.11
665.862	32316.31
666.212	32489.64
666.562	32434.95
666.912	32231.57
667.262	32156.99
667.612	32109.99
667.962	32060.72
668.312	31952.71
668.662	32051.69
669.011	31845.14
669.361	31762.2
669.711	31590.23
670.06	31446.73
670.41	31514.75
670.76	31469.33
671.109	31512.04
671.459	31469.33
671.808	31238.6
672.157	31269.56
672.507	31020.07
672.856	31062.11
673.205	31073.18
673.554	31083.35
673.904	30887.87
674.253	31036.8
674.602	30881.77
674.951	30366.31
675.3	30312.97
675.649	30847.2
675.998	30752.74
676.346	30652.4
676.695	30698.95
677.044	30519.3
677.393	30730.14
677.741	30600.2
678.09	30532.86
678.438	30438.39
678.787	30411.28
679.135	30523.36
679.484	30361.56
679.832	30469.13
680.181	30462.12
680.529	30448.34
680.877	30389.58
681.225	30233.43
681.573	30622.8
681.922	30299.64
682.27	30214.9
682.618	30331.96
682.966	30237.72
683.314	30362.01
683.661	30307.1
684.009	30200.89
684.357	30209.02
684.705	30272.52
685.053	30279.98
685.4	30141.45
685.748	30110.04
686.095	30228.68
686.443	30072.98
686.79	30127.22
687.138	30160.66
687.485	30241.11
687.832	30158.63
688.18	30097.39
688.527	30117.73
688.874	30125.86
689.221	29982.14
689.568	30058.07
689.915	29986.66
690.262	29909.14
690.609	29851.52
690.956	29857.62
691.303	29833.89
691.65	29734.23
691.997	29799.32
692.344	29704.85
692.69	29697.85
693.037	29714.8
693.383	29507.8
693.73	29700.33
694.077	29539.89
694.423	29447.46
694.769	29347.35
695.116	29421.7
695.462	29449.95
695.808	29286.56
696.155	29490.85
696.501	29036.4
696.847	29144.64
697.193	28988.26
697.539	29081.82
697.885	28977.19
698.231	28749.17
698.577	28858.78
698.923	28799.57
699.269	28739.46
699.614	28523.64
699.96	28421.27
700.306	28578.1
700.651	28502.4
700.997	28328.39
701.342	28278.45
701.688	28252.01
702.033	28155.97
702.379	28086.59
702.724	28116.65
703.069	28097.21
703.415	27828.29
703.76	27827.62
704.105	27742.65
704.45	27736.32
704.795	27554.63
705.14	27506.04
705.485	27388.53
705.83	27367.06
706.175	27420.62
706.52	27350.79
706.865	27105.6
707.209	27206.84
707.554	27133.85
707.899	27133.4
708.243	26860.86
708.588	26872.39
708.932	26789
709.277	26794.42
709.621	26759.4
709.966	26560.53
710.31	26670.81
710.654	26440.53
710.998	26524.83
711.342	26588.55
711.687	26461.1
712.031	26347.2
712.375	26239.41
712.719	26262.69
713.063	26247.32
713.407	26246.19
713.75	26021.11
714.094	26122.58
714.438	25883.03
714.782	26043.71
715.125	25898.17
715.469	25825.63
715.812	25714.9
716.156	25679.2
716.499	25555.59
716.843	25717.84
717.186	25582.25
717.53	25623.15
717.873	25720.78
718.216	25466.32
718.559	25410.96
718.902	25292.09
719.246	25258.42
719.589	25283.05
719.932	25104.3
720.275	25037.63
720.617	25124.41
720.96	25062.94
721.303	25050.06
721.646	25042.15
721.989	24944.75
722.331	24928.26
722.674	24808.26
723.016	24902.95
723.359	24931.65
723.701	24837.19
724.044	24672.22
724.386	24587.25
724.729	24616.63
725.071	24609.85
725.413	24589.06
725.755	24530.3
726.097	24437.65
726.439	24395.62
726.782	24387.71
727.124	24421.15
727.465	24359.01
727.807	24277.65
728.149	24215.06
728.491	24195.39
728.833	24319.69
729.175	24128.73
729.516	24005.57
729.858	24097.77
730.199	23989.75
730.541	23978.9
730.882	23872.24
731.224	24026.59
731.565	23759.7
731.906	23721.06
732.248	23746.82
732.589	23697.1
732.93	23572.81
733.271	23684
733.612	23571
733.953	23622.98
734.294	23554.06
734.635	23405.81
734.976	23446.71
735.317	23353.84
735.658	23427.28
735.999	23339.15
736.339	23209.88
736.68	23305.25
737.021	23185.93
737.361	23138.02
737.702	23221.86
738.042	23118.14
738.383	23100.51
738.723	23161.75
739.063	22911.59
739.404	23145.03
739.744	23067.51
740.084	23013.05
740.424	22976.22
740.764	22808.54
741.104	22931.02
741.444	22838.82
741.784	22703
742.124	22629.33
742.464	22645.83
742.804	22603.35
743.143	22599.05
743.483	22576.68
743.823	22401.54
744.162	22426.63
744.502	22493.07
744.841	22400.41
745.181	22461.66
745.52	22314.99
745.86	22443.8
746.199	22235.9
746.538	22194.32
746.877	22330.13
747.216	22177.37
747.556	22115.9
747.895	22132.62
748.234	22061.89
748.573	22001.55
748.911	22084.04
749.25	22020.08
749.589	21911.16
749.928	21920.43
750.267	21940.99
750.605	21826.42
750.944	21761.79
751.283	21632.3
751.621	21670.72
751.96	21520.89
752.298	21594.79
752.636	21578.06
752.975	21415.13
753.313	21408.8
753.651	21629.13
753.989	21298.52
754.327	21273.44
754.666	21144.63
755.004	21177.62
755.342	21307.11
755.679	21192.08
756.017	21058.98
756.355	21048.36
756.693	20856.27
757.031	20893.11
757.368	20889.49
757.706	20819.89
758.044	20661.02
758.381	20772.43
758.719	20609.73
759.056	20652.44
759.394	20575.83
759.731	20338.1
760.068	20381.03
760.405	20369.28
760.743	20198.66
761.08	20244.99
761.417	20162.73
761.754	20136.29
762.091	20000.93
762.428	19855.62
762.765	19776.53
763.102	19873.02
763.438	19715.51
763.775	19658.11
764.112	19647.04
764.449	19708.06
764.785	19496.76
765.122	19414.05
765.458	19361.17
765.795	19303.09
766.131	19308.97
766.467	19228.07
766.804	19153.49
767.14	18980.84
767.476	19093.61
767.812	18955.08
768.148	18958.02
768.485	18754.41
768.821	18768.42
769.157	18764.35
769.492	18765.26
769.828	18650.68
770.164	18536.56
770.5	18551.02
770.836	18532.94
771.171	18306.51
771.507	18307.41
771.842	18226.29
772.178	18249.56
772.513	18061.32
772.849	18033.3
773.184	18000.3
773.519	17989.91
773.855	17947.42
774.19	17690.03
774.525	17873.53
774.86	17739.07
775.195	17627.21
775.53	17510.82
775.865	17468.34
776.2	17335.69
776.535	17230.15
776.87	17189.7
777.205	17231.96
777.539	17092.08
777.874	17156.26
778.209	16897.96
778.543	16934.79
778.878	16886.43
779.212	16915.13
779.547	16805.98
779.881	16808.02
780.215	16660
780.55	16692.32
780.884	16519.44
781.218	16470.63
781.552	16470.4
781.886	16426.11
782.22	16364.87
782.554	16298.88
782.888	16092.56
783.222	16041.71
783.556	16034.48
783.889	16002.39
784.223	15872
784.557	15834.03
784.89	15870.19
785.224	15760.59
785.557	15632.68
785.891	15633.59
786.224	15598.78
786.558	15554.04
786.891	15442.86
787.224	15342.75
787.557	15345.46
787.891	15358.11
788.224	15311.56
788.557	15301.84
788.89	15271.56
789.223	15299.36
789.556	15004.45
789.888	15008.74
790.221	14955.64
790.554	14930.78
790.887	14922.19
791.219	14775.98
791.552	14762.87
791.884	14709.09
792.217	14611.92
792.549	14573.95
792.882	14481.3
793.214	14502.54
793.546	14393.39
793.879	14383.9
794.211	14303.45
794.543	14260.29
794.875	14234.53
795.207	14303.68
795.539	14120.86
795.871	14124.25
796.203	14061.42
796.535	13977.58
796.867	13931.03
797.198	13958.38
797.53	13887.42
797.862	13773.75
798.193	13837.25
798.525	13683.58
798.856	13754.09
799.188	13636.58
799.519	13552.28
799.85	13393.65
800.182	13427.99
800.513	13526.07
800.844	13353.19
801.175	13423.25
801.506	13277.72
801.837	13297.6
802.168	13317.04
802.499	13184.61
802.83	13171.96
803.161	13118.85
803.491	13115.69
803.822	13081.34
804.153	12975.8
804.483	12949.36
804.814	12904.84
805.145	12872.98
805.475	12905.07
805.805	12847.67
806.136	12767.45
806.466	12750.5
806.796	12773.77
807.126	12679.31
807.457	12632.76
807.787	12654.23
808.117	12507.11
808.447	12529.26
808.777	12508.47
809.107	12422.82
809.436	12359.55
809.766	12388.02
810.096	12402.48
810.426	12328.59
810.755	12262.6
811.085	12258.53
811.414	12182.6
811.744	12108.26
812.073	12113
812.403	12035.71
812.732	11991.2
813.061	12014.02
813.39	12004.08
813.719	11969.05
814.049	12028.94
814.378	11844.31
814.707	11930.86
815.036	11843.18
815.365	11724.99
815.693	11739.9
816.022	11750.98
816.351	11671.43
816.68	11641.15
817.008	11671.88
817.337	11612
817.665	11570.64
817.994	11537.65
818.322	11503.3
818.651	11453.36
818.979	11444.09
819.307	11441.61
819.636	11421.72
819.964	11377.43
820.292	11412.68
820.62	11371.55
820.948	11385.56
821.276	11464.66
821.604	11353.7
821.932	11379.46
822.259	11384.66
822.587	11381.04
822.915	11246.58
823.243	11292.01
823.57	11237.09
823.898	11290.42
824.225	11288.84
824.553	11206.81
824.88	11195.28
825.207	11372.46
825.535	11256.07
825.862	11288.62
826.189	11302.4
826.516	11308.5
826.843	11307.37
827.17	11271.44
827.497	11281.16
827.824	11349.4
828.151	11287.49
828.478	11249.97
828.805	11295.85
829.131	11231.67
829.458	11247.26
829.785	11322.06
830.111	11240.93
830.438	11293.36
830.764	11121.39
831.09	11271.67
831.417	11125.23
831.743	11214.72
832.069	11158.45
832.395	11139.69
832.722	11202.52
833.048	11143.08
833.374	11180.82
833.7	11131.11
834.026	11094.72
834.351	11168.39
834.677	11112.8
835.003	11116.64
835.329	11054.05
835.654	11118.45
835.98	11026.02
836.306	11031
836.631	10992.35
836.956	11080.49
837.282	11031
837.607	10969.75
837.932	10950.32
838.258	10856.31
838.583	10900.15
838.908	10762.98
839.233	10872.36
839.558	10892.92
839.883	10774.05
840.208	10776.76
840.533	10741.96
840.858	10823.32
841.182	10829.19
841.507	10760.72
841.832	10792.81
842.156	10715.98
842.481	10662.42
842.805	10651.34
843.13	10572.25
843.454	10618.12
843.778	10595.98
844.103	10504
844.427	10549.43
844.751	10480.73
845.075	10462.65
845.399	10456.55
845.723	10374.52
846.047	10326.38
846.371	10300.17
846.695	10274.63
847.019	10206.61
847.343	10199.83
847.666	10171.58
847.99	10122.32
848.313	10145.37
848.637	10013.17
848.96	9994.19
849.284	10024.92
849.607	9917.8
849.931	9900.86
850.254	9853.85
850.577	9785.6
850.9	9733.85
851.223	9730.46
851.546	9656.34
851.869	9614.31
852.192	9688.66
852.515	9539.51
852.838	9464.71
853.161	9460.42
853.483	9405.5
853.806	9414.99
854.129	9345.39
854.451	9355.79
854.774	9236.47
855.096	9328.89
855.419	9224.04
855.741	9280.98
856.063	9242.12
856.385	9236.69
856.708	9183.13
857.03	9123.25
857.352	9152.17
857.674	9084.83
857.996	9031.5
858.318	9048
858.64	9019.97
858.961	8973.65
859.283	8985.4
859.605	8863.37
859.926	8925.51
860.248	8842.35
860.57	8791.51
860.891	8822.47
861.212	8771.17
861.534	8766.87
861.855	8741.11
862.176	8777.95
862.498	8744.95
862.819	8776.14
863.14	8712.64
863.461	8662.02
863.782	8652.75
864.103	8647.56
864.424	8649.81
864.745	8645.97
865.065	8590.61
865.386	8536.15
865.707	8615.69
866.027	8529.59
866.348	8570.04
866.668	8532.98
866.989	8492.76
867.309	8493.66
867.63	8483.04
867.95	8488.01
868.27	8385.64
868.59	8408.24
868.91	8430.61
869.23	8337.96
869.55	8357.17
869.87	8359.88
870.19	8317.85
870.51	8357.17
870.83	8384.96
871.15	8304.06
871.469	8236.72
871.789	8291.86
872.109	8282.82
872.428	8236.94
872.748	8207.79
873.067	8245.76
873.386	8236.27
873.706	8224.06
874.025	8195.82
874.344	8145.87
874.663	8114.91
874.982	8142.03
875.301	8177.96
875.62	8089.15
875.939	8096.61
876.258	8077.85
876.577	8065.42
876.896	8061.13
877.214	8015.48
877.533	8021.58
877.852	8010.06
878.17	8006.44
878.489	8069.27
878.807	8064.97
879.125	8057.29
879.444	7943.62
879.762	7942.94
880.08	7933.45
880.398	7856.39
880.716	7913.11
881.034	7880.8
881.352	7894.13
881.67	7786.79
881.988	7893.68
882.306	7804.64
882.624	7884.19
882.941	7752.89
883.259	7728.48
883.577	7703.63
883.894	7728.03
884.212	7737.3
884.529	7684.42
884.846	7680.8
885.164	7662.72
885.481	7638.99
885.798	7588.37
886.115	7517.42
886.432	7599.45
886.75	7531.2
887.067	7479.68
887.383	7536.62
887.7	7518.55
888.017	7483.52
888.334	7468.6
888.651	7430.19
888.967	7377.31
889.284	7372.56
889.6	7331.21
889.917	7358.32
890.233	7323.07
890.55	7288.27
890.866	7298.44
891.182	7235.84
891.498	7294.14
891.815	7187.93
892.131	7239.23
892.447	7106.58
892.763	7144.09
893.079	7148.61
893.395	7135.96
893.71	7114.71
894.026	7055.05
894.342	7072.46
894.657	7018.22
894.973	7023.42
895.289	7016.64
895.604	7018.9
895.92	6945
896.235	6854.38
896.55	6881.27
896.865	6905.68
897.181	6888.28
897.496	6841.5
897.811	6801.5
898.126	6810.32
898.441	6715.85
898.756	6734.16
899.071	6705.23
899.386	6686.48
899.7	6673.37
900.015	6605.8
900.33	6650.32
900.644	6606.03
900.959	6604.22
901.273	6563.32
901.588	6546.59
901.902	6531
902.216	6429.53
902.531	6481.06
902.845	6483.32
903.159	6367.39
903.473	6394.28
903.787	6320.84
904.101	6330.78
904.415	6347.05
904.729	6287.62
905.042	6222.99
905.356	6262.99
905.67	6207.85
905.984	6234.74
906.297	6211.46
906.611	6147.96
906.924	6115.64
907.237	6085.36
907.551	6082.65
907.864	6065.25
908.177	6025.93
908.491	6032.26
908.804	5946.61
909.117	5914.07
909.43	5866.61
909.743	5869.1
910.056	5850.57
910.368	5841.3
910.681	5790
910.994	5822.77
911.307	5804.47
911.619	5757.01
911.932	5740.74
912.244	5752.72
912.557	5732.6
912.869	5684.47
913.181	5669.1
913.494	5649.44
913.806	5615.09
914.118	5567.86
914.43	5529.22
914.742	5588.43
915.054	5507.07
915.366	5499.84
915.678	5454.19
915.99	5479.05
916.302	5442.89
916.613	5437.47
916.925	5423.01
917.236	5432.72
917.548	5389.79
917.859	5329.45
918.171	5314.54
918.482	5271.82
918.794	5231.83
919.105	5230.02
919.416	5171.49
919.727	5206.06
920.038	5228.89
920.349	5138.49
920.66	5167.19
920.971	5105.95
921.282	5109.57
921.593	5049.91
921.903	5057.37
922.214	5039.06
922.525	5042.23
922.835	5003.36
923.146	4983.92
923.456	4943.25
923.767	4916.58
924.077	4885.62
924.387	4848.11
924.697	4854.21
925.008	4837.71
925.318	4785.96
925.628	4810.82
925.938	4804.49
926.248	4760.2
926.558	4727.66
926.867	4689.92
927.177	4704.61
927.487	4661.22
927.796	4668
928.106	4645.4
928.416	4642.01
928.725	4610.37
929.034	4588.9
929.344	4609.7
929.653	4534.89
929.962	4534.22
930.271	4513.43
930.581	4481.79
930.89	4465.74
931.199	4403.82
931.508	4447.89
931.817	4479.08
932.125	4369.93
932.434	4388.68
932.743	4339.19
933.051	4335.8
933.36	4327.22
933.669	4292.64
933.977	4258.52
934.286	4267.11
934.594	4273.66
934.902	4211.06
935.21	4174.68
935.519	4219.42
935.827	4185.75
936.135	4169.25
936.443	4122.48
936.751	4105.75
937.059	4114.34
937.367	4088.8
937.674	4056.72
937.982	4072.99
938.29	3991.41
938.597	4003.38
938.905	3976.94
939.213	4012.2
939.52	3982.14
939.827	4004.29
940.135	3924.06
940.442	3915.93
940.749	3877.06
941.056	3892.43
941.363	3850.39
941.67	3849.49
941.977	3839.77
942.284	3810.17
942.591	3807.91
942.898	3816.95
943.205	3811.75
943.511	3757.29
943.818	3796.84
944.125	3708.25
944.431	3686.1
944.738	3680.68
945.044	3671.19
945.35	3662.83
945.657	3656.73
945.963	3630.29
946.269	3609.04
946.575	3575.37
946.881	3571.08
947.187	3578.99
947.493	3583.06
947.799	3532.21
948.105	3537.18
948.41	3495.6
948.716	3501.25
949.022	3500.57
949.327	3487.01
949.633	3425.77
949.938	3423.96
950.244	3421.48
950.549	3366.56
950.854	3376.28
951.16	3425.32
951.465	3382.61
951.77	3325.21
952.075	3364.3
952.38	3300.8
952.685	3305.55
952.99	3298.54
953.294	3252.89
953.599	3294.02
953.904	3261.71
954.209	3215.38
954.513	3237.98
954.818	3190.75
955.122	3174.03
955.426	3197.98
955.731	3165.67
956.035	3130.41
956.339	3155.27
956.643	3150.07
956.948	3080.7
957.252	3064.43
957.556	3076.4
957.86	3050.64
958.163	3067.36
958.467	3055.39
958.771	3015.61
959.075	3013.8
959.378	2995.95
959.682	3006.35
959.985	2978.1
960.289	3012.68
960.592	2936.74
960.896	2971.77
961.199	2955.5
961.502	2933.36
961.805	2892
962.108	2917.76
962.411	2875.73
962.714	2867.14
963.017	2855.39
963.32	2875.28
963.623	2808.16
963.926	2804.09
964.228	2778.33
964.531	2819.23
964.833	2800.25
965.136	2791.21
965.438	2775.39
965.741	2748.73
966.043	2727.94
966.345	2725.68
966.648	2690.65
966.95	2695.17
967.252	2684.77
967.554	2686.58
967.856	2664.66
968.158	2633.02
968.46	2680.93
968.761	2638
969.063	2611.78
969.365	2570.43
969.666	2593.93
969.968	2576.75
970.269	2525.91
970.571	2585.12
970.872	2576.08
971.174	2548.05
971.475	2540.82
971.776	2548.51
972.077	2546.02
972.378	2494.04
972.679	2504.44
972.98	2483.65
973.281	2477.1
973.582	2437.32
973.883	2458.57
974.183	2450.2
974.484	2449.98
974.785	2387.15
975.085	2435.06
975.386	2428.06
975.686	2383.77
975.986	2375.4
976.287	2377.66
976.587	2329.3
976.887	2339.25
977.187	2332.47
977.487	2331.56
977.787	2312.35
978.087	2320.49
978.387	2289.3
978.687	2298.12
978.987	2286.37
979.286	2263.32
979.586	2253.6
979.885	2228.51
980.185	2228.06
980.484	2215.41
980.784	2227.61
981.083	2202.53
981.382	2178.57
981.682	2244.79
981.981	2196.43
982.28	2170.21
982.579	2151
982.878	2172.92
983.177	2144
983.475	2136.99
983.774	2114.85
984.073	2118.91
984.372	2093.38
984.67	2071.23
984.969	2087.05
985.267	2087.05
985.566	2065.36
985.864	2060.38
986.162	2034.17
986.461	2014.06
986.759	2019.03
987.057	2005.7
987.355	2002.31
987.653	2025.13
987.951	2002.98
988.249	1995.53
988.547	1974.51
988.844	1988.07
989.142	1978.13
989.44	1924.57
989.737	1919.6
990.035	1908.3
990.332	1921.63
990.63	1927.51
990.927	1909.88
991.224	1904.46
991.521	1899.94
991.819	1882.08
992.116	1887.51
992.413	1874.85
992.71	1856.32
993.006	1867.85
993.303	1861.07
993.6	1868.07
993.897	1838.24
994.193	1835.76
994.49	1782.2
994.787	1807.51
995.083	1784.01
995.379	1787.17
995.676	1791.92
995.972	1751.69
996.268	1771.58
996.565	1767.96
996.861	1754.4
997.157	1745.36
997.453	1734.06
997.749	1718.92
998.044	1723.9
998.34	1718.7
998.636	1698.81
998.932	1696.55
999.227	1685.93
999.523	1669.89
999.818	1670.34
1000.114	1649.32
1000.409	1649.1
1000.704	1666.95
1001	1632.6
1001.295	1604.58
1001.59	1621.98
1001.885	1647.51
1002.18	1591.24
1002.475	1616.1
1002.77	1594.86
1003.065	1567.52
1003.359	1581.07
1003.654	1563.45
1003.949	1559.83
1004.243	1576.33
1004.538	1511.7
1004.832	1514.18
1005.127	1523.9
1005.421	1491.36
1005.715	1470.12
1006.009	1506.5
1006.304	1487.07
1006.598	1467.18
1006.892	1468.99
1007.186	1433.06
1007.48	1464.02
1007.773	1438.48
1008.067	1442.09
1008.361	1432.83
1008.655	1429.89
1008.948	1405.26
1009.242	1447.97
1009.535	1413.62
1009.829	1384.24
1010.122	1391.93
1010.415	1381.76
1010.708	1379.72
1011.001	1341.76
1011.295	1370.91
1011.588	1365.49
1011.881	1337.01
1012.173	1351.7
1012.466	1334.53
1012.759	1297.47
1013.052	1305.6
1013.344	1334.3
1013.637	1326.39
1013.93	1262.89
1014.222	1298.37
1014.514	1285.04
1014.807	1271.48
1015.099	1270.57
1015.391	1255.89
1015.683	1245.94
1015.976	1235.77
1016.268	1218.82
1016.56	1230.35
1016.851	1211.59
1017.143	1208.2
1017.435	1200.97
1017.727	1214.98
1018.018	1215.66
1018.31	1187.64
1018.602	1188.09
1018.893	1192.16
1019.185	1181.76
1019.476	1163.46
1019.767	1168.2
1020.058	1167.53
1020.35	1119.39
1020.641	1145.61
1020.932	1132.05
1021.223	1140.86
1021.514	1106.74
1021.804	1102.22
1022.095	1124.82
1022.386	1088.88
1022.677	1081.2
1022.967	1060.64
1023.258	1062.9
1023.548	1064.25
1023.839	1045.5
1024.129	1066.06
1024.419	1045.27
1024.709	1025.83
1025	1032.61
1025.29	1011.6
1025.58	1034.2
1025.87	1010.92
1026.16	1005.27
1026.449	998.26
1026.739	996.91
1027.029	978.15
1027.319	989.68
1027.608	969.34
1027.898	972.73
1028.187	986.74
1028.477	976.12
1028.766	966.63
1029.055	953.07
1029.344	944.71
1029.634	933.18
1029.923	938.15
1030.212	934.54
1030.501	932.96
1030.79	912.62
1031.078	896.12
1031.367	894.99
1031.656	885.27
1031.945	891.6
1032.233	873.75
1032.522	880.98
1032.81	863.13
1033.099	876.01
1033.387	857.48
1033.675	886.4
1033.963	872.84
1034.251	849.79
1034.54	842.79
1034.828	833.07
1035.116	852.28
1035.403	840.08
1035.691	823.35
1035.979	820.87
1036.267	797.82
1036.554	805.73
1036.842	806.63
1037.129	811.15
1037.417	814.09
1037.704	785.16
1037.992	800.3
1038.279	796.46
1038.566	772.96
1038.853	772.96
1039.14	772.96
