Data from white_poster_card_FLMS001491_00056.txt Node
Date: Wed Feb 08 11:51:43 GMT 2017
User: dcchb
Spectrometer: FLMS00149
Trigger mode: 0
Integration Time (sec): 2.000000E-2
Scans to average: 10
Electric dark correction enabled: true
Nonlinearity correction enabled: false
Boxcar width: 0
XAxis mode: Wavelengths
Number of Pixels in Spectrum: 2048
>>>>>Begin Spectral Data<<<<<
341.393	-28.3
341.776	-28.3
342.16	-28.3
342.543	-50.9
342.927	-67.17
343.31	-64.24
343.693	-87.51
344.077	-68.76
344.46	-56.1
344.843	-48.87
345.226	-12.26
345.61	-21.98
345.993	-20.39
346.376	-7.29
346.759	-2.09
347.142	17.8
347.525	36.33
347.908	76.55
348.291	82.2
348.674	92.6
349.057	84.01
349.44	100.05
349.823	109.32
350.206	164.23
350.588	208.07
350.971	216.21
351.354	212.59
351.737	240.84
352.119	258.69
352.502	262.54
352.884	289.43
353.267	278.81
353.65	297.11
354.032	297.79
354.414	327.84
354.797	307.05
355.179	310.67
355.562	336.66
355.944	333.95
356.326	342.31
356.709	331.69
357.091	340.73
357.473	348.86
357.855	328.07
358.238	359.93
358.62	344.34
359.002	347.73
359.384	327.62
359.766	347.28
360.148	339.82
360.53	330.56
360.912	324
361.294	331.23
361.676	340.27
362.057	334.85
362.439	344.79
362.821	315.87
363.203	318.81
363.584	336.21
363.966	317.68
364.348	324.91
364.729	326.49
365.111	312.93
365.493	316.55
365.874	331.23
366.256	297.56
366.637	314.96
367.019	316.55
367.4	321.74
367.781	331.69
368.163	312.7
368.544	321.29
368.925	317.22
369.306	313.61
369.688	324.23
370.069	320.84
370.45	314.29
370.831	298.47
371.212	310.67
371.593	319.94
371.974	311.12
372.355	316.09
372.736	331.23
373.117	313.16
373.498	343.89
373.879	320.39
374.26	317.68
374.641	328.3
375.021	303.21
375.402	314.51
375.783	321.29
376.163	340.05
376.544	342.08
376.925	323.78
377.305	321.52
377.686	336.43
378.066	331.23
378.447	325.13
378.827	334.85
379.208	351.8
379.588	338.47
379.968	335.3
380.349	326.94
380.729	361.29
381.109	330.1
381.489	328.52
381.87	320.39
382.25	332.36
382.63	357.67
383.01	339.37
383.39	359.48
383.77	352.7
384.15	339.82
384.53	368.75
384.91	373.04
385.29	355.19
385.67	356.32
386.049	389.99
386.429	368.75
386.809	362.19
387.189	357
387.568	357.9
387.948	367.84
388.328	383.89
388.707	355.41
389.087	398.13
389.466	389.09
389.846	381.4
390.225	392.7
390.605	391.57
390.984	371.01
391.363	401.06
391.743	403.32
392.122	384.79
392.501	411.91
392.881	423.89
393.26	406.94
393.639	399.71
394.018	432.02
394.397	410.33
394.776	412.36
395.155	402.42
395.534	393.38
395.913	400.61
396.292	419.37
396.671	415.3
397.05	422.08
397.429	435.41
397.808	427.5
398.186	439.25
398.565	444.45
398.944	427.5
399.323	440.38
399.701	449.65
400.08	447.62
400.458	449.2
400.837	426.37
401.215	492.13
401.594	465.24
401.972	454.85
402.351	450.78
402.729	489.42
403.107	474.73
403.486	460.95
403.864	474.96
404.242	467.95
404.62	483.55
404.999	481.74
405.377	503.43
405.755	533.26
406.133	508.18
406.511	517.22
406.889	501.4
407.267	514.05
407.645	504.34
408.023	534.62
408.401	536.88
408.779	540.95
409.156	568.97
409.534	569.87
409.912	565.8
410.29	598.57
410.667	582.53
411.045	621.85
411.422	605.8
411.8	617.78
412.178	654.16
412.555	672.24
412.933	664.11
413.31	701.62
413.687	690.09
414.065	732.35
414.442	732.13
414.819	737.1
415.197	716.76
415.574	770.32
415.951	769.19
416.328	785.46
416.705	794.95
417.082	815.97
417.46	826.81
417.837	832.24
418.214	839.47
418.591	856.42
418.967	870.66
419.344	902.74
419.721	905
420.098	913.59
420.475	946.81
420.852	970.09
421.228	972.57
421.605	964.21
421.982	1008.28
422.358	1003.98
422.735	1022.74
423.111	1003.53
423.488	1045.79
423.864	1081.05
424.241	1090.76
424.617	1112.91
424.994	1098.22
425.37	1126.24
425.746	1115.39
426.123	1142.96
426.499	1160.82
426.875	1165.56
427.251	1195.62
427.627	1213.24
428.003	1219.8
428.379	1231.78
428.756	1239.68
429.132	1273.81
429.507	1302.06
429.883	1325.56
430.259	1331.43
430.635	1340.02
431.011	1373.01
431.387	1407.82
431.763	1440.81
432.138	1429.28
432.514	1446.01
432.89	1444.88
433.265	1488.94
433.641	1512.67
434.016	1512.67
434.392	1547.25
434.767	1574.14
435.143	1585.66
435.518	1606.68
435.894	1595.16
436.269	1627.25
436.644	1650.3
437.02	1684.87
437.395	1689.39
437.77	1721.03
438.145	1736.17
438.52	1771.2
438.895	1751.99
439.271	1788.6
439.646	1791.76
440.021	1844.64
440.395	1837.18
440.77	1816.39
441.145	1856.84
441.52	1882.15
441.895	1882.83
442.27	1926.45
442.645	1903.4
443.019	1937.29
443.394	1934.81
443.769	1969.61
444.143	1956.95
444.518	1983.85
444.892	1990.85
445.267	1995.37
445.641	2021.59
446.016	2024.3
446.39	2042.83
446.764	2063.39
447.139	2052.77
447.513	2071.98
447.887	2085.76
448.262	2110.85
448.636	2148.59
449.01	2129.15
449.384	2152.88
449.758	2139.1
450.132	2196.27
450.506	2195.82
450.88	2256.38
451.254	2198.76
451.628	2257.51
452.002	2296.83
452.376	2287.34
452.75	2332.99
453.123	2337.74
453.497	2358.98
453.871	2396.72
454.244	2440.33
454.618	2463.38
454.992	2455.02
455.365	2456.15
455.739	2541.35
456.112	2543.61
456.486	2545.41
456.859	2609.14
457.232	2647.33
457.606	2630.16
457.979	2690.27
458.352	2704.51
458.725	2762.13
459.099	2779.53
459.472	2775.01
459.845	2840.09
460.218	2832.41
460.591	2909.92
460.964	2883.71
461.337	2935.01
461.71	3038.96
462.083	3073.08
462.456	3068.11
462.829	3057.72
463.201	3151.27
463.574	3137.71
463.947	3172.29
464.32	3271.95
464.692	3264.49
465.065	3295
465.438	3325.05
465.81	3418.16
466.183	3438.05
466.555	3511.72
466.928	3485.28
467.3	3507.65
467.672	3555.33
468.045	3670.81
468.417	3690.47
468.789	3650.47
469.161	3731.82
469.534	3813.4
469.906	3852.05
470.278	3889.33
470.65	3897.69
471.022	4043.23
471.394	4089.1
471.766	4122.1
472.138	4166.16
472.51	4203
472.882	4300.85
473.253	4367.74
473.625	4413.39
473.997	4471.92
474.369	4451.35
474.74	4529.32
475.112	4623.1
475.484	4710.55
475.855	4814.28
476.227	4842.75
476.598	4949.42
476.97	4937.67
477.341	5167.94
477.713	5178.79
478.084	5188.28
478.455	5369.75
478.827	5402.74
479.198	5548.05
479.569	5573.81
479.94	5667.14
480.311	5730.19
480.682	5877.53
481.053	5950.97
481.424	6084.53
481.795	6188.71
482.166	6228.03
482.537	6298.31
482.908	6421.92
483.279	6487.46
483.65	6589.6
484.021	6670.5
484.391	6879.54
484.762	6869.82
485.133	6938.29
485.503	7042.02
485.874	7233.2
486.244	7274.78
486.615	7428.9
486.985	7456.02
487.356	7609.91
487.726	7664.83
488.097	7825.05
488.467	7883.8
488.837	8031.6
489.207	8112.5
489.578	8286.51
489.948	8278.14
490.318	8441.53
490.688	8416.22
491.058	8585.71
491.428	8681.98
491.798	8781.18
492.168	8939.14
492.538	9040.16
492.908	9096.88
493.278	9265.24
493.648	9307.27
494.017	9407.83
494.387	9479.02
494.757	9621.16
495.126	9636.07
495.496	9738.44
495.866	9790.65
496.235	9858.67
496.605	10000.81
496.974	10005.1
497.344	10177.53
497.713	10256.62
498.082	10297.07
498.452	10433.79
498.821	10389.05
499.19	10571.42
499.559	10585.2
499.928	10679.89
500.298	10749.27
500.667	10868.81
501.036	10882.82
501.405	10979.54
501.774	11078.3
502.143	11146.54
502.512	11114
502.88	11271.06
503.249	11321.45
503.618	11430.83
503.987	11468.34
504.356	11575.23
504.724	11664.27
505.093	11641.22
505.462	11772.29
505.83	11798.28
506.199	11981.32
506.567	12084.82
506.936	12081.21
507.304	12218.15
507.672	12280.52
508.041	12389.67
508.409	12464.7
508.777	12597.58
509.145	12669.67
509.514	12690.68
509.882	12795.99
510.25	12873.28
510.618	13017
510.986	13048.19
511.354	13109.43
511.722	13255.87
512.09	13365.47
512.458	13354.62
512.826	13569.76
513.193	13599.59
513.561	13719.13
513.929	13831.44
514.297	13973.36
514.664	14003.19
515.032	14138.55
515.4	14185.56
515.767	14226.69
516.135	14433.01
516.502	14273.92
516.869	14620.12
517.237	14625.1
517.604	14619.45
517.972	14845.88
518.339	14957.74
518.706	15065.54
519.073	15128.81
519.44	15209.94
519.808	15470.27
520.175	15360.22
520.542	15623.04
520.909	15577.39
521.276	15684.73
521.643	15923.59
522.009	16003.36
522.376	16113.19
522.743	16218.27
523.11	16384.15
523.477	16542.33
523.843	16643.57
524.21	16826.17
524.577	16958.14
524.943	17086.95
525.31	17146.39
525.676	17194.07
526.043	17431.8
526.409	17479.48
526.776	17689.2
527.142	17795.41
527.508	17904.78
527.874	18029.3
528.241	18135.74
528.607	18242.4
528.973	18406.92
529.339	18428.16
529.705	18616.18
530.071	18683.75
530.437	18808.26
530.803	18909.5
531.169	19012.78
531.535	19058.43
531.901	19153.56
532.267	19279.21
532.632	19412.54
532.998	19489.37
533.364	19587.23
533.73	19671.52
534.095	19845.52
534.461	19915.13
534.826	19981.79
535.192	20201.45
535.557	20287.55
535.923	20268.79
536.288	20269.47
536.653	20484.6
537.019	20401.67
537.384	20573.64
537.749	20698.38
538.114	20779.51
538.479	20804.59
538.845	20867.87
539.21	20940.18
539.575	21009.56
539.94	21156.68
540.305	21235.09
540.67	21299.72
541.034	21382.66
541.399	21355.31
541.764	21424.69
542.129	21644.8
542.494	21650
542.858	21811.8
543.223	21815.87
543.587	21901.51
543.952	22047.5
544.316	22083.88
544.681	22104.45
545.045	22254.95
545.41	22367.04
545.774	22282.52
546.138	22398.68
546.503	22409.98
546.867	22490.88
547.231	22639.8
547.595	22797.99
547.959	22725
548.324	22878.89
548.688	22898.1
549.052	23088.83
549.416	23059.45
549.779	23046.12
550.143	23194.14
550.507	23437.29
550.871	23389.61
551.235	23549.15
551.599	23627.34
551.962	23687
552.326	23847.23
552.689	23816.94
553.053	23820.56
553.417	23939.2
553.78	24207.44
554.143	24141
554.507	24198.86
554.87	24385.97
555.234	24695.34
555.597	24519.98
555.96	24602.91
556.323	24696.92
556.686	24882.45
557.05	24988.89
557.413	25032.05
557.776	25061.43
558.139	25282.22
558.502	25348.2
558.865	25431.82
559.228	25614.19
559.59	25688.76
559.953	25779.38
560.316	26075.64
560.679	26064.79
561.041	26261.4
561.404	26347.27
561.767	26479.47
562.129	26470.89
562.492	26759.47
562.854	26799.92
563.217	26724.21
563.579	27063.64
563.941	27128.04
564.304	27234.03
564.666	27429.5
565.028	27486
565.39	27443.29
565.753	27716.05
566.115	27674.47
566.477	27833.34
566.839	27935.48
567.201	28075.59
567.563	28129.83
567.925	28361.91
568.287	28379.54
568.648	28389.93
569.01	28538.85
569.372	28834.67
569.734	28700.21
570.095	28930.26
570.457	29046.19
570.819	29135.22
571.18	29103.36
571.542	29250.93
571.903	29366.18
572.265	29461.99
572.626	29613.63
572.987	29601.65
573.349	29782.89
573.71	29834.41
574.071	29876.45
574.432	29949.21
574.794	30308.3
575.155	30165.48
575.516	30174.29
575.877	30295.64
576.238	30389.2
576.599	30521.63
576.96	30452.02
577.32	30417.9
577.681	30569.99
578.042	30748.29
578.403	30710.77
578.763	30698.35
579.124	30925.46
579.485	30917.32
579.845	30993.25
580.206	30946.02
580.566	31025.12
580.927	31062.86
581.287	31153.25
581.648	31076.64
582.008	31175.85
582.368	31132.91
582.728	31172.91
583.089	31115.51
583.449	31141.05
583.809	31063.76
584.169	31246.81
584.529	31161.61
584.889	31357.54
585.249	31208.61
585.609	31127.94
585.969	31253.81
586.329	31216.98
586.688	31402.73
587.048	31265.34
587.408	31192.57
587.768	31208.16
588.127	31298.1
588.487	31237.54
588.846	31355.28
589.206	31159.8
589.565	31301.95
589.925	31665.78
590.284	31366.58
590.643	31405.45
591.003	31466.69
591.362	31538.32
591.721	31466.69
592.08	31545.33
592.44	31651.54
592.799	31564.09
593.158	31502.39
593.517	31486.12
593.876	31568.83
594.235	31639.79
594.593	31532.9
594.952	31694.48
595.311	31478.66
595.67	31590.53
596.029	31771.76
596.387	31803.4
596.746	31741.03
597.104	31610.19
597.463	31650.18
597.822	31804.53
598.18	31633.91
598.538	31607.02
598.897	31941.7
599.255	31676.17
599.613	32138.76
599.972	31952.32
600.33	31965.66
600.688	31826.9
601.046	31966.33
601.404	32113.22
601.762	32124.75
602.12	32191.87
602.478	32192.54
602.836	32209.49
603.194	32058.31
603.552	32098.99
603.91	31964.53
604.268	32099.44
604.625	32065.32
604.983	32197.51
605.341	32067.57
605.698	32255.82
606.056	32390.05
606.413	32347.12
606.771	32425.31
607.128	32426.21
607.485	32305.08
607.843	32358.41
608.2	32512.99
608.557	32575.58
608.914	32547.11
609.272	32755.69
609.629	32715.69
609.986	32753.66
610.343	32804.05
610.7	32963.14
611.057	32856.48
611.414	32812.41
611.771	32774.9
612.127	32956.14
612.484	33016.93
612.841	32879.98
613.198	33018.74
613.554	33015.57
613.911	33135.12
614.267	33126.3
614.624	33106.19
614.98	33109.81
615.337	33301.89
615.693	33225.51
616.05	33166.76
616.406	33378.95
616.762	33232.97
617.118	33256.24
617.475	33397.71
617.831	33467.76
618.187	33416.24
618.543	33529.91
618.899	33579.17
619.255	33508.21
619.611	33608.1
619.967	33629.34
620.323	33761.77
620.678	33641.54
621.034	33557.03
621.39	33681.09
621.746	33501.44
622.101	33853.74
622.457	33441.78
622.812	33727.64
623.168	33673.18
623.523	33678.38
623.879	33799.96
624.234	33536.69
624.589	33665.05
624.945	33813.97
625.3	33797.02
625.655	33663.69
626.01	33744.82
626.365	33785.72
626.72	33666.85
627.075	33715.67
627.43	33609.23
627.785	33546.41
628.14	33612.85
628.495	33649.45
628.85	33602.45
629.205	33513.19
629.559	33621.88
629.914	33497.82
630.269	33581.43
630.623	33435.9
630.978	33355.45
631.332	33485.62
631.687	33400.42
632.041	33183.93
632.396	33338.73
632.75	33317.71
633.104	33281.1
633.459	33164.04
633.813	33122.91
634.167	33236.36
634.521	33063.25
634.875	33047.21
635.229	33103.25
635.583	33005.18
635.937	32845.63
636.291	32893.77
636.645	32947.55
636.999	32867.78
637.352	32943.03
637.706	32652.64
638.06	32797.05
638.413	32725.41
638.767	32604.06
639.121	32788.01
639.474	32502.14
639.828	32562.7
640.181	32369.94
640.534	32406.1
640.888	32295.82
641.241	32212.43
641.594	32282.71
641.947	32350.96
642.301	32181.02
642.654	32298.3
643.007	32174.92
643.36	32263.05
643.713	32096.5
644.066	32178.98
644.419	32176.27
644.771	31882.27
645.124	31472.79
645.477	31587.36
645.83	31149.41
646.182	31091.1
646.535	31085.23
646.888	31150.54
647.24	30934.05
647.593	31167.03
647.945	31000.94
648.298	30961.39
648.65	30833.03
649.002	30822.18
649.355	30876.65
649.707	30895.18
650.059	30887.27
650.411	31252.46
650.763	31409.29
651.115	31601.82
651.467	31449.06
651.819	31357.09
652.171	31462.39
652.523	31384.66
652.875	31302.17
653.227	31169.07
653.578	31285
653.93	31152.57
654.282	31056.98
654.633	31029.64
654.985	31158.45
655.337	31065.12
655.688	31088.17
656.039	31059.47
656.391	30748.74
656.742	30989.86
657.094	30967.26
657.445	31052.23
657.796	30975.17
658.147	30883.65
658.498	30845.23
658.849	30919.13
659.2	30791.68
659.551	30839.36
659.902	30869.19
660.253	30815.4
660.604	30774.28
660.955	30569.31
661.306	30728.18
661.656	30726.14
662.007	30710.32
662.358	30560.72
662.708	30666.93
663.059	30617.67
663.409	30398.24
663.76	30626.26
664.11	30580.16
664.461	30505.36
664.811	30562.53
665.161	30518.92
665.511	30417.22
665.862	30373.16
666.212	30585.13
666.562	30445.02
666.912	30540.61
667.262	30351.91
667.612	30514.4
667.962	30507.16
668.312	30454.96
668.662	30596.65
669.011	30518.69
669.361	30431.69
669.711	30310.78
670.06	30149.66
670.41	30260.62
670.76	30162.99
671.109	30414.96
671.459	30173.39
671.808	30186.04
672.157	30201.41
672.507	29967.29
672.856	29967.97
673.205	29984.01
673.554	30130.45
673.904	30012.26
674.253	30089.55
674.602	29939.95
674.951	29654.53
675.3	29501.09
675.649	29881.87
675.998	29844.36
676.346	29792.83
676.695	29904.69
677.044	29653.85
677.393	29772.72
677.741	29790.35
678.09	29783.12
678.438	29616.57
678.787	29659.5
679.135	29718.26
679.484	29499.05
679.832	29715.77
680.181	29389.23
680.529	29620.86
680.877	29400.53
681.225	29449.34
681.573	29691.14
681.922	29340.64
682.27	29233.07
682.618	29371.37
682.966	29195.79
683.314	29220.42
683.661	29196.69
684.009	28987.2
684.357	29006.19
684.705	28812.75
685.053	28866.53
685.4	28991.05
685.748	28722.58
686.095	28824.95
686.443	28628.8
686.79	28605.29
687.138	28690.04
687.485	28686.19
687.832	28465.86
688.18	28512.64
688.527	28272.65
688.874	28422.47
689.221	28205.76
689.568	28211.63
689.915	28183.61
690.262	28172.31
690.609	28104.06
690.956	27968.7
691.303	27927.34
691.65	27904.75
691.997	27848.02
692.344	27627.69
692.69	27574.59
693.037	27666.56
693.383	27361.94
693.73	27499.56
694.077	27260.7
694.423	27321.26
694.769	27267.93
695.116	27099.57
695.462	27192.45
695.808	27039.23
696.155	27097.31
696.501	26753.36
696.847	26749.3
697.193	26678.34
697.539	26796.53
697.885	26496.2
698.231	26423.43
698.577	26499.13
698.923	26395.86
699.269	26345.69
699.614	25994.06
699.96	26141.86
700.306	26206.26
700.651	25912.03
700.997	25834.97
701.342	25871.58
701.688	25863.44
702.033	25707.97
702.379	25710.91
702.724	25616.9
703.069	25679.95
703.415	25377.58
703.76	25329.22
704.105	25272.95
704.45	25304.59
704.795	25142.11
705.14	25098.04
705.485	25061.66
705.83	24958.16
706.175	24943.69
706.52	24972.62
706.865	24840.19
707.209	24731.5
707.554	24602.46
707.899	24786.18
708.243	24558.39
708.588	24478.17
708.932	24416.48
709.277	24388
709.621	24383.71
709.966	24240.66
710.31	24347.33
710.654	24038.86
710.998	24041.35
711.342	24176.93
711.687	24016.49
712.031	23930.61
712.375	23794.8
712.719	23870.28
713.063	23961.8
713.407	23869.82
713.75	23826.21
714.094	23769.94
714.438	23670.96
714.782	23654.46
715.125	23526.78
715.469	23662.6
715.812	23407.46
716.156	23442.26
716.499	23352.32
716.843	23403.4
717.186	23278.2
717.53	23321.14
717.873	23322.04
718.216	23233
718.559	23149.39
718.902	22885.44
719.246	23017.19
719.589	23002.05
719.932	22737.42
720.275	22884.77
720.617	22742.17
720.96	22720.93
721.303	22694.04
721.646	22706.24
721.989	22570.88
722.331	22646.81
722.674	22543.76
723.016	22553.02
723.359	22641.16
723.701	22513.93
724.044	22336.53
724.386	22151.9
724.729	22309.19
725.071	22269.87
725.413	22291.11
725.755	22215.18
726.097	22124.33
726.439	22070.55
726.782	21932.02
727.124	22217.89
727.465	22025.13
727.807	21953.94
728.149	21868.97
728.491	21845.7
728.833	21987.39
729.175	21805.92
729.516	21743.78
729.858	21709.2
730.199	21815.42
730.541	21590.79
730.882	21546.5
731.224	21736.1
731.565	21464.01
731.906	21491.81
732.248	21438.25
732.589	21390.57
732.93	21479.83
733.271	21422.43
733.612	21344.69
733.953	21422.88
734.294	21254.53
734.635	21236.67
734.976	21380.17
735.317	21105.38
735.658	21098.82
735.999	21048.2
736.339	21037.36
736.68	21071.93
737.021	21002.33
737.361	20914.2
737.702	21021.54
738.042	20880.3
738.383	20805.05
738.723	20852.73
739.063	20862.22
739.404	20871.03
739.744	20761.21
740.084	20588.78
740.424	20827.42
740.764	20641.89
741.104	20774.09
741.444	20565.96
741.784	20498.84
742.124	20579.06
742.464	20543.58
742.804	20554.21
743.143	20460.2
743.483	20437.82
743.823	20374.1
744.162	20308.11
744.502	20416.13
744.841	20249.81
745.181	20213.65
745.52	20137.04
745.86	20222.24
746.199	20161.22
746.538	20090.49
746.877	20127.1
747.216	20131.84
747.556	19933.66
747.895	20023.37
748.234	19866.77
748.573	19918.74
748.911	19801.91
749.25	19895.01
749.589	19764.4
749.928	19767.11
750.267	19771.63
750.605	19658.41
750.944	19702.7
751.283	19596.72
751.621	19656.38
751.96	19561.24
752.298	19464.52
752.636	19546.32
752.975	19448.47
753.313	19322.6
753.651	19411.64
753.989	19252.54
754.327	19174.58
754.666	19140.46
755.004	19092.1
755.342	19125.77
755.679	19176.84
756.017	19000.8
756.355	19109.72
756.693	18875.38
757.031	18948.6
757.368	18908.6
757.706	18821.37
758.044	18704.08
758.381	18709.51
758.719	18569.62
759.056	18678.32
759.394	18544.31
759.731	18556.74
760.068	18404.88
760.405	18384.54
760.743	18332.79
761.08	18419.57
761.417	18247.15
761.754	18164.89
762.091	18065.23
762.428	18113.59
762.765	18039.47
763.102	18066.81
763.438	17978
763.775	17825.92
764.112	17895.29
764.449	17818.23
764.785	17735.75
765.122	17640.61
765.458	17584.79
765.795	17572.81
766.131	17428.86
766.467	17501.63
766.804	17359.94
767.14	17236.55
767.476	17249.89
767.812	17170.11
768.148	17207.17
768.485	17078.82
768.821	16996.78
769.157	17043.56
769.492	16934.87
769.828	16841.99
770.164	16715.44
770.5	16744.81
770.836	16773.51
771.171	16648.09
771.507	16569.45
771.842	16492.62
772.178	16520.64
772.513	16461.43
772.849	16366.97
773.184	16322.68
773.519	16232.74
773.855	16110.03
774.19	16110.93
774.525	16069.58
774.86	16039.07
775.195	15988
775.53	15963.59
775.865	15872.52
776.2	15746.42
776.535	15619.65
776.87	15622.13
777.205	15606.76
777.539	15516.15
777.874	15530.38
778.209	15417.84
778.543	15346.21
778.878	15262.59
779.212	15312.54
779.547	15186.66
779.881	15287.45
780.215	15130.62
780.55	15176.27
780.884	14971.08
781.218	15000.23
781.552	15008.36
781.886	14927.23
782.22	14795.71
782.554	14749.16
782.888	14656.28
783.222	14536.96
783.556	14504.87
783.889	14512.78
784.223	14460.35
784.557	14478.43
784.89	14350.07
785.224	14342.84
785.557	14223.52
785.891	14142.17
786.224	14185.79
786.558	14184.2
786.891	14027.82
787.224	13929.29
787.557	13937.2
787.891	13885.45
788.224	13870.54
788.557	13861.27
788.89	13738.79
789.223	13788.28
789.556	13672.35
789.888	13591.9
790.221	13590.55
790.554	13420.16
790.887	13540.83
791.219	13394.85
791.552	13396.2
791.884	13209.09
792.217	13270.78
792.549	13224.68
792.882	13148.3
793.214	13079.15
793.546	13075.31
793.879	13057.91
794.211	13012.71
794.543	13000.28
794.875	13002.99
795.207	12974.74
795.539	12913.73
795.871	12859.94
796.203	12760.74
796.535	12756.9
796.867	12701.3
797.198	12541.76
797.53	12610.23
797.862	12532.27
798.193	12543.57
798.525	12478.49
798.856	12431.48
799.188	12385.83
799.519	12347.64
799.85	12270.81
800.182	12225.16
800.513	12223.58
800.844	12199.4
801.175	12198.72
801.506	12140.42
801.837	12052.28
802.168	12078.72
802.499	11987.2
802.83	11934.54
803.161	11874.43
803.491	11905.17
803.822	11929.35
804.153	11816.36
804.483	11648.9
804.814	11670.6
805.145	11723.7
805.475	11671.73
805.805	11679.18
806.136	11601.22
806.466	11638.28
806.796	11600.99
807.126	11427.89
807.457	11391.28
807.787	11475.8
808.117	11426.31
808.447	11353.32
808.777	11400.55
809.107	11327.1
809.436	11278.29
809.766	11258.63
810.096	11241.23
810.426	11193.55
810.755	11207.33
811.085	11173.89
811.414	11144.06
811.744	11094.12
812.073	11040.11
812.403	11036.26
812.732	10970.95
813.061	10970.73
813.39	10955.36
813.719	10903.39
814.049	10905.19
814.378	10918.98
814.707	10818.64
815.036	10813.9
815.365	10748.59
815.693	10629.04
816.022	10727.35
816.351	10642.83
816.68	10625.88
817.008	10598.31
817.337	10498.88
817.665	10573.22
817.994	10536.16
818.322	10513.34
818.651	10483.74
818.979	10456.17
819.307	10493.45
819.636	10422.72
819.964	10377.98
820.292	10403.74
820.62	10394.47
820.948	10384.76
821.276	10403.96
821.604	10327.81
821.932	10346.34
822.259	10362.83
822.587	10300.46
822.915	10285.32
823.243	10332.78
823.57	10355.15
823.898	10302.72
824.225	10311.99
824.553	10233.8
824.88	10302.5
825.207	10294.81
825.535	10229.05
825.862	10223.18
826.189	10285.55
826.516	10382.72
826.843	10300.46
827.17	10326.68
827.497	10329.62
827.824	10260.01
828.151	10343.4
828.478	10287.13
828.805	10309.28
829.131	10223.18
829.458	10297.75
829.785	10244.19
830.111	10207.36
830.438	10381.59
830.764	10249.39
831.09	10295.27
831.417	10170.3
831.743	10265.44
832.069	10240.13
832.395	10195.61
832.722	10222.5
833.048	10177.75
833.374	10171.88
833.7	10179.34
834.026	10163.52
834.351	10175.27
834.677	10089.17
835.003	10196.74
835.329	10122.84
835.654	10121.03
835.98	10041.49
836.306	10095.27
836.631	10041.26
836.956	10060.47
837.282	10111.09
837.607	9996.97
837.932	9959
838.258	9930.53
838.583	10035.84
838.908	9925.11
839.233	9959.23
839.558	9914.03
839.883	9871.1
840.208	9810.08
840.533	9818.89
840.858	9869.51
841.182	9816.63
841.507	9823.41
841.832	9807.14
842.156	9743.42
842.481	9799.69
842.805	9742.06
843.13	9686.47
843.454	9704.77
843.778	9648.96
844.103	9655.06
844.427	9568.73
844.751	9633.36
845.075	9638.56
845.399	9544.1
845.723	9486.93
846.047	9487.83
846.371	9433.37
846.695	9465.91
847.019	9375.52
847.343	9335.97
847.666	9280.15
847.99	9260.72
848.313	9182.98
848.637	9225.24
848.96	9154.28
849.284	9145.69
849.607	9090.78
849.931	9065.24
850.254	9040.38
850.577	8921.97
850.9	8871.8
851.223	8822.31
851.546	8857.34
851.869	8788.86
852.192	8785.7
852.515	8709.32
852.838	8674.74
853.161	8794.74
853.483	8666.16
853.806	8609.43
854.129	8656.89
854.451	8551.13
854.774	8527.4
855.096	8516.1
855.419	8431.36
855.741	8454.41
856.063	8440.4
856.385	8395.2
856.708	8344.58
857.03	8348.42
857.352	8356.11
857.674	8321.98
857.996	8321.76
858.318	8263.68
858.64	8241.76
858.961	8243.79
859.283	8136.45
859.605	8159.28
859.926	8212.16
860.248	8111.14
860.57	8058.49
860.891	8157.92
861.212	8044.7
861.534	8072.5
861.855	8044.03
862.176	7995.67
862.498	8008.09
862.819	8011.48
863.14	8049
863.461	7977.36
863.782	7943.01
864.103	7924.71
864.424	7883.13
864.745	7894.65
865.065	7851.71
865.386	7829.79
865.707	7804.48
866.027	7847.87
866.348	7921.09
866.668	7877.25
866.989	7766.74
867.309	7746.41
867.63	7743.24
867.95	7731.49
868.27	7659.63
868.59	7722.45
868.91	7691.27
869.23	7691.04
869.55	7658.5
869.87	7660.53
870.19	7678.61
870.51	7616.24
870.83	7730.36
871.15	7584.15
871.469	7537.37
871.789	7568.78
872.109	7597.48
872.428	7514.55
872.748	7596.58
873.067	7517.94
873.386	7558.84
873.706	7498.28
874.025	7506.64
874.344	7480.42
874.663	7480.88
874.982	7453.08
875.301	7464.38
875.62	7454.44
875.939	7407.88
876.258	7393.65
876.577	7381.9
876.896	7354.1
877.214	7364.72
877.533	7359.3
877.852	7372.41
878.17	7294.89
878.489	7345.74
878.807	7282.92
879.125	7336.7
879.444	7313.2
879.762	7276.59
880.08	7282.69
880.398	7212.18
880.716	7237.27
881.034	7154.33
881.352	7212.86
881.67	7189.81
881.988	7182.13
882.306	7229.13
882.624	7191.17
882.941	7112.3
883.259	7095.35
883.577	7040.66
883.894	7042.7
884.212	7059.87
884.529	7068.01
884.846	7061.9
885.164	6976.94
885.481	6974.45
885.798	6949.59
886.115	6934.9
886.432	6939.2
886.75	6903.94
887.067	6937.61
887.383	6878.86
887.7	6879.99
888.017	6898.97
888.334	6871.63
888.651	6838.86
888.967	6817.84
889.284	6765.19
889.6	6780.1
889.917	6743.27
890.233	6757.96
890.55	6750.27
890.866	6713.21
891.182	6714.34
891.498	6633.44
891.815	6647.9
892.131	6588.7
892.447	6680.67
892.763	6592.31
893.079	6544.63
893.395	6531.07
893.71	6516.61
894.026	6495.82
894.342	6505.54
894.657	6455.59
894.973	6456.72
895.289	6449.27
895.604	6458.76
895.92	6421.47
896.235	6349.61
896.55	6359.32
896.865	6343.96
897.181	6316.84
897.496	6305.09
897.811	6204.07
898.126	6297.18
898.441	6200.91
898.756	6272.77
899.071	6146.9
899.386	6192.78
899.7	6125.66
900.015	6050.41
900.33	6090.86
900.644	6030.07
900.959	6065.09
901.273	6047.24
901.588	6010.41
901.902	5947.36
902.216	5908.94
902.531	5911.88
902.845	5920.47
903.159	5894.93
903.473	5893.35
903.787	5868.26
904.101	5776.97
904.415	5820.13
904.729	5814.03
905.042	5777.42
905.356	5748.94
905.67	5761.83
905.984	5748.04
906.297	5764.54
906.611	5645.9
906.924	5626.01
907.237	5652.22
907.551	5594.82
907.864	5581.27
908.177	5534.71
908.491	5551.89
908.804	5479.57
909.117	5454.49
909.43	5405.23
909.743	5434.38
910.056	5457.2
910.368	5424.21
910.681	5335.85
910.994	5416.98
911.307	5329.29
911.619	5301.73
911.932	5366.36
912.244	5226.02
912.557	5230.09
912.869	5252.46
913.181	5223.31
913.494	5177.21
913.806	5159.81
914.118	5131.56
914.43	5092.01
914.742	5137.66
915.054	5095.63
915.366	5082.52
915.678	5031
915.99	5064.22
916.302	4977.44
916.613	4994.84
916.925	4994.84
917.236	4951.45
917.548	4944.22
917.859	4913.03
918.171	4896.76
918.482	4889.76
918.794	4916.65
919.105	4879.36
919.416	4791.68
919.727	4819.03
920.038	4792.36
920.349	4728.63
920.66	4734.06
920.971	4737.67
921.282	4707.62
921.593	4683.44
921.903	4642.53
922.214	4617
922.525	4655.41
922.835	4619.48
923.146	4573.83
923.456	4611.57
923.767	4572.48
924.077	4564.8
924.387	4507.17
924.697	4507.62
925.008	4480.96
925.318	4416.1
925.628	4472.37
925.938	4507.4
926.248	4409.55
926.558	4402.31
926.867	4370.45
927.177	4378.59
927.487	4326.84
927.796	4305.14
928.106	4312.15
928.416	4307.85
928.725	4318.93
929.034	4221.75
929.344	4234.63
929.653	4262.66
929.962	4208.19
930.271	4202.09
930.581	4165.48
930.89	4163.22
931.199	4100.4
931.508	4147.63
931.817	4134.98
932.125	4095.66
932.434	4077.35
932.743	4052.27
933.051	4029.22
933.36	4031.25
933.669	3973.85
933.977	3979.05
934.286	3954.87
934.594	3958.71
934.902	3949.44
935.21	3944.02
935.519	3886.39
935.827	3883.46
936.135	3855.44
936.443	3846.62
936.751	3800.75
937.059	3840.97
937.367	3800.3
937.674	3813.63
937.982	3817.47
938.29	3742.67
938.597	3734.99
938.905	3711.94
939.213	3695.67
939.52	3685.95
939.827	3708.55
940.135	3664.25
940.442	3659.96
940.749	3652.5
941.056	3633.97
941.363	3592.62
941.67	3578.15
941.977	3577.02
942.284	3551.26
942.591	3563.01
942.898	3574.76
943.205	3514.65
943.511	3527.76
943.818	3488.44
944.125	3456.58
944.431	3472.39
944.738	3485.28
945.044	3442.56
945.35	3424.26
945.657	3392.4
945.963	3403.47
946.269	3436.24
946.575	3384.71
946.881	3358.95
947.187	3345.84
947.493	3325.28
947.799	3280.08
948.105	3267.88
948.41	3302
948.716	3252.97
949.022	3260.42
949.327	3248.67
949.633	3183.81
949.938	3152.63
950.244	3180.2
950.549	3158.5
950.854	3175.45
951.16	3156.92
951.465	3119.64
951.77	3103.36
952.075	3119.86
952.38	3057.49
952.685	3098.17
952.99	3089.13
953.294	3033.76
953.599	3025.4
953.904	3045.06
954.209	3047.1
954.513	3020.88
954.818	3036.25
955.122	3030.82
955.426	2988.57
955.731	2959.41
956.035	2956.02
956.339	2937.04
956.643	2935.46
956.948	2923.26
957.252	2898.62
957.556	2906.08
957.86	2883.03
958.163	2851.17
958.467	2886.65
958.771	2862.92
959.075	2806.65
959.378	2809.36
959.682	2823.15
959.985	2797.61
960.289	2831.73
960.592	2752.87
960.896	2791.73
961.199	2763.03
961.502	2716.71
961.805	2740.44
962.108	2707.22
962.411	2706.54
962.714	2657.05
963.017	2692.53
963.32	2671.74
963.623	2649.37
963.926	2661.79
964.228	2656.82
964.531	2639.65
964.833	2648.69
965.136	2581.34
965.438	2604.62
965.741	2598.75
966.043	2567.79
966.345	2568.24
966.648	2542.02
966.95	2518.75
967.252	2523.27
967.554	2529.82
967.856	2501.35
968.158	2529.37
968.46	2522.36
968.761	2472.19
969.063	2479.88
969.365	2410.73
969.666	2418.41
969.968	2417.28
970.269	2464.29
970.571	2443.95
970.872	2392.42
971.174	2386.77
971.475	2407.34
971.776	2356.27
972.077	2353.78
972.378	2350.62
972.679	2369.37
972.98	2327.11
973.281	2305.87
973.582	2368.24
973.883	2319.88
974.183	2307.45
974.484	2279.21
974.785	2272.43
975.085	2273.33
975.386	2281.01
975.686	2254.8
975.986	2244.18
976.287	2224.74
976.587	2225.87
976.887	2227.68
977.187	2226.78
977.487	2206.21
977.787	2198.3
978.087	2191.75
978.387	2164.18
978.687	2194.01
978.987	2187.46
979.286	2142.49
979.586	2152.88
979.885	2138.42
980.185	2131.86
980.484	2156.5
980.784	2143.16
981.083	2103.62
981.382	2116.72
981.682	2088.02
981.981	2084.18
982.28	2069.72
982.579	2030.17
982.878	2062.26
983.177	2071.98
983.475	2022.49
983.774	2033.79
984.073	2001.7
984.372	2019.1
984.67	2006.22
984.969	1976.61
985.267	2000.79
985.566	2004.41
985.864	1968.93
986.162	1931.42
986.461	1975.03
986.759	1917.18
987.057	1941.36
987.355	1890.97
987.653	1934.36
987.951	1881.25
988.249	1901.14
988.547	1872.66
988.844	1873.11
989.142	1874.47
989.44	1889.61
989.737	1850.06
990.035	1855.04
990.332	1855.49
990.63	1806.9
990.927	1804.19
991.224	1815.71
991.521	1783.85
991.819	1797.86
992.116	1788.6
992.413	1770.97
992.71	1770.74
993.006	1793.12
993.303	1755.38
993.6	1748.82
993.897	1755.15
994.193	1726.68
994.49	1719.45
994.787	1715.15
995.083	1689.84
995.379	1712.21
995.676	1698.2
995.972	1687.13
996.268	1671.99
996.565	1658.43
996.861	1693.91
997.157	1664.98
997.453	1655.04
997.749	1636.28
998.044	1657.53
998.34	1621.37
998.636	1629.51
998.932	1631.09
999.227	1606.91
999.523	1608.71
999.818	1603.97
1000.114	1587.7
1000.409	1553.12
1000.704	1566.91
1001	1582.5
1001.295	1563.74
1001.59	1538.43
1001.885	1523.29
1002.18	1515.84
1002.475	1541.82
1002.77	1511.99
1003.065	1498.89
1003.359	1497.08
1003.654	1476.51
1003.949	1498.21
1004.243	1488.72
1004.538	1474.26
1004.832	1440.81
1005.127	1482.62
1005.421	1438.55
1005.715	1463.18
1006.009	1464.09
1006.304	1453.24
1006.598	1430.41
1006.892	1426.12
1007.186	1400.81
1007.48	1374.37
1007.773	1418.21
1008.067	1399.91
1008.361	1383.64
1008.655	1360.59
1008.948	1355.39
1009.242	1369.17
1009.535	1362.62
1009.829	1355.16
1010.122	1369.85
1010.415	1331.89
1010.708	1322.39
1011.001	1295.95
1011.295	1292.79
1011.588	1299.34
1011.881	1278.33
1012.173	1268.16
1012.466	1291.89
1012.759	1238.78
1013.052	1242.4
1013.344	1234.04
1013.637	1232.68
1013.93	1255.28
1014.222	1234.26
1014.514	1190.19
1014.807	1228.39
1015.099	1194.49
1015.391	1214.83
1015.683	1204.66
1015.976	1221.61
1016.268	1196.3
1016.56	1213.47
1016.851	1184.32
1017.143	1160.59
1017.435	1171.44
1017.727	1148.84
1018.018	1156.3
1018.31	1120.14
1018.602	1154.26
1018.893	1124.89
1019.185	1119.01
1019.476	1118.78
1019.767	1142.29
1020.058	1129.86
1020.35	1097.77
1020.641	1109.52
1020.932	1120.59
1021.223	1097.77
1021.514	1070.88
1021.804	1073.81
1022.095	1053.48
1022.386	1050.54
1022.677	1049.63
1022.967	1042.63
1023.258	1067.94
1023.548	1024.32
1023.839	1025.68
1024.129	1030.42
1024.419	1001.5
1024.709	1039.01
1025	1010.76
1025.29	992.91
1025.58	973.03
1025.87	985.23
1026.16	977.09
1026.449	985.45
1026.739	984.32
1027.029	962.63
1027.319	960.82
1027.608	958.79
1027.898	954.95
1028.187	924.21
1028.477	956.08
1028.766	907.72
1029.055	924.66
1029.344	884.21
1029.634	907.04
1029.923	885.57
1030.212	906.13
1030.501	908.62
1030.79	879.92
1031.078	883.08
1031.367	884.44
1031.656	855.74
1031.945	892.8
1032.233	859.13
1032.522	853.03
1032.81	883.08
1033.099	865.23
1033.387	860.71
1033.675	849.64
1033.963	853.25
1034.251	833.14
1034.54	824.1
1034.828	815.97
1035.116	796.76
1035.403	806.48
1035.691	801.5
1035.979	793.14
1036.267	799.02
1036.554	781.84
1036.842	798.57
1037.129	783.65
1037.417	778.91
1037.704	769.19
1037.992	766.93
1038.279	780.49
1038.566	757.66
1038.853	757.66
1039.14	757.66
