Data from whiteboard_FLMS001491_00049.txt Node
Date: Wed Feb 08 11:26:40 GMT 2017
User: dcchb
Spectrometer: FLMS00149
Trigger mode: 0
Integration Time (sec): 2.000000E-2
Scans to average: 10
Electric dark correction enabled: true
Nonlinearity correction enabled: false
Boxcar width: 0
XAxis mode: Wavelengths
Number of Pixels in Spectrum: 2048
>>>>>Begin Spectral Data<<<<<
341.393	-14.72
341.776	-14.72
342.16	-14.72
342.543	-49.74
342.927	-57.43
343.31	-65.34
343.693	-59.91
344.077	-53.36
344.46	-70.99
344.843	-52.46
345.226	-21.5
345.61	-48.61
345.993	-41.84
346.376	-20.82
346.759	13.53
347.142	40.65
347.525	60.54
347.908	40.2
348.291	70.7
348.674	99.4
349.057	109.8
349.44	120.19
349.823	132.4
350.206	180.98
350.588	221.89
350.971	230.7
351.354	248.78
351.737	262.34
352.119	301.21
352.502	300.53
352.884	317.93
353.267	320.19
353.65	340.53
354.032	354.99
354.414	341.88
354.797	360.87
355.179	353.63
355.562	357.25
355.944	356.12
356.326	366.97
356.709	362.67
357.091	376.46
357.473	389.57
357.855	373.97
358.238	382.79
358.62	373.52
359.002	398.15
359.384	382.56
359.766	386.85
360.148	402.9
360.53	394.99
360.912	381.66
361.294	370.13
361.676	382.33
362.057	386.63
362.439	349.79
362.821	371.04
363.203	352.96
363.584	359.74
363.966	379.17
364.348	368.1
364.729	393.86
365.111	365.16
365.493	373.3
365.874	362.45
366.256	336.23
366.637	371.94
367.019	366.74
367.4	377.59
367.781	382.56
368.163	364.93
368.544	373.07
368.925	388.44
369.306	366.29
369.688	356.35
370.069	376.91
370.45	373.75
370.831	367.87
371.212	379.17
371.593	378.49
371.974	380.07
372.355	382.33
372.736	386.18
373.117	376.23
373.498	382.33
373.879	397.48
374.26	382.56
374.641	389.11
375.021	387.76
375.402	386.18
375.783	408.32
376.163	432.73
376.544	425.72
376.925	420.75
377.305	399.96
377.686	407.64
378.066	417.59
378.447	390.24
378.827	399.74
379.208	414.2
379.588	432.05
379.968	425.05
380.349	424.37
380.729	414.42
381.109	417.14
381.489	411.49
381.87	474.08
382.25	443.8
382.63	451.03
383.01	437.93
383.39	447.19
383.77	452.84
384.15	471.15
384.53	459.39
384.91	467.08
385.29	472.95
385.67	495.55
386.049	497.13
386.429	486.29
386.809	510.01
387.189	496
387.568	492.39
387.948	511.37
388.328	531.48
388.707	521.31
389.087	521.54
389.466	510.47
389.846	518.15
390.225	527.42
390.605	539.17
390.984	566.51
391.363	563.57
391.743	565.61
392.122	587.53
392.501	587.75
392.881	557.7
393.26	594.98
393.639	589.33
394.018	624.14
394.397	619.84
394.776	621.2
395.155	622.78
395.534	647.86
395.913	633.85
396.292	658.03
396.671	670.46
397.05	674.76
397.429	693.96
397.808	680.41
398.186	713.17
398.565	730.35
398.944	707.07
399.323	733.51
399.701	747.52
400.08	754.98
400.458	772.61
400.837	772.15
401.215	799.27
401.594	795.66
401.972	816.9
402.351	827.07
402.729	848.76
403.107	854.41
403.486	897.12
403.864	877.69
404.242	884.02
404.62	928.31
404.999	935.09
405.377	943.45
405.755	952.49
406.133	968.99
406.511	988.42
406.889	1011.7
407.267	1044.92
407.645	1052.15
408.023	1101.41
408.401	1101.41
408.779	1117
409.156	1130.11
409.534	1142.09
409.912	1169.21
410.29	1193.61
410.667	1219.6
411.045	1266.61
411.422	1304.8
411.8	1308.41
412.178	1338.24
412.555	1359.71
412.933	1351.35
413.31	1419.14
413.687	1421.63
414.065	1455.98
414.442	1474.28
414.819	1502.98
415.197	1515.86
415.574	1576.43
415.951	1563.77
416.328	1587.95
416.705	1585.01
417.082	1605.13
417.46	1624.11
417.837	1655.07
418.214	1675.18
418.591	1726.71
418.967	1751.56
419.344	1728.06
419.721	1783.88
420.098	1773.26
420.475	1825.23
420.852	1819.36
421.228	1865.69
421.605	1886.93
421.982	1899.58
422.358	1941.39
422.735	1947.49
423.111	1953.37
423.488	2012.35
423.864	2010.31
424.241	2052.12
424.617	2076.08
424.994	2094.38
425.37	2098.67
425.746	2128.28
426.123	2161.27
426.499	2206.02
426.875	2215.05
427.251	2322.4
427.627	2342.96
428.003	2347.71
428.379	2359.23
428.756	2424.31
429.132	2442.17
429.507	2480.13
429.883	2516.29
430.259	2543.41
430.635	2591.77
431.011	2635.38
431.387	2649.39
431.763	2683.29
432.138	2728.04
432.514	2780.24
432.89	2795.83
433.265	2860.91
433.641	2890.74
434.016	2918.54
434.392	2971.65
434.767	3027.01
435.143	3062.94
435.518	3070.4
435.894	3120.34
436.269	3162.15
436.644	3226.78
437.02	3246.44
437.395	3212.99
437.77	3295.03
438.145	3382.71
438.52	3433.1
438.895	3460.67
439.271	3458.64
439.646	3548.58
440.021	3596.94
440.395	3604.4
440.77	3572.53
441.145	3623.38
441.52	3721.46
441.895	3733.88
442.27	3743.83
442.645	3798.29
443.019	3823.37
443.394	3785.86
443.769	3881.23
444.143	3833.77
444.518	3937.27
444.892	3914.45
445.267	3961.45
445.641	4014.1
446.016	4051.84
446.39	4096.81
446.764	4107.43
447.139	4102.69
447.513	4158.51
447.887	4208.45
448.262	4202.57
448.636	4250.93
449.01	4254.78
449.384	4354.43
449.758	4329.8
450.132	4407.99
450.506	4436.24
450.88	4478.05
451.254	4472.17
451.628	4594.65
452.002	4643.24
452.376	4682.79
452.75	4768.21
453.123	4776.57
453.497	4852.05
453.871	4864.48
454.244	5022.21
454.618	5066.28
454.992	5160.74
455.365	5137.24
455.739	5313.05
456.112	5341.98
456.486	5394.18
456.859	5438.7
457.232	5558.02
457.606	5624.68
457.979	5690.44
458.352	5783.77
458.725	5841.17
459.099	5898.12
459.472	5990.32
459.845	6080.04
460.218	6103.99
460.591	6224.89
460.964	6207.72
461.337	6326.13
461.71	6475.51
462.083	6539.01
462.456	6568.61
462.829	6584.66
463.201	6681.6
463.574	6745.78
463.947	6820.58
464.32	6962.5
464.692	6964.99
465.065	7086.79
465.438	7216.96
465.81	7319.1
466.183	7393.68
466.555	7515.03
466.928	7617.85
467.3	7670.96
467.672	7793.67
468.045	7988.24
468.417	8022.59
468.789	8139.42
469.161	8276.14
469.534	8411.28
469.906	8587.09
470.278	8654.21
470.65	8804.49
471.022	8901.21
471.394	9170.13
471.766	9201.54
472.138	9399.05
472.51	9548.87
472.882	9692.82
473.253	9846.94
473.625	9960.84
473.997	10120.61
474.369	10205.35
474.74	10376.87
475.112	10592.24
475.484	10704.55
475.855	10884.88
476.227	11020.47
476.598	11320.8
476.97	11386.79
477.341	11655.26
477.713	11839.66
478.084	11875.59
478.455	12202.81
478.827	12305.18
479.198	12691.16
479.569	12667.89
479.94	13008.67
480.311	13149.68
480.682	13456.34
481.053	13674.19
481.424	13974.75
481.795	14105.14
482.166	14395.3
482.537	14442.98
482.908	14807.49
483.279	15005
483.65	15276.63
484.021	15600.47
484.391	15793.68
484.762	15840.69
485.133	16124.07
485.503	16342.82
485.874	16759.76
486.244	16906.42
486.615	17232.29
486.985	17370.36
487.356	17837.02
487.726	18019.84
488.097	18434.06
488.467	18435.42
488.837	18947.5
489.207	19146.36
489.578	19358.33
489.948	19459.12
490.318	19887.13
490.688	19965.1
491.058	20415.71
491.428	20674.68
491.798	20800.55
492.168	21313.99
492.538	21433.53
492.908	21613.87
493.278	21814.77
493.648	22023.8
494.017	22306.5
494.387	22429.66
494.757	22596.44
495.126	22858.13
495.496	22944.91
495.866	23094.73
496.235	23228.51
496.605	23383.31
496.974	23689.52
497.344	23894.48
497.713	23930.19
498.082	24096.97
498.452	24326.11
498.821	24413.57
499.19	24503.06
499.559	24708.25
499.928	24927
500.298	25038.64
500.667	25269.36
501.036	25238.4
501.405	25537.38
501.774	25705.96
502.143	25822.8
502.512	25962
502.88	26311.14
503.249	26263.46
503.618	26536.68
503.987	26732.15
504.356	26932.82
504.724	26997.23
505.093	27285.58
505.462	27379.82
505.83	27699.13
506.199	27998.11
506.567	28330.07
506.936	28310.87
507.304	28725.32
507.672	28939.1
508.041	29112.43
508.409	29278.3
508.777	29615.69
509.145	29937.72
509.514	29952.4
509.882	30289.34
510.25	30285.73
510.618	30578.38
510.986	30730.92
511.354	31114.18
511.722	31383.33
512.09	31549.65
512.458	31607.73
512.826	31906.48
513.193	32100.6
513.561	32141.05
513.929	32424.43
514.297	32694.93
514.664	32872.1
515.032	32989.16
515.4	33225.31
515.767	33251.3
516.135	33587.56
516.502	33429.83
516.869	33917.27
517.237	34157.72
517.604	34058.06
517.972	34512.74
518.339	34635.45
518.706	34728.1
519.073	34832.95
519.44	35157.92
519.808	35375.31
520.175	35369.66
520.542	35889.2
520.909	35966.26
521.276	36156.31
521.643	36536.41
522.009	36802.17
522.376	37000.13
522.743	37254.81
523.11	37616.38
523.477	38099.08
523.843	38222.24
524.21	38612.74
524.577	38977.7
524.943	39183.8
525.31	39378.15
525.676	39791.47
526.043	39991.46
526.409	40180.16
526.776	40786.47
527.142	40735.4
527.508	41084.09
527.874	41524.76
528.241	41739.67
528.607	41781.02
528.973	42252.65
529.339	42367.45
529.705	42767.66
530.071	43026.86
530.437	43316.35
530.803	43528.54
531.169	43822.32
531.535	43749.1
531.901	44016.22
532.267	44221.86
532.632	44604
532.998	44771
533.364	44909.3
533.73	45053.48
534.095	45361.49
534.461	45475.16
534.826	45714.25
535.192	45916.96
535.557	46150.17
535.923	46130.96
536.288	46268.13
536.653	46450.73
537.019	46372.76
537.384	46610.72
537.749	46873.77
538.114	46836.71
538.479	46823.37
538.845	47158.28
539.21	46975.91
539.575	47116.7
539.94	47264.72
540.305	47417.93
540.67	47513.52
541.034	47557.59
541.399	47718.04
541.764	47825.38
542.129	47829
542.494	47972.95
542.858	48197.12
543.223	48108.99
543.587	48350.11
543.952	48485.02
544.316	48542.42
544.681	48621.07
545.045	48761.18
545.41	48948.74
545.774	49114.61
546.138	49105.35
546.503	49213.82
546.867	49259.92
547.231	49581.94
547.595	49773.58
547.959	49851.09
548.324	49896.51
548.688	50077.3
549.052	50184.87
549.416	50311.87
549.779	50404.52
550.143	50523.16
550.507	50871.4
550.871	50929.48
551.235	51020.78
551.599	51347.55
551.962	51454.89
552.326	51539.41
552.689	51718.61
553.053	51677.71
553.417	51765.84
553.78	52168.09
554.143	51983.92
554.507	52256.45
554.87	52431.36
555.234	52753.16
555.597	52593.17
555.96	52724.01
556.323	52899.37
556.686	52891.69
557.05	53142.3
557.413	53149.31
557.776	53313.82
558.139	53468.17
558.502	53515.4
558.865	53546.81
559.228	53848.5
559.59	53836.97
559.953	53879.01
560.316	54248.71
560.679	54092.56
561.041	54307.7
561.404	54375.94
561.767	54557.41
562.129	54407.81
562.492	54731.41
562.854	54648.7
563.217	54733
563.579	54749.27
563.941	55014.34
564.304	55102.48
564.666	55244.39
565.028	55242.14
565.39	55206.66
565.753	55458.4
566.115	55428.12
566.477	55556.03
566.839	55596.48
567.201	55783.59
567.563	55817.04
567.925	55967.31
568.287	55941.78
568.648	56029.91
569.01	56229.68
569.372	56380.64
569.734	56246.4
570.095	56521.65
570.457	56556
570.819	56586.96
571.18	56608.43
571.542	56730.01
571.903	56904.24
572.265	56934.29
572.626	57003.9
572.987	57155.98
573.349	57273.27
573.71	57347.39
574.071	57413.38
574.432	57438.46
574.794	57637.55
575.155	57669.64
575.516	57617.21
575.877	57744.22
576.238	57828.96
576.599	58027.82
576.96	57964.32
577.32	58024.21
577.681	58153.02
578.042	58200.48
578.403	58234.37
578.763	58320.02
579.124	58315.73
579.485	58447.25
579.845	58502.39
580.206	58496.06
580.566	58537.64
580.927	58607.7
581.287	58649.73
581.648	58556.17
582.008	58705.55
582.368	58630.97
582.728	58771.31
583.089	58746
583.449	58773.34
583.809	58798.88
584.169	58817.18
584.529	58769.73
584.889	58878.42
585.249	58732.44
585.609	58722.04
585.969	58858.31
586.329	58766.79
586.688	58778.77
587.048	58779.9
587.408	58666
587.768	58653.57
588.127	58619
588.487	58630.29
588.846	58680.91
589.206	58564.31
589.565	58533.12
589.925	58626
590.284	58556.85
590.643	58584.19
591.003	58532.9
591.362	58690.41
591.721	58517.3
592.08	58553.23
592.44	58590.07
592.799	58587.36
593.158	58461.03
593.517	58499.9
593.876	58570.86
594.235	58485.21
594.593	58519.34
594.952	58541.48
595.311	58405.67
595.67	58523.63
596.029	58654.25
596.387	58596.4
596.746	58638.2
597.104	58530.41
597.463	58547.58
597.822	58715.94
598.18	58578.09
598.538	58520.92
598.897	58711.2
599.255	58531.99
599.613	58888.82
599.972	58750.07
600.33	58846.33
600.688	58807.47
601.046	58794.81
601.404	58995.26
601.762	58907.12
602.12	59068.93
602.478	59085.42
602.836	59112.54
603.194	58994.58
603.552	59103.28
603.91	59070.73
604.268	59233.22
604.625	59173.78
604.983	59286.55
605.341	59207
605.698	59309.6
606.056	59423.27
606.413	59315.93
606.771	59438.63
607.128	59540.1
607.485	59388.24
607.843	59437.96
608.2	59641.12
608.557	59689.7
608.914	59575.35
609.272	59743.26
609.629	59754.56
609.986	59831.84
610.343	59710.72
610.7	59893.76
611.057	59835.91
611.414	59824.16
611.771	59886.08
612.127	59948.68
612.484	59882.24
612.841	59933.09
613.198	59905.74
613.554	59912.29
613.911	60081.78
614.267	60019.64
614.624	59958.4
614.98	60019.41
615.337	60039.97
615.693	59991.84
616.05	59947.55
616.406	60076.58
616.762	60006.98
617.118	60000.65
617.475	59940.32
617.831	59977.38
618.187	59992.07
618.543	59969.92
618.899	60120.88
619.255	60044.04
619.611	60002.91
619.967	60070.03
620.323	60044.72
620.678	59942.8
621.034	59865.06
621.39	59855.8
621.746	59811.28
622.101	60037.26
622.457	59819.87
622.812	59841.56
623.168	59828.46
623.523	59844.73
623.879	60003.37
624.234	59675.69
624.589	59759.53
624.945	59816.03
625.3	59813.31
625.655	59799.3
626.01	59785.07
626.365	59837.27
626.72	59755.46
627.075	59764.28
627.43	59785.52
627.785	59616.71
628.14	59741.9
628.495	59765.63
628.85	59719.76
629.205	59590.27
629.559	59824.39
629.914	59694.67
630.269	59608.12
630.623	59618.29
630.978	59601.57
631.332	59752.98
631.687	59758.85
632.041	59738.51
632.396	59677.72
632.75	59552.53
633.104	59757.72
633.459	59592.98
633.813	59596.37
634.167	59617.84
634.521	59593.43
634.875	59699.64
635.229	59618.97
635.583	59576.71
635.937	59585.07
636.291	59599.76
636.645	59623.26
636.999	59492.87
637.352	59684.28
637.706	59545.3
638.06	59660.55
638.413	59559.08
638.767	59447.45
639.121	59567.45
639.474	59346.66
639.828	59374.68
640.181	59441.8
640.534	59473.44
640.888	59361.35
641.241	59295.36
641.594	59305.53
641.947	59435.92
642.301	59319.99
642.654	59387.56
643.007	59297.17
643.36	59198.87
643.713	59138.53
644.066	59230.73
644.419	59113.45
644.771	59046.1
645.124	58734.25
645.477	58717.3
645.83	58455.38
646.182	58299
646.535	58249.97
646.888	58222.17
647.24	58002.06
647.593	58247.48
647.945	58096.98
648.298	57934.04
648.65	57892.01
649.002	57814.5
649.355	57908.28
649.707	57877.32
650.059	57942.18
650.411	58208.84
650.763	58180.14
651.115	58413.35
651.467	58237.54
651.819	58203.64
652.171	58109.63
652.523	58073.7
652.875	58050.2
653.227	57925
653.578	58068.5
653.93	58009.75
654.282	57867.83
654.633	57757.55
654.985	57831.67
655.337	57849.98
655.688	57815.85
656.039	57848.62
656.391	57544
656.742	57611.11
657.094	57595.29
657.445	57635.29
657.796	57574.73
658.147	57578.57
658.498	57527.5
658.849	57543.54
659.2	57515.52
659.551	57485.47
659.902	57536.54
660.253	57426.03
660.604	57556.2
660.955	57315.75
661.306	57432.81
661.656	57402.98
662.007	57467.61
662.358	57413.15
662.708	57425.81
663.059	57427.39
663.409	57300.16
663.76	57534.5
664.11	57410.89
664.461	57424.45
664.811	57426.94
665.161	57433.04
665.511	57361.4
665.862	57452.02
666.212	57469.87
666.562	57461.96
666.912	57459.93
667.262	57378.8
667.612	57369.99
667.962	57381.06
668.312	57373.15
668.662	57576.08
669.011	57372.93
669.361	57459.25
669.711	57373.38
670.06	57365.02
670.41	57348.75
670.76	57385.58
671.109	57416.77
671.459	57340.16
671.808	57301.74
672.157	57314.62
672.507	57252.25
672.856	57198.92
673.205	57231.69
673.554	57319.82
673.904	57271.46
674.253	57367.28
674.602	57220.84
674.951	56909.44
675.3	56759.84
675.649	57072.14
675.998	57087.51
676.346	57168.19
676.695	57256.77
677.044	57043.67
677.393	57147.17
677.741	57135.42
678.09	57027.4
678.438	57047.51
678.787	57043.67
679.135	57063.78
679.484	56790.57
679.832	56901.53
680.181	56774.75
680.529	56870.57
680.877	56752.15
681.225	56668.09
681.573	56857.01
681.922	56531.82
682.27	56475.77
682.618	56521.88
682.966	56414.31
683.314	56483.01
683.661	56300.86
684.009	56129.34
684.357	56083.69
684.705	56092.96
685.053	56124.37
685.4	55972.51
685.748	55800.54
686.095	55794.89
686.443	55682.12
686.79	55699.52
687.138	55732.52
687.485	55611.39
687.832	55527.78
688.18	55487.78
688.527	55328.01
688.874	55332.3
689.221	55189.48
689.568	55092.53
689.915	55105.19
690.262	55043.72
690.609	54875.37
690.956	54770.06
691.303	54714.92
691.65	54559.67
691.997	54541.59
692.344	54427.92
692.69	54237.19
693.037	54320.35
693.383	54041.49
693.73	54122.84
694.077	54038.55
694.423	53866.8
694.769	53775.28
695.116	53782.29
695.462	53684.89
695.808	53552.69
696.155	53622.97
696.501	53373.26
696.847	53312.47
697.193	53100.5
697.539	53182.98
697.885	52963.78
698.231	52888.3
698.577	52909.54
698.923	52872.03
699.269	52713.39
699.614	52500.06
699.96	52514.75
700.306	52500.06
700.651	52290.35
700.997	52291.48
701.342	52226.4
701.688	52163.8
702.033	52122.22
702.379	52085.83
702.724	51919.06
703.069	52133.52
703.415	51665.28
703.76	51765.16
704.105	51683.36
704.45	51678.84
704.795	51555.68
705.14	51383.03
705.485	51303.71
705.83	51380.09
706.175	51398.39
706.52	51363.14
706.865	51175.58
707.209	51168.8
707.554	51195.69
707.899	51241.56
708.243	50974
708.588	51023.26
708.932	50851.74
709.277	50795.02
709.621	50769.03
709.966	50593.44
710.31	50772.2
710.654	50438.87
710.998	50471.64
711.342	50464.41
711.687	50322.72
712.031	50277.07
712.375	50215.37
712.719	50071.65
713.063	50093.57
713.407	50169.73
713.75	49965.21
714.094	49918.89
714.438	49766.57
714.782	49656.97
715.125	49555.96
715.469	49678.21
715.812	49362.29
716.156	49379.69
716.499	49340.82
716.843	49355.96
717.186	49171.79
717.53	49284.78
717.873	49183.09
718.216	49096.76
718.559	48983.77
718.902	48701.97
719.246	48748.97
719.589	48641.18
719.932	48433.05
720.275	48520.5
720.617	48344.01
720.96	48353.95
721.303	48273.28
721.646	48231.7
721.989	47986.51
722.331	48135.66
722.674	47854.08
723.016	47785.16
723.359	47659.28
723.701	47813.4
724.044	47401.44
724.386	47330.25
724.729	47406.63
725.071	47117.83
725.413	47131.16
725.755	47037.38
726.097	46876.03
726.439	46672.87
726.782	46627.22
727.124	46650.04
727.465	46605.75
727.807	46350.17
728.149	46399.88
728.491	46128.02
728.833	46137.52
729.175	45859.78
729.516	45830.18
729.858	45746.79
730.199	45664.08
730.541	45490.53
730.882	45509.74
731.224	45617.76
731.565	45195.17
731.906	45251.21
732.248	45361.04
732.589	45017.32
732.93	44891.22
733.271	45081.72
733.612	44959.69
733.953	44823.2
734.294	44663.43
734.635	44561.96
734.976	44560.83
735.317	44258.7
735.658	44309.54
735.999	44253.72
736.339	44173.05
736.68	44160.17
737.021	44144.35
737.361	43770.8
737.702	44115.87
738.042	43910.91
738.383	43740.06
738.723	43747.75
739.063	43703.46
739.404	43743
739.744	43505.72
740.084	43489.68
740.424	43375.33
740.764	43386.85
741.104	43463.01
741.444	43280.42
741.784	42967.2
742.124	43045.62
742.464	43046.75
742.804	42918.39
743.143	42923.36
743.483	42918.84
743.823	42870.48
744.162	42616.03
744.502	42811.05
744.841	42656.93
745.181	42701.67
745.52	42676.14
745.86	42757.27
746.199	42630.94
746.538	42561.11
746.877	42540.55
747.216	42535.58
747.556	42374.9
747.895	42470.49
748.234	42359.08
748.573	42429.59
748.911	42275.02
749.25	42258.07
749.589	42088.58
749.928	42101.01
750.267	42152.54
750.605	42156.38
750.944	41923.84
751.283	41729.04
751.621	41861.02
751.96	41621.25
752.298	41547.13
752.636	41599.1
752.975	41456.73
753.313	41329.96
753.651	41408.83
753.989	41222.62
754.327	41112.79
754.666	40916.86
755.004	41078.21
755.342	41101.72
755.679	40916.18
756.017	40884.77
756.355	40877.77
756.693	40780.59
757.031	40872.8
757.368	40581.96
757.706	40523.43
758.044	40406.14
758.381	40411.56
758.719	40295.86
759.056	40341.74
759.394	40122.08
759.731	39789.43
760.068	39767.29
760.405	39701.53
760.743	39539.95
761.08	39520.29
761.417	39238.71
761.754	39252.05
762.091	39122.33
762.428	38959.63
762.765	38714.21
763.102	38832.62
763.438	38708.11
763.775	38558.28
764.112	38415.68
764.449	38435.35
764.785	38169.59
765.122	37859.77
765.458	37684.63
765.795	37849.82
766.131	37630.85
766.467	37387.24
766.804	37109.28
767.14	37173.01
767.476	37189.95
767.812	36870.64
768.148	36839.68
768.485	36664.09
768.821	36311.33
769.157	36284.67
769.492	36180.94
769.828	36047.16
770.164	35695.3
770.5	35544.35
770.836	35725.36
771.171	35314.3
771.507	35235.43
771.842	35115.21
772.178	34976.68
772.513	34884.03
772.849	34626.41
773.184	34524.94
773.519	34334.21
773.855	34169.47
774.19	34111.39
774.525	33835.47
774.86	33942.36
775.195	33802.47
775.53	33659.88
775.865	33458.3
776.2	33193.9
776.535	33045.43
776.87	32767.02
777.205	32760.01
777.539	32598.44
777.874	32739.22
778.209	32398.67
778.543	32269.86
778.878	31979.92
779.212	31957.1
779.547	31762.75
779.881	31937.44
780.215	31653.15
780.55	31684.79
780.884	31566.83
781.218	31342.88
781.552	31349.66
781.886	30950.34
782.22	30857.24
782.554	30932.27
782.888	30561.65
783.222	30500.86
783.556	30483.01
783.889	30365.5
784.223	29991.73
784.557	30011.39
784.89	29979.3
785.224	29783.82
785.557	29676.25
785.891	29708.57
786.224	29537.73
786.558	29528.23
786.891	29267
787.224	29185.65
787.557	29021.81
787.891	29054.35
788.224	29024.75
788.557	29052.09
788.89	28915.14
789.223	28862.94
789.556	28608.26
789.888	28584.3
790.221	28460.69
790.554	28179.34
790.887	28277.65
791.219	28111.77
791.552	28081.27
791.884	27865.23
792.217	27968.28
792.549	27847.38
792.882	27635.18
793.214	27637.66
793.546	27619.36
793.879	27348.18
794.211	27355.64
794.543	27410.78
794.875	27354.96
795.207	27534.84
795.539	27210.56
795.871	27234.96
796.203	27036.1
796.535	26848.53
796.867	26854.86
797.198	26799.72
797.53	26809.21
797.862	26575.54
798.193	26695.54
798.525	26613.06
798.856	26561.08
799.188	26295.1
799.519	26211.94
799.85	26058.72
800.182	26205.84
800.513	26188.44
800.844	25867.09
801.175	26063.92
801.506	25900.31
801.837	25863.92
802.168	25769.69
802.499	25689.01
802.83	25588
803.161	25492.41
803.491	25491.5
803.822	25393.65
804.153	25441.56
804.483	25320.89
804.814	25186.2
805.145	25166.77
805.475	25098.29
805.805	25034.79
806.136	25037.05
806.466	25005.42
806.796	24885.42
807.126	24741.69
807.457	24716.84
807.787	24610.4
808.117	24414.25
808.447	24411.08
808.777	24515.26
809.107	24258.32
809.436	24188.26
809.766	24331.31
810.096	24183.52
810.426	23988.27
810.755	24073.46
811.085	23997.98
811.414	23864.88
811.744	23768.61
812.073	23654.04
812.403	23666.24
812.732	23363.2
813.061	23365.69
813.39	23281.62
813.719	23198.23
814.049	23395.29
814.378	23209.53
814.707	23225.35
815.036	23059.03
815.365	23132.7
815.693	22720.5
816.022	22886.38
816.351	22648.87
816.68	22584.24
817.008	22613.61
817.337	22504.46
817.665	22318.25
817.994	22424.47
818.322	22354.86
818.651	22227.18
818.979	22177.24
819.307	22256.56
819.636	22187.18
819.964	21976.34
820.292	21959.62
820.62	21886.4
820.948	21768.44
821.276	21901.99
821.604	21784.48
821.932	21721.89
822.259	21775.67
822.587	21613.41
822.915	21724.6
823.243	21735.45
823.57	21649.8
823.898	21541.78
824.225	21469.01
824.553	21509.69
824.88	21576.58
825.207	21541.78
825.535	21491.38
825.862	21478.5
826.189	21421.78
826.516	21550.82
826.843	21615.9
827.17	21594.21
827.497	21610.25
827.824	21497.49
828.151	21381.1
828.478	21376.81
828.805	21346.98
829.131	21326.42
829.458	21232.18
829.785	21213.65
830.111	21222.92
830.438	21307.43
830.764	21241.22
831.09	21297.26
831.417	21092.52
831.743	21259.07
832.069	21185.86
832.395	21018.18
832.722	21109.7
833.048	21014.56
833.374	21019.31
833.7	20970.49
834.026	20996.03
834.351	21102.92
834.677	20982.24
835.003	21038.51
835.329	21033.77
835.654	20954.22
835.98	20810.27
836.306	20857.73
836.631	20738.86
836.956	20806.66
837.282	20728.01
837.607	20636.49
837.932	20656.15
838.258	20564.18
838.583	20633.78
838.908	20491.41
839.233	20501.81
839.558	20504.52
839.883	20396.5
840.208	20385.88
840.533	20429.04
840.858	20300
841.182	20281.47
841.507	20336.16
841.832	20220.01
842.156	20157.63
842.481	20070.4
842.805	20071.31
843.13	20071.31
843.454	20007.36
843.778	19971.2
844.103	19895.49
844.427	19887.36
844.751	19813.91
845.075	19893.23
845.399	19810.3
845.723	19690.3
846.047	19767.81
846.371	19570.08
846.695	19584.09
847.019	19382.06
847.343	19242.18
847.666	19271.78
847.99	19153.14
848.313	19156.53
848.637	19087.15
848.96	19047.15
849.284	19105.91
849.607	18905.24
849.931	18736.2
850.254	18747.5
850.577	18665.47
850.9	18543.44
851.223	18375.99
851.546	18507.73
851.869	18284.69
852.192	18493.5
852.515	18377.12
852.838	18112.72
853.161	18232.94
853.483	18111.81
853.806	18050.57
854.129	18000.63
854.451	17951.36
854.774	17856.68
855.096	17931.03
855.419	17787.75
855.741	17801.31
856.063	17687.87
856.385	17681.31
856.708	17594.76
857.03	17602.67
857.352	17569.68
857.674	17470.47
857.996	17467.31
858.318	17452.17
858.64	17463.02
858.961	17324.04
859.283	17366.29
859.605	17304.38
859.926	17247.65
860.248	17289.69
860.57	17168.79
860.891	17191.16
861.212	17039.98
861.534	17006.53
861.855	16953.2
862.176	16944.16
862.498	17044.5
862.819	16966.08
863.14	16827.55
863.461	16855.8
863.782	16785.07
864.103	16764.5
864.424	16675.69
864.745	16801.34
865.065	16732.87
865.386	16649.93
865.707	16745.07
866.027	16635.47
866.348	16623.26
866.668	16611.96
866.989	16673.43
867.309	16387.56
867.63	16488.13
867.95	16371.97
868.27	16317.96
868.59	16304.18
868.91	16261.92
869.23	16272.09
869.55	16224.63
869.87	16303.5
870.19	16174.46
870.51	16226.21
870.83	16154.8
871.15	15991.64
871.469	15990.74
871.789	16019.44
872.109	15986.44
872.428	15918.65
872.748	15915.71
873.067	15968.59
873.386	15941.7
873.706	15850.18
874.025	15698.54
874.344	15670.75
874.663	15723.4
874.982	15681.82
875.301	15550.75
875.62	15601.37
875.939	15490.86
876.258	15454.25
876.577	15472.11
876.896	15430.07
877.214	15342.85
877.533	15455.61
877.852	15372.67
878.17	15265.79
878.489	15331.09
878.807	15207.93
879.125	15130.2
879.444	15097.65
879.762	15017.66
880.08	15040.71
880.398	14939.69
880.716	14988.96
881.034	14957.09
881.352	14904.66
881.67	14851.33
881.988	14741.28
882.306	14683.65
882.624	14683.88
882.941	14645.69
883.259	14620.83
883.577	14507.16
883.894	14506.93
884.212	14487.95
884.529	14415.64
884.846	14414.06
885.164	14305.81
885.481	14285.92
885.798	14320.27
886.115	14093.16
886.432	14126.38
886.75	14037.57
887.067	14110.79
887.383	14034.63
887.7	14000.28
888.017	13915.09
888.334	13907.63
888.651	13832.15
888.967	13820.4
889.284	13695.43
889.6	13649.56
889.917	13571.82
890.233	13583.8
890.55	13500.63
890.866	13539.95
891.182	13433.29
891.498	13424.48
891.815	13359.39
892.131	13288.21
892.447	13222.22
892.763	13150.13
893.079	13167.31
893.395	13170.7
893.71	13100.87
894.026	13053.19
894.342	13066.75
894.657	12944.49
894.973	12957.37
895.289	12963.7
895.604	12852.06
895.92	12844.15
896.235	12764.61
896.55	12761.22
896.865	12640.54
897.181	12658.17
897.496	12643.93
897.811	12553.54
898.126	12496.82
898.441	12430.61
898.756	12459.08
899.071	12396.03
899.386	12406.65
899.7	12195.36
900.015	12182.93
900.33	12096.38
900.644	12101.35
900.959	12143.16
901.273	12009.6
901.588	12024.97
901.902	11955.82
902.216	11914.69
902.531	11899.09
902.845	11909.49
903.159	11827.68
903.473	11777.74
903.787	11648.25
904.101	11632.89
904.415	11708.36
904.729	11732.32
905.042	11609.61
905.356	11549.05
905.67	11517.86
905.984	11498.88
906.297	11414.81
906.611	11320.13
906.924	11291.65
907.237	11381.59
907.551	11290.97
907.864	11202.84
908.177	11227.25
908.491	11212.78
908.804	11191.32
909.117	11134.14
909.43	11103.18
909.743	11015.95
910.056	11035.84
910.368	10945.9
910.681	10893.7
910.994	10891.44
911.307	10890.31
911.619	10791.55
911.932	10805.79
912.244	10741.61
912.557	10780.03
912.869	10680.37
913.181	10711.55
913.494	10659.8
913.806	10578
914.118	10491.67
914.43	10509.75
914.742	10507.04
915.054	10454.16
915.366	10434.5
915.678	10384.11
915.99	10325.12
916.302	10293.71
916.613	10343.2
916.925	10240.38
917.236	10215.75
917.548	10202.87
917.859	10187.05
918.171	10113.6
918.482	10055.3
918.794	9988.18
919.105	10036.32
919.416	9906.83
919.727	9923.1
920.038	9894.63
920.349	9835.65
920.66	9875.19
920.971	9867.06
921.282	9811.69
921.593	9782.77
921.903	9739.83
922.214	9695.76
922.525	9630.45
922.835	9589.1
923.146	9522.66
923.456	9525.82
923.767	9426.84
924.077	9462.1
924.387	9387.97
924.697	9329.9
925.008	9322.66
925.318	9303
925.628	9267.52
925.938	9166.74
926.248	9106.85
926.558	9065.04
926.867	9049.9
927.177	9053.52
927.487	9019.4
927.796	8945.73
928.106	8883.81
928.416	8850.59
928.725	8872.28
929.034	8836.58
929.344	8796.58
929.653	8746.63
929.962	8663.25
930.271	8603.81
930.581	8536.24
930.89	8508.67
931.199	8538.96
931.508	8437.49
931.817	8444.27
932.125	8383.48
932.434	8423.71
932.743	8273.2
933.051	8285.4
933.36	8222.58
933.669	8202.47
933.977	8216.7
934.286	8129.93
934.594	8101.68
934.902	8039.31
935.21	8001.8
935.519	7982.81
935.827	7937.16
936.135	7919.99
936.443	7836.6
936.751	7808.35
937.059	7825.53
937.367	7727.45
937.674	7762.93
937.982	7755.93
938.29	7689.49
938.597	7643.84
938.905	7529.27
939.213	7463.5
939.52	7421.92
939.827	7563.16
940.135	7387.8
940.442	7380.34
940.749	7416.73
941.056	7399.55
941.363	7227.35
941.67	7208.14
941.977	7206.79
942.284	7211.99
942.591	7146.45
942.898	7097.19
943.205	7129.05
943.511	7000.47
943.818	7033.91
944.125	7021.93
944.431	6930.64
944.738	6956.17
945.044	6865.78
945.35	6793.24
945.657	6752.56
945.963	6751.43
946.269	6693.13
946.575	6688.16
946.881	6654.03
947.187	6597.31
947.493	6568.39
947.799	6517.77
948.105	6499.91
948.41	6416.75
948.716	6476.86
949.022	6417.88
949.327	6333.14
949.633	6335.4
949.938	6297.89
950.244	6302.18
950.549	6209.53
950.854	6161.62
951.16	6173.59
951.465	6087.5
951.77	6118.91
952.075	6078.91
952.38	6039.36
952.685	5985.8
952.99	5932.7
953.294	5938.57
953.599	5894.73
953.904	5861.51
954.209	5839.37
954.513	5800.72
954.818	5779.48
955.122	5734.28
955.426	5712.59
955.731	5635.3
956.035	5640.5
956.339	5631.01
956.643	5596.89
956.948	5538.58
957.252	5476.66
957.556	5504.69
957.86	5446.38
958.163	5475.53
958.467	5349.66
958.771	5403.45
959.075	5347.4
959.378	5334.29
959.682	5304.47
959.985	5261.3
960.289	5204.58
960.592	5174.75
960.896	5175.65
961.199	5163.23
961.502	5158.93
961.805	5061.76
962.108	5045.26
962.411	5074.64
962.714	5053.62
963.017	5051.82
963.32	5010.01
963.623	4957.81
963.926	4974.98
964.228	4924.59
964.531	4924.14
964.833	4900.41
965.136	4893.4
965.438	4854.08
965.741	4808.66
966.043	4770.02
966.345	4772.28
966.648	4762.56
966.95	4783.12
967.252	4689.11
967.554	4667.19
967.856	4675.33
968.158	4615.9
968.46	4592.85
968.761	4601.88
969.063	4584.94
969.365	4566.18
969.666	4556.46
969.968	4499.29
970.269	4460.87
970.571	4491.15
970.872	4472.62
971.174	4400.99
971.475	4426.97
971.776	4398.5
972.077	4401.21
972.378	4384.49
972.679	4371.83
972.98	4307.2
973.281	4301.78
973.582	4256.13
973.883	4276.92
974.183	4265.62
974.484	4261.78
974.785	4189.69
975.085	4211.16
975.386	4220.2
975.686	4198.51
975.986	4171.16
976.287	4195.34
976.587	4079.19
976.887	4118.28
977.187	4080.54
977.487	4110.6
977.787	4078.73
978.087	4075.8
978.387	4059.07
978.687	4000.09
978.987	4016.14
979.286	3949.7
979.586	3989.92
979.885	3959.19
980.185	3944.27
980.484	3920.77
980.784	3926.65
981.083	3871.28
981.382	3877.84
981.682	3852.75
981.981	3830.83
982.28	3837.38
982.579	3782.7
982.878	3828.57
983.177	3810.94
983.475	3807.78
983.774	3761.23
984.073	3782.7
984.372	3764.17
984.67	3765.07
984.969	3736.37
985.267	3719.65
985.566	3742.7
985.864	3663.15
986.162	3691.85
986.461	3655.47
986.759	3642.36
987.057	3614.34
987.355	3579.09
987.653	3580.67
987.951	3610.72
988.249	3562.59
988.547	3546.32
988.844	3547.68
989.142	3547
989.44	3494.57
989.737	3500.67
990.035	3488.47
990.332	3476.94
990.63	3497.96
990.927	3451.41
991.224	3453.67
991.521	3442.82
991.819	3403.95
992.116	3414.8
992.413	3388.81
992.71	3348.36
993.006	3342.26
993.303	3324.18
993.6	3305.42
993.897	3310.62
994.193	3280.56
994.49	3286.66
994.787	3283.28
995.083	3214.35
995.379	3220.45
995.676	3218.19
995.972	3201.92
996.268	3213.45
996.565	3154.92
996.861	3182.26
997.157	3113.11
997.453	3138.87
997.749	3095.71
998.044	3086.44
998.34	3124.41
998.636	3056.16
998.932	3032.89
999.227	3042.6
999.523	3017.07
999.818	2996.96
1000.114	2977.97
1000.409	2968.48
1000.704	2925.77
1001	2919.44
1001.295	2937.52
1001.59	2910.4
1001.885	2925.32
1002.18	2882.61
1002.475	2864.76
1002.77	2854.81
1003.065	2834.25
1003.359	2781.59
1003.654	2778.66
1003.949	2777.53
1004.243	2755.83
1004.538	2752.89
1004.832	2703.63
1005.127	2698.88
1005.421	2662.73
1005.715	2694.59
1006.009	2672.22
1006.304	2660.01
1006.598	2634.93
1006.892	2634.7
1007.186	2599.9
1007.48	2625.21
1007.773	2603.97
1008.067	2597.87
1008.361	2542.28
1008.655	2538.44
1008.948	2535.05
1009.242	2519.68
1009.535	2525.56
1009.829	2504.31
1010.122	2448.49
1010.415	2475.16
1010.708	2416.18
1011.001	2418.44
1011.295	2402.39
1011.588	2377.31
1011.881	2408.27
1012.173	2377.31
1012.466	2381.83
1012.759	2388.16
1013.052	2327.59
1013.344	2339.35
1013.637	2287.37
1013.93	2288.95
1014.222	2248.05
1014.514	2246.47
1014.807	2220.25
1015.099	2229.07
1015.391	2223.19
1015.683	2225.9
1015.976	2170.54
1016.268	2146.36
1016.56	2129.86
1016.851	2106.81
1017.143	2126.92
1017.435	2103.19
1017.727	2029.75
1018.018	2060.03
1018.31	2077.43
1018.602	2068.84
1018.893	2028.39
1019.185	2034.49
1019.476	1991.78
1019.767	1978.68
1020.058	1986.36
1020.35	1956.3
1020.641	1921.28
1020.932	1912.46
1021.223	1894.16
1021.514	1926.7
1021.804	1881.28
1022.095	1866.82
1022.386	1841.05
1022.677	1811.9
1022.967	1818.91
1023.258	1816.42
1023.548	1816.42
1023.839	1792.47
1024.129	1774.16
1024.419	1749.08
1024.709	1764.45
1025	1720.83
1025.29	1711.57
1025.58	1710.66
1025.87	1660.72
1026.16	1680.83
1026.449	1672.02
1026.739	1634.05
1027.029	1619.82
1027.319	1626.37
1027.608	1568.52
1027.898	1577.78
1028.187	1577.33
1028.477	1555.41
1028.766	1555.41
1029.055	1520.61
1029.344	1529.42
1029.634	1489.42
1029.923	1507.28
1030.212	1474.51
1030.501	1460.05
1030.79	1458.92
1031.078	1448.97
1031.367	1429.09
1031.656	1436.77
1031.945	1412.36
1032.233	1426.83
1032.522	1388.86
1032.81	1367.85
1033.099	1353.16
1033.387	1371.24
1033.675	1370.78
1033.963	1326.49
1034.251	1359.03
1034.54	1328.98
1034.828	1298.47
1035.116	1304.12
1035.403	1294.18
1035.691	1258.92
1035.979	1296.21
1036.267	1270.22
1036.554	1259.83
1036.842	1244.23
1037.129	1229.77
1037.417	1228.19
1037.704	1225.93
1037.992	1215.76
1038.279	1180.05
1038.566	1192.71
1038.853	1192.71
1039.14	1192.71
