Data from white_wall_FLMS001491_078.txt Node
Date: Tue Feb 07 11:05:46 GMT 2017
User: dcchb
Spectrometer: FLMS00149
Trigger mode: 0
Integration Time (sec): 2.000000E-2
Scans to average: 10
Electric dark correction enabled: true
Nonlinearity correction enabled: false
Boxcar width: 0
XAxis mode: Wavelengths
Number of Pixels in Spectrum: 2048
>>>>>Begin Spectral Data<<<<<
341.393	-0.35
341.776	-0.35
342.16	-0.35
342.543	-64.08
342.927	-69.5
343.31	-70.86
343.693	-73.12
344.077	-72.89
344.46	-69.05
344.843	-33.35
345.226	-43.74
345.61	-21.14
345.993	-4.19
346.376	-19.34
346.759	26.76
347.142	21.57
347.525	42.58
347.908	36.93
348.291	77.84
348.674	97.72
349.057	104.28
349.44	115.8
349.823	133.43
350.206	148.8
350.588	203.71
350.971	233.99
351.354	258.62
351.737	237.38
352.119	270.6
352.502	257.27
352.884	297.72
353.267	304.5
353.65	298.4
354.032	304.95
354.414	301.56
354.797	312.63
355.179	327.55
355.562	327.55
355.944	347.43
356.326	348.56
356.709	347.66
357.091	338.4
357.473	349.24
357.855	351.05
358.238	357.38
358.62	350.37
359.002	343.14
359.384	350.37
359.766	350.15
360.148	358.06
360.53	353.76
360.912	334.78
361.294	332.29
361.676	346.98
362.057	347.43
362.439	331.62
362.821	356.7
363.203	324.61
363.584	341.56
363.966	344.04
364.348	341.56
364.729	327.32
365.111	316.47
365.493	318.06
365.874	347.21
366.256	319.19
366.637	330.71
367.019	331.39
367.4	332.29
367.781	340.88
368.163	344.5
368.544	325.29
368.925	326.87
369.306	321.22
369.688	322.58
370.069	309.02
370.45	323.03
370.831	332.29
371.212	337.72
371.593	334.55
371.974	323.03
372.355	341.56
372.736	337.72
373.117	349.02
373.498	345.17
373.879	338.85
374.26	347.89
374.641	321.67
375.021	337.49
375.402	333.88
375.783	340.2
376.163	324.16
376.544	335.23
376.925	358.51
377.305	360.54
377.686	358.06
378.066	360.99
378.447	359.41
378.827	355.57
379.208	351.28
379.588	375.68
379.968	356.7
380.349	349.47
380.729	359.41
381.109	365.96
381.489	358.96
381.87	388.56
382.25	370.26
382.63	380.65
383.01	365.06
383.39	372.74
383.77	377.26
384.15	359.64
384.53	395.12
384.91	378.17
385.29	364.38
385.67	387.89
386.049	399.64
386.429	391.05
386.809	419.07
387.189	393.76
387.568	381.56
387.948	417.04
388.328	403.7
388.707	418.39
389.087	425.62
389.466	423.14
389.846	436.02
390.225	435.79
390.605	435.34
390.984	418.84
391.363	433.76
391.743	460.65
392.122	473.76
392.501	475.34
392.881	460.2
393.26	459.97
393.639	464.72
394.018	498.84
394.397	511.72
394.776	497.49
395.155	507.43
395.534	491.16
395.913	507.88
396.292	533.87
396.671	533.64
397.05	519.86
397.429	553.98
397.808	566.64
398.186	581.1
398.565	564.6
398.944	565.73
399.323	563.02
399.701	569.58
400.08	615
400.458	616.13
400.837	627.65
401.215	641.66
401.594	637.37
401.972	678.95
402.351	661.32
402.729	693.87
403.107	661.32
403.486	715.33
403.864	730.02
404.242	727.09
404.62	739.97
404.999	747.88
405.377	756.69
405.755	769.8
406.133	786.74
406.511	807.31
406.889	809.12
407.267	834.2
407.645	813.86
408.023	845.05
408.401	878.49
408.779	881.88
409.156	906.74
409.534	915.56
409.912	925.5
410.29	951.94
410.667	957.36
411.045	1000.98
411.422	984.71
411.8	1034.65
412.178	1028.55
412.555	1043.24
412.933	1058.6
413.31	1084.82
413.687	1076.68
414.065	1103.57
414.442	1129.33
414.819	1137.47
415.197	1138.83
415.574	1154.19
415.951	1206.39
416.328	1188.32
416.705	1217.92
417.082	1214.08
417.46	1233.06
417.837	1234.64
418.214	1246.62
418.591	1276.22
418.967	1290.91
419.344	1282.55
419.721	1315.77
420.098	1328.2
420.475	1330.91
420.852	1332.49
421.228	1346.28
421.605	1369.55
421.982	1395.54
422.358	1424.69
422.735	1431.02
423.111	1443.22
423.488	1474.64
423.864	1464.69
424.241	1517.8
424.617	1492.49
424.994	1524.35
425.37	1531.13
425.746	1555.09
426.123	1519.83
426.499	1577.23
426.875	1612.26
427.251	1651.58
427.627	1655.2
428.003	1659.72
428.379	1681.86
428.756	1726.38
429.132	1704.69
429.507	1749.88
429.883	1814.29
430.259	1823.33
430.635	1824.68
431.011	1880.95
431.387	1895.19
431.763	1926.83
432.138	1922.31
432.514	1987.17
432.89	1983.32
433.265	2021.06
433.641	2049.76
434.016	2056.09
434.392	2082.08
434.767	2099.25
435.143	2115.3
435.518	2192.13
435.894	2160.04
436.269	2201.85
436.644	2244.33
437.02	2276.65
437.395	2288.85
437.77	2337.21
438.145	2337.66
438.52	2383.31
438.895	2394.16
439.271	2408.62
439.646	2447.72
440.021	2467.15
440.395	2481.39
440.77	2455.18
441.145	2561.16
441.52	2580.37
441.895	2554.61
442.27	2578.34
442.645	2576.53
443.019	2607.04
443.394	2649.75
443.769	2677.99
444.143	2660.82
444.518	2737.65
444.892	2715.06
445.267	2737.88
445.641	2753.02
446.016	2773.81
446.39	2827.82
446.764	2846.35
447.139	2797.99
447.513	2856.75
447.887	2909.4
448.262	2889.97
448.636	2953.02
449.01	2968.16
449.384	3016.74
449.758	3022.17
450.132	3065.1
450.506	3108.49
450.88	3123.63
451.254	3097.19
451.628	3130.19
452.002	3192.78
452.376	3198.43
452.75	3286.79
453.123	3274.36
453.497	3354.13
453.871	3399.56
454.244	3422.61
454.618	3418.09
454.992	3490.18
455.365	3525.43
455.739	3626.9
456.112	3640.23
456.486	3626.22
456.859	3677.52
457.232	3812.65
457.606	3758.64
457.979	3849.72
458.352	3941.69
458.725	3967.68
459.099	3979.66
459.472	4051.29
459.845	4093.78
460.218	4144.85
460.591	4181.91
460.964	4174.9
461.337	4308.23
461.71	4336.26
462.083	4405.86
462.456	4425.97
462.829	4454.67
463.201	4550.94
463.574	4542.35
463.947	4664.16
464.32	4717.49
464.692	4773.53
465.065	4834.55
465.438	4909.35
465.81	4966.07
466.183	5011.27
466.555	5194.09
466.928	5151.15
467.3	5185.05
467.672	5290.36
468.045	5409
468.417	5402.44
468.789	5444.7
469.161	5548.88
469.534	5670.01
469.906	5694.86
470.278	5741.64
470.65	5854.41
471.022	5992.03
471.394	6101.86
471.766	6177.56
472.138	6230.44
472.51	6352.02
472.882	6466.82
473.253	6556.08
473.625	6613.71
473.997	6792.46
474.369	6846.7
474.74	6949.75
475.112	7100.48
475.484	7166.46
475.855	7344.76
476.227	7337.76
476.598	7560.35
476.97	7672.67
477.341	7820.01
477.713	7987.46
478.084	8027.01
478.455	8275.59
478.827	8331.86
479.198	8507.9
479.569	8532.53
479.94	8834.44
480.311	8897.94
480.682	9066.08
481.053	9310.81
481.424	9472.39
481.795	9553.52
482.166	9701.09
482.537	9792.16
482.908	10067.18
483.279	10278.25
483.65	10412.03
484.021	10569.99
484.391	10739.03
484.762	10846.82
485.133	10880.72
485.503	10988.51
485.874	11331.1
486.244	11416.97
486.615	11638.44
486.985	11839.56
487.356	12003.17
487.726	12157.07
488.097	12392.32
488.467	12432.54
488.837	12704.4
489.207	12857.39
489.578	13077.04
489.948	13186.64
490.318	13329.01
490.688	13440.2
491.058	13549.12
491.428	13854.42
491.798	14025.04
492.168	14227.52
492.538	14316.11
492.908	14537.34
493.278	14776.21
493.648	14775.53
494.017	14975.07
494.387	15115.63
494.757	15263.65
495.126	15571.44
495.496	15512.23
495.866	15629.07
496.235	15824.54
496.605	15948.83
496.974	16001.71
497.344	16210.52
497.713	16310.4
498.082	16474.92
498.452	16628.36
498.821	16678.53
499.19	16820.22
499.559	17042.36
499.928	17092.76
500.298	17242.36
500.667	17412.07
501.036	17424.73
501.405	17634.21
501.774	17670.14
502.143	17845.05
502.512	17907.65
502.88	18192.39
503.249	18161.43
503.618	18427.18
503.987	18477.81
504.356	18640.74
504.724	18783.11
505.093	18858.36
505.462	18904.69
505.83	19042.08
506.199	19223.77
506.567	19549.87
506.936	19444.11
507.304	19760.71
507.672	19856.98
508.041	19903.3
508.409	20054.94
508.777	20387.59
509.145	20418.55
509.514	20536.73
509.882	20677.75
510.25	20745.09
510.618	20902.83
510.986	21090.62
511.354	21305.53
511.722	21448.57
512.09	21638.85
512.458	21671.39
512.826	21915.45
513.193	22068.45
513.561	22170.14
513.929	22392.05
514.297	22537.36
514.664	22764.7
515.032	22821.65
515.4	23032.49
515.767	23193.16
516.135	23233.61
516.502	23215.53
516.869	23629.53
517.237	23658.01
517.604	23773.71
517.972	24130.31
518.339	24282.85
518.706	24311.55
519.073	24523.3
519.44	24580.02
519.808	25012.32
520.175	24882.38
520.542	25331.41
520.909	25348.81
521.276	25482.37
521.643	25742.7
522.009	25975.46
522.376	26083.03
522.743	26343.36
523.11	26530.47
523.477	26828.32
523.843	26945.15
524.21	27202.55
524.577	27467.17
524.943	27575.87
525.31	27707.62
525.676	27967.05
526.043	28080.04
526.409	28188.74
526.776	28624.66
527.142	28654.71
527.508	28761.83
527.874	29136.51
528.241	29198.88
528.607	29353.45
528.973	29734.46
529.339	29636.38
529.705	30043.38
530.071	30108.23
530.437	30149.59
530.803	30576.24
531.169	30699.63
531.535	30571.72
531.901	30827.76
532.267	30956.35
532.632	31194.31
532.998	31374.19
533.364	31377.35
533.73	31651.47
534.095	31831.58
534.461	31997.9
534.826	32135.98
535.192	32253.26
535.557	32524.67
535.923	32427.27
536.288	32522.86
536.653	32800.37
537.019	32721.72
537.384	32992.9
537.749	33197.87
538.114	33295.72
538.479	33323.52
538.845	33399.22
539.21	33354.25
539.575	33688.03
539.94	33766.89
540.305	33838.98
540.67	34068.36
541.034	34101.58
541.399	34171.4
541.764	34466.54
542.129	34465.86
542.494	34547.21
542.858	34795.79
543.223	34812.52
543.587	35128.67
543.952	35142.23
544.316	35240.75
544.681	35258.15
545.045	35510.13
545.41	35741.76
545.774	35826.5
546.138	35908.99
546.503	35819.27
546.867	36076.89
547.231	36398.69
547.595	36387.39
547.959	36578.57
548.324	36644.56
548.688	36824.44
549.052	37012.46
549.416	37023.76
549.779	37196.18
550.143	37182.62
550.507	37667.81
550.871	37596.4
551.235	37753.46
551.599	38100.79
551.962	38194.8
552.326	38186.21
552.689	38555.47
553.053	38343.72
553.417	38593.43
553.78	39204.49
554.143	38964.05
554.507	39329.23
554.87	39452.85
555.234	39782.1
555.597	39540.53
555.96	39883.57
556.323	39934.64
556.686	40080.63
557.05	40390.68
557.413	40439.04
557.776	40557.68
558.139	40929.19
558.502	41037.44
558.865	41053.03
559.228	41513.36
559.59	41483.98
559.953	41640.36
560.316	41994.93
560.679	42104.98
561.041	42373.22
561.404	42479.21
561.767	42852.53
562.129	42623.61
562.492	43063.15
562.854	43177.27
563.217	43168
563.579	43391.5
563.941	43627.2
564.304	43779.74
564.666	44004.14
565.028	44125.72
565.39	44267.18
565.753	44568.42
566.115	44653.39
566.477	44762.09
566.839	44896.32
567.201	45246.37
567.563	45218.12
567.925	45411.79
568.287	45628.28
568.648	45639.8
569.01	45871.44
569.372	46010.19
569.734	46135.61
570.095	46393.68
570.457	46418.99
570.819	46625.77
571.18	46674.58
571.542	46862.6
571.903	46888.81
572.265	47090.39
572.626	47173.55
572.987	47313.43
573.349	47339.42
573.71	47502.58
574.071	47594.78
574.432	47807.88
574.794	47977.14
575.155	48001.77
575.516	47832.74
575.877	48106.4
576.238	48081.77
576.599	48325.38
576.96	48192.5
577.32	48258.94
577.681	48398.15
578.042	48522.21
578.403	48574.19
578.763	48613.06
579.124	48677.24
579.485	48707.52
579.845	48871.81
580.206	48800.4
580.566	48777.35
580.927	48802.43
581.287	49060.28
581.648	48850.11
582.008	49049.66
582.368	49006.72
582.728	49099.15
583.089	49016.21
583.449	49045.81
583.809	49119.49
584.169	49138.02
584.529	49112.25
584.889	49385.47
585.249	49274.06
585.609	49152.03
585.969	49349.31
586.329	49259.37
586.688	49303.21
587.048	49226.6
587.408	49166.49
587.768	49178.92
588.127	49201.07
588.487	49201.07
588.846	49432.92
589.206	49334.62
589.565	49168.3
589.925	49455.75
590.284	49276.54
590.643	49380.27
591.003	49561.51
591.362	49554.5
591.721	49417.33
592.08	49408.07
592.44	49582.3
592.799	49562.19
593.158	49503.2
593.517	49413.26
593.876	49467.5
594.235	49399.48
594.593	49432.02
594.952	49461.4
595.311	49470.44
595.67	49528.51
596.029	49733.48
596.387	49759.24
596.746	49811.9
597.104	49688.28
597.463	49612.35
597.822	49747.94
598.18	49558.57
598.538	49665.01
598.897	49769.41
599.255	49564.67
599.613	50055.96
599.972	49843.76
600.33	49841.5
600.688	49776.42
601.046	49961.72
601.404	50136.41
601.762	50032.23
602.12	50046.69
602.478	50209.85
602.836	50181.83
603.194	49971.89
603.552	50053.92
603.91	49943.42
604.268	50217.76
604.625	50026.13
604.983	50246.24
605.341	50088.95
605.698	50310.64
606.056	50359.68
606.413	50328.72
606.771	50489.17
607.128	50481.94
607.485	50295.5
607.843	50461.6
608.2	50650.07
608.557	50666.34
608.914	50601.48
609.272	50708.37
609.629	50754.7
609.986	50867.24
610.343	50701.14
610.7	50950.85
611.057	50933
611.414	50845.09
611.771	50768.48
612.127	51046.21
612.484	51045.99
612.841	51068.81
613.198	50994.24
613.554	51028.81
613.911	51231.97
614.267	51092.09
614.624	51240.11
614.98	51238.07
615.337	51381.8
615.693	51344.51
616.05	51206.21
616.406	51578.86
616.762	51354.23
617.118	51445.3
617.475	51390.84
617.831	51435.36
618.187	51506.32
618.543	51565.97
618.899	51754.22
619.255	51709.02
619.611	51635.35
619.967	51767.33
620.323	51789.02
620.678	51691.4
621.034	51523.49
621.39	51663.15
621.746	51666.31
622.101	51958.96
622.457	51800.32
622.812	51828.34
623.168	51852.07
623.523	51811.84
623.879	51891.62
624.234	51726.87
624.589	51856.81
624.945	51874.22
625.3	51885.97
625.655	51832.41
626.01	51839.41
626.365	51960.31
626.72	51843.71
627.075	51775.01
627.43	51864.5
627.785	51716.03
628.14	51777.04
628.495	51832.18
628.85	51760.09
629.205	51628.12
629.559	51862.69
629.914	51561.68
630.269	51772.75
630.623	51712.19
630.978	51547.22
631.332	51679.19
631.687	51797.38
632.041	51635.58
632.396	51624.5
632.75	51525.07
633.104	51496.82
633.459	51376.15
633.813	51357.17
634.167	51472.19
634.521	51291.18
634.875	51422.93
635.229	51398.75
635.583	51102.03
635.937	51152.65
636.291	51102.94
636.645	51194.23
636.999	51097.96
637.352	51165.76
637.706	50968.48
638.06	51152.43
638.413	50952.21
638.767	50905.65
639.121	50969.83
639.474	50751.31
639.828	50823.62
640.181	50772.32
640.534	50801.02
640.888	50645.77
641.241	50437.64
641.594	50694.36
641.947	50701.14
642.301	50570.75
642.654	50489.62
643.007	50590.86
643.36	50445.33
643.713	50425.21
644.066	50558.32
644.419	50291.88
644.771	50220.02
645.124	49847.6
645.477	49685.57
645.83	49444.22
646.182	49306.83
646.535	49249.65
646.888	49278.58
647.24	49083.1
647.593	49286.94
647.945	49119.49
648.298	49091.01
648.65	48966.95
649.002	48881.98
649.355	48902.54
649.707	48893.28
650.059	49114.29
650.411	49562.41
650.763	49462.08
651.115	49776.42
651.467	49705.91
651.819	49798.79
652.171	49686.48
652.523	49575.97
652.875	49558.12
653.227	49479.93
653.578	49683.76
653.93	49651.67
654.282	49489.42
654.633	49224.57
654.985	49415.07
655.337	49436.09
655.688	49307.05
656.039	49482.19
656.391	49140.73
656.742	49211.46
657.094	49201.74
657.445	49301.18
657.796	49185.02
658.147	48970.34
658.498	49160.39
658.849	49088.75
659.2	49190.22
659.551	49171.91
659.902	49230.67
660.253	49031.13
660.604	49010.79
660.955	48825.71
661.306	49065.02
661.656	48966.72
662.007	48919.72
662.358	48884.46
662.708	48794.3
663.059	48841.98
663.409	48508.65
663.76	48915.42
664.11	48765.82
664.461	48745.94
664.811	48837.68
665.161	48718.14
665.511	48738.7
665.862	48683.79
666.212	48804.69
666.562	48748.42
666.912	48616.67
667.262	48568.77
667.612	48683.79
667.962	48660.29
668.312	48481.99
668.662	48753.85
669.011	48659.38
669.361	48415.55
669.711	48495.77
670.06	48450.35
670.41	48439.05
670.76	48387.3
671.109	48585.04
671.459	48370.13
671.808	48287.64
672.157	48335.33
672.507	48066.86
672.856	48055.33
673.205	48145.95
673.554	48349.11
673.904	48153.41
674.253	48298.94
674.602	48046.75
674.951	47520.88
675.3	47367.21
675.649	48094.2
675.998	47885.62
676.346	47888.78
676.695	48059.17
677.044	47623.03
677.393	47858.95
677.741	47809.46
678.09	47672.29
678.438	47562.01
678.787	47721.1
679.135	47680.65
679.484	47409.02
679.832	47618.28
680.181	47439.98
680.529	47495.12
680.877	47399.3
681.225	47273.88
681.573	47576.02
681.922	47256.26
682.27	47077.05
682.618	47238.63
682.966	47051.52
683.314	47003.38
683.661	46881.8
684.009	46645.88
684.357	46705.31
684.705	46553.23
685.053	46521.59
685.4	46510.97
685.748	46309.16
686.095	46375.6
686.443	46197.75
686.79	46042.28
687.138	46117.76
687.485	46077.08
687.832	45922.06
688.18	45959.12
688.527	45742.62
688.874	45674.83
689.221	45541.73
689.568	45468.28
689.915	45292.92
690.262	45367.95
690.609	45200.49
690.956	45186.03
691.303	45074.62
691.65	44886.15
691.997	44934.06
692.344	44691.13
692.69	44577.68
693.037	44647.29
693.383	44264.02
693.73	44458.36
694.077	44370.68
694.423	44254.3
694.769	44162.1
695.116	43927.31
695.462	43744.26
695.808	43816.57
696.155	43766.41
696.501	43491.16
696.847	43592.17
697.193	43204.61
697.539	43423.36
697.885	43045.29
698.231	42891.63
698.577	42992.41
698.923	42793.78
699.269	42587
699.614	42643.05
699.96	42392.2
700.306	42433.79
700.651	42251.19
700.997	42017.75
701.342	41980.24
701.688	42024.98
702.033	41813.24
702.379	41765.78
702.724	41780.92
703.069	41794.71
703.415	41406.92
703.76	41437.88
704.105	41196.53
704.45	41342.29
704.795	41083.54
705.14	40947.5
705.485	40905.46
705.83	40707.73
706.175	40756.99
706.52	40544.57
706.865	40462.09
707.209	40446.72
707.554	40451.46
707.899	40345.03
708.243	40196.78
708.588	40236.33
708.932	39977.35
709.277	39992.27
709.621	39883.34
709.966	39584.59
710.31	39841.99
710.654	39486.74
710.998	39563.58
711.342	39498.95
711.687	39311.61
712.031	39195.68
712.375	39175.79
712.719	39253.08
713.063	39062.57
713.407	39114.1
713.75	38908.91
714.094	38892.64
714.438	38785.07
714.782	38833.88
715.125	38602.7
715.469	38703.04
715.812	38300.79
716.156	38162.49
716.499	38336.27
716.843	38249.94
717.186	38087.46
717.53	38232.99
717.873	38190.73
718.216	38049.27
718.559	37930.85
718.902	37567.7
719.246	37747.35
719.589	37664.42
719.932	37385.56
720.275	37566.12
720.617	37417.87
720.96	37299.91
721.303	37211.32
721.646	37320.47
721.989	37065.11
722.331	37141.04
722.674	37097.43
723.016	37101.95
723.359	37055.4
723.701	37170.87
724.044	36803.2
724.386	36653.6
724.729	36822.41
725.071	36687.5
725.413	36659.25
725.755	36653.15
726.097	36389.65
726.439	36417.67
726.782	36226.72
727.124	36502.19
727.465	36380.84
727.807	36233.95
728.149	36232.82
728.491	36027.17
728.833	36078.47
729.175	35960.28
729.516	35937.23
729.858	35912.83
730.199	35863.11
730.541	35794.41
730.882	35735.2
731.224	35880.74
731.565	35574.98
731.906	35596.68
732.248	35565.49
732.589	35359.4
732.93	35269.68
733.271	35219.51
733.612	35395.1
733.953	35311.26
734.294	35091.61
734.635	35128.44
734.976	35067.2
735.317	34896.58
735.658	34927.77
735.999	35015.68
736.339	34864.04
736.68	35026.75
737.021	34824.27
737.361	34685.74
737.702	34760.99
738.042	34584.73
738.383	34424.73
738.723	34676.93
739.063	34424.05
739.404	34589.02
739.744	34396.03
740.084	34393.54
740.424	34250.5
740.764	34321
741.104	34287.33
741.444	33980.9
741.784	34020.67
742.124	34196.49
742.464	34181.12
742.804	34063.84
743.143	33817.74
743.483	33921.24
743.823	33876.04
744.162	33640.12
744.502	33678.31
744.841	33642.15
745.181	33762.15
745.52	33561.48
745.86	33574.36
746.199	33422.72
746.538	33361.03
746.877	33379.11
747.216	33451.87
747.556	33179.79
747.895	33338.21
748.234	33021.83
748.573	33047.14
748.911	33046.91
749.25	33078.1
749.589	32774.6
749.928	32837.88
750.267	32923.08
750.605	32813.93
750.944	32646.7
751.283	32671.33
751.621	32627.72
751.96	32373.03
752.298	32356.31
752.636	32354.28
752.975	32257.33
753.313	32000.39
753.651	32237.22
753.989	32089.65
754.327	31915.87
754.666	31992.93
755.004	31970.56
755.342	31948.19
755.679	31736.21
756.017	31586.16
756.355	31756.55
756.693	31560.4
757.031	31617.12
757.368	31371.03
757.706	31381.65
758.044	31310.69
758.381	31176.45
758.719	31063.01
759.056	31114.53
759.394	30975.1
759.731	30769.69
760.068	30792.28
760.405	30717.26
760.743	30521.78
761.08	30629.58
761.417	30466.42
761.754	30326.76
762.091	30345.97
762.428	30169.25
762.765	29961.8
763.102	30160.44
763.438	29957.28
763.775	29693.1
764.112	29713.44
764.449	29697.85
764.785	29590.06
765.122	29441.58
765.458	29238.88
765.795	29340.8
766.131	29255.15
766.467	29110.97
766.804	29036.62
767.14	28815.39
767.476	28885.89
767.812	28799.79
768.148	28819.68
768.485	28681.6
768.821	28442.97
769.157	28478.9
769.492	28308.51
769.828	28271.45
770.164	27932.02
770.5	27958.69
770.836	27929.99
771.171	27704.23
771.507	27652.03
771.842	27484.35
772.178	27499.71
772.513	27417.23
772.849	27271.7
773.184	27170.46
773.519	27219.27
773.855	26965.04
774.19	26820.41
774.525	26941.54
774.86	26715.1
775.195	26781.99
775.53	26678.72
775.865	26459.74
776.2	26313.98
776.535	26200.77
776.87	26287.32
777.205	26038.28
777.539	25864.5
777.874	25960.32
778.209	25692.98
778.543	25674.23
778.878	25627.9
779.212	25535.02
779.547	25462.48
779.881	25485.53
780.215	25248.7
780.55	25304.29
780.884	25074.47
781.218	25097.29
781.552	25097.74
781.886	24911.99
782.22	24702.5
782.554	24560.58
782.888	24453.69
783.222	24374.37
783.556	24307.26
783.889	24249.86
784.223	24104.32
784.557	24041.27
784.89	24090.09
785.224	23955.63
785.557	23758.34
785.891	23744.33
786.224	23635.64
786.558	23609.42
786.891	23424.12
787.224	23392.7
787.557	23316.1
787.891	23243.1
788.224	23215.76
788.557	23194.74
788.89	23112.03
789.223	23063.9
789.556	22809.89
789.888	22874.53
790.221	22752.72
790.554	22525.38
790.887	22629.11
791.219	22533.52
791.552	22490.81
791.884	22283.35
792.217	22167.65
792.549	22130.82
792.882	21949.13
793.214	21898.05
793.546	21866.87
793.879	21713.43
794.211	21665.07
794.543	21703.03
794.875	21626.42
795.207	21773.99
795.539	21576.03
795.871	21499.19
796.203	21286.54
796.535	21262.59
796.867	21187.34
797.198	21158.86
797.53	21096.49
797.862	20934.69
798.193	21057.4
798.525	20860.34
798.856	20889.04
799.188	20562.95
799.519	20725.88
799.85	20613.34
800.182	20526.11
800.513	20466.45
800.844	20392.11
801.175	20427.13
801.506	20339.9
801.837	20234.14
802.168	20278.44
802.499	20090.19
802.83	19952.34
803.161	19867.15
803.491	19920.03
803.822	19927.26
804.153	19753.03
804.483	19657.89
804.814	19589.19
805.145	19580.37
805.475	19528.17
805.805	19453.6
806.136	19414.05
806.466	19456.08
806.796	19398.91
807.126	19247.28
807.457	19134.06
807.787	19248.18
808.117	19035.98
808.447	19102.65
808.777	19087.73
809.107	18926.15
809.436	18962.54
809.766	18840.73
810.096	18874.18
810.426	18705.37
810.755	18822.2
811.085	18679.83
811.414	18669.44
811.744	18430.12
812.073	18481.65
812.403	18422.89
812.732	18317.13
813.061	18327.53
813.39	18158.49
813.719	18230.13
814.049	18250.69
814.378	18158.94
814.707	18154.2
815.036	18174.99
815.365	18094.09
815.693	17846.41
816.022	17901.78
816.351	17749.01
816.68	17616.13
817.008	17730.71
817.337	17515.8
817.665	17464.72
817.994	17658.17
818.322	17573.2
818.651	17443.71
818.979	17454.1
819.307	17501.56
819.636	17428.79
819.964	17319.64
820.292	17327.33
820.62	17349.47
820.948	17268.8
821.276	17270.38
821.604	17267.67
821.932	17284.39
822.259	17307.67
822.587	17409.81
822.915	17222.92
823.243	17345.18
823.57	17238.52
823.898	17166.2
824.225	17137.28
824.553	17058.41
824.88	17119.42
825.207	17183.83
825.535	17085.98
825.862	17149.03
826.189	17126.43
826.516	17227.22
826.843	17240.55
827.17	17248.46
827.497	17239.87
827.824	17274.22
828.151	17192.42
828.478	17189.93
828.805	17266.76
829.131	17200.1
829.458	17109.71
829.785	17026.09
830.111	17123.49
830.438	17190.38
830.764	17117.61
831.09	17020.22
831.417	17029.48
831.743	17107.9
832.069	17108.8
832.395	17016.37
832.722	17097.73
833.048	16914.46
833.374	16944.96
833.7	16956.49
834.026	16955.59
834.351	16989.26
834.677	16949.48
835.003	16983.61
835.329	16938.18
835.654	16914.46
835.98	16882.37
836.306	16891.63
836.631	16860.67
836.956	16834.46
837.282	16741.35
837.607	16702.48
837.932	16692.09
838.258	16783.39
838.583	16638.08
838.908	16618.87
839.233	16552.66
839.558	16565.31
839.883	16449.38
840.208	16394.47
840.533	16421.14
840.858	16445.77
841.182	16390.4
841.507	16299.11
841.832	16282.16
842.156	16280.12
842.481	16178.88
842.805	16289.39
843.13	16140.01
843.454	16119.68
843.778	16131.43
844.103	16129.62
844.427	16077.87
844.751	16034.25
845.075	15952
845.399	15875.16
845.723	15914.71
846.047	15852.11
846.371	15714.94
846.695	15815.5
847.019	15641.95
847.343	15561.05
847.666	15505.45
847.99	15402.41
848.313	15406.93
848.637	15220.72
848.96	15267.27
849.284	15261.39
849.607	15204.9
849.931	15015.07
850.254	14981.63
850.577	14874.51
850.9	14723.33
851.223	14799.48
851.546	14727.85
851.869	14569.89
852.192	14643.1
852.515	14538.93
852.838	14459.83
853.161	14509.32
853.483	14343.22
853.806	14390.68
854.129	14234.07
854.451	14351.36
854.774	14183
855.096	14202.89
855.419	14145.94
855.741	14049.22
856.063	13969.22
856.385	13979.62
856.708	13905.95
857.03	13896
857.352	13937.59
857.674	13848.55
857.996	13839.28
858.318	13670.47
858.64	13719.51
858.961	13637.25
859.283	13560.19
859.605	13640.19
859.926	13602.45
860.248	13458.95
860.57	13490.59
860.891	13493.76
861.212	13427.32
861.534	13448.56
861.855	13249.47
862.176	13340.09
862.498	13381.89
862.819	13190.94
863.14	13266.42
863.461	13153.88
863.782	13152.07
864.103	13174.67
864.424	13065.29
864.745	13129.92
865.065	13073.2
865.386	12945.52
865.707	12980.55
866.027	12940.1
866.348	13021.45
866.668	12970.61
866.989	12988.46
867.309	12828.46
867.63	12888.12
867.95	12810.16
868.27	12786.43
868.59	12813.55
868.91	12759.54
869.23	12784.62
869.55	12721.12
869.87	12755.02
870.19	12676.15
870.51	12775.81
870.83	12673.44
871.15	12601.58
871.469	12582.59
871.789	12604.29
872.109	12496.04
872.428	12433.44
872.748	12548.02
873.067	12488.36
873.386	12486.78
873.706	12485.42
874.025	12382.82
874.344	12426.66
874.663	12427.34
874.982	12369.49
875.301	12381.02
875.62	12350.28
875.939	12284.75
876.258	12254.47
876.577	12185.99
876.896	12223.28
877.214	12226.9
877.533	12230.96
877.852	12210.4
878.17	12196.16
878.489	12150.74
878.807	12160.01
879.125	12129.5
879.444	12161.81
879.762	12082.49
880.08	12034.81
880.398	12021.25
880.716	12051.31
881.034	11983.06
881.352	11964.76
881.67	11931.99
881.988	11925.21
882.306	11884.76
882.624	11811.77
882.941	11799.56
883.259	11782.61
883.577	11725.44
883.894	11615.84
884.212	11685.89
884.529	11689.28
884.846	11717.3
885.164	11633.47
885.481	11610.19
885.798	11634.14
886.115	11491.77
886.432	11499.01
886.75	11504.43
887.067	11466.01
887.383	11392.12
887.7	11434.15
888.017	11310.99
888.334	11384.43
888.651	11267.83
888.967	11306.24
889.284	11195.96
889.6	11264.66
889.917	11140.37
890.233	11159.81
890.55	11173.82
890.866	11022.63
891.182	11060.82
891.498	10964.1
891.815	10947.61
892.131	10899.02
892.447	10922.07
892.763	10826.25
893.079	10807.95
893.395	10818.57
893.71	10838.46
894.026	10744.9
894.342	10696.31
894.657	10630.78
894.973	10619.25
895.289	10579.48
895.604	10579.93
895.92	10492.48
896.235	10480.95
896.55	10467.85
896.865	10372.48
897.181	10389.2
897.496	10474.17
897.811	10311.24
898.126	10339.04
898.441	10314.63
898.756	10194.86
899.071	10196.67
899.386	10239.6
899.7	10113.73
900.015	10021.98
900.33	9980.63
900.644	10000.51
900.959	10053.17
901.273	9965.03
901.588	9891.36
901.902	9825.15
902.216	9847.52
902.531	9814.98
902.845	9766.17
903.159	9666.06
903.473	9700.86
903.787	9574.08
904.101	9580.19
904.415	9576.12
904.729	9546.97
905.042	9518.72
905.356	9469
905.67	9472.84
905.984	9397.59
906.297	9418.83
906.611	9364.82
906.924	9302
907.237	9292.28
907.551	9216.58
907.864	9221.78
908.177	9171.84
908.491	9128.9
908.804	9117.15
909.117	9024.27
909.43	8958.28
909.743	8959.41
910.056	8930.03
910.368	8900.2
910.681	8848.45
910.994	8796.03
911.307	8773.88
911.619	8776.14
911.932	8771.17
912.244	8703.37
912.557	8699.76
912.869	8601.23
913.181	8616.6
913.494	8554.22
913.806	8505.19
914.118	8449.82
914.43	8413.21
914.742	8395.36
915.054	8375.47
915.366	8302.93
915.678	8374.12
915.99	8268.36
916.302	8227.23
916.613	8147.46
916.925	8224.97
917.236	8163.5
917.548	8088.02
917.859	8081.69
918.171	8027.91
918.482	7989.27
918.794	7921.92
919.105	7937.74
919.416	7880.8
919.727	7810.29
920.038	7853.68
920.349	7794.47
920.66	7730.52
920.971	7740.69
921.282	7658.43
921.593	7667.92
921.903	7625.66
922.214	7586.11
922.525	7560.8
922.835	7478.55
923.146	7479.68
923.456	7477.87
923.767	7429.28
924.077	7421.6
924.387	7384.76
924.697	7332.11
925.008	7237.65
925.318	7199.01
925.628	7249.17
925.938	7182.73
926.248	7171.66
926.558	7127.37
926.867	7129.18
927.177	7090.76
927.487	7045.79
927.796	6982.29
928.106	6940.71
928.416	6980.71
928.725	6954.49
929.034	6914.95
929.344	6884.66
929.653	6875.4
929.962	6825.23
930.271	6822.52
930.581	6704.78
930.89	6732.13
931.199	6620.72
931.508	6735.97
931.817	6627.04
932.125	6594.95
932.434	6608.74
932.743	6517.89
933.051	6486.71
933.36	6480.83
933.669	6458.69
933.977	6461.17
934.286	6409.87
934.594	6375.3
934.902	6311.12
935.21	6323.32
935.519	6274.28
935.827	6253.72
936.135	6182.99
936.443	6160.61
936.751	6159.48
937.059	6157.23
937.367	6135.53
937.674	6115.87
937.982	6093.95
938.29	6044.46
938.597	6061.41
938.905	5979.83
939.213	5985.93
939.52	5958.81
939.827	5912.71
940.135	5834.3
940.442	5848.76
940.749	5823.22
941.056	5854.63
941.363	5747.29
941.67	5804.47
941.977	5753.17
942.284	5725.15
942.591	5691.02
942.898	5681.31
943.205	5668.65
943.511	5664.13
943.818	5646.28
944.125	5490.58
944.431	5505.49
944.738	5534.64
945.044	5524.93
945.35	5472.5
945.657	5406.96
945.963	5452.61
946.269	5379.17
946.575	5344.14
946.881	5343.24
947.187	5320.18
947.493	5279.73
947.799	5265.72
948.105	5209
948.41	5226.63
948.716	5218.04
949.022	5136.91
949.327	5162.67
949.633	5101.21
949.938	5116.57
950.244	5038.61
950.549	5017.37
950.854	5031.6
951.16	5017.14
951.465	4949.8
951.77	4979.63
952.075	4995.45
952.38	4914.32
952.685	4945.73
952.99	4828.45
953.294	4847.2
953.599	4861.21
953.904	4836.58
954.209	4777.37
954.513	4818.05
954.818	4769.46
955.122	4784.61
955.426	4706.42
955.731	4664.38
956.035	4675.68
956.339	4661.22
956.643	4653.31
956.948	4641.33
957.252	4560.88
957.556	4538.51
957.86	4610.15
958.163	4563.59
958.467	4522.69
958.771	4533.99
959.075	4490.83
959.378	4452.64
959.682	4495.35
959.985	4387.33
960.289	4373.09
960.592	4339.65
960.896	4355.24
961.199	4324.5
961.502	4343.94
961.805	4306.65
962.108	4296.71
962.411	4331.28
962.714	4247.44
963.017	4232.08
963.32	4251.74
963.623	4181.01
963.926	4208.58
964.228	4148.01
964.531	4157.96
964.833	4113.21
965.136	4061.69
965.438	4065.08
965.741	4084.29
966.043	4071.63
966.345	4041.57
966.648	4019.2
966.95	3970.84
967.252	3991.86
967.554	3983.04
967.856	3962.93
968.158	3940.33
968.46	3891.07
968.761	3920.9
969.063	3885.87
969.365	3842.03
969.666	3876.38
969.968	3815.37
970.269	3777.85
970.571	3783.73
970.872	3830.05
971.174	3716.84
971.475	3768.81
971.776	3749.83
972.077	3684.97
972.378	3690.17
972.679	3677.97
972.98	3683.84
973.281	3657.18
973.582	3637.29
973.883	3645.88
974.183	3588.93
974.484	3588.71
974.785	3573.11
975.085	3556.16
975.386	3520.23
975.686	3515.94
975.986	3491.08
976.287	3466.67
976.587	3475.49
976.887	3440.23
977.187	3420.35
977.487	3481.59
977.787	3407.69
978.087	3391.42
978.387	3360.91
978.687	3347.81
978.987	3362.5
979.286	3365.21
979.586	3325.66
979.885	3292.44
980.185	3308.71
980.484	3282.5
980.784	3236.85
981.083	3241.6
981.382	3219.68
981.682	3218.09
981.981	3201.37
982.28	3197.75
982.579	3168.6
982.878	3192.78
983.177	3164.76
983.475	3134.93
983.774	3150.75
984.073	3103.75
984.372	3066.46
984.67	3071.43
984.969	3050.19
985.267	3051.77
985.566	3020.36
985.864	3047.25
986.162	2981.94
986.461	2980.59
986.759	2994.6
987.057	2953.69
987.355	2906.92
987.653	2927.48
987.951	2897.88
988.249	2880.48
988.547	2906.92
988.844	2825.79
989.142	2903.53
989.44	2836.41
989.737	2789.86
990.035	2812.23
990.332	2777.2
990.63	2762.74
990.927	2787.37
991.224	2761.16
991.521	2777.43
991.819	2726.81
992.116	2758.22
992.413	2717.77
992.71	2688.84
993.006	2698.56
993.303	2662.18
993.6	2663.08
993.897	2650.2
994.193	2686.13
994.49	2623.76
994.787	2601.16
995.083	2596.64
995.379	2601.61
995.676	2566.59
995.972	2579.69
996.268	2554.16
996.565	2525.46
996.861	2505.12
997.157	2504.21
997.453	2485.23
997.749	2466.02
998.044	2446.14
998.34	2484.33
998.636	2423.99
998.932	2452.69
999.227	2432.35
999.523	2417.89
999.818	2359.58
1000.114	2372.69
1000.409	2355.97
1000.704	2373.14
1001	2360.04
1001.295	2331.34
1001.59	2321.17
1001.885	2304.45
1002.18	2330.43
1002.475	2296.54
1002.77	2286.82
1003.065	2263.32
1003.359	2249.31
1003.654	2232.81
1003.949	2227.61
1004.243	2202.07
1004.538	2192.58
1004.832	2153.49
1005.127	2142.64
1005.421	2154.62
1005.715	2141.74
1006.009	2129.76
1006.304	2131.79
1006.598	2102.42
1006.892	2081.17
1007.186	2101.96
1007.48	2093.38
1007.773	2087.28
1008.067	2030.55
1008.361	2041.85
1008.655	2039.14
1008.948	2001.85
1009.242	1995.3
1009.535	2011.35
1009.829	1974.28
1010.122	1966.15
1010.415	1961.4
1010.708	1945.36
1011.001	1928.86
1011.295	1943.78
1011.588	1918.24
1011.881	1891.8
1012.173	1902.65
1012.466	1876.66
1012.759	1870.78
1013.052	1877.34
1013.344	1850.9
1013.637	1809.09
1013.93	1813.16
1014.222	1814.29
1014.514	1814.97
1014.807	1754.4
1015.099	1804.35
1015.391	1750.56
1015.683	1781.07
1015.976	1735.19
1016.268	1728.64
1016.56	1738.36
1016.851	1740.17
1017.143	1716.44
1017.435	1691.81
1017.727	1691.58
1018.018	1659.94
1018.31	1666.72
1018.602	1648.19
1018.893	1635.99
1019.185	1616.78
1019.476	1626.95
1019.767	1614.75
1020.058	1614.52
1020.35	1591.24
1020.641	1587.63
1020.932	1536.56
1021.223	1548.31
1021.514	1546.5
1021.804	1538.14
1022.095	1489.55
1022.386	1489.1
1022.677	1498.82
1022.967	1475.31
1023.258	1462.89
1023.548	1471.47
1023.839	1473.73
1024.129	1432.83
1024.419	1454.3
1024.709	1413.85
1025	1440.29
1025.29	1416.33
1025.58	1401.19
1025.87	1384.7
1026.16	1408.65
1026.449	1360.29
1026.739	1345.83
1027.029	1362.1
1027.319	1334.3
1027.608	1335.88
1027.898	1353.96
1028.187	1324.36
1028.477	1309.22
1028.766	1306.05
1029.055	1279.84
1029.344	1276
1029.634	1267.64
1029.923	1270.57
1030.212	1258.37
1030.501	1241.2
1030.79	1241.42
1031.078	1238.03
1031.367	1209.56
1031.656	1215.66
1031.945	1223.8
1032.233	1200.75
1032.522	1206.62
1032.81	1174.76
1033.099	1174.98
1033.387	1169.11
1033.675	1153.51
1033.963	1135.66
1034.251	1174.08
1034.54	1163.68
1034.828	1154.19
1035.116	1150.13
1035.403	1099.28
1035.691	1131.37
1035.979	1093.63
1036.267	1101.99
1036.554	1093.18
1036.842	1113.74
1037.129	1069
1037.417	1047.53
1037.704	1063.35
1037.992	1053.86
1038.279	1034.65
1038.566	1027.42
1038.853	1027.42
1039.14	1027.42
