Data from white_steel_sheet_FLMS001491_043.txt Node
Date: Tue Feb 07 10:57:55 GMT 2017
User: dcchb
Spectrometer: FLMS00149
Trigger mode: 0
Integration Time (sec): 2.000000E-2
Scans to average: 10
Electric dark correction enabled: true
Nonlinearity correction enabled: false
Boxcar width: 0
XAxis mode: Wavelengths
Number of Pixels in Spectrum: 2048
>>>>>Begin Spectral Data<<<<<
341.393	-0.16
341.776	-0.16
342.16	-0.16
342.543	-64.11
342.927	-75.41
343.31	-54.17
343.693	-68.18
344.077	-61.85
344.46	-73.83
344.843	-44.9
345.226	-51.68
345.61	-20.72
345.993	-16.43
346.376	-11
346.759	5.04
347.142	10.92
347.525	45.72
347.908	68.54
348.291	67.64
348.674	99.95
349.057	104.93
349.44	108.99
349.823	130.91
350.206	154.87
350.588	198.94
350.971	208.88
351.354	234.19
351.737	237.13
352.119	267.41
352.502	300.4
352.884	271.7
353.267	270.8
353.65	285.26
354.032	311.47
354.414	306.28
354.797	315.77
355.179	325.26
355.562	324.58
355.944	322.32
356.326	315.99
356.709	329.1
357.091	325.71
357.473	347.63
357.855	348.99
358.238	329.1
358.62	342.66
359.002	338.82
359.384	347.18
359.766	343.56
360.148	356.22
360.53	348.08
360.912	330.46
361.294	357.12
361.676	345.37
362.057	342.66
362.439	335.66
362.821	325.94
363.203	322.77
363.584	328.65
363.966	335.88
364.348	321.87
364.729	330.01
365.111	319.38
365.493	322.77
365.874	304.47
366.256	326.62
366.637	323.68
367.019	333.85
367.4	322.32
367.781	317.58
368.163	321.19
368.544	325.49
368.925	336.56
369.306	323
369.688	328.42
370.069	339.72
370.45	302.66
370.831	310.12
371.212	322.55
371.593	312.15
371.974	342.66
372.355	316.67
372.736	328.42
373.117	354.64
373.498	317.8
373.879	311.25
374.26	322.32
374.641	318.03
375.021	320.29
375.402	351.02
375.783	339.95
376.163	360.29
376.544	344.69
376.925	347.86
377.305	349.67
377.686	306.28
378.066	344.47
378.447	334.75
378.827	362.32
379.208	345.82
379.588	360.06
379.968	350.57
380.349	393.05
380.729	357.35
381.109	328.42
381.489	348.54
381.87	370.23
382.25	383.11
382.63	362.09
383.01	378.37
383.39	370.91
383.77	371.59
384.15	363
384.53	383.79
384.91	375.43
385.29	390.12
385.67	382.89
386.049	374.98
386.429	386.5
386.809	381.3
387.189	384.02
387.568	388.53
387.948	392.15
388.328	411.13
388.707	396.9
389.087	393.51
389.466	401.64
389.846	419.04
390.225	401.42
390.605	419.27
390.984	421.08
391.363	427.4
391.743	407.52
392.122	438.25
392.501	423.79
392.881	438.48
393.26	448.42
393.639	476.22
394.018	454.52
394.397	433.73
394.776	475.76
395.155	450.23
395.534	468.53
395.913	455.2
396.292	483.9
396.671	496.1
397.05	478.25
397.429	480.74
397.808	483
398.186	515.99
398.565	513.5
398.944	510.11
399.323	504.46
399.701	522.54
400.08	539.49
400.458	543.56
400.837	562.99
401.215	539.72
401.594	563.22
401.972	562.54
402.351	566.38
402.729	595.31
403.107	582.43
403.486	603.9
403.864	624.01
404.242	606.61
404.62	620.17
404.999	647.96
405.377	608.64
405.755	638.02
406.133	666.49
406.511	678.47
406.889	682.54
407.267	688.19
407.645	724.57
408.023	708.53
408.401	711.69
408.779	746.72
409.156	728.64
409.534	744.01
409.912	756.21
410.29	788.52
410.667	816.09
411.045	814.29
411.422	811.57
411.8	823.78
412.178	824
412.555	852.48
412.933	840.95
413.31	855.87
413.687	851.12
414.065	870.56
414.442	899.26
414.819	913.04
415.197	926.6
415.574	922.31
415.951	954.85
416.328	959.59
416.705	969.31
417.082	972.93
417.46	992.13
417.837	984.9
418.214	1004.11
418.591	1041.85
418.967	1035.98
419.344	1069.87
419.721	1052.47
420.098	1059.7
420.475	1087.5
420.852	1068.52
421.228	1099.48
421.605	1070.32
421.982	1112.13
422.358	1129.08
422.735	1160.49
423.111	1155.07
423.488	1153.71
423.864	1187.61
424.241	1182.41
424.617	1171.79
424.994	1196.65
425.37	1190.77
425.746	1218.34
426.123	1216.76
426.499	1261.73
426.875	1263.99
427.251	1297.44
427.627	1311.22
428.003	1298.57
428.379	1329.75
428.756	1367.94
429.132	1375.85
429.507	1404.55
429.883	1409.98
430.259	1422.41
430.635	1420.6
431.011	1458.11
431.387	1479.13
431.763	1548.5
432.138	1499.92
432.514	1530.88
432.89	1559.13
433.265	1605.68
433.641	1592.35
434.016	1631.89
434.392	1634.83
434.767	1680.25
435.143	1644.1
435.518	1703.98
435.894	1696.3
436.269	1731.55
436.644	1774.49
437.02	1755.96
437.395	1759.35
437.77	1802.06
438.145	1860.13
438.52	1838.44
438.895	1844.99
439.271	1879.8
439.646	1930.42
440.021	1936.97
440.395	1929.51
440.77	1915.05
441.145	1948.49
441.52	1993.92
441.895	1997.53
442.27	1991.2
442.645	2031.66
443.019	2038.89
443.394	2050.86
443.769	2041.37
444.143	2102.16
444.518	2071.43
444.892	2128.6
445.267	2152.56
445.641	2157.75
446.016	2155.72
446.39	2174.02
446.764	2186.91
447.139	2217.64
447.513	2223.74
447.887	2228.26
448.262	2277.07
448.636	2296.73
449.01	2312.55
449.384	2295.6
449.758	2332.21
450.132	2357.07
450.506	2385.09
450.88	2390.97
451.254	2400.01
451.628	2449.95
452.002	2460.12
452.376	2471.19
452.75	2514.35
453.123	2539.44
453.497	2547.35
453.871	2621.24
454.244	2665.99
454.618	2646.33
454.992	2718.64
455.365	2703.5
455.739	2733.78
456.112	2789.15
456.486	2782.37
456.859	2829.83
457.232	2878.64
457.606	2873.44
457.979	2900.79
458.352	2981.69
458.725	3033.89
459.099	2999.54
459.472	3118.86
459.845	3135.36
460.218	3155.92
460.591	3176.48
460.964	3218.52
461.337	3301.23
461.71	3291.28
462.083	3292.64
462.456	3372.86
462.829	3400.89
463.201	3431.39
463.574	3431.62
463.947	3538.06
464.32	3612.41
464.692	3587.32
465.065	3624.38
465.438	3663.03
465.81	3739.18
466.183	3770.59
466.555	3843.36
466.928	3861.89
467.3	3881.1
467.672	3987.76
468.045	4002.68
468.417	4142.56
468.789	4091.71
469.161	4201.32
469.534	4267.98
469.906	4289.45
470.278	4332.84
470.65	4359.73
471.022	4429.33
471.394	4503.68
471.766	4561.98
472.138	4556.33
472.51	4732.6
472.882	4794.07
473.253	4841.3
473.625	4914.97
473.997	4971.47
474.369	5063.89
474.74	5090.78
475.112	5180.05
475.484	5299.82
475.855	5384.79
476.227	5406.03
476.598	5556.08
476.97	5623.2
477.341	5723.76
477.713	5810.99
478.084	5891.89
478.455	5975.73
478.827	6096.41
479.198	6220.02
479.569	6253.24
479.94	6421.14
480.311	6436.29
480.682	6689.16
481.053	6754.7
481.424	6886.67
481.795	6955.82
482.166	7006.44
482.537	7117.17
482.908	7283.27
483.279	7367.11
483.65	7467.22
484.021	7644.16
484.391	7749.7
484.762	7838.73
485.133	7884.61
485.503	8053.42
485.874	8197.6
486.244	8215
486.615	8402.11
486.985	8464.48
487.356	8654.98
487.726	8809.1
488.097	8883.9
488.467	8986.5
488.837	9136.55
489.207	9259.71
489.578	9398.24
489.948	9482.08
490.318	9585.13
490.688	9603.21
491.058	9800.94
491.428	9966.14
491.798	9959.13
492.168	10234.83
492.538	10276.86
492.908	10320.48
493.278	10534.71
493.648	10517.08
494.017	10738.55
494.387	10819.9
494.757	10846.79
495.126	11016.73
495.496	11111.19
495.866	11143.73
496.235	11233
496.605	11432.99
496.974	11483.16
497.344	11560.44
497.713	11594.12
498.082	11767.9
498.452	11808.35
498.821	11927.89
499.19	12007.44
499.559	12127.44
499.928	12193.65
500.298	12278.39
500.667	12405.17
501.036	12369.01
501.405	12503.7
501.774	12484.26
502.143	12677.03
502.512	12733.52
502.88	12910.92
503.249	12937.58
503.618	13038.82
503.987	13054.42
504.356	13164.47
504.724	13223
505.093	13272.26
505.462	13425.25
505.83	13553.61
506.199	13632.93
506.567	13851.91
506.936	13788.63
507.304	13967.39
507.672	14125.12
508.041	14119.25
508.409	14203.54
508.777	14384.33
509.145	14540.93
509.514	14491.44
509.882	14682.4
510.25	14639.23
510.618	14802.85
510.986	14927.81
511.354	15055.49
511.722	15220.91
512.09	15267.47
512.458	15281.25
512.826	15502.04
513.193	15548.36
513.561	15613.9
513.929	15853.67
514.297	15909.48
514.664	16045.98
515.032	16097.5
515.4	16215.46
515.767	16406.42
516.135	16513.08
516.502	16435.34
516.869	16794.66
517.237	16797.6
517.604	16867.65
517.972	17006.63
518.339	17134.99
518.706	17198.04
519.073	17360.74
519.44	17512.15
519.808	17776.1
520.175	17694.52
520.542	17921.86
520.909	18094.28
521.276	18039.37
521.643	18271.91
522.009	18488.4
522.376	18577.44
522.743	18804.77
523.11	18891.33
523.477	19066.46
523.843	19196.4
524.21	19397.07
524.577	19608.59
524.943	19620.12
525.31	19739.66
525.676	19874.35
526.043	20012.88
526.409	20122.03
526.776	20402.47
527.142	20398.18
527.508	20695.12
527.874	20816.02
528.241	20890.82
528.607	20905.74
528.973	21232.28
529.339	21258.49
529.705	21409.23
530.071	21625.04
530.437	21620.29
530.803	21851.47
531.169	22097.57
531.535	21945.93
531.901	22089.43
532.267	22156.55
532.632	22324
532.998	22468.18
533.364	22527.61
533.73	22653.71
534.095	22806.93
534.461	22969.18
534.826	23028.17
535.192	23103.19
535.557	23245.34
535.923	23357.42
536.288	23413.01
536.653	23573.46
537.019	23509.28
537.384	23574.59
537.749	23789.95
538.114	23873.12
538.479	23984.52
538.845	24060.45
539.21	24036.05
539.575	24329.83
539.94	24323.95
540.305	24554.45
540.67	24400.33
541.034	24671.29
541.399	24718.74
541.764	24722.13
542.129	24869.02
542.494	24897.27
542.858	25001.45
543.223	25006.87
543.587	25205.51
543.952	25234.66
544.316	25304.26
544.681	25328.9
545.045	25527.76
545.41	25659.51
545.774	25601.43
546.138	25774.53
546.503	25776.34
546.867	25781.54
547.231	26134.98
547.595	26130.68
547.959	26173.17
548.324	26307.4
548.688	26282.54
549.052	26395.31
549.416	26478.47
549.779	26688.41
550.143	26549.43
550.507	26860.61
550.871	26910.78
551.235	26969.98
551.599	27142.18
551.962	27117.32
552.326	27169.75
552.689	27485.22
553.053	27396.41
553.417	27461.72
553.78	27814.71
554.143	27725.22
554.507	27841.6
554.87	27964.08
555.234	28172.89
555.597	28050.63
555.96	28267.8
556.323	28391.19
556.686	28489.04
557.05	28680.45
557.413	28677.73
557.776	28724.51
558.139	28897.16
558.502	29114.79
558.865	29081.57
559.228	29376.02
559.59	29370.82
559.953	29501.44
560.316	29879.74
560.679	29862.56
561.041	29887.65
561.404	30072.27
561.767	30273.4
562.129	30256
562.492	30461.19
562.854	30475.65
563.217	30679.49
563.579	30793.39
563.941	30911.12
564.304	31070.21
564.666	31233.37
565.028	31047.62
565.39	31393.37
565.753	31643.31
566.115	31662.51
566.477	31810.99
566.839	31967.82
567.201	32145.21
567.563	31996.07
567.925	32315.83
568.287	32288.04
568.648	32446
569.01	32592.66
569.372	32669.72
569.734	32655.26
570.095	33053.89
570.457	33056.38
570.819	33059.09
571.18	33236.03
571.542	33372.53
571.903	33429.7
572.265	33472.64
572.626	33651.16
572.987	33574.56
573.349	33730.48
573.71	33885.96
574.071	33953.53
574.432	34082.11
574.794	34167.08
575.155	34284.14
575.516	34104.03
575.877	34219.06
576.238	34438.26
576.599	34592.61
576.96	34439.84
577.32	34603
577.681	34622.66
578.042	34736.78
578.403	34751.7
578.763	34738.59
579.124	34779.5
579.485	34905.82
579.845	35014.07
580.206	35024.23
580.566	34937.01
580.927	34979.04
581.287	35224.46
581.648	35028.3
582.008	35170.67
582.368	35038.02
582.728	35169.09
583.089	35146.72
583.449	35189.65
583.809	35160.05
584.169	35187.17
584.529	35153.27
584.889	35453.15
585.249	35164.34
585.609	35088.41
585.969	35301.06
586.329	35205.25
586.688	35289.09
587.048	35165.25
587.408	35087.74
587.768	35170.67
588.127	35229.88
588.487	35093.16
588.846	35454.51
589.206	35181.29
589.565	35168.19
589.925	35338.58
590.284	35208.18
590.643	35370.89
591.003	35348.97
591.362	35433.26
591.721	35292.93
592.08	35188.3
592.44	35341.51
592.799	35322.08
593.158	35305.81
593.517	35296.32
593.876	35461.74
594.235	35247.96
594.593	35299.26
594.952	35399.82
595.311	35339.48
595.67	35374.73
596.029	35548.74
596.387	35546.93
596.746	35610.66
597.104	35307.62
597.463	35463.77
597.822	35571.56
598.18	35387.16
598.538	35460.38
598.897	35572.69
599.255	35334.51
599.613	35837.77
599.972	35572.02
600.33	35722.3
600.688	35496.99
601.046	35601.17
601.404	35748.96
601.762	35559.59
602.12	35838
602.478	35901.5
602.836	35767.94
603.194	35482.98
603.552	35751.22
603.91	35567.05
604.268	35697.44
604.625	35619.25
604.983	35740.15
605.341	35651.34
605.698	35855.85
606.056	35975.4
606.413	35934.04
606.771	35999.12
607.128	35996.86
607.485	35762.52
607.843	35954.83
608.2	36050.87
608.557	36060.82
608.914	35992.8
609.272	36184.66
609.629	36315.05
609.986	36258.78
610.343	36078.67
610.7	36465.78
611.057	36497.19
611.414	36419.45
611.771	36508.94
612.127	36431.2
612.484	36523.18
612.841	36633.01
613.198	36504.2
613.554	36527.02
613.911	36872.77
614.267	36629.62
614.624	36646.11
614.98	36794.13
615.337	36965.43
615.693	36792.1
616.05	36817.18
616.406	36994.13
616.762	36830.06
617.118	36881.59
617.475	36858.76
617.831	37074.8
618.187	37030.06
618.543	37076.16
618.899	37253.33
619.255	37251.29
619.611	37318.41
619.967	37385.08
620.323	37281.35
620.678	37174.23
621.034	37094.69
621.39	37189.15
621.746	37106.44
622.101	37545.75
622.457	37205.87
622.812	37346.66
623.168	37372.87
623.523	37376.04
623.879	37378.3
624.234	37257.4
624.589	37303.27
624.945	37388.01
625.3	37444.06
625.655	37423.27
626.01	37408.8
626.365	37365.19
626.72	37305.53
627.075	37357.73
627.43	37370.16
627.785	37255.14
628.14	37209.94
628.495	37387.34
628.85	37325.19
629.205	37254.91
629.559	37416.71
629.914	37272.54
630.269	37291.07
630.623	37145.31
630.978	37118.19
631.332	37217.17
631.687	37202.03
632.041	37040.45
632.396	37158.19
632.75	37030.06
633.104	36985.99
633.459	36839.78
633.813	36786.22
634.167	36715.94
634.521	36789.61
634.875	36805.2
635.229	36724.3
635.583	36550.52
635.937	36590.97
636.291	36602.27
636.645	36609.96
636.999	36395.05
637.352	36439.11
637.706	36282.96
638.06	36368.61
638.413	36365.22
638.767	36174.49
639.121	36212
639.474	36087.71
639.828	35990.76
640.181	36082.74
640.534	36155.96
640.888	35958.9
641.241	35823.31
641.594	35934.49
641.947	35938.11
642.301	35689.75
642.654	35874.61
643.007	35793.03
643.36	35712.8
643.713	35654.95
644.066	35817.66
644.419	35474.39
644.771	35302.19
645.124	34878.93
645.477	34791.47
645.83	34640.52
646.182	34604.36
646.535	34479.84
646.888	34474.19
647.24	34303.58
647.593	34525.72
647.945	34421.09
648.298	34369.11
648.65	34214.31
649.002	34101.55
649.355	34120.08
649.707	34197.36
650.059	34321.88
650.411	34523
650.763	34723.45
651.115	35095.87
651.467	35004.12
651.819	35059.04
652.171	34739.04
652.523	34730.91
652.875	34791.25
653.227	34525.94
653.578	34694.53
653.93	34736.33
654.282	34641.42
654.633	34506.06
654.985	34471.48
655.337	34527.07
655.688	34603.45
656.039	34504.25
656.391	34334.76
656.742	34412.5
657.094	34359.62
657.445	34463.8
657.796	34421.76
658.147	34378.83
658.498	34288.66
658.849	34372.05
659.2	34168.21
659.551	34011.83
659.902	34142.45
660.253	34068.78
660.604	34186.74
660.955	33935
661.306	33960.31
661.656	33911.04
662.007	33828.79
662.358	33786.98
662.708	33827.66
663.059	33858.84
663.409	33521.45
663.76	33696.81
664.11	33727.55
664.461	33645.74
664.811	33589.02
665.161	33687.32
665.511	33434.22
665.862	33442.36
666.212	33483.94
666.562	33520.77
666.912	33320.55
667.262	33149.93
667.612	33170.5
667.962	33044.4
668.312	32934.12
668.662	33125.75
669.011	32889.38
669.361	32729.83
669.711	32739.32
670.06	32619.33
670.41	32678.99
670.76	32348.6
671.109	32416.39
671.459	32348.15
671.808	32456.62
672.157	32393.57
672.507	32120.81
672.856	32150.86
673.205	32083.07
673.554	32169.17
673.904	32035.16
674.253	32113.58
674.602	31921.49
674.951	31561.5
675.3	31393.37
675.649	31825.45
675.998	31837.88
676.346	31788.84
676.695	31930.3
677.044	31613.93
677.393	31744.55
677.741	31657.09
678.09	31627.26
678.438	31526.93
678.787	31663.64
679.135	31621.16
679.484	31266.82
679.832	31518.34
680.181	31341.85
680.529	31451.45
680.877	31300.26
681.225	31185.01
681.573	31556.98
681.922	31329.87
682.27	31318.34
682.618	31282.19
682.966	31361.51
683.314	31390.43
683.661	31364.67
684.009	31219.36
684.357	31218.46
684.705	31211.45
685.053	31271.34
685.4	31287.38
685.748	31161.74
686.095	31186.6
686.443	31212.36
686.79	31177.56
687.138	31270.66
687.485	31170.78
687.832	31119.93
688.18	31258.91
688.527	31028.41
688.874	31113.15
689.221	31045.58
689.568	30925.81
689.915	30917
690.262	30899.37
690.609	30936.43
690.956	30818.24
691.303	30740.05
691.65	30604.46
691.997	30759.04
692.344	30679.26
692.69	30724.46
693.037	30745.02
693.383	30461.42
693.73	30572.37
694.077	30467.29
694.423	30472.72
694.769	30348.43
695.116	30359.72
695.462	30245.15
695.808	30183.46
696.155	30433.85
696.501	30136.91
696.847	30071.37
697.193	30032.05
697.539	30115.66
697.885	29890.81
698.231	29867.76
698.577	29804.03
698.923	29808.55
699.269	29732.17
699.614	29504.15
699.96	29619.18
700.306	29500.76
700.651	29405.17
700.997	29287.21
701.342	29139.64
701.688	29258.96
702.033	29065.75
702.379	29092.19
702.724	29054.45
703.069	29151.85
703.415	28777.39
703.76	28697.4
704.105	28750.05
704.45	28513.45
704.795	28479.55
705.14	28459.66
705.485	28327.46
705.83	28397.06
706.175	28276.39
706.52	28277.97
706.865	28099.44
707.209	28134.92
707.554	28016.74
707.899	28174.02
708.243	27893.8
708.588	27961.82
708.932	27702.17
709.277	27683.41
709.621	27737.42
709.966	27601.83
710.31	27619.23
710.654	27350.76
710.998	27300.6
711.342	27375.85
711.687	27275.06
712.031	27114.61
712.375	27115.52
712.719	27119.36
713.063	27060.6
713.407	27013.6
713.75	27035.74
714.094	26957.1
714.438	26889.31
714.782	26953.26
715.125	26763.43
715.469	26836.65
715.812	26724.34
716.156	26525.02
716.499	26507.17
716.843	26519.6
717.186	26418.36
717.53	26596.21
717.873	26438.47
718.216	26366.38
718.559	26281.41
718.902	25952.83
719.246	26235.76
719.589	26013.85
719.932	25946.28
720.275	26022.44
720.617	25938.82
720.96	25890.46
721.303	25956.68
721.646	25870.35
721.989	25729.79
722.331	25714.2
722.674	25669
723.016	25603.01
723.359	25619.74
723.701	25649.57
724.044	25533.18
724.386	25228.11
724.729	25459.97
725.071	25480.3
725.413	25326.86
725.755	25313.98
726.097	25321.44
726.439	25177.26
726.782	25089.81
727.124	25186.53
727.465	25055.68
727.807	25066.3
728.149	24979.98
728.491	25032.63
728.833	24981.56
729.175	24921.9
729.516	24734.34
729.858	24802.58
730.199	24862.69
730.541	24692.75
730.882	24688.46
731.224	24757.61
731.565	24658.86
731.906	24539.54
732.248	24525.53
732.589	24490.95
732.93	24372.31
733.271	24336.83
733.612	24386.32
733.953	24411.41
734.294	24293.9
734.635	24269.26
734.976	24221.58
735.317	24236.04
735.658	24163.28
735.999	24147.01
736.339	24036.95
736.68	24084.86
737.021	23991.98
737.361	23897.07
737.702	23971.64
738.042	23910.18
738.383	23814.13
738.723	23792.44
739.063	23768.71
739.404	23836.28
739.744	23687.58
740.084	23617.08
740.424	23679.22
740.764	23477.87
741.104	23668.6
741.444	23409.17
741.784	23440.58
742.124	23559.9
742.464	23423.86
742.804	23302.73
743.143	23300.7
743.483	23384.54
743.823	23184.09
744.162	23176.86
744.502	23290.53
744.841	23112.23
745.181	23099.12
745.52	23156.3
745.86	23146.13
746.199	23014.15
746.538	22937.09
746.877	22983.2
747.216	22999.92
747.556	22858.23
747.895	22850.54
748.234	22839.47
748.573	22691.23
748.911	22744.33
749.25	22744.78
749.589	22690.1
749.928	22554.51
750.267	22613.04
750.605	22588.86
750.944	22439.48
751.283	22377.34
751.621	22521.29
751.96	22239.26
752.298	22332.36
752.636	22164.69
752.975	22097.34
753.313	22021.41
753.651	22129.88
753.989	21963.56
754.327	22020.73
754.666	21856.22
755.004	21862.55
755.342	22000.85
755.679	21890.79
756.017	21738.26
756.355	21723.12
756.693	21671.82
757.031	21674.08
757.368	21523.35
757.706	21630.69
758.044	21430.69
758.381	21326.52
758.719	21355.89
759.056	21272.73
759.394	21194.77
759.731	21006.07
760.068	21121.1
760.405	20963.36
760.743	20917.71
761.08	20887.88
761.417	20751.39
761.754	20680.2
762.091	20711.84
762.428	20724.5
762.765	20453.09
763.102	20598.85
763.438	20486.54
763.775	20345.3
764.112	20335.81
764.449	20372.64
764.785	20240.67
765.122	20129.94
765.458	20041.58
765.795	20100.33
766.131	19974.46
766.467	19947.57
766.804	19764.97
767.14	19684.75
767.476	19767.23
767.812	19613.34
768.148	19582.83
768.485	19514.81
768.821	19360.24
769.157	19373.57
769.492	19359.56
769.828	19455.83
770.164	19119.57
770.5	19162.73
770.836	19094.71
771.171	18992.11
771.507	18869.86
771.842	18772.23
772.178	18792.8
772.513	18738.11
772.849	18610.65
773.184	18527.95
773.519	18571.56
773.855	18493.37
774.19	18361.85
774.525	18308.97
774.86	18396.2
775.195	18226.03
775.53	18205.24
775.865	18050.67
776.2	17901.75
776.535	17894.97
776.87	17929.09
777.205	17760.06
777.539	17679.83
777.874	17763.67
778.209	17593.96
778.543	17502.66
778.878	17509.44
779.212	17366.85
779.547	17237.81
779.881	17261.99
780.215	17191.48
780.55	17309.22
780.884	17037.36
781.218	17077.14
781.552	17056.35
781.886	16852.73
782.22	16841.44
782.554	16717.82
782.888	16642.34
783.222	16632.85
783.556	16418.62
783.889	16494.1
784.223	16365.52
784.557	16413.2
784.89	16349.7
785.224	16288.23
785.557	16147.44
785.891	16078.97
786.224	16064.28
786.558	16175.46
786.891	15904.51
787.224	15943.15
787.557	15813.21
787.891	15759.88
788.224	15735.48
788.557	15757.17
788.89	15682.37
789.223	15691.41
789.556	15482.15
789.888	15490.06
790.221	15418.87
790.554	15267.01
790.887	15329.16
791.219	15208.03
791.552	15255.26
791.884	15166
792.217	15053.69
792.549	15030.41
792.882	14951.32
793.214	14849.17
793.546	14921.26
793.879	14769.63
794.211	14618.67
794.543	14769.17
794.875	14769.85
795.207	14768.27
795.539	14668.61
795.871	14602.85
796.203	14458.9
796.535	14365.79
796.867	14387.49
797.198	14364.44
797.53	14323.54
797.862	14201.05
798.193	14243.99
798.525	14102.75
798.856	14215.06
799.188	14021.62
799.519	14009.65
799.85	13853.27
800.182	13911.34
800.513	13942.3
800.844	13815.75
801.175	13874.28
801.506	13806.94
801.837	13772.82
802.168	13718.58
802.499	13652.37
802.83	13569.43
803.161	13535.99
803.491	13575.31
803.822	13602.65
804.153	13480.85
804.483	13395.2
804.814	13301.87
805.145	13335.77
805.475	13229.55
805.805	13201.98
806.136	13235.65
806.466	13199.05
806.796	13113.17
807.126	13032.5
807.457	13096
807.787	13054.87
808.117	13003.34
808.447	12965.38
808.777	12924.93
809.107	12886.29
809.436	12860.3
809.766	12829.79
810.096	12752.5
810.426	12632.73
810.755	12728.32
811.085	12670.47
811.414	12645.39
811.744	12525.84
812.073	12583.24
812.403	12484.94
812.732	12453.53
813.061	12427.99
813.39	12449.46
813.719	12376.24
814.049	12446.75
814.378	12336.47
814.707	12227.77
815.036	12246.3
815.365	12259.64
815.693	12100.32
816.022	12102.8
816.351	12113.88
816.68	12004.27
817.008	11997.04
817.337	11940.77
817.665	11891.74
817.994	11910.72
818.322	11802.25
818.651	11789.37
818.979	11835.01
819.307	11846.31
819.636	11794.79
819.964	11667.33
820.292	11762.02
820.62	11726.77
820.948	11641.57
821.276	11851.96
821.604	11678.63
821.932	11730.38
822.259	11692.42
822.587	11638.41
822.915	11644.74
823.243	11679.31
823.57	11570.84
823.898	11674.79
824.225	11580.56
824.553	11615.81
824.88	11633.89
825.207	11638.86
825.535	11567.22
825.862	11574.46
826.189	11602.03
826.516	11656.26
826.843	11639.76
827.17	11534
827.497	11585.75
827.824	11691.06
828.151	11655.13
828.478	11623.95
828.805	11743.94
829.131	11586.21
829.458	11519.09
829.785	11600.44
830.111	11498.98
830.438	11655.58
830.764	11583.49
831.09	11624.62
831.417	11514.34
831.743	11564.51
832.069	11548.69
832.395	11488.81
832.722	11463.72
833.048	11517.51
833.374	11527.45
833.7	11399.32
834.026	11475.48
834.351	11577.62
834.677	11424.63
835.003	11529.71
835.329	11416.49
835.654	11397.29
835.98	11346.44
836.306	11388.25
836.631	11391.64
836.956	11415.36
837.282	11347.34
837.607	11282.71
837.932	11204.75
838.258	11297.17
838.583	11243.62
838.908	11204.52
839.233	11167.01
839.558	11176.73
839.883	11143.51
840.208	11134.92
840.533	11102.6
840.858	11147.35
841.182	11153.9
841.507	11141.7
841.832	10981.7
842.156	11161.59
842.481	11014.92
842.805	10969.27
843.13	10906
843.454	11022.15
843.778	10835.04
844.103	10906.45
844.427	10828.26
844.751	10887.69
845.075	10859.67
845.399	10776.06
845.723	10685.44
846.047	10702.16
846.371	10585.33
846.695	10646.8
847.019	10537.42
847.343	10495.84
847.666	10421.27
847.99	10416.97
848.313	10401.38
848.637	10343.75
848.96	10271.89
849.284	10301.04
849.607	10216.75
849.931	10190.54
850.254	10125
850.577	10096.3
850.9	9972.46
851.223	10001.84
851.546	9950.77
851.869	9923.43
852.192	9943.76
852.515	9800.94
852.838	9823.09
853.161	9837.1
853.483	9685.47
853.806	9736.76
854.129	9660.38
854.451	9670.55
854.774	9620.83
855.096	9605.69
855.419	9598.24
855.741	9486.83
856.063	9478.47
856.385	9454.96
856.708	9418.81
857.03	9405.7
857.352	9410.44
857.674	9315.98
857.996	9307.85
858.318	9299.26
858.64	9268.3
858.961	9295.65
859.283	9194.86
859.605	9215.65
859.926	9160.73
860.248	9168.87
860.57	9142.88
860.891	9147.63
861.212	9070.79
861.534	9049.55
861.855	9034.86
862.176	9028.31
862.498	9043.22
862.819	9007.74
863.14	8996.44
863.461	8944.24
863.782	8880.29
864.103	8982.66
864.424	8909.67
864.745	8898.82
865.065	8857.24
865.386	8784.7
865.707	8812.49
866.027	8885.94
866.348	8840.74
866.668	8793.06
866.989	8733.85
867.309	8668.32
867.63	8664.02
867.95	8724.59
868.27	8642.78
868.59	8662.44
868.91	8656.11
869.23	8617.92
869.55	8603.46
869.87	8612.5
870.19	8588.32
870.51	8555.1
870.83	8652.72
871.15	8544.03
871.469	8539.06
871.789	8601.65
872.109	8497.47
872.428	8544.93
872.748	8460.64
873.067	8505.16
873.386	8521.2
873.706	8486.4
874.025	8454.99
874.344	8395.33
874.663	8418.83
874.982	8397.59
875.301	8394.88
875.62	8315.33
875.939	8285.5
876.258	8297.93
876.577	8332.51
876.896	8322.11
877.214	8270.14
877.533	8282.11
877.852	8206.63
878.17	8223.81
878.489	8242.57
878.807	8197.6
879.125	8191.72
879.444	8236.01
879.762	8132.96
880.08	8249.57
880.398	8119.63
880.716	8126.64
881.034	8089.12
881.352	8127.77
881.67	8095.68
881.988	7993.76
882.306	8033.98
882.624	8035.34
882.941	8015
883.259	7962.8
883.577	7934.55
883.894	7966.64
884.212	7961.9
884.529	7819.07
884.846	7895.91
885.164	7881.9
885.481	7866.53
885.798	7840.09
886.115	7789.02
886.432	7799.64
886.75	7712.64
887.067	7768.68
887.383	7755.8
887.7	7758.28
888.017	7701.34
888.334	7679.64
888.651	7651.39
888.967	7637.61
889.284	7622.47
889.6	7627.89
889.917	7544.51
890.233	7564.17
890.55	7534.11
890.866	7565.3
891.182	7492.53
891.498	7514.9
891.815	7453.43
892.131	7407.56
892.447	7395.36
892.763	7331.86
893.079	7355.36
893.395	7276.49
893.71	7272.42
894.026	7302.25
894.342	7268.35
894.657	7217.73
894.973	7229.03
895.289	7172.76
895.604	7236.04
895.92	7146.78
896.235	7123.05
896.55	7144.97
896.865	7053.67
897.181	7035.14
897.496	7092.77
897.811	6979.1
898.126	6943.62
898.441	6984.75
898.756	6943.16
899.071	6910.4
899.386	6883.05
899.7	6854.81
900.015	6843.28
900.33	6756.73
900.644	6753.79
900.959	6811.19
901.273	6712.44
901.588	6721.48
901.902	6699.33
902.216	6652.55
902.531	6649.84
902.845	6629.73
903.159	6586.34
903.473	6545.89
903.787	6563.29
904.101	6491.2
904.415	6473.12
904.729	6514.02
905.042	6416.17
905.356	6398.32
905.67	6403.97
905.984	6364.65
906.297	6335.05
906.611	6280.58
906.924	6325.78
907.237	6247.14
907.551	6238.55
907.864	6208.95
908.177	6162.85
908.491	6160.81
908.804	6102.51
909.117	6134.6
909.43	6094.37
909.743	6017.31
910.056	6059.12
910.368	6033.58
910.681	6020.48
910.994	5962.85
911.307	5990.2
911.619	5956.75
911.932	5940.03
912.244	5869.29
912.557	5890.99
912.869	5811.22
913.181	5822.97
913.494	5782.29
913.806	5790.88
914.118	5779.81
914.43	5732.58
914.742	5724.21
915.054	5652.35
915.366	5650.32
915.678	5634.72
915.99	5656.42
916.302	5583.88
916.613	5563.77
916.925	5517.89
917.236	5559.7
917.548	5500.26
917.859	5499.36
918.171	5458.23
918.482	5423.88
918.794	5404.67
919.105	5467.05
919.416	5350.44
919.727	5335.75
920.038	5325.13
920.349	5306.6
920.66	5212.36
920.971	5284
921.282	5214.62
921.593	5218.92
921.903	5185.7
922.214	5168.07
922.525	5137.79
922.835	5135.53
923.146	5128.3
923.456	5064.57
923.767	5072.03
924.077	5022.76
924.387	5018.7
924.697	4972.37
925.008	4960.39
925.318	4940.73
925.628	4951.8
925.938	4963.56
926.248	4925.14
926.558	4916.55
926.867	4862.54
927.177	4852.6
927.487	4832.71
927.796	4798.81
928.106	4792.71
928.416	4740.28
928.725	4746.61
929.034	4719.72
929.344	4705.94
929.653	4693.05
929.962	4680.85
930.271	4700.29
930.581	4600.18
930.89	4592.04
931.199	4581.19
931.508	4521.99
931.817	4571.93
932.125	4487.64
932.434	4513.85
932.743	4472.95
933.051	4444.25
933.36	4503.68
933.669	4459.16
933.977	4392.72
934.286	4348.88
934.594	4340.52
934.902	4374.19
935.21	4263.01
935.519	4350.24
935.827	4292.84
936.135	4327.41
936.443	4272.05
936.751	4212.16
937.059	4197.93
937.367	4188.89
937.674	4174.42
937.982	4187.98
938.29	4114.54
938.597	4142.33
938.905	4086.52
939.213	4089.23
939.52	4045.84
939.827	4078.38
940.135	4070.02
940.442	4004.94
940.749	3999.74
941.056	4016.24
941.363	3966.07
941.67	3969.01
941.977	3922.45
942.284	3873.42
942.591	3912.06
942.898	3909.57
943.205	3891.27
943.511	3847.65
943.818	3838.61
944.125	3845.62
944.431	3787.54
944.738	3841.55
945.044	3799.29
945.35	3751.16
945.657	3726.98
945.963	3749.8
946.269	3711.61
946.575	3728.11
946.881	3661.9
947.187	3691.72
947.493	3677.04
947.799	3632.29
948.105	3616.92
948.41	3578.96
948.716	3566.08
949.022	3569.02
949.327	3577.15
949.633	3539.41
949.938	3565.63
950.244	3522.24
950.549	3523.82
950.854	3494.44
951.16	3445.63
951.465	3454.44
951.77	3407.44
952.075	3387.1
952.38	3429.13
952.685	3387.1
952.99	3365.86
953.294	3372.64
953.599	3347.33
953.904	3298.29
954.209	3287.89
954.513	3316.14
954.818	3271.4
955.122	3296.03
955.426	3237.5
955.731	3261.23
956.035	3214.22
956.339	3203.38
956.643	3192.3
956.948	3168.8
957.252	3183.72
957.556	3159.76
957.86	3156.15
958.163	3171.96
958.467	3166.99
958.771	3126.77
959.075	3085.87
959.378	3060.1
959.682	3069.59
959.985	3061.91
960.289	3004.96
960.592	2989.82
960.896	3003.83
961.199	2996.83
961.502	3029.14
961.805	2982.37
962.108	2957.06
962.411	2960.44
962.714	2933.1
963.017	2893.55
963.32	2922.03
963.623	2908.47
963.926	2886.32
964.228	2869.37
964.531	2886.55
964.833	2866.21
965.136	2825.08
965.438	2860.79
965.741	2807.68
966.043	2809.94
966.345	2775.59
966.648	2794.35
966.95	2786.66
967.252	2796.83
967.554	2743.95
967.856	2741.92
968.158	2710.28
968.46	2696.04
968.761	2703.5
969.063	2691.3
969.365	2663.73
969.666	2686.55
969.968	2624.86
970.269	2637.29
970.571	2661.02
970.872	2628.25
971.174	2628.7
971.475	2596.16
971.776	2610.4
972.077	2596.84
972.378	2574.47
972.679	2527.46
972.98	2546.44
973.281	2545.99
973.582	2513.45
973.883	2511.87
974.183	2520.68
974.484	2487.46
974.785	2454.24
975.085	2451.31
975.386	2448.59
975.686	2463.96
975.986	2414.02
976.287	2427.13
976.587	2402.95
976.887	2395.04
977.187	2377.41
977.487	2437.07
977.787	2322.5
978.087	2379.67
978.387	2366.11
978.687	2330.4
978.987	2350.52
979.286	2315.94
979.586	2298.32
979.885	2327.47
980.185	2302.16
980.484	2273.01
980.784	2244.76
981.083	2234.14
981.382	2231.42
981.682	2236.4
981.981	2233.91
982.28	2205.21
982.579	2186.23
982.878	2179.9
983.177	2211.76
983.475	2170.64
983.774	2157.08
984.073	2170.86
984.372	2128.38
984.67	2120.92
984.969	2141.71
985.267	2134.25
985.566	2113.46
985.864	2087.02
986.162	2114.59
986.461	2080.24
986.759	2080.92
987.057	2081.6
987.355	2046.8
987.653	2024.88
987.951	2051.32
988.249	1994.14
988.547	2030.3
988.844	2043.63
989.142	2016.06
989.44	1999.11
989.737	1962.05
990.035	1998.21
990.332	1964.76
990.63	1984.2
990.927	1938.55
991.224	1931.55
991.521	1932.68
991.819	1947.36
992.116	1921.38
992.413	1897.65
992.71	1874.82
993.006	1883.86
993.303	1873.02
993.6	1894.03
993.897	1892.22
994.193	1842.96
994.49	1853.36
994.787	1862.17
995.083	1817.65
995.379	1798.67
995.676	1803.86
995.972	1779.23
996.268	1813.36
996.565	1769.06
996.861	1768.84
997.157	1768.84
997.453	1751.21
997.749	1751.44
998.044	1746.69
998.34	1765.9
998.636	1720.7
998.932	1724.32
999.227	1735.17
999.523	1716.41
999.818	1680.93
1000.114	1700.36
1000.409	1673.25
1000.704	1689.52
1001	1640.48
1001.295	1676.86
1001.59	1638.22
1001.885	1661.72
1002.18	1633.7
1002.475	1605.23
1002.77	1607.26
1003.065	1604.32
1003.359	1609.29
1003.654	1609.97
1003.949	1568.84
1004.243	1597.32
1004.538	1559.13
1004.832	1539.01
1005.127	1536.08
1005.421	1568.84
1005.715	1530.65
1006.009	1530.43
1006.304	1501.73
1006.598	1503.99
1006.892	1482.52
1007.186	1499.47
1007.48	1498.79
1007.773	1482.29
1008.067	1466.25
1008.361	1447.94
1008.655	1457.21
1008.948	1461.95
1009.242	1455.4
1009.535	1434.84
1009.829	1435.29
1010.122	1408.62
1010.415	1412.46
1010.708	1392.58
1011.001	1393.03
1011.295	1384.22
1011.588	1380.83
1011.881	1388.96
1012.173	1379.92
1012.466	1364.1
1012.759	1365.01
1013.052	1333.14
1013.344	1361.16
1013.637	1355.74
1013.93	1316.65
1014.222	1304.44
1014.514	1311.22
1014.807	1298.12
1015.099	1276.42
1015.391	1255.63
1015.683	1242.52
1015.976	1269.64
1016.268	1258.12
1016.56	1270.55
1016.851	1245.24
1017.143	1243.88
1017.435	1224.9
1017.727	1229.87
1018.018	1228.74
1018.31	1251.34
1018.602	1200.49
1018.893	1191.68
1019.185	1201.17
1019.476	1176.54
1019.767	1176.99
1020.058	1138.57
1020.35	1153.49
1020.641	1115.97
1020.932	1129.53
1021.223	1129.76
1021.514	1139.7
1021.804	1135.18
1022.095	1108.06
1022.386	1121.17
1022.677	1110.1
1022.967	1085.92
1023.258	1071.91
1023.548	1087.5
1023.839	1071.91
1024.129	1053.38
1024.419	1032.81
1024.709	1059.03
1025	1041.17
1025.29	1042.53
1025.58	1021.29
1025.87	1032.13
1026.16	1026.94
1026.449	1032.36
1026.739	1033.94
1027.029	991.01
1027.319	996.43
1027.608	996.65
1027.898	1003.43
1028.187	1004.34
1028.477	980.61
1028.766	974.73
1029.055	960.95
1029.344	972.47
1029.634	972.02
1029.923	924.11
1030.212	929.99
1030.501	910.56
1030.79	933.15
1031.078	922.08
1031.367	913.27
1031.656	910.78
1031.945	912.59
1032.233	905.58
1032.522	909.43
1032.81	893.61
1033.099	902.42
1033.387	861.97
1033.675	877.79
1033.963	876.88
1034.251	868.3
1034.54	839.82
1034.828	838.01
1035.116	870.56
1035.403	848.18
1035.691	840.05
1035.979	838.24
1036.267	846.6
1036.554	818.35
1036.842	812.93
1037.129	789.43
1037.417	824.46
1037.704	817
1037.992	787.85
1038.279	784.91
1038.566	800.73
1038.853	800.73
1039.14	800.73
