Data from White_paper_FLMS001491_085.txt Node
Date: Tue Feb 07 10:35:40 GMT 2017
User: dcchb
Spectrometer: FLMS00149
Trigger mode: 0
Integration Time (sec): 2.000000E-2
Scans to average: 10
Electric dark correction enabled: true
Nonlinearity correction enabled: false
Boxcar width: 0
XAxis mode: Wavelengths
Number of Pixels in Spectrum: 2048
>>>>>Begin Spectral Data<<<<<
341.393	-18.77
341.776	-18.77
342.16	-18.77
342.543	-51.54
342.927	-49.28
343.31	-74.14
343.693	-56.96
344.077	-59.45
344.46	-55.38
344.843	-46.57
345.226	-50.63
345.61	-36.62
345.993	-10.86
346.376	2.02
346.759	8.35
347.142	31.4
347.525	19.65
347.908	63.04
348.291	73.43
348.674	69.81
349.057	122.92
349.44	139.87
349.823	140.32
350.206	170.6
350.588	230.04
350.971	239.98
351.354	250.6
351.737	261.9
352.119	270.49
352.502	284.27
352.884	306.42
353.267	308.45
353.65	301.9
354.032	343.93
354.414	348.23
354.797	352.07
355.179	354.33
355.562	344.38
355.944	366.76
356.326	370.82
356.709	368.56
357.091	362.24
357.473	400.88
357.855	362.24
358.238	385.74
358.62	371.5
359.002	376.93
359.384	391.84
359.766	367.21
360.148	373.76
360.53	370.15
360.912	384.61
361.294	381.44
361.676	363.14
362.057	379.41
362.439	378.51
362.821	364.5
363.203	349.58
363.584	350.49
363.966	362.01
364.348	372.86
364.729	352.97
365.111	352.07
365.493	353.65
365.874	358.39
366.256	346.42
366.637	364.95
367.019	374.89
367.4	369.69
367.781	367.43
368.163	356.13
368.544	364.95
368.925	371.28
369.306	380.09
369.688	364.5
370.069	367.43
370.45	350.71
370.831	371.05
371.212	372.63
371.593	353.65
371.974	378.06
372.355	350.71
372.736	375.57
373.117	364.72
373.498	357.72
373.879	392.74
374.26	363.59
374.641	378.73
375.021	378.06
375.402	356.13
375.783	374.21
376.163	381.44
376.544	387.77
376.925	388.68
377.305	393.2
377.686	365.85
378.066	381.67
378.447	390.94
378.827	397.04
379.208	378.28
379.588	405.85
379.968	413.99
380.349	405.85
380.729	428
381.109	401.33
381.489	420.77
381.87	407.21
382.25	402.01
382.63	411.73
383.01	418.51
383.39	435.23
383.77	437.04
384.15	442.69
384.53	456.92
384.91	430.48
385.29	444.04
385.67	453.99
386.049	447.43
386.429	467.77
386.809	478.84
387.189	467.09
387.568	472.29
387.948	463.93
388.328	471.39
388.707	467.09
389.087	476.58
389.466	474.32
389.846	473.87
390.225	501.44
390.605	492.63
390.984	495.11
391.363	529.92
391.743	517.49
392.122	516.81
392.501	519.75
392.881	545.73
393.26	517.49
393.639	552.51
394.018	551.84
394.397	555.9
394.776	545.06
395.155	560.65
395.534	566.75
395.913	562.91
396.292	570.14
396.671	565.85
397.05	573.08
397.429	598.16
397.808	609.69
398.186	594.55
398.565	609.01
398.944	629.12
399.323	615.79
399.701	630.7
400.08	639.29
400.458	625.73
400.837	659.86
401.215	667.99
401.594	671.61
401.972	677.48
402.351	674.32
402.729	690.82
403.107	722.68
403.486	722.68
403.864	707.54
404.242	748.44
404.62	750.93
404.999	755.45
405.377	790.02
405.755	762.68
406.133	815.56
406.511	826.18
406.889	814.65
407.267	873.86
407.645	870.7
408.023	900.53
408.401	922.45
408.779	944.37
409.156	962.67
409.534	973.97
409.912	1019.17
410.29	1013.97
410.667	1040.18
411.045	1080.18
411.422	1070.47
411.8	1129.67
412.178	1154.98
412.555	1169.9
412.933	1199.95
413.31	1229.56
413.687	1247.64
414.065	1273.85
414.442	1319.05
414.819	1341.19
415.197	1357.46
415.574	1386.39
415.951	1426.39
416.328	1455.54
416.705	1457.12
417.082	1508.87
417.46	1497.8
417.837	1566.72
418.214	1550.68
418.591	1578.25
418.967	1644.69
419.344	1626.38
419.721	1686.95
420.098	1679.26
420.475	1726.49
420.852	1756.55
421.228	1781.63
421.605	1818.02
421.982	1847.39
422.358	1852.59
422.735	1876.32
423.111	1895.3
423.488	1927.39
423.864	1992.48
424.241	1986.37
424.617	1998.8
424.994	2032.47
425.37	2048.75
425.746	2082.19
426.123	2097.56
426.499	2125.58
426.875	2155.64
427.251	2229.53
427.627	2295.97
428.003	2299.59
428.379	2294.16
428.756	2358.34
429.132	2378
429.507	2432.01
429.883	2449.64
430.259	2501.39
430.635	2526.7
431.011	2527.6
431.387	2600.82
431.763	2630.88
432.138	2672.23
432.514	2723.08
432.89	2716.52
433.265	2851.89
433.641	2831.32
434.016	2849.18
434.392	2908.16
434.767	2975.95
435.143	2970.76
435.518	2997.65
435.894	3104.31
436.269	3100.47
436.644	3145.44
437.02	3169.85
437.395	3198.09
437.77	3288.26
438.145	3273.35
438.52	3333.01
438.895	3378.43
439.271	3382.95
439.646	3467.69
440.021	3492.32
440.395	3511.08
440.77	3507.24
441.145	3527.58
441.52	3591.76
441.895	3575.94
442.27	3616.61
442.645	3654.13
443.019	3691.87
443.394	3681.47
443.769	3717.63
444.143	3696.39
444.518	3751.07
444.892	3782.71
445.267	3827.46
445.641	3827.46
446.016	3842.37
446.39	3893.89
446.764	3900.9
447.139	3915.36
447.513	3976.38
447.887	3944.06
448.262	3977.96
448.636	3985.42
449.01	4063.61
449.384	4104.51
449.758	4150.39
450.132	4208.01
450.506	4212.98
450.88	4222.02
451.254	4262.47
451.628	4316.26
452.002	4356.93
452.376	4351.74
452.75	4414.11
453.123	4458.85
453.497	4580.88
453.871	4551.96
454.244	4660.88
454.618	4697.94
454.992	4767.32
455.365	4752.4
455.739	4880.31
456.112	4882.57
456.486	4942.23
456.859	4980.42
457.232	5087.76
457.606	5109.23
457.979	5153.07
458.352	5283.46
458.725	5310.35
459.099	5373.4
459.472	5471.03
459.845	5476
460.218	5565.04
460.591	5652.72
460.964	5642.32
461.337	5808.19
461.71	5830.57
462.083	5902.88
462.456	5947.17
462.829	5958.02
463.201	6107.4
463.574	6084.35
463.947	6260.61
464.32	6320.05
464.692	6399.59
465.065	6452.25
465.438	6522.07
465.81	6704.89
466.183	6711
466.555	6914.38
466.928	6881.39
467.3	6863.99
467.672	7024.66
468.045	7217.88
468.417	7242.06
468.789	7258.78
469.161	7364.09
469.534	7518.66
469.906	7691.99
470.278	7718.2
470.65	7801.81
471.022	7995.03
471.394	8139.88
471.766	8188.25
472.138	8270.95
472.51	8408.8
472.882	8524.51
473.253	8677.95
473.625	8768.34
473.997	9021.67
474.369	9020.77
474.74	9191.83
475.112	9389.57
475.484	9470.47
475.855	9599.06
476.227	9686.51
476.598	10036.33
476.97	10099.38
477.341	10244.69
477.713	10433.84
478.084	10472.93
478.455	10792.02
478.827	10848.51
479.198	11203.76
479.569	11258.67
479.94	11576.86
480.311	11625.89
480.682	11848.04
481.053	12099.33
481.424	12368.47
481.795	12365.31
482.166	12656.6
482.537	12786.09
482.908	13014.56
483.279	13156.93
483.65	13440.31
484.021	13607.99
484.391	13831.71
484.762	13933.86
485.133	14076.23
485.503	14298.14
485.874	14558.25
486.244	14681.18
486.615	14954.85
486.985	15092.02
487.356	15447.04
487.726	15516.87
488.097	15833.24
488.467	15927.93
488.837	16210.86
489.207	16420.57
489.578	16628.48
489.948	16793.67
490.318	16959.77
490.688	17096.26
491.058	17348.23
491.428	17608.79
491.798	17714.77
492.168	18057.14
492.538	18100.07
492.908	18303.01
493.278	18526.73
493.648	18637.46
494.017	18969.88
494.387	19066.6
494.757	19055.08
495.126	19362.87
495.496	19456.2
495.866	19572.35
496.235	19764.21
496.605	19989.74
496.974	20046.92
497.344	20197.87
497.713	20388.38
498.082	20535.04
498.452	20667.69
498.821	20862.04
499.19	20926.67
499.559	21020.68
499.928	21371.18
500.298	21323.27
500.667	21552.19
501.036	21644.16
501.405	21809.81
501.774	21804.38
502.143	22104.26
502.512	22131.83
502.88	22275.78
503.249	22365.05
503.618	22610.24
503.987	22713.51
504.356	22761.2
504.724	22910.12
505.093	23059.49
505.462	23174.97
505.83	23346.94
506.199	23454.06
506.567	23827.16
506.936	23815.18
507.304	24043.65
507.672	24223.76
508.041	24318.89
508.409	24416.07
508.777	24625.55
509.145	24888.6
509.514	24919.56
509.882	25079.33
510.25	25118.65
510.618	25394.12
510.986	25449.94
511.354	25746.43
511.722	25861.9
512.09	26078.4
512.458	25987.1
512.826	26359.07
513.193	26496.92
513.561	26504.6
513.929	26832.73
514.297	27004.25
514.664	27115.43
515.032	27341.87
515.4	27501.18
515.767	27649.43
516.135	27720.39
516.502	27667.73
516.869	28116.99
517.237	28240.15
517.604	28247.15
517.972	28522.4
518.339	28794.48
518.706	28870.87
519.073	28997.87
519.44	29175.94
519.808	29451.64
520.175	29490.74
520.542	29811.18
520.909	30072.64
521.276	30093.88
521.643	30389.47
522.009	30547.21
522.376	30753.53
522.743	30885.05
523.11	31337.92
523.477	31507.41
523.843	31717.12
524.21	32044.34
524.577	32219.7
524.943	32344.45
525.31	32553.03
525.676	32870.31
526.043	32957.09
526.409	33124.54
526.776	33480.46
527.142	33604.75
527.508	33687.01
527.874	34037.73
528.241	34203.83
528.607	34311.85
528.973	34645.63
529.339	34584.39
529.705	35017.82
530.071	35271.6
530.437	35362.22
530.803	35502.78
531.169	35821.87
531.535	35761.53
531.901	36013.28
532.267	36201.29
532.632	36282.2
532.998	36485.13
533.364	36610.1
533.73	36703.65
534.095	37156.07
534.461	37211.66
534.826	37287.37
535.192	37648.04
535.557	37810.07
535.923	37709.5
536.288	37975.03
536.653	38243.05
537.019	38157.85
537.384	38355.36
537.749	38539.31
538.114	38606.2
538.479	38756.71
538.845	38916.25
539.21	38916.93
539.575	39049.35
539.94	39200.76
540.305	39529.34
540.67	39440.53
541.034	39598.27
541.399	39769.34
541.764	39934.3
542.129	40066.28
542.494	40159.16
542.858	40277.8
543.223	40275.99
543.587	40665.36
543.952	40675.75
544.316	40858.12
544.681	40821.29
545.045	41008.85
545.41	41353.02
545.774	41347.15
546.138	41541.27
546.503	41607.25
546.867	41637.08
547.231	41935.61
547.595	41986.23
547.959	42259.21
548.324	42362.04
548.688	42225.77
549.052	42458.53
549.416	42610.16
549.779	42658.3
550.143	42632.99
550.507	42935.81
550.871	43058.06
551.235	43089.25
551.599	43404.72
551.962	43544.6
552.326	43727.88
552.689	43899.62
553.053	43757.71
553.417	43911.37
553.78	44328.76
554.143	44096.23
554.507	44391.14
554.87	44609.43
555.234	44937.11
555.597	44847.17
555.96	44939.37
556.323	45214.62
556.686	45180.49
557.05	45548.84
557.413	45519.47
557.776	45712.46
558.139	46018.44
558.502	45889.4
558.865	46149.73
559.228	46367.13
559.59	46494.13
559.953	46650.51
560.316	47030.84
560.679	47007.34
561.041	47201.46
561.404	47218.86
561.767	47573.42
562.129	47511.73
562.492	47857.26
562.854	47826.3
563.217	47946.3
563.579	48173.86
563.941	48413.85
564.304	48485.72
564.666	48724.13
565.028	48815.43
565.39	48833.5
565.753	49092.71
566.115	49158.24
566.477	49441.4
566.839	49443.66
567.201	49757.32
567.563	49766.59
567.925	49981.27
568.287	50138.78
568.648	50124.77
569.01	50299.91
569.372	50536.74
569.734	50501.26
570.095	50690.18
570.457	50839.78
570.819	50961.81
571.18	51049.04
571.542	51143.5
571.903	51261.69
572.265	51406.09
572.626	51543.04
572.987	51637.5
573.349	51663.71
573.71	51820.09
574.071	51932.63
574.432	52040.43
574.794	52183.92
575.155	52188.9
575.516	52123.81
575.877	52320.42
576.238	52279.97
576.599	52508.89
576.96	52578.26
577.32	52569.9
577.681	52746.4
578.042	52771.48
578.403	52860.06
578.763	52860.29
579.124	52913.62
579.485	53033.39
579.845	53052.15
580.206	53089.89
580.566	53088.08
580.927	53134.41
581.287	53375.08
581.648	53227.74
582.008	53333.95
582.368	53337.79
582.728	53425.25
583.089	53407.17
583.449	53293.95
583.809	53439.71
584.169	53566.49
584.529	53585.7
584.889	53739.59
585.249	53517.67
585.609	53505.47
585.969	53660.95
586.329	53651.68
586.688	53712.25
587.048	53588.18
587.408	53648.29
587.768	53712.02
588.127	53768.29
588.487	53800.83
588.846	53987.04
589.206	53689.65
589.565	53816.65
589.925	53875.63
590.284	53826.82
590.643	53878.12
591.003	53993.82
591.362	53991.56
591.721	53938.68
592.08	54017.55
592.44	54101.16
592.799	54076.3
593.158	54056.19
593.517	54076.76
593.876	54072.91
594.235	54030.2
594.593	54134.61
594.952	54143.87
595.311	54051.9
595.67	54161.27
596.029	54329.86
596.387	54360.14
596.746	54404.88
597.104	54264.1
597.463	54291.67
597.822	54455.05
598.18	54332.57
598.538	54315.17
598.897	54423.87
599.255	54224.55
599.613	54635.16
599.972	54418.89
600.33	54562.17
600.688	54422.06
601.046	54571.21
601.404	54682.16
601.762	54640.36
602.12	54725.78
602.478	54691.66
602.836	54728.72
603.194	54554.71
603.552	54631.09
603.91	54595.61
604.268	54835.83
604.625	54666.35
604.983	54815.72
605.341	54691.43
605.698	54842.16
606.056	54873.57
606.413	54817.75
606.771	54915.83
607.128	55009.84
607.485	54838.09
607.843	54975.49
608.2	55014.81
608.557	55090.97
608.914	55031.08
609.272	55135.26
609.629	55228.59
609.986	55289.15
610.343	55162.6
610.7	55325.99
611.057	55284.86
611.414	55233.56
611.771	55316.5
612.127	55430.62
612.484	55345.2
612.841	55475.36
613.198	55360.79
613.554	55384.52
613.911	55614.57
614.267	55555.14
614.624	55485.31
614.98	55549.26
615.337	55632.2
615.693	55599.2
616.05	55564.85
616.406	55711.52
616.762	55615.02
617.118	55632.42
617.475	55640.1
617.831	55686.88
618.187	55666.32
618.543	55737.73
618.899	55857.5
619.255	55813.43
619.611	55862.7
619.967	55852.53
620.323	55886.65
620.678	55817.28
621.034	55797.84
621.39	55784.96
621.746	55749.25
622.101	56039.87
622.457	55821.57
622.812	55917.16
623.168	55903.15
623.523	55857.27
623.879	56002.58
624.234	55766.66
624.589	55904.28
624.945	56049.13
625.3	55996.93
625.655	55947.22
626.01	55912.41
626.365	55972.07
626.72	56016.14
627.075	55876.48
627.43	55930.27
627.785	55902.47
628.14	55954.45
628.495	56034.22
628.85	55944.96
629.205	55882.13
629.559	56108.79
629.914	55936.59
630.269	55919.19
630.623	55889.59
630.978	55882.81
631.332	55956.71
631.687	55989.7
632.041	55804.39
632.396	55921.91
632.75	55844.62
633.104	55899.98
633.459	55728.01
633.813	55774.79
634.167	55807.11
634.521	55739.09
634.875	55761.23
635.229	55781.12
635.583	55679.43
635.937	55688.92
636.291	55543.16
636.645	55617.28
636.999	55659.31
637.352	55722.59
637.706	55485.53
638.06	55599.2
638.413	55589.26
638.767	55533.67
639.121	55586.09
639.474	55351.75
639.828	55461.13
640.181	55490.73
640.534	55567.11
640.888	55452.09
641.241	55361.02
641.594	55276.27
641.947	55424.07
642.301	55295.71
642.654	55357.85
643.007	55347.23
643.36	55328.47
643.713	55284.63
644.066	55404.18
644.419	55175.48
644.771	54995.15
645.124	54787.02
645.477	54743.41
645.83	54646.91
646.182	54536.63
646.535	54409.4
646.888	54563.75
647.24	54387.71
647.593	54540.92
647.945	54418.67
648.298	54324.43
648.65	54227.03
649.002	54278.11
649.355	54305
649.707	54339.12
650.059	54433.81
650.411	54760.13
650.763	54833.12
651.115	55141.13
651.467	54977.3
651.819	54949.28
652.171	54898.43
652.523	54916.96
652.875	54877.19
653.227	54714.25
653.578	54938.2
653.93	54865.66
654.282	54679.45
654.633	54704.31
654.985	54766
655.337	54689.4
655.688	54761.71
656.039	54764.87
656.391	54579.79
656.742	54543.41
657.094	54654.59
657.445	54754.48
657.796	54707.7
658.147	54625.22
658.498	54632
658.849	54724.2
659.2	54644.88
659.551	54577.76
659.902	54626.12
660.253	54486.69
660.604	54624.99
660.955	54536.41
661.306	54622.96
661.656	54513.81
662.007	54543.41
662.358	54472.23
662.708	54504.32
663.059	54546.57
663.409	54329.63
663.76	54501.6
664.11	54483.07
664.461	54515.39
664.811	54493.24
665.161	54483.98
665.511	54345.68
665.862	54412.79
666.212	54493.24
666.562	54431.55
666.912	54387.71
667.262	54374.83
667.612	54402.85
667.962	54350.42
668.312	54292.8
668.662	54495.73
669.011	54361.04
669.361	54284.89
669.711	54317.65
670.06	54211.44
670.41	54199.46
670.76	54113.59
671.109	54290.99
671.459	54184.55
671.808	54130.54
672.157	54196.75
672.507	53993.59
672.856	53978.91
673.205	54175.74
673.554	54123.53
673.904	53951.56
674.253	54103.65
674.602	53961.5
674.951	53592.02
675.3	53321.07
675.649	53783.88
675.998	53772.13
676.346	53798.35
676.695	53902.3
677.044	53670.44
677.393	53697.78
677.741	53846.48
678.09	53624.11
678.438	53565.58
678.787	53697.33
679.135	53634.51
679.484	53401.97
679.832	53489.2
680.181	53407.4
680.529	53453.04
680.877	53392.93
681.225	53345.48
681.573	53527.17
681.922	53207.17
682.27	53058.93
682.618	53127.63
682.966	53085.6
683.314	53134.63
683.661	52965.37
684.009	52787.52
684.357	52766.28
684.705	52757.24
685.053	52777.81
685.4	52634.53
685.748	52560.86
686.095	52520.64
686.443	52487.42
686.79	52336.91
687.138	52431.38
687.485	52440.64
687.832	52120.65
688.18	52260.98
688.527	51978.05
688.874	52075.23
689.221	51900.77
689.568	51901.22
689.915	51781.45
690.262	51803.14
690.609	51643.15
690.956	51536.71
691.303	51528.35
691.65	51377.17
691.997	51253.55
692.344	51062.15
692.69	51063.5
693.037	51068.93
693.383	50874.58
693.73	50951.64
694.077	50655.38
694.423	50715.04
694.769	50565.89
695.116	50437.08
695.462	50454.7
695.808	50238.89
696.155	50419.45
696.501	50092.68
696.847	50040.48
697.193	49842.07
697.539	50064.88
697.885	49724.55
698.231	49625.57
698.577	49710.77
698.923	49531.11
699.269	49466.71
699.614	49076.21
699.96	49256.54
700.306	49092.71
700.651	49028.75
700.997	48949.43
701.342	48853.84
701.688	48829.21
702.033	48678.71
702.379	48679.84
702.724	48463.12
703.069	48618.14
703.415	48111.26
703.76	48236.23
704.105	48180.19
704.45	48148.1
704.795	47839.18
705.14	47812.06
705.485	47805.51
705.83	47496.36
706.175	47591.05
706.52	47497.27
706.865	47316.71
707.209	47261.79
707.554	47145.41
707.899	47296.82
708.243	46950.39
708.588	47021.57
708.932	46708.36
709.277	46721.02
709.621	46853.67
709.966	46422.95
710.31	46586.11
710.654	46231.76
710.998	46300.46
711.342	46290.52
711.687	46153.12
712.031	46020.47
712.375	45875.84
712.719	45910.19
713.063	45799.23
713.407	45945.44
713.75	45580.93
714.094	45582.29
714.438	45545
714.782	45566.7
715.125	45304.11
715.469	45290.32
715.812	45163.77
716.156	44932.36
716.499	44964.45
716.843	44946.15
717.186	44777.57
717.53	45016.66
717.873	44881.07
718.216	44809.88
718.559	44607.85
718.902	44334.41
719.246	44540.96
719.589	44371.7
719.932	44227.07
720.275	44292.15
720.617	44101.43
720.96	44130.58
721.303	44044.93
721.646	44050.13
721.989	43771.72
722.331	43878.15
722.674	43740.3
723.016	43751.15
723.359	43694.66
723.701	43757.48
724.044	43344.16
724.386	43290.15
724.729	43483.14
725.071	43362.01
725.413	43325.63
725.755	43332.63
726.097	43127.44
726.439	42986.43
726.782	43015.58
727.124	43165.86
727.465	42915.92
727.807	42783.49
728.149	42721.35
728.491	42663.72
728.833	42574.46
729.175	42528.13
729.516	42361.13
729.858	42417.63
730.199	42458.08
730.541	42324.3
730.882	42342.15
731.224	42462.82
731.565	42171.98
731.906	42258.99
732.248	42262.15
732.589	41932.44
732.93	41817.64
733.271	41843.63
733.612	41952.1
733.953	41816.74
734.294	41761.15
734.635	41647.03
734.976	41669.62
735.317	41513.02
735.658	41479.12
735.999	41408.39
736.339	41352.12
736.68	41481.83
737.021	41269.86
737.361	41128.62
737.702	41328.39
738.042	41161.39
738.383	41053.6
738.723	41107.61
739.063	40972.69
739.404	41091.11
739.744	41013.82
740.084	40640.5
740.424	40825.58
740.764	40704.68
741.104	40826.48
741.444	40482.76
741.784	40527.73
742.124	40604.79
742.464	40497.45
742.804	40373.39
743.143	40334.74
743.483	40239.15
743.823	40133.39
744.162	40067.86
744.502	40248.42
744.841	39929.78
745.181	40130
745.52	40000.52
745.86	40032.61
746.199	39838.94
746.538	39730.47
746.877	39834.64
747.216	39783.35
747.556	39734.31
747.895	39650.92
748.234	39444.6
748.573	39408.67
748.911	39273.98
749.25	39229.69
749.589	39168.67
749.928	39319.18
750.267	39414.09
750.605	39096.81
750.944	38961.67
751.283	38994.44
751.621	38874.9
751.96	38761.9
752.298	38751.96
752.636	38817.95
752.975	38569.37
753.313	38332.54
753.651	38658.18
753.989	38267.91
754.327	38329.15
754.666	38182.71
755.004	38185.65
755.342	38188.36
755.679	38067.69
756.017	37903.17
756.355	37943.62
756.693	37676.74
757.031	37850.97
757.368	37475.84
757.706	37492.11
758.044	37493.92
758.381	37420.7
758.719	37210.31
759.056	37253.92
759.394	37055.96
759.731	36908.85
760.068	36860.26
760.405	36789.75
760.743	36534.84
761.08	36733.48
761.417	36442.19
761.754	36402.64
762.091	36240.61
762.428	36119.04
762.765	36055.08
763.102	36083.56
763.438	36017.34
763.775	35707.52
764.112	35836.11
764.449	35807.41
764.785	35621.87
765.122	35271.83
765.458	35174.88
765.795	35158.61
766.131	35197.7
766.467	34999.97
766.804	34794.78
767.14	34752.29
767.476	34778.51
767.812	34478.4
768.148	34603.37
768.485	34298.75
768.821	34098.75
769.157	34110.28
769.492	34084.51
769.828	34039.99
770.164	33722.71
770.5	33687.69
770.836	33569.5
771.171	33373.8
771.507	33443.17
771.842	33163.41
772.178	33124.99
772.513	33032.34
772.849	32893.58
773.184	32799.8
773.519	32726.13
773.855	32523.65
774.19	32408.4
774.525	32417.66
774.86	32391.22
775.195	32269.19
775.53	32152.81
775.865	31856.32
776.2	31666.27
776.535	31447.97
776.87	31491.36
777.205	31431.7
777.539	31283.23
777.874	31203.01
778.209	31090.92
778.543	31044.37
778.878	30795.79
779.212	30956.91
779.547	30655.45
779.881	30615
780.215	30508.79
780.55	30448
780.884	30350.83
781.218	30062.92
781.552	30296.36
781.886	30011.4
782.22	29824.06
782.554	29772.54
782.888	29434.47
783.222	29431.08
783.556	29342.27
783.889	29307.69
784.223	29093.46
784.557	29024.53
784.89	29105.21
785.224	28921.94
785.557	28745.22
785.891	28633.36
786.224	28456.41
786.558	28580.03
786.891	28338.22
787.224	28206.93
787.557	28127.61
787.891	28060.04
788.224	28028.63
788.557	28013.71
788.89	27845.58
789.223	27796.09
789.556	27628.19
789.888	27495.08
790.221	27408.08
790.554	27333.05
790.887	27383.9
791.219	27181.19
791.552	27152.49
791.884	26865.95
792.217	26801.32
792.549	26724.71
792.882	26519.74
793.214	26503.92
793.546	26479.06
793.879	26368.11
794.211	26266.64
794.543	26437.93
794.875	26246.75
795.207	26296.7
795.539	26095.12
795.871	25980.09
796.203	25692.42
796.535	25766.54
796.867	25672.76
797.198	25501.24
797.53	25571.74
797.862	25378.08
798.193	25391.18
798.525	25277.74
798.856	25260.79
799.188	24960.91
799.519	24906
799.85	24877.98
800.182	24829.39
800.513	24808.6
800.844	24604.99
801.175	24753.69
801.506	24639.56
801.837	24504.88
802.168	24376.29
802.499	24433.69
802.83	24195.06
803.161	24164.55
803.491	24128.39
803.822	24052.46
804.153	24012.69
804.483	23849.98
804.814	23780.83
805.145	23628.07
805.475	23641.4
805.805	23659.48
806.136	23528.86
806.466	23609.99
806.796	23517.11
807.126	23357.34
807.457	23353.27
807.787	23261.75
808.117	23104.69
808.447	23132.48
808.777	23218.13
809.107	23009.1
809.436	22962.32
809.766	23004.13
810.096	22812.95
810.426	22815.66
810.755	22769.1
811.085	22631.71
811.414	22548.32
811.744	22491.37
812.073	22371.6
812.403	22340.42
812.732	22245.28
813.061	22299.06
813.39	22122.79
813.719	22187.43
814.049	22147.88
814.378	22051.84
814.707	22024.49
815.036	21919.64
815.365	21798.51
815.693	21559.19
816.022	21764.39
816.351	21714.67
816.68	21481
817.008	21512.64
817.337	21345.64
817.665	21368.92
817.994	21361.01
818.322	21365.53
818.651	21146.1
818.979	21144.74
819.307	21311.97
819.636	21135.93
819.964	21078.3
820.292	21042.6
820.62	21095.02
820.948	21062.71
821.276	21140.67
821.604	21003.95
821.932	20973.9
822.259	21064.97
822.587	20882.15
822.915	20918.31
823.243	20924.18
823.57	20966.21
823.898	20911.3
824.225	20821.36
824.553	20876.27
824.88	20773.9
825.207	20973.45
825.535	20945.2
825.862	20798.31
826.189	20757.41
826.516	20979.77
826.843	20910.17
827.17	20877.4
827.497	20889.15
827.824	20879.44
828.151	20872.21
828.478	20811.87
828.805	20890.74
829.131	20802.6
829.458	20780
829.785	20719.89
830.111	20738.65
830.438	20902.94
830.764	20734.58
831.09	20852.77
831.417	20701.36
831.743	20741.36
832.069	20735.49
832.395	20652.1
832.722	20755.6
833.048	20597.64
833.374	20613
833.7	20550.86
834.026	20656.62
834.351	20679.22
834.677	20537.3
835.003	20625.66
835.329	20512.89
835.654	20490.52
835.98	20437.19
836.306	20568.26
836.631	20415.27
836.956	20402.84
837.282	20450.97
837.607	20225.67
837.932	20320.81
838.258	20360.13
838.583	20315.61
838.908	20210.3
839.233	20210.08
839.558	20100.02
839.883	20019.8
840.208	19972.57
840.533	19993.13
840.858	20057.09
841.182	20023.87
841.507	19964.66
841.832	19824.32
842.156	19800.6
842.481	19780.03
842.805	19843.08
843.13	19698.22
843.454	19655.51
843.778	19592.69
844.103	19522.86
844.427	19474.28
844.751	19445.8
845.075	19369.87
845.399	19424.33
845.723	19226.82
846.047	19342.3
846.371	19071.35
846.695	19089.88
847.019	18933.27
847.343	18841.98
847.666	18772.37
847.99	18742.54
848.313	18632.26
848.637	18556.11
848.96	18523.57
849.284	18416
849.607	18359.28
849.931	18338.94
850.254	18192.05
850.577	18064.14
850.9	18027.31
851.223	17899.4
851.546	17937.37
851.869	17819.4
852.192	17790.25
852.515	17687.66
852.838	17660.99
853.161	17611.05
853.483	17434.33
853.806	17419.41
854.129	17442.01
854.451	17312.53
854.774	17226.2
855.096	17147.33
855.419	17216.93
855.741	17070.27
856.063	17028.69
856.385	16980.33
856.708	16767
857.03	16904.4
857.352	16760.68
857.674	16833.22
857.996	16669.38
858.318	16723.61
858.64	16668.47
858.961	16629.83
859.283	16542.38
859.605	16529.27
859.926	16417.63
860.248	16338.54
860.57	16348.93
860.891	16281.14
861.212	16204.53
861.534	16285.21
861.855	16222.84
862.176	16177.41
862.498	16172.22
862.819	16185.1
863.14	16077.3
863.461	15994.59
863.782	15993.92
864.103	16030.07
864.424	15909.85
864.745	15933.13
865.065	15852.45
865.386	15826.69
865.707	15889.74
866.027	15894.71
866.348	15824.43
866.668	15655.39
866.989	15664.21
867.309	15606.13
867.63	15622.4
867.95	15704.66
868.27	15513.25
868.59	15497.21
868.91	15542.4
869.23	15512.57
869.55	15426.7
869.87	15501.05
870.19	15403.87
870.51	15522.06
870.83	15392.8
871.15	15307.61
871.469	15355.06
871.789	15365.46
872.109	15290.21
872.428	15258.57
872.748	15161.85
873.067	15228.96
873.386	15263.54
873.706	15213.6
874.025	15075.97
874.344	15066.93
874.663	15065.58
874.982	15023.77
875.301	15124.56
875.62	14882.08
875.939	14897.9
876.258	15015.18
876.577	14791.24
876.896	14812.25
877.214	14777
877.533	14804.34
877.852	14824
878.17	14784.46
878.489	14781.07
878.807	14847.05
879.125	14729.54
879.444	14773.38
879.762	14659.04
880.08	14564.12
880.398	14600.05
880.716	14617.45
881.034	14508.98
881.352	14517.8
881.67	14491.36
881.988	14481.86
882.306	14366.16
882.624	14369.1
882.941	14419.04
883.259	14319.38
883.577	14213.62
883.894	14261.76
884.212	14241.19
884.529	14193.74
884.846	14169.33
885.164	14083.23
885.481	14074.19
885.798	14108.32
886.115	14010.46
886.432	14036.45
886.75	13942.44
887.067	13936.12
887.383	13886.63
887.7	13890.02
888.017	13743.58
888.334	13896.8
888.651	13703.81
888.967	13707.87
889.284	13628.55
889.6	13685.95
889.917	13490.03
890.233	13569.35
890.55	13504.94
890.866	13485.06
891.182	13398.28
891.498	13454.77
891.815	13314.89
892.131	13259.75
892.447	13280.09
892.763	13259.98
893.079	13198.06
893.395	13169.36
893.71	13072.41
894.026	13134.56
894.342	13029.25
894.657	12891.17
894.973	13007.78
895.289	12942.02
895.604	12880.33
895.92	12836.03
896.235	12769.82
896.55	12700.22
896.865	12677.84
897.181	12664.74
897.496	12650.95
897.811	12641.69
898.126	12471.52
898.441	12441.92
898.756	12423.16
899.071	12321.92
899.386	12381.58
899.7	12287.57
900.015	12278.53
900.33	12165.77
900.644	12138.65
900.959	12144.75
901.273	12032.89
901.588	11990.86
901.902	12010.07
902.216	11948.82
902.531	11885.1
902.845	11756.29
903.159	11772.11
903.473	11715.84
903.787	11713.8
904.101	11627.25
904.415	11618.89
904.729	11510.42
905.042	11462.28
905.356	11414.83
905.67	11415.73
905.984	11407.37
906.297	11386.35
906.611	11252.8
906.924	11316.52
907.237	11257.99
907.551	11174.38
907.864	11185.91
908.177	11029.53
908.491	11070.2
908.804	10939.13
909.117	10918.79
909.43	10890.32
909.743	10808.74
910.056	10756.09
910.368	10725.13
910.681	10703.21
910.994	10688.07
911.307	10601.29
911.619	10541.86
911.932	10543.21
912.244	10474.74
912.557	10508.64
912.869	10366.72
913.181	10369.66
913.494	10375.76
913.806	10302.77
914.118	10250.79
914.43	10171.47
914.742	10168.53
915.054	10083.34
915.366	10088.31
915.678	10067.29
915.99	10005.82
916.302	9881.53
916.613	9865.04
916.925	9884.7
917.236	9797.69
917.548	9761.54
917.859	9760.63
918.171	9660.07
918.482	9635.66
918.794	9609.68
919.105	9604.93
919.416	9583.46
919.727	9540.07
920.038	9504.37
920.349	9395.67
920.66	9398.16
920.971	9325.62
921.282	9321.55
921.593	9185.51
921.903	9173.08
922.214	9157.49
922.525	9127.66
922.835	9061.44
923.146	9056.92
923.456	9021.22
923.767	8924.27
924.077	8980.54
924.387	8932.41
924.697	8853.99
925.008	8887.89
925.318	8821
925.628	8790.49
925.938	8729.93
926.248	8651.96
926.558	8566.77
926.867	8587.33
927.177	8511.85
927.487	8472.31
927.796	8444.96
928.106	8443.38
928.416	8396.6
928.725	8336.94
929.034	8310.95
929.344	8272.08
929.653	8216.04
929.962	8235.25
930.271	8140.34
930.581	8087
930.89	8085.87
931.199	8058.98
931.508	8026.44
931.817	8041.58
932.125	7994.8
932.434	7988.93
932.743	7890.4
933.051	7819.67
933.36	7806.56
933.669	7798.65
933.977	7690.41
934.286	7746
934.594	7734.25
934.902	7647.69
935.21	7586.68
935.519	7602.27
935.827	7582.39
936.135	7458.77
936.443	7419
936.751	7423.07
937.059	7368.83
937.367	7375.61
937.674	7329.51
937.982	7275.05
938.29	7324.77
938.597	7251.55
938.905	7193.7
939.213	7188.27
939.52	7086.35
939.827	7146.92
940.135	7116.63
940.442	7051.33
940.749	7035.51
941.056	7045.9
941.363	6974.27
941.67	6931.33
941.977	6881.61
942.284	6805
942.591	6819.69
942.898	6821.28
943.205	6811.56
943.511	6788.51
943.818	6670.77
944.125	6691.11
944.431	6620.6
944.738	6661.96
945.044	6544.45
945.35	6504.67
945.657	6487.72
945.963	6443.43
946.269	6487.95
946.575	6442.75
946.881	6450.44
947.187	6390.33
947.493	6368.63
947.799	6306.71
948.105	6282.76
948.41	6268.75
948.716	6254.74
949.022	6204.12
949.327	6185.81
949.633	6179.71
949.938	6158.02
950.244	6139.26
950.549	6063.33
950.854	6033.27
951.16	6036.89
951.465	5970.45
951.77	5947.85
952.075	5944.69
952.38	5947.85
952.685	5918.02
952.99	5811.13
953.294	5821.3
953.599	5756.22
953.904	5767.29
954.209	5764.58
954.513	5756.44
954.818	5653.85
955.122	5710.8
955.426	5633.51
955.731	5630.35
956.035	5581.76
956.339	5548.09
956.643	5584.25
956.948	5457.24
957.252	5513.97
957.556	5481.65
957.86	5423.57
958.163	5399.17
958.467	5405.27
958.771	5403.01
959.075	5373.18
959.378	5341.09
959.682	5328.21
959.985	5279.62
960.289	5245.27
960.592	5227.65
960.896	5209.79
961.199	5189
961.502	5171.15
961.805	5123.69
962.108	5078.5
962.411	5080.76
962.714	5066.07
963.017	5051.83
963.32	5015.67
963.623	4974.77
963.926	5033.07
964.228	4989.01
964.531	4901.1
964.833	4892.74
965.136	4912.63
965.438	4860.42
965.741	4836.92
966.043	4818.16
966.345	4798.5
966.648	4759.41
966.95	4753.08
967.252	4728.9
967.554	4718.96
967.856	4664.27
968.158	4628.79
968.46	4646.19
968.761	4622.69
969.063	4573.2
969.365	4611.39
969.666	4541.11
969.968	4533.43
970.269	4543.82
970.571	4487.55
970.872	4462.92
971.174	4422.69
971.475	4441
971.776	4429.47
972.077	4368.01
972.378	4390.83
972.679	4347.22
972.98	4363.94
973.281	4316.71
973.582	4318.74
973.883	4294.79
974.183	4234.9
974.484	4242.59
974.785	4223.15
975.085	4196.71
975.386	4229.25
975.686	4103.15
975.986	4158.29
976.287	4187.45
976.587	4038.98
976.887	4077.17
977.187	4055.02
977.487	4062.03
977.787	4017.28
978.087	4010.05
978.387	3982.03
978.687	3981.58
978.987	3965.31
979.286	3923.72
979.586	3914.23
979.885	3914.69
980.185	3913.78
980.484	3874.01
980.784	3879.88
981.083	3818.19
981.382	3823.61
981.682	3825.87
981.981	3769.83
982.28	3769.38
982.579	3728.93
982.878	3735.48
983.177	3729.38
983.475	3693.9
983.774	3638.53
984.073	3642.6
984.372	3661.36
984.67	3626.56
984.969	3624.52
985.267	3562.6
985.566	3575.26
985.864	3587.91
986.162	3517.86
986.461	3530.06
986.759	3486.67
987.057	3482.61
987.355	3455.04
987.653	3475.15
987.951	3434.02
988.249	3438.54
988.547	3394.92
988.844	3422.95
989.142	3390.63
989.44	3382.72
989.737	3293.91
990.035	3342.27
990.332	3273.57
990.63	3293.23
990.927	3304.98
991.224	3260.01
991.521	3271.54
991.819	3229.73
992.116	3243.74
992.413	3189.73
992.71	3207.81
993.006	3180.69
993.303	3146.34
993.6	3139.56
993.897	3092.56
994.193	3109.06
994.49	3073.8
994.787	3090.53
995.083	3080.58
995.379	3028.61
995.676	3037.87
995.972	2995.84
996.268	2983.41
996.565	2970.98
996.861	2940.47
997.157	2930.98
997.453	2924.2
997.749	2914.49
998.044	2903.64
998.34	2864.09
998.636	2866.58
998.932	2861.15
999.227	2838.78
999.523	2858.67
999.818	2820.93
1000.114	2794.71
1000.409	2775.73
1000.704	2770.08
1001	2731.67
1001.295	2723.53
1001.59	2723.76
1001.885	2698.9
1002.18	2657.09
1002.475	2657.54
1002.77	2653.7
1003.065	2641.05
1003.359	2614.15
1003.654	2619.35
1003.949	2564.44
1004.243	2588.39
1004.538	2538.68
1004.832	2537.09
1005.127	2556.53
1005.421	2499.13
1005.715	2492.8
1006.009	2477.66
1006.304	2478.34
1006.598	2436.08
1006.892	2429.75
1007.186	2438.34
1007.48	2431.11
1007.773	2409.41
1008.067	2399.02
1008.361	2360.6
1008.655	2390.21
1008.948	2323.99
1009.242	2364.9
1009.535	2297.78
1009.829	2332.81
1010.122	2323.31
1010.415	2309.08
1010.708	2294.84
1011.001	2248.06
1011.295	2238.57
1011.588	2220.49
1011.881	2167.61
1012.173	2192.7
1012.466	2162.19
1012.759	2171.91
1013.052	2180.27
1013.344	2116.77
1013.637	2097.11
1013.93	2136.2
1014.222	2130.78
1014.514	2089.65
1014.807	2091.91
1015.099	2031.57
1015.391	2043.55
1015.683	2051.91
1015.976	2038.8
1016.268	2003.55
1016.56	2009.65
1016.851	1982.08
1017.143	1945.02
1017.435	1937.11
1017.727	1952.25
1018.018	1910.44
1018.31	1930.56
1018.602	1895.98
1018.893	1896.21
1019.185	1895.98
1019.476	1859.82
1019.767	1888.75
1020.058	1862.08
1020.35	1840.84
1020.641	1815.76
1020.932	1788.87
1021.223	1795.87
1021.514	1776.21
1021.804	1752.03
1022.095	1758.13
1022.386	1724.91
1022.677	1740.05
1022.967	1699.38
1023.258	1698.02
1023.548	1688.53
1023.839	1669.55
1024.129	1653.5
1024.419	1683.56
1024.709	1655.08
1025	1622.54
1025.29	1612.15
1025.58	1594.97
1025.87	1581.64
1026.16	1596.78
1026.449	1552.71
1026.739	1587.06
1027.029	1633.39
1027.319	1567.63
1027.608	1522.66
1027.898	1526.27
1028.187	1519.04
1028.477	1494.64
1028.766	1491.02
1029.055	1486.5
1029.344	1474.52
1029.634	1484.69
1029.923	1471.36
1030.212	1453.28
1030.501	1449.44
1030.79	1427.52
1031.078	1417.58
1031.367	1364.47
1031.656	1375.09
1031.945	1389.1
1032.233	1346.84
1032.522	1367.86
1032.81	1342.32
1033.099	1337.58
1033.387	1314.08
1033.675	1324.92
1033.963	1311.14
1034.251	1285.15
1034.54	1296.67
1034.828	1289.67
1035.116	1279.27
1035.403	1276.56
1035.691	1261.42
1035.979	1281.08
1036.267	1217.58
1036.554	1251.7
1036.842	1236.79
1037.129	1224.13
1037.417	1200.18
1037.704	1198.37
1037.992	1219.16
1038.279	1196.11
1038.566	1161.31
1038.853	1161.31
1039.14	1161.31
