Data from White_reflection_standard_FLMS001491_085.txt Node
Date: Tue Feb 07 10:32:12 GMT 2017
User: dcchb
Spectrometer: FLMS00149
Trigger mode: 0
Integration Time (sec): 2.000000E-2
Scans to average: 10
Electric dark correction enabled: true
Nonlinearity correction enabled: false
Boxcar width: 0
XAxis mode: Wavelengths
Number of Pixels in Spectrum: 2048
>>>>>Begin Spectral Data<<<<<
341.393	-36.86
341.776	-36.86
342.16	-36.86
342.543	-77.54
342.927	-75.28
343.31	-59.69
343.693	-44.55
344.077	-60.14
344.46	-62.63
344.843	-52.23
345.226	-32.34
345.61	-42.96
345.993	0.88
346.376	4.27
346.759	12.63
347.142	42.46
347.525	31.16
347.908	49.91
348.291	50.59
348.674	65.73
349.057	96.92
349.44	104.15
349.823	148.44
350.206	136.47
350.588	215.56
350.971	243.81
351.354	274.99
351.737	261.89
352.119	266.86
352.502	299.17
352.884	311.83
353.267	316.12
353.65	354.31
354.032	353.41
354.414	338.95
354.797	362.22
355.179	368.55
355.562	365.39
355.944	362.45
356.326	376.01
356.709	383.01
357.091	376.91
357.473	396.12
357.855	407.64
358.238	380.75
358.62	408.55
359.002	395.89
359.384	414.65
359.766	391.37
360.148	400.41
360.53	395.22
360.912	394.54
361.294	406.74
361.676	414.65
362.057	399.74
362.439	396.12
362.821	402.22
363.203	417.59
363.584	403.58
363.966	424.82
364.348	396.35
364.729	408.1
365.111	388.89
365.493	405.16
365.874	396.8
366.256	397.7
366.637	414.88
367.019	403.58
367.4	423.69
367.781	397.93
368.163	427.31
368.544	426.85
368.925	401.54
369.306	408.77
369.688	420.53
370.069	401.54
370.45	432.95
370.831	426.63
371.212	421.66
371.593	429.79
371.974	458.26
372.355	442.22
372.736	443.58
373.117	441.32
373.498	437.47
373.879	425.72
374.26	425.5
374.641	447.87
375.021	449.23
375.402	463.91
375.783	456.91
376.163	515.21
376.544	492.61
376.925	479.28
377.305	475.67
377.686	455.33
378.066	501.88
378.447	489.22
378.827	498.94
379.208	524.7
379.588	484.48
379.968	503.24
380.349	510.01
380.729	528.32
381.109	517.92
381.489	533.29
381.87	552.73
382.25	543.69
382.63	531.71
383.01	570.58
383.39	552.5
383.77	555.21
384.15	594.98
384.53	593.18
384.91	587.07
385.29	569
385.67	595.21
386.049	603.8
386.429	594.08
386.809	621.65
387.189	625.94
387.568	629.56
387.948	634.53
388.328	643.12
388.707	660.75
389.087	643.8
389.466	655.32
389.846	681.54
390.225	670.46
390.605	699.39
390.984	690.12
391.363	699.61
391.743	733.06
392.122	729.67
392.501	716.56
392.881	721.53
393.26	712.27
393.639	747.52
394.018	726.73
394.397	786.17
394.776	757.47
395.155	766.05
395.534	797.01
395.913	779.61
396.292	780.06
396.671	813.28
397.05	801.53
397.429	823
397.808	820.52
398.186	840.4
398.565	849.89
398.944	865.49
399.323	866.16
399.701	869.1
400.08	871.36
400.458	921.98
400.837	914.75
401.215	900.29
401.594	906.61
401.972	940.06
402.351	935.09
402.729	963.56
403.107	962.43
403.486	961.98
403.864	995.43
404.242	1014.86
404.62	1025.26
404.999	1037.01
405.377	1050.34
405.755	1032.04
406.133	1070.9
406.511	1052.37
406.889	1095.99
407.267	1087.4
407.645	1125.14
408.023	1125.82
408.401	1136.89
408.779	1172.37
409.156	1219.6
409.534	1202.43
409.912	1196.55
410.29	1232.71
410.667	1260.73
411.045	1300.5
411.422	1277.23
411.8	1281.75
412.178	1289.43
412.555	1327.17
412.933	1334.4
413.31	1354.74
413.687	1385.25
414.065	1396.77
414.442	1406.71
414.819	1427.73
415.197	1465.24
415.574	1448.97
415.951	1507.05
416.328	1512.47
416.705	1536.2
417.082	1523.1
417.46	1577.33
417.837	1535.07
418.214	1542.98
418.591	1593.83
418.967	1598.35
419.344	1614.17
419.721	1659.14
420.098	1659.14
420.475	1681.28
420.852	1730.55
421.228	1712.47
421.605	1753.6
421.982	1713.37
422.358	1747.95
422.735	1788.63
423.111	1803.54
423.488	1834.5
423.864	1852.58
424.241	1853.48
424.617	1908.62
424.994	1904.78
425.37	1951.11
425.746	1948.4
426.123	1987.26
426.499	2017.77
426.875	2024.78
427.251	2046.25
427.627	2115.17
428.003	2104.32
428.379	2164.43
428.756	2177.99
429.132	2214.83
429.507	2208.95
429.883	2267.71
430.259	2304.32
430.635	2332.57
431.011	2373.24
431.387	2412.11
431.763	2447.37
432.138	2443.75
432.514	2499.34
432.89	2473.81
433.265	2565.78
433.641	2609.39
434.016	2631.54
434.392	2658.43
434.767	2706.34
435.143	2735.49
435.518	2752.44
435.894	2768.71
436.269	2815.04
436.644	2856.85
437.02	2871.99
437.395	2908.82
437.77	2919.67
438.145	2968.93
438.52	2992.66
438.895	3052.09
439.271	3085.99
439.646	3163.73
440.021	3121.02
440.395	3165.76
440.77	3119.66
441.145	3222.94
441.52	3278.3
441.895	3262.71
442.27	3268.36
442.645	3320.34
443.019	3322.82
443.394	3364.63
443.769	3421.12
444.143	3379.09
444.518	3429.26
444.892	3453.21
445.267	3498.64
445.641	3558.75
446.016	3527.79
446.39	3608.92
446.764	3591.74
447.139	3609.14
447.513	3693.21
447.887	3697.95
448.262	3706.54
448.636	3715.13
449.01	3790.15
449.384	3791.06
449.758	3812.98
450.132	3876.48
450.506	3923.48
450.88	3911.96
451.254	3975.69
451.628	3992.86
452.002	4067.44
452.376	4088
452.75	4142.91
453.123	4149.24
453.497	4231.72
453.871	4284.6
454.244	4378.39
454.618	4350.37
454.992	4444.83
455.365	4498.16
455.739	4524.15
456.112	4611.6
456.486	4679.62
456.859	4678.72
457.232	4781.09
457.606	4779.28
457.979	4904.7
458.352	5005.72
458.725	5088.88
459.099	5065.83
459.472	5183.11
459.845	5226.95
460.218	5251.13
460.591	5328.19
460.964	5343.79
461.337	5440.51
461.71	5541.75
462.083	5600.73
462.456	5654.74
462.829	5711.01
463.201	5776.09
463.574	5831.91
463.947	5875.52
464.32	6039.81
464.692	6054.5
465.065	6149.19
465.438	6237.77
465.81	6327.94
466.183	6372.01
466.555	6535.17
466.928	6575.84
467.3	6569.29
467.672	6685.9
468.045	6778.1
468.417	6905.78
468.789	6910.3
469.161	7030.75
469.534	7132.21
469.906	7321.81
470.278	7382.83
470.65	7452.21
471.022	7613.33
471.394	7724.29
471.766	7828.69
472.138	7946.66
472.51	8138.97
472.882	8190.49
473.253	8364.5
473.625	8410.37
473.997	8640.87
474.369	8646.75
474.74	8775.11
475.112	9000.87
475.484	9086.29
475.855	9240.41
476.227	9338.48
476.598	9620.96
476.97	9714.07
477.341	9856.66
477.713	10051.46
478.084	10116.32
478.455	10465.01
478.827	10481.73
479.198	10751.1
479.569	10791.1
479.94	11174.59
480.311	11270.18
480.682	11492.55
481.053	11682.38
481.424	11932.31
481.795	12104.06
482.166	12253.21
482.537	12394.22
482.908	12627.66
483.279	12815.45
483.65	13057.26
484.021	13210.92
484.391	13430.35
484.762	13637.35
485.133	13773.85
485.503	13864.47
485.874	14160.05
486.244	14275.53
486.615	14661.51
486.985	14888.85
487.356	15064.43
487.726	15246.58
488.097	15496.74
488.467	15492.45
488.837	15827.58
489.207	16032.54
489.578	16242.93
489.948	16456.26
490.318	16681.79
490.688	16785.75
491.058	16997.04
491.428	17258.05
491.798	17426.18
492.168	17698.49
492.538	17887.41
492.908	18108.87
493.278	18323.56
493.648	18336.66
494.017	18574.85
494.387	18686.26
494.757	18886.25
495.126	19092.8
495.496	19199.92
495.866	19352.23
496.235	19562.17
496.605	19796.74
496.974	19993.57
497.344	20104.75
497.713	20191.08
498.082	20340
498.452	20507.46
498.821	20690.73
499.19	20755.13
499.559	20983.15
499.928	21145.4
500.298	21270.15
500.667	21453.87
501.036	21542.91
501.405	21695.45
501.774	21728.89
502.143	21981.09
502.512	22092.5
502.88	22328.2
503.249	22368.42
503.618	22589.21
503.987	22598.47
504.356	22878.01
504.724	23003.21
505.093	23034.17
505.462	23232.36
505.83	23374.27
506.199	23607.94
506.567	23948.04
506.936	23908.95
507.304	24211.76
507.672	24240.69
508.041	24419.44
508.409	24650.17
508.777	24822.37
509.145	24972.87
509.514	25105.98
509.882	25218.29
510.25	25348.01
510.618	25535.57
510.986	25637.49
511.354	25903.7
511.722	26175.78
512.09	26365.15
512.458	26375.32
512.826	26688.76
513.193	26719.5
513.561	26947.74
513.929	27142.99
514.297	27386.82
514.664	27576.65
515.032	27763.54
515.4	27933.93
515.767	28065.67
516.135	28203.52
516.502	28129.18
516.869	28701.82
517.237	28734.58
517.604	28762.61
517.972	29197.62
518.339	29422.25
518.706	29403.94
519.073	29757.83
519.44	29859.07
519.808	30326.41
520.175	30312.62
520.542	30609.79
520.909	30925.49
521.276	30842.78
521.643	31251.58
522.009	31394.17
522.376	31712.58
522.743	32000.94
523.11	32160.71
523.477	32516.18
523.843	32776.74
524.21	32939.67
524.577	33314.12
524.943	33444.06
525.31	33688.8
525.676	34005.86
526.043	34222.12
526.409	34319.97
526.776	34731.94
527.142	34700.08
527.508	35059.39
527.874	35342.09
528.241	35434.97
528.607	35562.2
528.973	36006.26
529.339	35974.85
529.705	36229.3
530.071	36578.22
530.437	36791.32
530.803	36956.51
531.169	37210.97
531.535	37271.08
531.901	37448.48
532.267	37561.02
532.632	37869.71
532.998	37916.71
533.364	38233.99
533.73	38379.98
534.095	38624.94
534.461	38794.43
534.826	38949
535.192	39113.97
535.557	39435.55
535.923	39309.9
536.288	39551.7
536.653	39665.82
537.019	39781.98
537.384	39905.36
537.749	40183.1
538.114	40214.51
538.479	40304.45
538.845	40588.06
539.21	40559.58
539.575	40694.04
539.94	40887.03
540.305	41033.47
540.67	40970.19
541.034	41337.42
541.399	41402.05
541.764	41448.6
542.129	41879.32
542.494	41807.91
542.858	41985.99
543.223	42118.41
543.587	42278.18
543.952	42373.09
544.316	42582.35
544.681	42638.4
545.045	42686.76
545.41	43094.43
545.774	43064.6
546.138	43107.76
546.503	43313.86
546.867	43369.45
547.231	43686.51
547.595	43743.23
547.959	43808.09
548.324	44006.5
548.688	44015.31
549.052	44227.06
549.416	44225.25
549.779	44391.12
550.143	44587.95
550.507	44830.66
550.871	44865.01
551.235	44940.03
551.599	45172.57
551.962	45387.25
552.326	45596.96
552.689	45715.61
553.053	45693.01
553.417	45772.1
553.78	46303.61
554.143	46159.21
554.507	46351.3
554.87	46535.7
555.234	46883.71
555.597	46656.6
555.96	46890.49
556.323	47070.6
556.686	47163.7
557.05	47412.74
557.413	47553.3
557.776	47521.43
558.139	48045.71
558.502	48009.1
558.865	48158.71
559.228	48412.94
559.59	48562.76
559.953	48676.21
560.316	49038.23
560.679	48976.76
561.041	49289.52
561.404	49481.61
561.767	49581.72
562.129	49538.1
562.492	49951.2
562.854	49861.71
563.217	50084.3
563.579	50090.41
563.941	50410.17
564.304	50463.73
564.666	50790.73
565.028	50790.5
565.39	50993.66
565.753	51145.75
566.115	51218.96
566.477	51313.88
566.839	51420.31
567.201	51686.75
567.563	51708.67
567.925	51932.39
568.287	51997.25
568.648	52053.97
569.01	52227.53
569.372	52480.17
569.734	52312.27
570.095	52552.04
570.457	52688.98
570.819	52757.45
571.18	52777.79
571.542	52997.22
571.903	53001.52
572.265	53153.83
572.626	53170.1
572.987	53176.43
573.349	53331.45
573.71	53494.16
574.071	53527.83
574.432	53696.64
574.794	53853.92
575.155	53785.9
575.516	53717.88
575.877	53919.68
576.238	53973.02
576.599	54064.31
576.96	54114.93
577.32	54118.32
577.681	54229.51
578.042	54335.94
578.403	54311.09
578.763	54327.36
579.124	54335.27
579.485	54512.21
579.845	54631.53
580.206	54456.17
580.566	54570.29
580.927	54570.51
581.287	54694.8
581.648	54536.16
582.008	54672.43
582.368	54639.67
582.728	54793.33
583.089	54644.64
583.449	54737.29
583.809	54714.92
584.169	54791.98
584.529	54618.65
584.889	54914.46
585.249	54664.3
585.609	54673.79
585.969	54909.49
586.329	54786.78
586.688	54848.7
587.048	54777.74
587.408	54748.59
587.768	54778.87
588.127	54733.9
588.487	54784.52
588.846	54943.39
589.206	54795.59
589.565	54780
589.925	54892.54
590.284	54831.3
590.643	54856.16
591.003	54859.55
591.362	55073.1
591.721	54926.89
592.08	54927.57
592.44	54997.4
592.799	54938.19
593.158	54923.27
593.517	54919.88
593.876	54976.38
594.235	55020.67
594.593	54985.42
594.952	55078.75
595.311	54933.22
595.67	54996.94
596.029	55179.31
596.387	55217.5
596.746	55249.37
597.104	55080.11
597.463	55098.86
597.822	55259.08
598.18	55063.61
598.538	55098.64
598.897	55261.12
599.255	55078.98
599.613	55488.68
599.972	55246.88
600.33	55355.35
600.688	55205.98
601.046	55357.16
601.404	55444.84
601.762	55393.32
602.12	55512.18
602.478	55476.71
602.836	55495.91
603.194	55392.87
603.552	55469.7
603.91	55429.93
604.268	55554.9
604.625	55404.62
604.983	55500.89
605.341	55412.3
605.698	55572.75
606.056	55642.35
606.413	55621.11
606.771	55640.54
607.128	55698.17
607.485	55637.6
607.843	55704.27
608.2	55803.25
608.557	55895
608.914	55767.77
609.272	55986.07
609.629	56013.87
609.986	55961.66
610.343	55854.32
610.7	56052.51
611.057	56009.57
611.414	56030.14
611.771	56054.32
612.127	56118.72
612.484	56144.71
612.841	56224.71
613.198	56144.94
613.554	56137.48
613.911	56198.04
614.267	56274.42
614.624	56202.11
614.98	56274.2
615.337	56422.44
615.693	56331.82
616.05	56280.98
616.406	56400.3
616.762	56361.88
617.118	56364.59
617.475	56391.03
617.831	56451.59
618.187	56507.41
618.543	56438.71
618.899	56613.4
619.255	56566.39
619.611	56536.11
619.967	56623.12
620.323	56671.02
620.678	56511.71
621.034	56433.97
621.39	56467.41
621.746	56540.63
622.101	56796.67
622.457	56454.76
622.812	56627.18
623.168	56634.87
623.523	56646.39
623.879	56728.2
624.234	56446.17
624.589	56619.5
624.945	56643.23
625.3	56630.8
625.655	56591.93
626.01	56667.18
626.365	56629.9
626.72	56536.56
627.075	56603.23
627.43	56577.02
627.785	56581.08
628.14	56555.77
628.495	56593.96
628.85	56601.87
629.205	56446.4
629.559	56636.45
629.914	56421.54
630.269	56499.5
630.623	56409.79
630.978	56321.88
631.332	56470.58
631.687	56451.37
632.041	56384.48
632.396	56415.21
632.75	56314.65
633.104	56372.73
633.459	56231.49
633.813	56179.96
634.167	56165.5
634.521	56176.57
634.875	56157.59
635.229	56077.82
635.583	55940.65
635.937	55981.55
636.291	55892.74
636.645	55943.13
636.999	55854.1
637.352	55957.6
637.706	55765.96
638.06	55842.12
638.413	55781.1
638.767	55706.98
639.121	55793.53
639.474	55576.59
639.828	55656.36
640.181	55646.42
640.534	55597.61
640.888	55525.97
641.241	55444.84
641.594	55438.29
641.947	55547.89
642.301	55397.39
642.654	55427.67
643.007	55422.92
643.36	55422.92
643.713	55266.77
644.066	55350.83
644.419	55102.25
644.771	54983.61
645.124	54730.74
645.477	54724.63
645.83	54507.92
646.182	54381.82
646.535	54358.77
646.888	54394.02
647.24	54168.94
647.593	54343.18
647.945	54244.87
648.298	54096.18
648.65	54116.06
649.002	53927.37
649.355	54105.67
649.707	53992.68
650.059	54193.58
650.411	54508.82
650.763	54468.14
651.115	54704.52
651.467	54675.37
651.819	54690.96
652.171	54572.55
652.523	54542.72
652.875	54519.44
653.227	54327.58
653.578	54522.83
653.93	54442.16
654.282	54271.09
654.633	54185.44
654.985	54268.15
655.337	54307.7
655.688	54270.41
656.039	54359.45
656.391	54039.23
656.742	54127.81
657.094	54217.53
657.445	54223.4
657.796	54140.7
658.147	54133.46
658.498	54049.4
658.849	54134.59
659.2	54016.63
659.551	53978.89
659.902	54056.63
660.253	54006.24
660.604	53962.85
660.955	53864.09
661.306	53916.52
661.656	53847.82
662.007	53954.49
662.358	53839.91
662.708	53920.14
663.059	53846.47
663.409	53657.09
663.76	53860.02
664.11	53770.99
664.461	53805.11
664.811	53717.2
665.161	53743.19
665.511	53672.23
665.862	53675.62
666.212	53690.09
666.562	53719.69
666.912	53671.33
667.262	53627.26
667.612	53587.26
667.962	53666.13
668.312	53541.16
668.662	53695.96
669.011	53635.62
669.361	53506.81
669.711	53459.58
670.06	53414.61
670.41	53338
670.76	53373.71
671.109	53443.09
671.459	53353.82
671.808	53259.36
672.157	53361.73
672.507	53162.19
672.856	53256.88
673.205	53268.4
673.554	53246.26
673.904	53204.45
674.253	53375.52
674.602	53170.55
674.951	52686.27
675.3	52607.63
675.649	53062.08
675.998	53094.62
676.346	53100.95
676.695	53176.88
677.044	52891.46
677.393	53049.65
677.741	52972.82
678.09	52912.03
678.438	52866.6
678.787	52905.93
679.135	52872.03
679.484	52653.28
679.832	52817.79
680.181	52564.69
680.529	52729.43
680.877	52619.61
681.225	52590.45
681.573	52635.2
681.922	52514.98
682.27	52323.57
682.618	52357.92
682.966	52178.26
683.314	52460.74
683.661	52324.02
684.009	52051.03
684.357	52060.3
684.705	51924.93
685.053	52004.93
685.4	51966.51
685.748	51798.38
686.095	51637.26
686.443	51588.45
686.79	51563.81
687.138	51653.08
687.485	51595.68
687.832	51483.59
688.18	51452.63
688.527	51291.28
688.874	51253.99
689.221	51181.45
689.568	51001.57
689.915	50944.62
690.262	50927.9
690.609	50827.34
690.956	50673.89
691.303	50624.4
691.65	50597.51
691.997	50547.12
692.344	50307.58
692.69	50244.3
693.037	50157.3
693.383	49926.57
693.73	50133.79
694.077	49928.6
694.423	49819.45
694.769	49801.37
695.116	49522.96
695.462	49611.77
695.808	49511.89
696.155	49485.68
696.501	49155.06
696.847	49213.37
697.193	48914.62
697.539	49147.15
697.885	48860.38
698.231	48659.94
698.577	48669.2
698.923	48582.2
699.269	48526.15
699.614	48294.75
699.96	48178.37
700.306	48160.51
700.651	47999.16
700.997	47888.2
701.342	47886.62
701.688	47854.76
702.033	47525.28
702.379	47647.08
702.724	47538.16
703.069	47506.97
703.415	47062.69
703.76	47081.22
704.105	47003.48
704.45	46989.92
704.795	46830.38
705.14	46670.83
705.485	46695.47
705.83	46410.05
706.175	46437.62
706.52	46378.87
706.865	46153.56
707.209	46120.79
707.554	45993.34
707.899	45956.5
708.243	45850.29
708.588	45892.78
708.932	45469.74
709.277	45450.08
709.621	45529.85
709.966	45258.22
710.31	45246.24
710.654	44996.3
710.998	45088.73
711.342	45046.24
711.687	44940.94
712.031	44729.42
712.375	44613.71
712.719	44610.1
713.063	44552.47
713.407	44634.5
713.75	44379.14
714.094	44409.2
714.438	44057.57
714.782	44309.99
715.125	43827.29
715.469	43955.2
715.812	43859.16
716.156	43546.85
716.499	43764.92
716.843	43574.87
717.186	43353.63
717.53	43557.47
717.873	43564.7
718.216	43321.32
718.559	43194.54
718.902	43014.89
719.246	42997.71
719.589	42993.87
719.932	42827.55
720.275	42803.59
720.617	42761.79
720.96	42649.92
721.303	42654.44
721.646	42636.82
721.989	42362.7
722.331	42570.83
722.674	42438.18
723.016	42317.5
723.359	42233.44
723.701	42230.27
724.044	41782.6
724.386	41742.83
724.729	42135.81
725.071	41838.65
725.413	41852.88
725.755	41642.72
726.097	41691.76
726.439	41433.46
726.782	41478.88
727.124	41515.04
727.465	41268.49
727.807	41181.26
728.149	41227.81
728.491	41064.43
728.833	41189.62
729.175	41089.96
729.516	40832.8
729.858	40951.44
730.199	40722.06
730.541	40816.3
730.882	40734.72
731.224	40753.02
731.565	40437.33
731.906	40371.79
732.248	40450.66
732.589	40254.51
732.93	40173.38
733.271	40140.16
733.612	40262.64
733.953	40145.58
734.294	40088.86
734.635	39979.71
734.976	40064.23
735.317	39841.64
735.658	39853.39
735.999	39557.35
736.339	39596.22
736.68	39723.45
737.021	39572.26
737.361	39379.95
737.702	39520.51
738.042	39352.61
738.383	39246.4
738.723	39300.18
739.063	39141.99
739.404	39248.43
739.744	39050.92
740.084	38975.22
740.424	38950.59
740.764	38831.72
741.104	39091.6
741.444	38723.93
741.784	38585.62
742.124	38706.98
742.464	38624.27
742.804	38653.19
743.143	38442.8
743.483	38464.05
743.823	38092.3
744.162	38158.52
744.502	38289.36
744.841	38021.57
745.181	38230.6
745.52	37893.44
745.86	38104.73
746.199	37966.43
746.538	37871.29
746.877	37856.6
747.216	37815.93
747.556	37699.55
747.895	37742.03
748.234	37569.38
748.573	37456.16
748.911	37311.99
749.25	37450.74
749.589	37307.24
749.928	37335.49
750.267	37186.34
750.605	37106.79
750.944	37037.19
751.283	36935.27
751.621	36964.65
751.96	36747.93
752.298	36737.54
752.636	36743.41
752.975	36485.57
753.313	36253.71
753.651	36512.46
753.989	36331.9
754.327	36325.12
754.666	35928.29
755.004	36138
755.342	35975.07
755.679	35916.77
756.017	35744.57
756.355	35836.77
756.693	35561.07
757.031	35667.28
757.368	35446.95
757.706	35495.76
758.044	35296.67
758.381	35172.61
758.719	35015.55
759.056	35037.24
759.394	34979.17
759.731	34679.74
760.068	34608.33
760.405	34587.99
760.743	34398.16
761.08	34519.97
761.417	34301.67
761.754	34218.06
762.091	34077.27
762.428	34043.6
762.765	33766.32
763.102	34039.75
763.438	33714.34
763.775	33624.62
764.112	33486.77
764.449	33488.13
764.785	33336.04
765.122	33200.91
765.458	33118.42
765.795	33101.7
766.131	32960.46
766.467	32830.52
766.804	32676.85
767.14	32520.47
767.476	32556.63
767.812	32337.2
768.148	32379.46
768.485	32122.06
768.821	32069.64
769.157	31939.47
769.492	31858.12
769.828	31740.83
770.164	31573.83
770.5	31458.81
770.836	31466.26
771.171	31322.54
771.507	31282.31
771.842	31039.61
772.178	30912.61
772.513	30820.4
772.849	30840.06
773.184	30553.29
773.519	30678.71
773.855	30389.46
774.19	30330.25
774.525	30231.49
774.86	30260.65
775.195	30038.05
775.53	29943.82
775.865	29742.92
776.2	29701.11
776.535	29483.49
776.87	29490.04
777.205	29326.21
777.539	29227.45
777.874	29207.79
778.209	28918.08
778.543	28939.55
778.878	28841.7
779.212	28658.88
779.547	28505.21
779.881	28653.91
780.215	28363.97
780.55	28506.11
780.884	28263.18
781.218	28110.19
781.552	28216.63
781.886	27985.68
782.22	27776.19
782.554	27752.01
782.888	27495.29
783.222	27351.57
783.556	27236.77
783.889	27190.22
784.223	27030.67
784.557	27064.57
784.89	26995.87
785.224	26815.54
785.557	26752.94
785.891	26714.98
786.224	26592.94
786.558	26639.72
786.891	26324.48
787.224	26209.9
787.557	26202.22
787.891	26249
788.224	26078.83
788.557	26076.12
788.89	25962.23
789.223	25907.77
789.556	25699.86
789.888	25517.72
790.221	25527.21
790.554	25230.95
790.887	25297.61
791.219	25134
791.552	25044.96
791.884	25120.89
792.217	24967.68
792.549	24857.4
792.882	24596.84
793.214	24539.89
793.546	24650.62
793.879	24500.12
794.211	24475.03
794.543	24371.31
794.875	24369.73
795.207	24370.18
795.539	24201.14
795.871	24169.05
796.203	23928.83
796.535	23809.52
796.867	23733.58
797.198	23675.28
797.53	23634.38
797.862	23539.69
798.193	23436.87
798.525	23306.7
798.856	23474.16
799.188	23160.72
799.519	23099.7
799.85	22949.65
800.182	22986.94
800.513	23007.28
800.844	22861.29
801.175	22894.96
801.506	22816.09
801.837	22660.39
802.168	22565.25
802.499	22481.41
802.83	22499.27
803.161	22412.72
803.491	22308.54
803.822	22397.12
804.153	22208.65
804.483	22072.84
804.814	22031.03
805.145	22040.75
805.475	21910.36
805.805	21810.7
806.136	21778.61
806.466	21710.81
806.796	21689.57
807.126	21452.97
807.457	21548.78
807.787	21543.81
808.117	21419.07
808.447	21377.94
808.777	21389.92
809.107	21230.15
809.436	21233.76
809.766	21174.56
810.096	21034.9
810.426	20998.29
810.755	21076.03
811.085	20916.71
811.414	21016.82
811.744	20713.55
812.073	20688.47
812.403	20623.61
812.732	20569.37
813.061	20494.8
813.39	20495.48
813.719	20438.3
814.049	20419.1
814.378	20341.58
814.707	20339.78
815.036	20200.57
815.365	20159.22
815.693	20032.21
816.022	20007.58
816.351	19823.41
816.68	19810.75
817.008	19876.51
817.337	19740.24
817.665	19723.07
817.994	19750.19
818.322	19680.81
818.651	19521.04
818.979	19469.06
819.307	19635.84
819.636	19526.01
819.964	19413.47
820.292	19386.13
820.62	19455.73
820.948	19331.21
821.276	19349.52
821.604	19395.62
821.932	19400.82
822.259	19406.02
822.587	19392.91
822.915	19320.14
823.243	19422.06
823.57	19296.41
823.898	19211.9
824.225	19265.68
824.553	19248.51
824.88	19318.56
825.207	19337.77
825.535	19235.62
825.862	19297.77
826.189	19210.99
826.516	19283.98
826.843	19316.3
827.17	19321.72
827.497	19283.08
827.824	19313.81
828.151	19358.33
828.478	19234.04
828.805	19345.23
829.131	19327.6
829.458	19250.77
829.785	19169.41
830.111	19215.29
830.438	19218.9
830.764	19194.95
831.09	19187.72
831.417	19048.28
831.743	19092.13
832.069	19163.54
832.395	19073.37
832.722	19123.54
833.048	19036.08
833.374	19075.63
833.7	18985.46
834.026	18978.68
834.351	18981.85
834.677	18906.82
835.003	18976.65
835.329	18928.51
835.654	18909.31
835.98	18833.83
836.306	18790.21
836.631	18732.81
836.956	18899.59
837.282	18871.34
837.607	18705.47
837.932	18724
838.258	18732.81
838.583	18626.83
838.908	18483.1
839.233	18549.09
839.558	18548.64
839.883	18465.02
840.208	18435.42
840.533	18380.73
840.858	18409.43
841.182	18414.63
841.507	18290.56
841.832	18158.36
842.156	18331.24
842.481	18266.84
842.805	18156.78
843.13	18168.76
843.454	18088.31
843.778	18014.41
844.103	17962.44
844.427	17936.22
844.751	17924.92
845.075	17817.81
845.399	17837.24
845.723	17634.54
846.047	17733.52
846.371	17592.73
846.695	17557.7
847.019	17477.7
847.343	17339.63
847.666	17237.94
847.99	17163.14
848.313	17137.83
848.637	17099.18
848.96	17062.12
849.284	17022.8
849.607	16954.55
849.931	16840.21
850.254	16682.47
850.577	16672.75
850.9	16645.18
851.223	16483.61
851.546	16487.22
851.869	16361.35
852.192	16362.25
852.515	16197.29
852.838	16219.66
853.161	16174.91
853.483	16095.14
853.806	16007.01
854.129	15987.57
854.451	15913.45
854.774	15911.87
855.096	15710.52
855.419	15873.9
855.741	15863.74
856.063	15563.4
856.385	15590.97
856.708	15633.23
857.03	15461.49
857.352	15510.75
857.674	15473.46
857.996	15398.44
858.318	15277.99
858.64	15312.56
858.961	15267.14
859.283	15209.52
859.605	15080.25
859.926	15144.43
860.248	15048.16
860.57	15067.82
860.891	15045
861.212	14863.31
861.534	14911.44
861.855	14886.81
862.176	14978.33
862.498	14905.34
862.819	14789.64
863.14	14871.45
863.461	14744.67
863.782	14696.31
864.103	14730.43
864.424	14721.84
864.745	14582.64
865.065	14633.26
865.386	14559.81
865.707	14587.84
866.027	14503.09
866.348	14550.55
866.668	14434.17
866.989	14470.1
867.309	14312.59
867.63	14419.48
867.95	14370.89
868.27	14231.24
868.59	14352.36
868.91	14167.51
869.23	14245.02
869.55	14211.12
869.87	14224.46
870.19	14257.22
870.51	14111.24
870.83	14153.72
871.15	14080.73
871.469	14143.78
871.789	14114.4
872.109	14110.56
872.428	13972.94
872.748	14080.51
873.067	13985.37
873.386	13927.29
873.706	13945.59
874.025	13835.31
874.344	13883
874.663	13883
874.982	13945.82
875.301	13866.05
875.62	13760.97
875.939	13706.96
876.258	13706.73
876.577	13622.66
876.896	13731.81
877.214	13641.42
877.533	13602.55
877.852	13638.48
878.17	13647.07
878.489	13604.81
878.807	13605.26
879.125	13517.58
879.444	13519.39
879.762	13521.65
880.08	13466.06
880.398	13387.42
880.716	13411.14
881.034	13316.01
881.352	13381.54
881.67	13283.69
881.988	13307.64
882.306	13300.86
882.624	13198.49
882.941	13100.19
883.259	13086.18
883.577	13116.24
883.894	13101.77
884.212	13077.14
884.529	13046.86
884.846	12990.82
885.164	13000.31
885.481	12908.78
885.798	12927.54
886.115	12860.2
886.432	12859.97
886.75	12823.36
887.067	12770.03
887.383	12675.12
887.7	12705.17
888.017	12682.8
888.334	12709.02
888.651	12665.63
888.967	12600.32
889.284	12553.31
889.6	12534.78
889.917	12457.72
890.233	12410.72
890.55	12427.44
890.866	12385.63
891.182	12408.91
891.498	12327.33
891.815	12332.3
892.131	12243.04
892.447	12222.93
892.763	12201.46
893.079	12130.5
893.395	12101.12
893.71	11987.45
894.026	12033.1
894.342	11957.85
894.657	11811.19
894.973	11923.95
895.289	11872.43
895.604	11894.35
895.92	11774.58
896.235	11757.85
896.55	11686.44
896.865	11716.73
897.181	11540.01
897.496	11579.78
897.811	11577.97
898.126	11507.24
898.441	11447.35
898.756	11414.13
899.071	11387.02
899.386	11321.48
899.7	11249.85
900.015	11246
900.33	11141.83
900.644	11130.53
900.959	11107.48
901.273	11107.25
901.588	11046.23
901.902	10992.68
902.216	10913.81
902.531	10944.54
902.845	10882.4
903.159	10839.46
903.473	10790.42
903.787	10729.86
904.101	10662.52
904.415	10612.35
904.729	10647.15
905.042	10615.74
905.356	10601.5
905.67	10547.94
905.984	10467.27
906.297	10472.01
906.611	10394.27
906.924	10345.24
907.237	10304.79
907.551	10248.52
907.864	10252.36
908.177	10255.97
908.491	10214.84
908.804	10119.71
909.117	10108.41
909.43	10042.87
909.743	9937.11
910.056	9933.72
910.368	9900.05
910.681	9851.46
910.994	9791.35
911.307	9799.26
911.619	9711.13
911.932	9799.04
912.244	9621.64
912.557	9695.08
912.869	9593.39
913.181	9508.87
913.494	9519.95
913.806	9436.79
914.118	9461.64
914.43	9357.92
914.742	9374.19
915.054	9288.99
915.366	9206.51
915.678	9266.62
915.99	9190.24
916.302	9220.97
916.613	9155.66
916.925	9116.12
917.236	9029.56
917.548	8998.15
917.859	8984.37
918.171	8849.23
918.482	8876.57
918.794	8856.46
919.105	8870.02
919.416	8765.84
919.727	8707.31
920.038	8744.15
920.349	8613.08
920.66	8623.47
920.971	8599.97
921.282	8611.72
921.593	8424.16
921.903	8490.82
922.214	8418.96
922.525	8392.75
922.835	8373.99
923.146	8299.19
923.456	8293.09
923.767	8267.1
924.077	8232.98
924.387	8146.65
924.697	8170.15
925.008	8086.31
925.318	8093.09
925.628	8048.35
925.938	8056.94
926.248	7986.88
926.558	7906.88
926.867	7871.4
927.177	7868.92
927.487	7845.19
927.796	7746.43
928.106	7780.78
928.416	7735.14
928.725	7696.04
929.034	7631.41
929.344	7625.08
929.653	7618.3
929.962	7563.39
930.271	7480.45
930.581	7497.18
930.89	7449.72
931.199	7431.41
931.508	7404.97
931.817	7352.55
932.125	7354.81
932.434	7280.23
932.743	7266.45
933.051	7226.67
933.36	7178.31
933.669	7121.14
933.977	7188.71
934.286	7080.46
934.594	7138.32
934.902	6986.23
935.21	6963.4
935.519	6995.49
935.827	6905.1
936.135	6886.12
936.443	6882.28
936.751	6821.94
937.059	6777.42
937.367	6791.43
937.674	6765.9
937.982	6792.56
938.29	6667.59
938.597	6650.42
938.905	6646.58
939.213	6600.25
939.52	6567.03
939.827	6532.23
940.135	6490.65
940.442	6518.22
940.749	6451.1
941.056	6410.2
941.363	6422.18
941.67	6376.98
941.977	6360.71
942.284	6293.82
942.591	6337.43
942.898	6281.61
943.205	6279.58
943.511	6238.23
943.818	6199.13
944.125	6132.01
944.431	6128.85
944.738	6111.45
945.044	6043.43
945.35	6053.6
945.657	6007.72
945.963	5990.55
946.269	5938.35
946.575	5937.22
946.881	5920.27
947.187	5870.33
947.493	5867.84
947.799	5807.05
948.105	5817.22
948.41	5782.64
948.716	5743.55
949.022	5655.19
949.327	5699.26
949.633	5619.49
949.938	5688.86
950.244	5626.49
950.549	5562.31
950.854	5540.62
951.16	5544.91
951.465	5494.29
951.77	5465.36
952.075	5460.17
952.38	5487.29
952.685	5467.17
952.99	5350.57
953.294	5415.65
953.599	5364.8
953.904	5292.94
954.209	5279.38
954.513	5375.65
954.818	5261.3
955.122	5234.64
955.426	5211.13
955.731	5162.32
956.035	5141.08
956.339	5117.13
956.643	5110.35
956.948	5067.64
957.252	5078.26
957.556	5044.13
957.86	5010.91
958.163	5024.92
958.467	4969.78
958.771	4978.37
959.075	4933.63
959.378	4888.2
959.682	4904.25
959.985	4852.73
960.289	4878.04
960.592	4792.61
960.896	4839.62
961.199	4758.49
961.502	4797.81
961.805	4735.44
962.108	4691.6
962.411	4706.97
962.714	4658.15
963.017	4627.42
963.32	4654.54
963.623	4604.14
963.926	4604.37
964.228	4521.89
964.531	4562.11
964.833	4538.84
965.136	4531.83
965.438	4557.82
965.741	4431.27
966.043	4473.98
966.345	4394.66
966.648	4403.25
966.95	4366.41
967.252	4354.89
967.554	4312.4
967.856	4295
968.158	4244.38
968.46	4295
968.761	4256.81
969.063	4262.23
969.365	4221.56
969.666	4231.05
969.968	4170.94
970.269	4148.11
970.571	4147.89
970.872	4149.92
971.174	4113.08
971.475	4107.66
971.776	4067.89
972.077	4072.18
972.378	4055.68
972.679	4038.96
972.98	3973.88
973.281	4000.54
973.582	3992.41
973.883	3977.95
974.183	3980.21
974.484	3898.4
974.785	3910.38
975.085	3898.17
975.386	3890.94
975.686	3822.24
975.986	3877.38
976.287	3825.18
976.587	3782.7
976.887	3788.8
977.187	3684.17
977.487	3772.08
977.787	3702.93
978.087	3688.24
978.387	3697.95
978.687	3661.8
978.987	3674.68
979.286	3621.8
979.586	3643.27
979.885	3609.59
980.185	3555.36
980.484	3531.86
980.784	3511.52
981.083	3527.34
981.382	3560.56
981.682	3526.66
981.981	3535.25
982.28	3471.74
982.579	3452.76
982.878	3504.51
983.177	3438.07
983.475	3440.56
983.774	3398.07
984.073	3362.14
984.372	3361.01
984.67	3346.1
984.969	3326.21
985.267	3327.12
985.566	3283.73
985.864	3259.1
986.162	3276.04
986.461	3292.77
986.759	3261.13
987.057	3203.05
987.355	3213.67
987.653	3220.45
987.951	3187.68
988.249	3217.06
988.547	3175.48
988.844	3134.35
989.142	3122.6
989.44	3107.46
989.737	3113.56
990.035	3086.22
990.332	3047.12
990.63	3042.83
990.927	3043.28
991.224	3033.34
991.521	3003.73
991.819	3022.49
992.116	2994.02
992.413	2967.13
992.71	2966.9
993.006	2954.24
993.303	2905.21
993.6	2899.78
993.897	2912.21
994.193	2866.56
994.49	2880.12
994.787	2846.45
995.083	2841.48
995.379	2779.79
995.676	2779.79
995.972	2770.07
996.268	2789.28
996.565	2763.74
996.861	2779.11
997.157	2744.31
997.453	2713.35
997.749	2714.02
998.044	2704.99
998.34	2696.17
998.636	2668.15
998.932	2648.26
999.227	2605.78
999.523	2610.3
999.818	2617.98
1000.114	2579.79
1000.409	2584.54
1000.704	2529.62
1001	2553.58
1001.295	2554.93
1001.59	2524.2
1001.885	2538.89
1002.18	2488.04
1002.475	2481.94
1002.77	2457.53
1003.065	2446.01
1003.359	2457.99
1003.654	2422.05
1003.949	2412.56
1004.243	2397.42
1004.538	2386.58
1004.832	2367.59
1005.127	2342.06
1005.421	2323.53
1005.715	2312.91
1006.009	2319.23
1006.304	2297.99
1006.598	2241.72
1006.892	2285.79
1007.186	2274.26
1007.48	2254.15
1007.773	2228.16
1008.067	2217.99
1008.361	2188.39
1008.655	2204.43
1008.948	2189.29
1009.242	2166.02
1009.535	2137.54
1009.829	2132.12
1010.122	2157.66
1010.415	2135.73
1010.708	2091.44
1011.001	2097.54
1011.295	2043.76
1011.588	2065.91
1011.881	2043.76
1012.173	2048.05
1012.466	2013.93
1012.759	2015.29
1013.052	1991.33
1013.344	1995.63
1013.637	1977.77
1013.93	1995.4
1014.222	1947.49
1014.514	1969.64
1014.807	1943.88
1015.099	1948.4
1015.391	1914.95
1015.683	1866.14
1015.976	1899.81
1016.268	1914.95
1016.56	1855.29
1016.851	1842.41
1017.143	1874.5
1017.435	1801.28
1017.727	1828.62
1018.018	1804.22
1018.31	1820.26
1018.602	1762.64
1018.893	1772.81
1019.185	1782.3
1019.476	1728.74
1019.767	1707.05
1020.058	1705.46
1020.35	1694.16
1020.641	1687.16
1020.932	1656.2
1021.223	1672.47
1021.514	1636.76
1021.804	1661.17
1022.095	1660.27
1022.386	1608.97
1022.677	1625.01
1022.967	1617.33
1023.258	1575.3
1023.548	1589.08
1023.839	1575.52
1024.129	1561.96
1024.419	1561.06
1024.709	1502.98
1025	1526.94
1025.29	1528.52
1025.58	1484.9
1025.87	1479.03
1026.16	1472.93
1026.449	1448.75
1026.739	1464.79
1027.029	1450.56
1027.319	1451.01
1027.608	1459.14
1027.898	1422.31
1028.187	1435.64
1028.477	1399.03
1028.766	1386.6
1029.055	1361.97
1029.344	1394.96
1029.634	1382.53
1029.923	1354.06
1030.212	1327.85
1030.501	1323.78
1030.79	1310.9
1031.078	1317
1031.367	1308.86
1031.656	1289.2
1031.945	1286.49
1032.233	1292.37
1032.522	1291.92
1032.81	1258.02
1033.099	1254.18
1033.387	1228.87
1033.675	1253.05
1033.963	1242.42
1034.251	1243.33
1034.54	1214.63
1034.828	1211.92
1035.116	1194.74
1035.403	1211.01
1035.691	1151.35
1035.979	1180.28
1036.267	1179.6
1036.554	1167.4
1036.842	1123.33
1037.129	1138.92
1037.417	1135.54
1037.704	1140.96
1037.992	1107.06
1038.279	1117.68
1038.566	1115.42
1038.853	1115.42
1039.14	1115.42
