Data from White_paper_FLMS001491_077.txt Node
Date: Tue Feb 07 10:35:33 GMT 2017
User: dcchb
Spectrometer: FLMS00149
Trigger mode: 0
Integration Time (sec): 2.000000E-2
Scans to average: 10
Electric dark correction enabled: true
Nonlinearity correction enabled: false
Boxcar width: 0
XAxis mode: Wavelengths
Number of Pixels in Spectrum: 2048
>>>>>Begin Spectral Data<<<<<
341.393	-1.16
341.776	-1.16
342.16	-1.16
342.543	-49.74
342.927	-72.12
343.31	-57.2
343.693	-63.98
344.077	-74.83
344.46	-72.79
344.843	-69.63
345.226	-51.1
345.61	-33.7
345.993	2.46
346.376	-6.13
346.759	28.9
347.142	12.17
347.525	41.33
347.908	48.11
348.291	81.33
348.674	102.57
349.057	112.51
349.44	128.56
349.823	122.23
350.206	166.3
350.588	215.33
350.971	210.81
351.354	248.33
351.737	257.37
352.119	271.83
352.502	281.55
352.884	272.28
353.267	295.78
353.65	315.67
354.032	315.67
354.414	314.31
354.797	362.22
355.179	336.01
355.562	346.4
355.944	336.23
356.326	365.84
356.709	365.61
357.091	359.96
357.473	357.7
357.855	359.96
358.238	385.27
358.62	346.63
359.002	366.97
359.384	367.42
359.766	381.66
360.148	358.83
360.53	371.04
360.912	378.49
361.294	354.31
361.676	370.13
362.057	364.93
362.439	338.49
362.821	348.44
363.203	366.52
363.584	359.28
363.966	357.93
364.348	366.74
364.729	348.89
365.111	360.87
365.493	380.3
365.874	339.85
366.256	365.39
366.637	359.28
367.019	371.26
367.4	372.17
367.781	350.47
368.163	359.06
368.544	362.9
368.925	366.97
369.306	366.52
369.688	361.54
370.069	368.78
370.45	371.04
370.831	348.89
371.212	366.97
371.593	366.29
371.974	366.52
372.355	370.58
372.736	374.43
373.117	382.79
373.498	358.61
373.879	387.31
374.26	386.85
374.641	371.04
375.021	372.62
375.402	376.69
375.783	390.47
376.163	380.3
376.544	377.36
376.925	378.94
377.305	399.28
377.686	400.19
378.066	374.65
378.447	384.14
378.827	399.51
379.208	389.57
379.588	410.81
379.968	408.77
380.349	423.01
380.729	408.1
381.109	410.81
381.489	422.11
381.87	439.96
382.25	409.68
382.63	418.94
383.01	425.05
383.39	414.2
383.77	441.32
384.15	422.11
384.53	423.46
384.91	434.08
385.29	448.1
385.67	447.87
386.049	455.78
386.429	425.05
386.809	467.53
387.189	454.88
387.568	468.66
387.948	470.47
388.328	484.7
388.707	470.47
389.087	484.93
389.466	484.7
389.846	486.74
390.225	512.73
390.605	472.5
390.984	511.6
391.363	513.86
391.743	496.23
392.122	527.19
392.501	510.47
392.881	527.64
393.26	523.35
393.639	548.88
394.018	563.12
394.397	555.44
394.776	548.21
395.155	539.84
395.534	563.12
395.913	594.08
396.292	570.13
396.671	584.36
397.05	592.95
397.429	584.82
397.808	577.13
398.186	597.92
398.565	612.61
398.944	609.22
399.323	639.05
399.701	626.62
400.08	641.08
400.458	653.29
400.837	632.95
401.215	667.3
401.594	665.49
401.972	684.7
402.351	682.67
402.729	677.92
403.107	715.21
403.486	737.81
403.864	734.42
404.242	758.14
404.62	743.91
404.999	769.22
405.377	777.58
405.755	792.04
406.133	797.69
406.511	830.68
406.889	827.75
407.267	864.58
407.645	879.04
408.023	890.34
408.401	900.06
408.779	929.89
409.156	947.29
409.534	952.72
409.912	996.56
410.29	1035.65
410.667	1063.45
411.045	1088.53
411.422	1095.31
411.8	1098.7
412.178	1137.12
412.555	1175.53
412.933	1181.64
413.31	1238.81
413.687	1266.83
414.065	1298.69
414.442	1309.32
414.819	1351.12
415.197	1364.46
415.574	1404.23
415.951	1430.89
416.328	1457.79
416.705	1466.37
417.082	1498.92
417.46	1530.33
417.837	1564
418.214	1611
418.591	1622.75
418.967	1634.28
419.344	1655.75
419.721	1699.81
420.098	1726.48
420.475	1801.28
420.852	1763.77
421.228	1820.71
421.605	1841.28
421.982	1867.95
422.358	1898.23
422.735	1894.61
423.111	1910.2
423.488	1952.69
423.864	1970.54
424.241	1978
424.617	2018.68
424.994	2046.7
425.37	2072.46
425.746	2086.92
426.123	2130.99
426.499	2156.3
426.875	2164.66
427.251	2236.52
427.627	2251.66
428.003	2315.62
428.379	2347.93
428.756	2385.45
429.132	2383.41
429.507	2428.16
429.883	2450.3
430.259	2531.2
430.635	2518.55
431.011	2586.12
431.387	2608.49
431.763	2697.98
432.138	2701.82
432.514	2711.31
432.89	2734.36
433.265	2821.37
433.641	2838.32
434.016	2874.02
434.392	2932.55
434.767	2958.76
435.143	2996.5
435.518	3060
435.894	3055.71
436.269	3122.6
436.644	3172.54
437.02	3207.12
437.395	3206.22
437.77	3302.26
438.145	3326.66
438.52	3372.09
438.895	3372.09
439.271	3422.93
439.646	3470.61
440.021	3529.82
440.395	3516.72
440.77	3495.7
441.145	3539.54
441.52	3636.26
441.895	3590.84
442.27	3655.92
442.645	3630.61
443.019	3730.27
443.394	3720.55
443.769	3787.89
444.143	3683.26
444.518	3815.46
444.892	3758.52
445.267	3836.26
445.641	3863.82
446.016	3889.59
446.39	3904.73
446.764	3951.51
447.139	3912.41
447.513	3996.7
447.887	3984.05
448.262	4062.24
448.636	4042.13
449.01	4113.54
449.384	4151.5
449.758	4137.94
450.132	4191.73
450.506	4250.03
450.88	4258.62
451.254	4248.22
451.628	4318.05
452.002	4384.94
452.376	4397.14
452.75	4406.18
453.123	4470.81
453.497	4513.98
453.871	4569.34
454.244	4699.51
454.618	4741.32
454.992	4774.54
455.365	4716.01
455.739	4911.71
456.112	4920.52
456.486	5005.72
456.859	5011.14
457.232	5123.23
457.606	5103.79
457.979	5188.54
458.352	5295.65
458.725	5394.18
459.099	5381.07
459.472	5487.29
459.845	5563.44
460.218	5556.21
460.591	5657.45
460.964	5665.81
461.337	5814.96
461.71	5865.35
462.083	5973.15
462.456	5962.75
462.829	6016.08
463.201	6190.09
463.574	6125.23
463.947	6238
464.32	6408.39
464.692	6396.19
465.065	6482.51
465.438	6583.08
465.81	6698.55
466.183	6709.63
466.555	6914.37
466.928	6925.67
467.3	6922.73
467.672	7026.23
468.045	7270.06
468.417	7249.72
468.789	7298.99
469.161	7397.97
469.534	7520.9
469.906	7701.46
470.278	7740.79
470.65	7829.82
471.022	7988.69
471.394	8157.5
471.766	8172.64
472.138	8353.65
472.51	8460.77
472.882	8525.17
473.253	8734.21
473.625	8820.3
473.997	8973.3
474.369	9043.58
474.74	9184.36
475.112	9353.17
475.484	9494.64
475.855	9639.27
476.227	9769.66
476.598	9985.92
476.97	10053.27
477.341	10301.62
477.713	10486.93
478.084	10552.69
478.455	10780.03
478.827	10970.3
479.198	11245.55
479.569	11238.55
479.94	11566
480.311	11623.85
480.682	11879.89
481.053	12117.17
481.424	12361.23
481.795	12472.64
482.166	12634.89
482.537	12814.32
482.908	13087.31
483.279	13213.86
483.65	13456.79
484.021	13673.51
484.391	13857.91
484.762	13944.46
485.133	14097.68
485.503	14245.92
485.874	14647.04
486.244	14768.85
486.615	15044.32
486.985	15137.88
487.356	15488.38
487.726	15567.7
488.097	15915.49
488.467	15882.49
488.837	16262.14
489.207	16435.92
489.578	16750.49
489.948	16797.95
490.318	17065.96
490.688	17062.35
491.058	17440.87
491.428	17676.34
491.798	17759.28
492.168	18076.78
492.538	18098.03
492.908	18399.49
493.278	18618.01
493.648	18693.04
494.017	18962.41
494.387	19053.93
494.757	19189.75
495.126	19419.12
495.496	19458.44
495.866	19689.4
496.235	19842.39
496.605	19937.53
496.974	20194.47
497.344	20256.84
497.713	20372.54
498.082	20580.9
498.452	20809.82
498.821	20850.04
499.19	20986.76
499.559	21138.17
499.928	21336.36
500.298	21365.29
500.667	21592.17
501.036	21555.34
501.405	21797.14
501.774	21864.03
502.143	22057.92
502.512	22219.73
502.88	22428.76
503.249	22414.07
503.618	22479.83
503.987	22733.61
504.356	22853.83
504.724	22888.41
505.093	23167.05
505.462	23153.26
505.83	23441.39
506.199	23590.76
506.567	23834.6
506.936	23783.08
507.304	24036.4
507.672	24315.49
508.041	24254.7
508.409	24404.53
508.777	24695.14
509.145	24877.74
509.514	24876.83
509.882	25170.61
510.25	25157.28
510.618	25394.11
510.986	25434.56
511.354	25587.1
511.722	25948.89
512.09	26233.18
512.458	26128.55
512.826	26409.22
513.193	26474.76
513.561	26639.5
513.929	26802.2
514.297	26966.72
514.664	27306.15
515.032	27264.34
515.4	27666.59
515.767	27577.55
516.135	27960.59
516.502	27705.68
516.869	28277.19
517.237	28342.5
517.604	28389.28
517.972	28674.02
518.339	28824.3
518.706	28943.17
519.073	29031.52
519.44	29219.99
519.808	29497.73
520.175	29649.36
520.542	29859.07
520.909	30098.39
521.276	30077.6
521.643	30417.93
522.009	30569.79
522.376	30809.78
522.743	31100.17
523.11	31309.66
523.477	31542.42
523.843	31842.52
524.21	31968.17
524.577	32205.9
524.943	32498.55
525.31	32651.32
525.676	32938.54
526.043	33009.73
526.409	33174.24
526.776	33630.5
527.142	33670.5
527.508	33910.27
527.874	34036.14
528.241	34305.06
528.607	34283.36
528.973	34816.68
529.339	34707.53
529.705	35034.76
530.071	35371.25
530.437	35542.09
530.803	35704.57
531.169	35985.01
531.535	35847.62
531.901	36030.89
532.267	36258.45
532.632	36559.91
532.998	36665.9
533.364	36864.77
533.73	36890.3
534.095	37222.95
534.461	37441.25
534.826	37474.24
535.192	37797.4
535.557	37874
535.923	37886.66
536.288	38201
536.653	38227.44
537.019	38324.84
537.384	38387.89
537.749	38754.88
538.114	38775
538.479	38852.06
538.845	39051.15
539.21	39030.81
539.575	39131.15
539.94	39425.38
540.305	39555.99
540.67	39488.2
541.034	39790.11
541.399	39884.8
541.764	40092.02
542.129	40034.4
542.494	40279.82
542.858	40403.88
543.223	40475.29
543.587	40764.32
543.952	40734.04
544.316	41057.42
544.681	41141.49
545.045	41333.35
545.41	41373.12
545.774	41531.54
546.138	41570.4
546.503	41769.27
546.867	41779.89
547.231	42085.64
547.595	42137.39
547.959	42223.95
548.324	42293.1
548.688	42396.6
549.052	42603.15
549.416	42785.51
549.779	42755.46
550.143	42922.01
550.507	43166.75
550.871	43245.84
551.235	43379.85
551.599	43454.2
551.962	43774.87
552.326	43818.93
552.689	44092.15
553.053	44052.6
553.417	44024.8
553.78	44507.73
554.143	44414.85
554.507	44483.1
554.87	44739.81
555.234	45074.94
555.597	44906.14
555.96	45094.15
556.323	45252.12
556.686	45453.47
557.05	45652.56
557.413	45716.96
557.776	45751.09
558.139	46048.25
558.502	46180.23
558.865	46193.56
559.228	46565.53
559.59	46748.12
559.953	46751.51
560.316	47195.34
560.679	47105.85
561.041	47421.32
561.404	47476.92
561.767	47684.82
562.129	47620.64
562.492	48081.42
562.854	48074.41
563.217	48136.79
563.579	48185.37
563.941	48492.71
564.304	48683.44
564.666	48949.19
565.028	48986.48
565.39	49100.38
565.753	49308.28
566.115	49460.14
566.477	49605.45
566.839	49722.05
567.201	49928.38
567.563	49927.02
567.925	50236.16
568.287	50141.7
568.648	50336.95
569.01	50545.99
569.372	50681.58
569.734	50668.47
570.095	50884.96
570.457	50984.62
570.819	51188.68
571.18	51111.4
571.542	51280.43
571.903	51449.69
572.265	51618.73
572.626	51653.75
572.987	51792.73
573.349	51898.95
573.71	51946.85
574.071	52004.93
574.432	52063.91
574.794	52450.34
575.155	52358.82
575.516	52317.01
575.877	52421.87
576.238	52587.52
576.599	52630.9
576.96	52728.3
577.32	52700.28
577.681	52842.2
578.042	52894.4
578.403	52905.47
578.763	52984.34
579.124	53051.23
579.485	53107.95
579.845	53233.15
580.206	53172.13
580.566	53215.75
580.927	53321.96
581.287	53420.04
581.648	53334.39
582.008	53563.99
582.368	53444.89
582.728	53523.54
583.089	53491.9
583.449	53480.6
583.809	53586.81
584.169	53710.2
584.529	53626.36
584.889	53904.54
585.249	53623.65
585.609	53548.17
585.969	53807.14
586.329	53735.51
586.688	53754.72
587.048	53707.94
587.408	53727.37
587.768	53788.16
588.127	53819.35
588.487	53876.75
588.846	53985.22
589.206	53813.02
589.565	53820.7
589.925	53980.25
590.284	53857.54
590.643	54001.94
591.003	54065.67
591.362	54140.92
591.721	54036.52
592.08	54101.6
592.44	54087.82
592.799	54210.07
593.158	54166.91
593.517	54126.46
593.876	54153.35
594.235	54153.8
594.593	54220.02
594.952	54297.08
595.311	54286
595.67	54308.6
596.029	54427.69
596.387	54519.89
596.746	54489.39
597.104	54288.26
597.463	54417.52
597.822	54537.29
598.18	54429.05
598.538	54430.63
598.897	54559.44
599.255	54276.06
599.613	54788.81
599.972	54514.47
600.33	54606.67
600.688	54529.16
601.046	54637.86
601.404	54751.75
601.762	54680.79
602.12	54826.1
602.478	54869.04
602.836	54838.76
603.194	54637.86
603.552	54827
603.91	54751.53
604.268	54881.01
604.625	54778.19
604.983	54947
605.341	54820.9
605.698	54887.57
606.056	54971.41
606.413	54945.87
606.771	54938.64
607.128	55053.67
607.485	54954.23
607.843	55012.54
608.2	55137.28
608.557	55159.43
608.914	55153.78
609.272	55304.28
609.629	55290.5
609.986	55337.95
610.343	55206.43
610.7	55389.02
611.057	55376.82
611.414	55276.71
611.771	55332.75
612.127	55471.96
612.484	55422.7
612.841	55481.22
613.198	55369.82
613.554	55449.36
613.911	55642.8
614.267	55566.65
614.624	55518.06
614.98	55567.32
615.337	55689.13
615.693	55653.42
616.05	55670.37
616.406	55835.34
616.762	55730.71
617.118	55682.35
617.475	55722.35
617.831	55767.32
618.187	55743.36
618.543	55783.36
618.899	55899.52
619.255	55819.3
619.611	55853.64
619.967	55996.47
620.323	55956.01
620.678	55946.3
621.034	55923.02
621.39	55906.3
621.746	55824.27
622.101	56148.33
622.457	55927.09
622.812	55916.69
623.168	55975.9
623.523	56040.76
623.879	56040.53
624.234	55845.51
624.589	55925.28
624.945	55996.47
625.3	56074.88
625.655	56017.03
626.01	56067.65
626.365	56024.71
626.72	56004.6
627.075	56112.39
627.43	56054.77
627.785	55981.1
628.14	56029.91
628.495	56103.81
628.85	55956.69
629.205	55951.49
629.559	56041.44
629.914	56002.79
630.269	56005.28
630.623	56008.22
630.978	55906.98
631.332	56024.49
631.687	56049.12
632.041	55984.71
632.396	56042.57
632.75	55963.47
633.104	56040.31
633.459	55772.97
633.813	55824.72
634.167	55806.41
634.521	55793.53
634.875	55828.11
635.229	55841.44
635.583	55700.65
635.937	55682.8
636.291	55627.21
636.645	55755.79
636.999	55649.36
637.352	55725.06
637.706	55601.67
638.06	55754.44
638.413	55570.26
638.767	55522.13
639.121	55584.72
639.474	55459.08
639.828	55517.61
640.181	55549.7
640.534	55519.19
640.888	55482.81
641.241	55316.71
641.594	55384.73
641.947	55574.78
642.301	55400.77
642.654	55428.34
643.007	55365.97
643.36	55456.37
643.713	55299.99
644.066	55387.44
644.419	55250.04
644.771	55030.39
645.124	54848.93
645.477	54701.36
645.83	54604.86
646.182	54523.96
646.535	54419.78
646.888	54532.1
647.24	54416.17
647.593	54558.09
647.945	54379.78
648.298	54375.04
648.65	54259.79
649.002	54326.9
649.355	54379.78
649.707	54344.08
650.059	54395.38
650.411	54743.62
650.763	54763.73
651.115	55069.71
651.467	54984.74
651.819	54993.55
652.171	54964.18
652.523	54845.76
652.875	54829.49
653.227	54728.02
653.578	54924.4
653.93	54871.3
654.282	54744.75
654.633	54658.42
654.985	54745.42
655.337	54762.83
655.688	54831.98
656.039	54832.43
656.391	54580.23
656.742	54634.92
657.094	54589.5
657.445	54735.48
657.796	54684.41
658.147	54640.79
658.498	54565.99
658.849	54619.1
659.2	54518.99
659.551	54570.06
659.902	54640.57
660.253	54534.36
660.604	54629.04
660.955	54486
661.306	54614.13
661.656	54546.56
662.007	54553.57
662.358	54521.7
662.708	54509.5
663.059	54439.22
663.409	54347.92
663.76	54505.43
664.11	54462.27
664.461	54471.76
664.811	54483.28
665.161	54472.44
665.511	54399.67
665.862	54435.38
666.212	54406.22
666.562	54385.66
666.912	54418.65
667.262	54388.15
667.612	54367.13
667.962	54309.5
668.312	54271.31
668.662	54409.84
669.011	54299.33
669.361	54197.19
669.711	54189.96
670.06	54184.08
670.41	54139.11
670.76	54027.93
671.109	54223.86
671.459	54089.4
671.808	54099.79
672.157	54105.22
672.507	53958.78
672.856	53945.45
673.205	54046.69
673.554	54058.21
673.904	53973.02
674.253	54080.36
674.602	54080.36
674.951	53535.29
675.3	53415.97
675.649	53808.95
675.998	53739.35
676.346	53874.49
676.695	54001.04
677.044	53603.99
677.393	53707.71
677.741	53689.86
678.09	53711.78
678.438	53632.23
678.787	53675.85
679.135	53674.49
679.484	53420.04
679.832	53537.77
680.181	53348.63
680.529	53459.13
680.877	53328.51
681.225	53313.82
681.573	53429.08
681.922	53198.8
682.27	53082.42
682.618	53114.73
682.966	53075.64
683.314	53030.67
683.661	53006.71
684.009	52815.98
684.357	52773.27
684.705	52738.7
685.053	52766.04
685.4	52731.47
685.748	52434.07
686.095	52553.62
686.443	52385.04
686.79	52359.5
687.138	52277.69
687.485	52330.12
687.832	52185.27
688.18	52176.45
688.527	52051.94
688.874	52096.68
689.221	51959.51
689.568	51798.38
689.915	51739.63
690.262	51815.33
690.609	51718.16
690.956	51476.81
691.303	51525.85
691.65	51354.33
691.997	51344.84
692.344	51268.68
692.69	51014.9
693.037	51062.36
693.383	50908.46
693.73	50969.03
694.077	50731.07
694.423	50658.53
694.769	50548.47
695.116	50557.51
695.462	50445.88
695.808	50364.3
696.155	50410.62
696.501	50083.63
696.847	50099.9
697.193	49853.12
697.539	49981.03
697.885	49737.87
698.231	49639.12
698.577	49748.95
698.923	49512.57
699.269	49323.42
699.614	49223.54
699.96	49133.14
700.306	49076.65
700.651	48953.71
700.997	48985.8
701.342	48816.09
701.688	48837.56
702.033	48718.69
702.379	48666.49
702.724	48473.73
703.069	48600.5
703.415	48210
703.76	48123.9
704.105	48064.47
704.45	48006.39
704.795	47801.88
705.14	47881.2
705.485	47786.29
705.83	47541.55
706.175	47536.57
706.52	47442.11
706.865	47385.62
707.209	47221.1
707.554	47140.2
707.899	47221.78
708.243	46919.87
708.588	46859.3
708.932	46687.33
709.277	46708.35
709.621	46798.29
709.966	46245.99
710.31	46570.5
710.654	46253.44
710.998	46259.55
711.342	46368.92
711.687	46078.76
712.031	46025.2
712.375	45897.3
712.719	45902.27
713.063	45778.2
713.407	45902.95
713.75	45752.67
714.094	45608.04
714.438	45479.45
714.782	45467.7
715.125	45299.57
715.469	45401.04
715.812	45117.2
716.156	44896.64
716.499	45027.26
716.843	45116.53
717.186	44757.66
717.53	45020.03
717.873	44900.94
718.216	44832.01
718.559	44593.6
718.902	44396.09
719.246	44597.9
719.589	44268.86
719.932	44116.55
720.275	44104.8
720.617	44076.33
720.96	44079.49
721.303	44034.52
721.646	44055.54
721.989	43752.49
722.331	43807.41
722.674	43694.42
723.016	43719.27
723.359	43525.83
723.701	43570.13
724.044	43412.62
724.386	43211.72
724.729	43360.87
725.071	43299.62
725.413	43251.26
725.755	43242.9
726.097	43074.32
726.439	42890.14
726.782	42809.69
727.124	42982.57
727.465	42762.46
727.807	42679.53
728.149	42673.65
728.491	42566.54
728.833	42626.42
729.175	42435.47
729.516	42310.95
729.858	42363.38
730.199	42543.94
730.541	42264.85
730.882	42226.66
731.224	42425.07
731.565	41923.16
731.906	42003.39
732.248	42073.89
732.589	41788.7
732.93	41819.66
733.271	41682.04
733.612	41801.58
733.953	41855.59
734.294	41561.14
734.635	41381.93
734.976	41550.29
735.317	41315.04
735.658	41214.93
735.999	41370.86
736.339	41168.83
736.68	41398.66
737.021	41223.97
737.361	41102.62
737.702	41272.56
738.042	41001.83
738.383	40905.79
738.723	41007.26
739.063	40938.56
739.404	40901.5
739.744	40759.13
740.084	40524.78
740.424	40682.52
740.764	40514.61
741.104	40789.18
741.444	40433.03
741.784	40423.54
742.124	40478.23
742.464	40325.01
742.804	40360.72
743.143	40274.84
743.483	40140.39
743.823	39961.18
744.162	39990.11
744.502	40087.96
744.841	39888.87
745.181	39980.39
745.52	39786.27
745.86	39906.49
746.199	39705.14
746.538	39810.45
746.877	39760.06
747.216	39711.47
747.556	39640.74
747.895	39608.2
748.234	39210.69
748.573	39172.28
748.911	39263.57
749.25	39401.2
749.589	39011.38
749.928	39098.6
750.267	39052.05
750.605	38982
750.944	38856.13
751.283	38740.65
751.621	38977.03
751.96	38560.77
752.298	38676.02
752.636	38554.21
752.975	38506.76
753.313	38362.35
753.651	38441.45
753.989	38256.82
754.327	38148.57
754.666	37930.27
755.004	38079.65
755.342	38024.28
755.679	38036.03
756.017	37902.03
756.355	37911.52
756.693	37582.49
757.031	37829.94
757.368	37500
757.706	37445.54
758.044	37377.97
758.381	37272.44
758.719	37135.72
759.056	37243.74
759.394	37084.42
759.731	36810.3
760.068	36750.42
760.405	36503.19
760.743	36474.04
761.08	36575.51
761.417	36194.27
761.754	36275.63
762.091	36259.81
762.428	36020.72
762.765	35936.2
763.102	36021.62
763.438	35813.72
763.775	35626.38
764.112	35688.75
764.449	35513.84
764.785	35533.73
765.122	35180.97
765.458	35143
765.795	35139.16
766.131	35075.89
766.467	34999.73
766.804	34779.62
767.14	34658.04
767.476	34620.3
767.812	34397.71
768.148	34489.91
768.485	34267.55
768.821	34108.23
769.157	33960.66
769.492	33883.6
769.828	33962.47
770.164	33531.75
770.5	33590.05
770.836	33504.18
771.171	33333.11
771.507	33282.94
771.842	33025.77
772.178	32970.4
772.513	32994.58
772.849	32734.25
773.184	32684.76
773.519	32756.4
773.855	32528.83
774.19	32417.42
774.525	32331.1
774.86	32309.4
775.195	32217.43
775.53	32109.41
775.865	31877.33
776.2	31515.3
776.535	31341.97
776.87	31356.66
777.205	31350.79
777.539	31223.56
777.874	31228.76
778.209	30865.15
778.543	30913.74
778.878	30744.7
779.212	30700.86
779.547	30504.25
779.881	30615.21
780.215	30348.55
780.55	30462
780.884	30212.06
781.218	30102.01
781.552	30079.86
781.886	29890.26
782.22	29824.95
782.554	29756.7
782.888	29375.7
783.222	29229.94
783.556	29161.92
783.889	29153.56
784.223	28917.63
784.557	29005.31
784.89	28951.53
785.224	28795.15
785.557	28613.23
785.891	28600.58
786.224	28480.58
786.558	28488.49
786.891	28250.98
787.224	28184.32
787.557	28079.91
787.891	28038.78
788.224	27969.41
788.557	27851.67
788.89	27823.19
789.223	27803.53
789.556	27548.17
789.888	27464.56
790.221	27386.6
790.554	27136.66
790.887	27186.15
791.219	26914.29
791.552	27033.39
791.884	26913.39
792.217	26788.42
792.549	26650.57
792.882	26480.41
793.214	26385.04
793.546	26439.95
793.879	26354.08
794.211	26121.54
794.543	26296.46
794.875	26071.6
795.207	26124.26
795.539	25934.43
795.871	25925.62
796.203	25710.48
796.535	25585.74
796.867	25636.13
797.198	25482.92
797.53	25431.39
797.862	25329.7
798.193	25409.02
798.525	25315.01
798.856	25242.92
799.188	24924.74
799.519	24867.79
799.85	24610.85
800.182	24816.04
800.513	24767
800.844	24537.18
801.175	24680.68
801.506	24482.49
801.837	24435.71
802.168	24365.88
802.499	24350.52
802.83	24154.82
803.161	24169.28
803.491	24086.8
803.822	24101.26
804.153	23891.09
804.483	23675.51
804.814	23666.02
805.145	23691.55
805.475	23623.08
805.805	23528.17
806.136	23547.38
806.466	23471.67
806.796	23455.85
807.126	23292.24
807.457	23182.41
807.787	23263.54
808.117	23001.85
808.447	22966.37
808.777	23051.34
809.107	22951.01
809.436	22857
809.766	22875.75
810.096	22764.8
810.426	22623.56
810.755	22559.15
811.085	22544.69
811.414	22596.21
811.744	22360.06
812.073	22299.05
812.403	22311.48
812.732	22188.77
813.061	22198.71
813.39	21993.97
813.719	22046.85
814.049	22058.15
814.378	21980.18
814.707	21904.93
815.036	21778.16
815.365	21697.71
815.693	21526.19
816.022	21538.16
816.351	21576.58
816.68	21388.34
817.008	21532.29
817.337	21302.01
817.665	21352.4
817.994	21339.3
818.322	21273.54
818.651	21210.04
818.979	21162.58
819.307	21209.13
819.636	21113.09
819.964	20917.39
820.292	21102.69
820.62	21043.71
820.948	20942.7
821.276	20913.77
821.604	20903.6
821.932	20943.15
822.259	20903.15
822.587	20979.31
822.915	20852.76
823.243	20859.54
823.57	20863.15
823.898	20744.74
824.225	20806.2
824.553	20795.58
824.88	20843.04
825.207	20864.96
825.535	20885.3
825.862	20815.24
826.189	20758.75
826.516	20903.15
826.843	20834.9
827.17	20862.93
827.497	20852.53
827.824	20782.93
828.151	20957.16
828.478	20718.97
828.805	20756.49
829.131	20662.03
829.458	20631.52
829.785	20668.58
830.111	20823.83
830.438	20858.86
830.764	20758.3
831.09	20834.23
831.417	20626.77
831.743	20832.64
832.069	20770.73
832.395	20596.49
832.722	20768.92
833.048	20586.78
833.374	20656.15
833.7	20612.54
834.026	20488.25
834.351	20509.49
834.677	20576.61
835.003	20532.31
835.329	20510.39
835.654	20571.41
835.98	20394.24
836.306	20455.03
836.631	20149.27
836.956	20403.73
837.282	20374.13
837.607	20284.18
837.932	20234.69
838.258	20186.56
838.583	20279.44
838.908	20029.5
839.233	20125.32
839.558	20069.95
839.883	20058.2
840.208	19905.89
840.533	19970.97
840.858	19881.48
841.182	19900.47
841.507	19852.78
841.832	19689.17
842.156	19753.35
842.481	19723.29
842.805	19828.83
843.13	19687.82
843.454	19585.22
843.778	19495.05
844.103	19479.69
844.427	19444.88
844.751	19420.7
845.075	19344.1
845.399	19332.34
845.723	19218.22
846.047	19379.8
846.371	19053.26
846.695	18988.17
847.019	18913.6
847.343	18801.96
847.666	18690.55
847.99	18672.48
848.313	18592.93
848.637	18385.7
848.96	18487.4
849.284	18428.19
849.607	18288.98
849.931	18186.16
850.254	18068.65
850.577	17930.57
850.9	17857.81
851.223	17923.34
851.546	17812.16
851.869	17621.88
852.192	17762.22
852.515	17642.9
852.838	17583.24
853.161	17459.85
853.483	17440.19
853.806	17441.77
854.129	17330.82
854.451	17203.14
854.774	17178.05
855.096	17160.88
855.419	17089.01
855.741	17081.78
856.063	16919.98
856.385	16942.58
856.708	16811.73
857.03	16710.72
857.352	16792.52
857.674	16707.33
857.996	16712.07
858.318	16640.21
858.64	16541.91
858.961	16577.16
859.283	16474.34
859.605	16408.81
859.926	16550.72
860.248	16437.05
860.57	16262.82
860.891	16296.04
861.212	16156.61
861.534	16179.21
861.855	16144.86
862.176	16177.63
862.498	16096.05
862.819	16108.02
863.14	16070.06
863.461	16048.36
863.782	15936.95
864.103	15983.73
864.424	15891.08
864.745	15924.07
865.065	15893.34
865.386	15784.42
865.707	15858.09
866.027	15702.38
866.348	15751.87
866.668	15748.03
866.989	15673.46
867.309	15565.89
867.63	15654.7
867.95	15570.41
868.27	15437.08
868.59	15575.61
868.91	15431.2
869.23	15463.29
869.55	15371.32
869.87	15460.58
870.19	15358.21
870.51	15450.64
870.83	15358.44
871.15	15296.29
871.469	15266.01
871.789	15321.83
872.109	15331.09
872.428	15135.39
872.748	15182.4
873.067	15171.78
873.386	15171.1
873.706	15094.04
874.025	15076.19
874.344	15015.85
874.663	15110.76
874.982	15099.69
875.301	15011.55
875.62	14924.78
875.939	14894.95
876.258	14919.35
876.577	14852.01
876.896	14808.17
877.214	14829.64
877.533	14810.2
877.852	14701.51
878.17	14719.13
878.489	14733.82
878.807	14733.6
879.125	14715.97
879.444	14722.3
879.762	14566.14
880.08	14623.99
880.398	14507.61
880.716	14612.24
881.034	14478.01
881.352	14451.8
881.67	14369.76
881.988	14518.46
882.306	14425.58
882.624	14391.23
882.941	14299.26
883.259	14268.98
883.577	14312.36
883.894	14254.96
884.212	14252.93
884.529	14181.52
884.846	14113.5
885.164	14056.78
885.481	14047.06
885.798	14069.21
886.115	13963.45
886.432	13996.67
886.75	13892.26
887.067	13943.33
887.383	13859.04
887.7	13871.25
888.017	13745.15
888.334	13802.77
888.651	13761.64
888.967	13709.67
889.284	13607.75
889.6	13640.52
889.917	13501.09
890.233	13489.56
890.55	13491.37
890.866	13472.16
891.182	13378.38
891.498	13330.47
891.815	13331.15
892.131	13299.96
892.447	13212.51
892.763	13197.36
893.079	13126.63
893.395	13110.36
893.71	13084.6
894.026	13030.36
894.342	12984.72
894.657	12916.02
894.973	12892.97
895.289	12895.23
895.604	12858.62
895.92	12746.53
896.235	12732.52
896.55	12742.24
896.865	12671.05
897.181	12666.53
897.496	12581.79
897.811	12571.84
898.126	12477.38
898.441	12415.92
898.756	12434.45
899.071	12420.66
899.386	12380.66
899.7	12268.12
900.015	12188.8
900.33	12066.1
900.644	12066.77
900.959	12160.1
901.273	12027.23
901.588	11938.19
901.902	11978.41
902.216	11833.78
902.531	11940.9
902.845	11829.27
903.159	11701.36
903.473	11737.29
903.787	11652.55
904.101	11610.51
904.415	11624.52
904.729	11560.12
905.042	11409.62
905.356	11372.78
905.67	11374.14
905.984	11358.09
906.297	11335.72
906.611	11296.85
906.924	11301.82
907.237	11180.24
907.551	11235.16
907.864	11073.35
908.177	11069.96
908.491	10956.75
908.804	10934.37
909.117	10883.75
909.43	10846.24
909.743	10827.26
910.056	10808.73
910.368	10735.28
910.681	10660.03
910.994	10658.67
911.307	10635.4
911.619	10517.44
911.932	10574.38
912.244	10495.06
912.557	10436.53
912.869	10405.12
913.181	10348.63
913.494	10288.97
913.806	10238.57
914.118	10185.92
914.43	10145.92
914.742	10122.87
915.054	10037.67
915.366	10030.44
915.678	10009.88
915.99	9940.5
916.302	9921.74
916.613	9808.08
916.925	9872.71
917.236	9783.44
917.548	9760.62
917.859	9746.16
918.171	9593.84
918.482	9588.19
918.794	9566.95
919.105	9578.25
919.416	9509.33
919.727	9556.1
920.038	9384.13
920.349	9385.71
920.66	9374.41
920.971	9328.99
921.282	9305.26
921.593	9211.03
921.903	9138.71
922.214	9179.62
922.525	9061.88
922.835	9041.09
923.146	9039.96
923.456	8935.1
923.767	8905.95
924.077	8883.35
924.387	8839.06
924.697	8817.37
925.008	8722.68
925.318	8696.01
925.628	8755.22
925.938	8733.53
926.248	8596.13
926.558	8572.4
926.867	8532.85
927.177	8507.54
927.487	8411.95
927.796	8361.33
928.106	8378.51
928.416	8346.19
928.725	8365.4
929.034	8322.46
929.344	8284.05
929.653	8218.06
929.962	8169.25
930.271	8149.14
930.581	8147.55
930.89	8052.87
931.199	8036.6
931.508	7964.51
931.817	8025.3
932.125	7952.08
932.434	7928.58
932.743	7857.84
933.051	7864.17
933.36	7713.44
933.669	7764.29
933.977	7738.53
934.286	7734.91
934.594	7677.28
934.902	7596.38
935.21	7590.96
935.519	7526.1
935.827	7565.87
936.135	7428.25
936.443	7439.32
936.751	7382.38
937.059	7374.92
937.367	7359.33
937.674	7333.79
937.982	7315.94
938.29	7287.92
938.597	7247.69
938.905	7133.8
939.213	7102.38
939.52	7127.69
939.827	7099.22
940.135	7054.25
940.442	7036.17
940.749	6993.23
941.056	7015.61
941.363	6975.83
941.67	6913.91
941.977	6873.69
942.284	6800.47
942.591	6846.12
942.898	6784.88
943.205	6788.95
943.511	6710.76
943.818	6710.76
944.125	6619.91
944.431	6609.74
944.738	6632.79
945.044	6594.15
945.35	6540.14
945.657	6485.22
945.963	6460.59
946.269	6423.08
946.575	6456.07
946.881	6400.48
947.187	6358.9
947.493	6343.53
947.799	6275.74
948.105	6217.44
948.41	6262.63
948.716	6237.55
949.022	6195.52
949.327	6186.02
949.633	6118
949.938	6128.85
950.244	6042.07
950.549	6057.67
950.854	5993.94
951.16	5999.59
951.465	5953.94
951.77	5920.27
952.075	5923.88
952.38	5906.48
952.685	5866.26
952.99	5808.18
953.294	5745.13
953.599	5800.5
953.904	5760.27
954.209	5730.89
954.513	5686.15
954.818	5672.59
955.122	5666.26
955.426	5619.49
955.731	5648.41
956.035	5580.62
956.339	5572.48
956.643	5538.13
956.948	5499.26
957.252	5453.61
957.556	5443.67
957.86	5422.2
958.163	5388.08
958.467	5380.17
958.771	5342.43
959.075	5355.76
959.378	5301.3
959.682	5281.19
959.985	5278.48
960.289	5240.29
960.592	5197.58
960.896	5224.47
961.199	5170.01
961.502	5127.07
961.805	5108.09
962.108	5100.18
962.411	5055.88
962.714	5024.25
963.017	5027.64
963.32	5047.52
963.623	4971.14
963.926	4968.43
964.228	4905.15
964.531	4962.78
964.833	4879.39
965.136	4824.93
965.438	4840.75
965.741	4833.52
966.043	4778.83
966.345	4814.53
966.648	4766.4
966.95	4765.95
967.252	4719.4
967.554	4661.32
967.856	4678.94
968.158	4638.49
968.46	4645.95
968.761	4612.05
969.063	4594.88
969.365	4568.21
969.666	4520.76
969.968	4503.13
970.269	4507.2
970.571	4540.42
970.872	4482.11
971.174	4404.6
971.475	4432.85
971.776	4353.08
972.077	4365.51
972.378	4373.42
972.679	4318.05
972.98	4291.38
973.281	4334.1
973.582	4269.46
973.883	4248.22
974.183	4247.77
974.484	4219.75
974.785	4243.48
975.085	4171.16
975.386	4210.03
975.686	4192.63
975.986	4139.07
976.287	4116.47
976.587	4098.85
976.887	4067.66
977.187	4023.59
977.487	4043.93
977.787	4005.29
978.087	3999.87
978.387	3968
978.687	3989.7
978.987	3923.26
979.286	3968.91
979.586	3916.25
979.885	3843.49
980.185	3873.99
980.484	3864.95
980.784	3860.66
981.083	3825.86
981.382	3823.37
981.682	3812.98
981.981	3783.15
982.28	3704.51
982.579	3731.4
982.878	3717.39
983.177	3683.26
983.475	3663.15
983.774	3653.89
984.073	3631.29
984.372	3614.34
984.67	3618.63
984.969	3574.12
985.267	3607.33
985.566	3564.4
985.864	3504.06
986.162	3506.09
986.461	3504.74
986.759	3528.01
987.057	3479.43
987.355	3444.4
987.653	3425.19
987.951	3412.31
988.249	3405.76
988.547	3436.94
988.844	3385.19
989.142	3370.5
989.44	3324.86
989.737	3307
990.035	3304.29
990.332	3309.49
990.63	3254.12
990.927	3251.41
991.224	3229.72
991.521	3226.78
991.819	3212.77
992.116	3190.85
992.413	3198.08
992.71	3173.67
993.006	3166.44
993.303	3107.69
993.6	3128.03
993.897	3078.53
994.193	3091.19
994.49	3055.03
994.787	3020.23
995.083	3026.78
995.379	3010.97
995.676	3024.98
995.972	3001.02
996.268	2974.36
996.565	2966.9
996.861	2971.19
997.157	2924.64
997.453	2916.05
997.749	2880.12
998.044	2893.23
998.34	2848.94
998.636	2864.98
998.932	2844.87
999.227	2829.05
999.523	2784.98
999.818	2792.67
1000.114	2751.09
1000.409	2770.29
1000.704	2772.1
1001	2742.72
1001.295	2698.21
1001.59	2707.47
1001.885	2689.84
1002.18	2699.34
1002.475	2646.23
1002.77	2641.26
1003.065	2672.22
1003.359	2660.24
1003.654	2593.35
1003.949	2581.37
1004.243	2586.34
1004.538	2554.25
1004.832	2536.18
1005.127	2533.92
1005.421	2502.96
1005.715	2483.97
1006.009	2509.74
1006.304	2424.54
1006.598	2408.72
1006.892	2440.36
1007.186	2427.25
1007.48	2393.81
1007.773	2377.99
1008.067	2427.03
1008.361	2352.45
1008.655	2351.32
1008.948	2352.23
1009.242	2312.45
1009.535	2300.93
1009.829	2324.43
1010.122	2265.22
1010.415	2244.88
1010.708	2251.89
1011.001	2230.65
1011.295	2243.53
1011.588	2214.6
1011.881	2180.48
1012.173	2209.86
1012.466	2169.63
1012.759	2170.54
1013.052	2158.33
1013.344	2132.12
1013.637	2117.43
1013.93	2120.14
1014.222	2068.62
1014.514	2073.82
1014.807	2065.68
1015.099	2050.09
1015.391	2060.26
1015.683	2033.59
1015.976	2027.26
1016.268	1989.3
1016.56	1975.29
1016.851	1950.65
1017.143	1940.49
1017.435	1946.36
1017.727	1935.74
1018.018	1895.29
1018.31	1895.06
1018.602	1878.57
1018.893	1883.54
1019.185	1862.07
1019.476	1838.57
1019.767	1868.4
1020.058	1855.97
1020.35	1808.51
1020.641	1790.89
1020.932	1815.74
1021.223	1807.16
1021.514	1774.84
1021.804	1756.31
1022.095	1746.37
1022.386	1733.03
1022.677	1730.55
1022.967	1704.79
1023.258	1718.12
1023.548	1676.76
1023.839	1687.61
1024.129	1647.39
1024.419	1648.74
1024.709	1633.15
1025	1620.04
1025.29	1604.9
1025.58	1606.26
1025.87	1590.21
1026.16	1597.44
1026.449	1551.34
1026.739	1539.14
1027.029	1542.3
1027.319	1545.24
1027.608	1521.29
1027.898	1535.07
1028.187	1514.28
1028.477	1516.09
1028.766	1489.42
1029.055	1487.84
1029.344	1465.24
1029.634	1452.59
1029.923	1448.52
1030.212	1434.96
1030.501	1436.54
1030.79	1412.82
1031.078	1415.75
1031.367	1394.96
1031.656	1376.66
1031.945	1363.33
1032.233	1350.9
1032.522	1369.65
1032.81	1366.04
1033.099	1342.76
1033.387	1306.6
1033.675	1328.07
1033.963	1291.01
1034.251	1302.54
1034.54	1283.78
1034.828	1275.64
1035.116	1285.81
1035.403	1309.09
1035.691	1244.91
1035.979	1264.8
1036.267	1237.91
1036.554	1251.01
1036.842	1230.9
1037.129	1222.54
1037.417	1218.7
1037.704	1180.96
1037.992	1182.77
1038.279	1180.05
1038.566	1163.11
1038.853	1163.11
1039.14	1163.11
