Data from whiteboard_FLMS001491_00027.txt Node
Date: Wed Feb 08 11:25:50 GMT 2017
User: dcchb
Spectrometer: FLMS00149
Trigger mode: 0
Integration Time (sec): 2.000000E-2
Scans to average: 10
Electric dark correction enabled: true
Nonlinearity correction enabled: false
Boxcar width: 0
XAxis mode: Wavelengths
Number of Pixels in Spectrum: 2048
>>>>>Begin Spectral Data<<<<<
341.393	-13.8
341.776	-13.8
342.16	-13.8
342.543	-59.9
342.927	-51.76
343.31	-70.52
343.693	-68.94
344.077	-48.15
344.46	-65.55
344.843	-57.87
345.226	-39.11
345.61	-17.19
345.993	-33.01
346.376	-11.77
346.759	6.31
347.142	18.97
347.525	53.54
347.908	50.61
348.291	82.7
348.674	91.28
349.057	108.68
349.44	123.37
349.823	147.55
350.206	178.96
350.588	243.37
350.971	253.09
351.354	253.99
351.737	267.78
352.119	293.31
352.502	303.25
352.884	317.27
353.267	308
353.65	323.14
354.032	332.18
354.414	340.32
354.797	340.09
355.179	374.67
355.562	365.17
355.944	364.04
356.326	385.51
356.709	373.76
357.091	387.55
357.473	383.93
357.855	384.16
358.238	389.35
358.62	363.14
359.002	372.18
359.384	378.06
359.766	367.43
360.148	356.59
360.53	378.73
360.912	362.01
361.294	387.55
361.676	353.65
362.057	364.72
362.439	380.09
362.821	361.78
363.203	364.5
363.584	371.95
363.966	387.32
364.348	389.13
364.729	380.54
365.111	390.03
365.493	383.25
365.874	373.99
366.256	347.55
366.637	381.9
367.019	367.43
367.4	382.12
367.781	398.17
368.163	383.48
368.544	377.6
368.925	387.09
369.306	377.83
369.688	379.41
370.069	383.48
370.45	396.36
370.831	377.15
371.212	374.21
371.593	401.56
371.974	381.9
372.355	360.88
372.736	391.16
373.117	398.17
373.498	400.88
373.879	381.44
374.26	386.64
374.641	406.3
375.021	357.49
375.402	406.98
375.783	392.97
376.163	437.49
376.544	436.36
376.925	437.04
377.305	432.74
377.686	422.35
378.066	435.68
378.447	417.6
378.827	431.61
379.208	457.83
379.588	409.69
379.968	443.14
380.349	435
380.729	437.71
381.109	437.04
381.489	435.68
381.87	481.56
382.25	444.04
382.63	472.06
383.01	470.48
383.39	470.03
383.77	453.31
384.15	482.01
384.53	494.44
384.91	479.97
385.29	482.91
385.67	483.36
386.049	503.02
386.429	483.59
386.809	513.19
387.189	508.67
387.568	535.57
387.948	522.23
388.328	535.34
388.707	523.59
389.087	533.31
389.466	546.64
389.846	551.61
390.225	565.39
390.605	561.1
390.984	553.87
391.363	567.43
391.743	580.54
392.122	587.77
392.501	598.61
392.881	602.91
393.26	594.32
393.639	620.53
394.018	641.55
394.397	660.76
394.776	641.1
395.155	646.3
395.534	636.58
395.913	653.98
396.292	662.12
396.671	667.54
397.05	684.94
397.429	699.85
397.808	691.95
398.186	709.12
398.565	698.72
398.944	727.65
399.323	746.63
399.701	761.32
400.08	773.75
400.458	767.42
400.837	791.38
401.215	740.53
401.594	823.69
401.972	787.54
402.351	836.8
402.729	833.41
403.107	832.73
403.486	863.01
403.864	885.16
404.242	892.84
404.62	914.31
404.999	948.44
405.377	954.76
405.755	964.25
406.133	977.59
406.511	981.43
406.889	1002.22
407.267	1035.89
407.645	1065.72
408.023	1062.78
408.401	1078.38
408.779	1085.61
409.156	1106.62
409.534	1131.93
409.912	1149.56
410.29	1179.84
410.667	1177.81
411.045	1212.84
411.422	1244.7
411.8	1254.19
412.178	1276.11
412.555	1303
412.933	1307.3
413.31	1363.57
413.687	1349.1
414.065	1379.16
414.442	1425.26
414.819	1441.3
415.197	1481.98
415.574	1493.28
415.951	1479.49
416.328	1547.52
416.705	1549.32
417.082	1553.39
417.46	1573.73
417.837	1597.01
418.214	1606.5
418.591	1667.74
418.967	1658.47
419.344	1677.23
419.721	1689.21
420.098	1696.21
420.475	1743.67
420.852	1764.91
421.228	1788.64
421.605	1776.44
421.982	1813.72
422.358	1852.59
422.735	1877.68
423.111	1898.69
423.488	1948.64
423.864	1919.26
424.241	1962.65
424.617	1978.24
424.994	1973.72
425.37	2015.53
425.746	2033.83
426.123	2059.82
426.499	2051.23
426.875	2079.48
427.251	2138.23
427.627	2210.78
428.003	2228.4
428.379	2245.58
428.756	2293.71
429.132	2315.18
429.507	2323.31
429.883	2384.78
430.259	2434.27
430.635	2458
431.011	2478.11
431.387	2522.41
431.763	2586.36
432.138	2585.23
432.514	2604.44
432.89	2615.74
433.265	2715.17
433.641	2771.89
434.016	2794.49
434.392	2831.32
434.767	2864.09
435.143	2855.96
435.518	2928.04
435.894	2952.22
436.269	2991.32
436.644	3031.09
437.02	3093.92
437.395	3113.12
437.77	3106.34
438.145	3191.09
438.52	3204.65
438.895	3229.73
439.271	3277.87
439.646	3287.13
440.021	3376.62
440.395	3368.48
440.77	3348.37
441.145	3385.66
441.52	3436.51
441.895	3475.83
442.27	3505.66
442.645	3547.46
443.019	3576.39
443.394	3608.48
443.769	3617.97
444.143	3639.66
444.518	3678.31
444.892	3733.22
445.267	3732.54
445.641	3747.46
446.016	3761.47
446.39	3802.82
446.764	3866.32
447.139	3849.38
447.513	3862.48
447.887	3930.5
448.262	3915.82
448.636	3959.88
449.01	4056.6
449.384	4092.08
449.758	4081.01
450.132	4191.06
450.506	4201.23
450.88	4260.89
451.254	4230.16
451.628	4315.13
452.002	4349.25
452.376	4379.98
452.75	4452.52
453.123	4492.52
453.497	4538.4
453.871	4532.75
454.244	4684.83
454.618	4728.22
454.992	4773.65
455.365	4743.14
455.739	4876.69
456.112	4936.81
456.486	5002.79
456.859	5025.62
457.232	5104.48
457.606	5158.27
457.979	5218.83
458.352	5303.12
458.725	5413.4
459.099	5415.89
459.472	5605.94
459.845	5655.88
460.218	5668.76
460.591	5755.54
460.964	5780.62
461.337	5921.64
461.71	6000.51
462.083	6092.71
462.456	6137.9
462.829	6154.85
463.201	6256.54
463.574	6343.77
463.947	6368.86
464.32	6536.31
464.692	6588.51
465.065	6651.79
465.438	6723.88
465.81	6831.44
466.183	6878.22
466.555	7061.72
466.928	7092.45
467.3	7038.9
467.672	7206.58
468.045	7407.47
468.417	7429.17
468.789	7461.94
469.161	7618.77
469.534	7672.78
469.906	7890.4
470.278	7939.89
470.65	8067.8
471.022	8186.21
471.394	8393.21
471.766	8473.21
472.138	8580.78
472.51	8802.01
472.882	8895.35
473.253	8986.87
473.625	9159.97
473.997	9343.69
474.369	9431.6
474.74	9555.67
475.112	9703.91
475.484	9937.13
475.855	10060.06
476.227	10138.02
476.598	10480.84
476.97	10551.57
477.341	10867.72
477.713	10898.68
478.084	10990.88
478.455	11374.83
478.827	11340.25
479.198	11754.93
479.569	11817.53
479.94	12106.79
480.311	12172.77
480.682	12500.67
481.053	12732.76
481.424	12877.16
481.795	13127.32
482.166	13323.48
482.537	13503.36
482.908	13722.34
483.279	13884.37
483.65	14183.34
484.021	14430.79
484.391	14577
484.762	14687.06
485.133	14871.69
485.503	15201.62
485.874	15480.03
486.244	15643.42
486.615	15895.16
486.985	16156.85
487.356	16435.94
487.726	16567.01
488.097	16898.98
488.467	16990.5
488.837	17347.1
489.207	17604.95
489.578	17881.78
489.948	17992.51
490.318	18264.82
490.688	18322.44
491.058	18661.42
491.428	18994.29
491.798	19076.32
492.168	19559.02
492.538	19605.12
492.908	19777.32
493.278	19991.1
493.648	20098.89
494.017	20334.59
494.387	20437.64
494.757	20782.04
495.126	20901.81
495.496	20985.42
495.866	21135.02
496.235	21330.5
496.605	21527.1
496.974	21689.36
497.344	21845.74
497.713	22070.37
498.082	22199.18
498.452	22481.2
498.821	22548.55
499.19	22606.4
499.559	22865.37
499.928	23065.59
500.298	23143.78
500.667	23469.88
501.036	23382.42
501.405	23811.79
501.774	23707.61
502.143	24018.79
502.512	24141.27
502.88	24392.34
503.249	24342.4
503.618	24728.38
503.987	24827.36
504.356	24945.54
504.724	25138.99
505.093	25326.1
505.462	25480.45
505.83	25578.52
506.199	25798.63
506.567	26329.69
506.936	26138.06
507.304	26528.55
507.672	26662.34
508.041	26703.01
508.409	26960.18
508.777	27168.31
509.145	27329.44
509.514	27291.92
509.882	27535.53
510.25	27855.07
510.618	27891.68
510.986	27999.7
511.354	28329.18
511.722	28506.81
512.09	28867.25
512.458	28679.68
512.826	29020.47
513.193	29267.24
513.561	29269.05
513.929	29512.2
514.297	29805.98
514.664	30101.79
515.032	30018.18
515.4	30515.79
515.767	30639.63
516.135	30624.27
516.502	30644.15
516.869	31241.88
517.237	31337.02
517.604	31356
517.972	31746.72
518.339	32015.42
518.706	32169.99
519.073	32257.22
519.44	32543.31
519.808	32935.17
520.175	33003.64
520.542	33505.77
520.909	33599.78
521.276	33615.83
521.643	34066.43
522.009	34190.27
522.376	34574.9
522.743	34816.02
523.11	35167.65
523.477	35378.26
523.843	35775.32
524.21	35976.89
524.577	36430.21
524.943	36423.66
525.31	36679.7
525.676	37055.28
526.043	37302.51
526.409	37264.99
526.776	37744.98
527.142	37900.23
527.508	38033.34
527.874	38248.47
528.241	38454.79
528.607	38663.15
528.973	38991.73
529.339	38990.83
529.705	39363.24
530.071	39672.84
530.437	39667.19
530.803	40025.37
531.169	40368.87
531.535	40290.23
531.901	40386.04
532.267	40584.46
532.632	40942.86
532.998	41116.87
533.364	41195.74
533.73	41409.97
534.095	41706.23
534.461	41815.84
534.826	42003.85
535.192	42068.71
535.557	42564.74
535.923	42504.18
536.288	42640.22
536.653	42879.99
537.019	43030.49
537.384	43230.94
537.749	43381.44
538.114	43505.73
538.479	43651.49
538.845	43948.21
539.21	43973.07
539.575	44121.99
539.94	44253.29
540.305	44570.11
540.67	44380.74
541.034	44702.54
541.399	44948.63
541.764	45012.81
542.129	45206.93
542.494	45101.62
542.858	45395.85
543.223	45455.97
543.587	45607.37
543.952	45624.1
544.316	45957.42
544.681	45764.43
545.045	46082.16
545.41	46279
545.774	46434.25
546.138	46488.48
546.503	46534.13
546.867	46540.23
547.231	47054.57
547.595	46899.09
547.959	47161.23
548.324	47051.4
548.688	47212.08
549.052	47470.83
549.416	47529.36
549.779	47618.39
550.143	47691.39
550.507	47856.13
550.871	48124.6
551.235	48115.33
551.599	48420.41
551.962	48513.51
552.326	48637.13
552.689	49051.13
553.053	48823.79
553.417	48866.27
553.78	49349.2
554.143	49108.75
554.507	49454.28
554.87	49579.02
555.234	49789.19
555.597	49780.6
555.96	49975.17
556.323	50052.46
556.686	50190.53
557.05	50376.06
557.413	50462.61
557.776	50592.1
558.139	50765.2
558.502	50805.43
558.865	50923.39
559.228	51317.96
559.59	51247.23
559.953	51361.57
560.316	51649.48
560.679	51629.59
561.041	51856.48
561.404	51961.56
561.767	51996.13
562.129	52094.21
562.492	52540.53
562.854	52469.79
563.217	52421.88
563.579	52680.18
563.941	52789.78
564.304	52890.57
564.666	53148.42
565.028	53177.8
565.39	53238.59
565.753	53426.15
566.115	53569.2
566.477	53655.75
566.839	53687.61
567.201	54065.46
567.563	53966.25
567.925	54177.77
568.287	54222.06
568.648	54349.74
569.01	54445.56
569.372	54691.2
569.734	54540.47
570.095	54828.83
570.457	54889.39
570.819	54988.82
571.18	54935.04
571.542	55185.43
571.903	55296.61
572.265	55313.33
572.626	55410.05
572.987	55471.75
573.349	55501.35
573.71	55527.34
574.071	55631.97
574.432	55763.94
574.794	55935.01
575.155	55916.26
575.516	55857.05
575.877	56117.61
576.238	56026.76
576.599	56098.62
576.96	56166.87
577.32	56276.47
577.681	56247.55
578.042	56386.3
578.403	56385.62
578.763	56412.51
579.124	56425.62
579.485	56563.92
579.845	56662.9
580.206	56499.74
580.566	56542.68
580.927	56570.48
581.287	56711.72
581.648	56609.8
582.008	56700.19
582.368	56685.5
582.728	56706.29
583.089	56690.02
583.449	56697.25
583.809	56719.4
584.169	56770.24
584.529	56716.91
584.889	56995.1
585.249	56808.21
585.609	56768.89
585.969	56881.88
586.329	56743.13
586.688	56874.87
587.048	56919.62
587.408	56785.16
587.768	56824.25
588.127	56814.76
588.487	56746.97
588.846	56979.5
589.206	56785.39
589.565	56868.32
589.925	56972.95
590.284	56970.24
590.643	56927.98
591.003	57026.51
591.362	57113.06
591.721	56970.24
592.08	57025.15
592.44	57145.38
592.799	57071.48
593.158	57027.64
593.517	57085.49
593.876	57102.44
594.235	57035.77
594.593	57106.05
594.952	57159.84
595.311	57099.5
595.67	57176.79
596.029	57260.4
596.387	57293.17
596.746	57367.29
597.104	57254.07
597.463	57231.25
597.822	57290.91
598.18	57273.96
598.538	57231.93
598.897	57405.26
599.255	57207.52
599.613	57576.1
599.972	57335.43
600.33	57475.31
600.688	57315.99
601.046	57362.77
601.404	57439.61
601.762	57471.7
602.12	57497.68
602.478	57494.29
602.836	57426.27
603.194	57324.58
603.552	57355.09
603.91	57356.9
604.268	57458.14
604.625	57320.29
604.983	57464.69
605.341	57267.18
605.698	57472.82
606.056	57591.69
606.413	57506.5
606.771	57582.65
607.128	57637.34
607.485	57501.98
607.843	57536.33
608.2	57626.27
608.557	57704.01
608.914	57624.91
609.272	57798.24
609.629	57777.68
609.986	57924.56
610.343	57802.31
610.7	57965.24
611.057	57960.5
611.414	57951
611.771	57942.19
612.127	58027.61
612.484	58092.47
612.841	58097.22
613.198	58065.13
613.554	58080.04
613.911	58234.84
614.267	58150.1
614.624	58136.31
614.98	58283.2
615.337	58336.98
615.693	58230.09
616.05	58254.5
616.406	58408.39
616.762	58374.95
617.118	58348.06
617.475	58397.55
617.831	58495.17
618.187	58497.88
618.543	58501.5
618.899	58716.41
619.255	58567.03
619.611	58526.36
619.967	58636.41
620.323	58721.61
620.678	58575.62
621.034	58534.04
621.39	58548.28
621.746	58462.4
622.101	58775.39
622.457	58481.84
622.812	58595.51
623.168	58693.36
623.523	58679.35
623.879	58731.32
624.234	58527.26
624.589	58576.75
624.945	58665.11
625.3	58578.78
625.655	58576.07
626.01	58562.29
626.365	58549.41
626.72	58513.93
627.075	58393.03
627.43	58468.51
627.785	58340.6
628.14	58435.51
628.495	58427.38
628.85	58370.2
629.205	58287.49
629.559	58417.21
629.914	58325.68
630.269	58322.07
630.623	58152.81
630.978	58135.18
631.332	58273.71
631.687	58254.05
632.041	58172.69
632.396	58234.39
632.75	58044.79
633.104	58173.37
633.459	58008.63
633.813	57995.98
634.167	57959.14
634.521	58017.67
634.875	57979.25
635.229	57986.26
635.583	57877.11
635.937	57905.81
636.291	57919.37
636.645	57994.62
636.999	57855.41
637.352	57896.99
637.706	57718.92
638.06	57853.15
638.413	57785.13
638.767	57798.92
639.121	57825.81
639.474	57630.56
639.828	57669.88
640.181	57711.46
640.534	57677.57
640.888	57654.29
641.241	57502.88
641.594	57578.13
641.947	57723.21
642.301	57603.44
642.654	57581.3
643.007	57621.07
643.36	57529.77
643.713	57557.12
644.066	57694.29
644.419	57429.89
644.771	57295.43
645.124	57068.09
645.477	56948.09
645.83	56801.66
646.182	56739.51
646.535	56610.93
646.888	56648.21
647.24	56492.06
647.593	56637.82
647.945	56556.69
648.298	56351.5
648.65	56400.54
649.002	56269.92
649.355	56376.36
649.707	56387.43
650.059	56484.15
650.411	56770.02
650.763	56766.85
651.115	57043.91
651.467	56885.5
651.819	56818.38
652.171	56745.61
652.523	56749.23
652.875	56764.37
653.227	56619.97
653.578	56732.28
653.93	56695.44
654.282	56504.26
654.633	56402.34
654.985	56443.93
655.337	56412.29
655.688	56499.52
656.039	56508.33
656.391	56218.62
656.742	56327.77
657.094	56317.15
657.445	56384.49
657.796	56342.91
658.147	56285.96
658.498	56233.76
658.849	56304.72
659.2	56197.15
659.551	56103.37
659.902	56222.69
660.253	56161.9
660.604	56187.21
660.955	55979.98
661.306	56142.01
661.656	56062.01
662.007	56096.14
662.358	56048.68
662.708	56069.7
663.059	56057.95
663.409	55852.53
663.76	56025.41
664.11	56053.88
664.461	56053.65
664.811	55982.69
665.161	55947.89
665.511	55911.51
665.862	56023.82
666.212	56045.29
666.562	56067.89
666.912	55992.41
667.262	56014.56
667.612	55988.34
667.962	56097.04
668.312	56030.38
668.662	56036.03
669.011	56015.24
669.361	55936.59
669.711	55894.11
670.06	55891.62
670.41	55868.35
670.76	55812.08
671.109	55921.23
671.459	55830.83
671.808	55741.35
672.157	55756.26
672.507	55638.52
672.856	55587.9
673.205	55648.92
673.554	55731.4
673.904	55666.09
674.253	55759.42
674.602	55662.48
674.951	55211.64
675.3	55034.92
675.649	55541.8
675.998	55445.76
676.346	55483.95
676.695	55554.68
677.044	55312.2
677.393	55408.25
677.741	55448.7
678.09	55329.15
678.438	55201.02
678.787	55229.49
679.135	55258.19
679.484	55053.68
679.832	55102.27
680.181	54942.04
680.529	55089.84
680.877	54859.79
681.225	54893.23
681.573	55009.61
681.922	54740.02
682.27	54693.01
682.618	54704.31
682.966	54629.96
683.314	54663.86
683.661	54649.4
684.009	54449.4
684.357	54429.06
684.705	54353.13
685.053	54304.32
685.4	54252.34
685.748	54115.85
686.095	54127.15
686.443	54069.98
686.79	53947.04
687.138	53911.79
687.485	54001.5
687.832	53759.25
688.18	53852.13
688.527	53712.7
688.874	53692.59
689.221	53620.5
689.568	53526.26
689.915	53422.76
690.262	53523.32
690.609	53299.15
690.956	53303.22
691.303	53219.6
691.65	53001.76
691.997	53008.99
692.344	52804.25
692.69	52876.34
693.037	52974.86
693.383	52609.22
693.73	52805.83
694.077	52620.75
694.423	52532.16
694.769	52444.03
695.116	52414.65
695.462	52392.51
695.808	52273.87
696.155	52256.69
696.501	51995.23
696.847	52039.07
697.193	51777.83
697.539	51954.78
697.885	51609.02
698.231	51655.35
698.577	51718.17
698.923	51636.14
699.269	51423.72
699.614	51311.63
699.96	51174.23
700.306	51285.64
700.651	51145.53
700.997	50948.02
701.342	50887.24
701.688	50893.34
702.033	50789.38
702.379	50725.21
702.724	50662.61
703.069	50691.08
703.415	50300.81
703.76	50252.9
704.105	50320.92
704.45	50190.53
704.795	49995.73
705.14	49877.77
705.485	49889.07
705.83	49683.65
706.175	49688.4
706.52	49603.2
706.865	49491.34
707.209	49400.49
707.554	49346.94
707.899	49264.91
708.243	49109.88
708.588	48961.18
708.932	48788.99
709.277	48731.36
709.621	48814.07
709.966	48594.64
710.31	48545.38
710.654	48210.02
710.998	48319.17
711.342	48284.59
711.687	48118.95
712.031	47939.52
712.375	47808.45
712.719	47836.69
713.063	47738.39
713.407	47753.98
713.75	47562.13
714.094	47535.23
714.438	47181.8
714.782	47329.81
715.125	47184.28
715.469	47196.94
715.812	47010.28
716.156	46709.49
716.499	46793.78
716.843	46723.05
717.186	46477.18
717.53	46762.6
717.873	46469.05
718.216	46506.11
718.559	46434.25
718.902	46067.02
719.246	46163.07
719.589	46030.41
719.932	45847.14
720.275	45892.79
720.617	45813.02
720.96	45698.45
721.303	45592.23
721.646	45689.41
721.989	45399.92
722.331	45593.36
722.674	45414.61
723.016	45367.61
723.359	45205.58
723.701	45315.18
724.044	45198.35
724.386	44893.04
724.729	45072.7
725.071	44880.16
725.413	44826.83
725.755	44768.98
726.097	44599.72
726.439	44390.01
726.782	44443.11
727.124	44665.25
727.465	44391.36
727.807	44352.27
728.149	44078.83
728.491	44187.75
728.833	44303.91
729.175	44050.13
729.516	43885.61
729.858	43976
730.199	44001.54
730.541	43836.35
730.882	43919.28
731.224	43917.93
731.565	43596.81
731.906	43736.01
732.248	43698.05
732.589	43592.51
732.93	43495.11
733.271	43479.97
733.612	43586.86
733.953	43472.06
734.294	43335.34
734.635	43320.43
734.976	43334.89
735.317	43164.5
735.658	42978.97
735.999	43039.53
736.339	43009.93
736.68	43003.37
737.021	42808.58
737.361	42650.84
737.702	42867.79
738.042	42716.6
738.383	42527.91
738.723	42763.61
739.063	42509.6
739.404	42477.74
739.744	42283.85
740.084	42235.94
740.424	42186.45
740.764	42117.97
741.104	42188.93
741.444	41968.6
741.784	41823.97
742.124	41792.11
742.464	41717.98
742.804	41645.44
743.143	41750.53
743.483	41531.78
743.823	41228.28
744.162	41277.54
744.502	41332.68
744.841	41119.58
745.181	41226.92
745.52	41006.14
745.86	41000.94
746.199	40840.72
746.538	40840.95
746.877	40830.1
747.216	40782.42
747.556	40609.77
747.895	40493.16
748.234	40354.63
748.573	40341.98
748.911	40317.12
749.25	40266.27
749.589	40031.93
749.928	40141.53
750.267	40015.2
750.605	39786.96
750.944	39749.9
751.283	39493.64
751.621	39506.52
751.96	39391.72
752.298	39337.03
752.636	39380.19
752.975	39146.3
753.313	39065.85
753.651	39096.13
753.989	38842.13
754.327	38875.8
754.666	38619.08
755.004	38684.84
755.342	38734.56
755.679	38526.66
756.017	38501.35
756.355	38526.66
756.693	38233.78
757.031	38204.63
757.368	38150.62
757.706	38085.54
758.044	37837.64
758.381	38046.67
758.719	37851.19
759.056	37803.96
759.394	37730.29
759.731	37306.35
760.068	37461.83
760.405	37211.66
760.743	37301.15
761.08	37257.09
761.417	37090.99
761.754	36923.53
762.091	36863.88
762.428	36763.76
762.765	36607.61
763.102	36662.3
763.438	36582.07
763.775	36309.99
764.112	36480.83
764.449	36370.33
764.785	36259.82
765.122	35909.1
765.458	35867.52
765.795	35659.61
766.131	35711.82
766.467	35624.59
766.804	35423.24
767.14	35347.98
767.476	35240.19
767.812	35245.84
768.148	35178.95
768.485	34898.5
768.821	34927.43
769.157	34786.64
769.492	34831.61
769.828	34649.92
770.164	34317.73
770.5	34332.64
770.836	34323.15
771.171	34076.6
771.507	33940.56
771.842	33798.19
772.178	33799.32
772.513	33673.22
772.849	33650.4
773.184	33457.19
773.519	33506.22
773.855	33226
774.19	33162.5
774.525	32969.06
774.86	33062.39
775.195	32909.63
775.53	32718.67
775.865	32437.1
776.2	32233.04
776.535	32023.55
776.87	32005.92
777.205	31981.52
777.539	31819.04
777.874	31898.36
778.209	31560.29
778.543	31524.35
778.878	31147.42
779.212	31259.05
779.547	31103.57
779.881	31030.36
780.215	30804.6
780.55	30810.48
780.884	30737.93
781.218	30650.93
781.552	30521.22
781.886	30222.69
782.22	30055.24
782.554	30078.07
782.888	29720.79
783.222	29600.79
783.556	29515.14
783.889	29434.69
784.223	29221.36
784.557	29135.26
784.89	29196.28
785.224	29036.96
785.557	28971.88
785.891	28808.27
786.224	28697.76
786.558	28633.13
786.891	28371.22
787.224	28222.97
787.557	28148.62
787.891	28061.85
788.224	28107.27
788.557	27988.4
788.89	27853.72
789.223	27956.31
789.556	27680.16
789.888	27499.15
790.221	27382.09
790.554	27301.19
790.887	27278.14
791.219	27249.89
791.552	27168.31
791.884	26922.89
792.217	26794.99
792.549	26764.48
792.882	26619.17
793.214	26481.32
793.546	26587.99
793.879	26344.83
794.211	26168.34
794.543	26344.38
794.875	26082.01
795.207	26218.28
795.539	26088.79
795.871	26009.02
796.203	25878.4
796.535	25653.1
796.867	25548.69
797.198	25466.66
797.53	25548.47
797.862	25469.82
798.193	25352.99
798.525	25279.1
798.856	25359.32
799.188	25066.45
799.519	24946.9
799.85	24922.49
800.182	24912.33
800.513	24899.67
800.844	24722.27
801.175	24847.24
801.506	24748.94
801.837	24665.55
802.168	24614.25
802.499	24499.91
802.83	24343.98
803.161	24343.98
803.491	24290.87
803.822	24363.19
804.153	24186.69
804.483	24083.42
804.814	23908.74
805.145	23880.26
805.475	23839.59
805.805	23802.75
806.136	23943.09
806.466	23936.53
806.796	23745.35
807.126	23630.78
807.457	23558.69
807.787	23531.8
808.117	23447.96
808.447	23499.48
808.777	23383.55
809.107	23275.98
809.436	23256.55
809.766	23241.86
810.096	23089.77
810.426	23013.62
810.755	23044.13
811.085	22997.57
811.414	22904.69
811.744	22795.32
812.073	22683.01
812.403	22702.21
812.732	22521.2
813.061	22518.49
813.39	22461.32
813.719	22356.23
814.049	22537.7
814.378	22350.58
814.707	22263.81
815.036	22212.51
815.365	22106.3
815.693	22023.36
816.022	22001.67
816.351	21868.11
816.68	21832.41
817.008	21902.91
817.337	21754.44
817.665	21600.55
817.994	21633.09
818.322	21604.84
818.651	21495.01
818.979	21371.4
819.307	21538.85
819.636	21468.8
819.964	21249.37
820.292	21269.94
820.62	21195.36
820.948	21168.69
821.276	21278.75
821.604	21129.83
821.932	21214.57
822.259	21171.18
822.587	21078.08
822.915	21001.02
823.243	21207.79
823.57	21024.97
823.898	21055.48
824.225	20908.14
824.553	20980
824.88	21031.75
825.207	21009.6
825.535	20851.87
825.862	21064.06
826.189	20810.74
826.516	20919.21
826.843	21014.57
827.17	20887.57
827.497	20926.89
827.824	20850.51
828.151	20785.2
828.478	20712.89
828.805	20766.9
829.131	20733.68
829.458	20729.38
829.785	20574.13
830.111	20672.66
830.438	20743.85
830.764	20629.27
831.09	20745.43
831.417	20466.79
831.743	20570.97
832.069	20639.22
832.395	20430.41
832.722	20598.09
833.048	20439.9
833.374	20439.67
833.7	20402.16
834.026	20452.56
834.351	20374.59
834.677	20353.35
835.003	20471.31
835.329	20359.9
835.654	20338.66
835.98	20229.96
836.306	20264.31
836.631	20246.91
836.956	20262.73
837.282	20241.26
837.607	20097.99
837.932	20138.21
838.258	20115.62
838.583	20003.53
838.908	20042.85
839.233	20019.8
839.558	20027.71
839.883	19940.25
840.208	19889.18
840.533	19905.23
840.858	19864.55
841.182	19914.94
841.507	19838.11
841.832	19785.68
842.156	19820.26
842.481	19853.25
842.805	19622.29
843.13	19678.11
843.454	19619.13
843.778	19632.92
844.103	19578
844.427	19571.9
844.751	19510.66
845.075	19525.57
845.399	19467.04
845.723	19329.65
846.047	19340.49
846.371	19305.69
846.695	19179.82
847.019	19091.91
847.343	19031.35
847.666	18954.06
847.99	18895.53
848.313	18846.5
848.637	18712.04
848.96	18727.86
849.284	18687.18
849.607	18578.25
849.931	18532.15
850.254	18403.8
850.577	18365.15
850.9	18188.21
851.223	18222.56
851.546	18133.07
851.869	18008.33
852.192	18115.22
852.515	17945.28
852.838	17879.06
853.161	17824.83
853.483	17711.61
853.806	17730.82
854.129	17636.13
854.451	17533.54
854.774	17550.03
855.096	17466.87
855.419	17447.66
855.741	17310.49
856.063	17235.24
856.385	17145.52
856.708	17180.1
857.03	17128.12
857.352	17142.59
857.674	17013.1
857.996	17047.22
858.318	16872.76
858.64	16948.47
858.961	16752.99
859.283	16740.56
859.605	16678.19
859.926	16671.64
860.248	16659.66
860.57	16578.08
860.891	16451.53
861.212	16493.34
861.534	16382.38
861.855	16360.23
862.176	16432.32
862.498	16326.34
862.819	16360.23
863.14	16234.81
863.461	16126.79
863.782	16171.54
864.103	16093.12
864.424	16053.58
864.745	16085.66
865.065	15955.72
865.386	15909.62
865.707	15931.32
866.027	15782.17
866.348	15842.96
866.668	15874.82
866.989	15763.19
867.309	15591.89
867.63	15720.93
867.95	15611.78
868.27	15580.14
868.59	15594.6
868.91	15469.41
869.23	15562.06
869.55	15468.96
869.87	15487.49
870.19	15478.45
870.51	15417.66
870.83	15459.69
871.15	15278.91
871.469	15242.07
871.789	15289.53
872.109	15277.78
872.428	15193.03
872.748	15117.55
873.067	15122.75
873.386	15214.73
873.706	15057.22
874.025	15018.8
874.344	14991.46
874.663	15019.48
874.982	14956.88
875.301	15002.98
875.62	14969.31
875.939	14907.16
876.258	14847.05
876.577	14777
876.896	14805.02
877.214	14792.37
877.533	14789.43
877.852	14763.67
878.17	14714.85
878.489	14611.81
878.807	14624.46
879.125	14590.11
879.444	14657.45
879.762	14555.31
880.08	14546.5
880.398	14472.83
880.716	14489.32
881.034	14419.49
881.352	14416.33
881.67	14415.65
881.988	14448.42
882.306	14325.26
882.624	14315.09
882.941	14159.61
883.259	14194.41
883.577	14200.06
883.894	14171.82
884.212	14130.24
884.529	14113.74
884.846	14120.07
885.164	14090.24
885.481	14044.81
885.798	14091.82
886.115	13987.87
886.432	13921.43
886.75	13898.38
887.067	13908.55
887.383	13836.23
887.7	13854.08
888.017	13862.67
888.334	13840.98
888.651	13774.99
888.967	13788.1
889.284	13739.51
889.6	13681.66
889.917	13564.37
890.233	13551.49
890.55	13444.83
890.866	13602.34
891.182	13560.31
891.498	13530.93
891.815	13460.65
892.131	13395.57
892.447	13365.28
892.763	13295.23
893.079	13335.91
893.395	13329.35
893.71	13223.59
894.026	13223.37
894.342	13184.5
894.657	13122.35
894.973	13138.4
895.289	13050.26
895.604	12992.64
895.92	13013.88
896.235	12988.8
896.55	12964.84
896.865	12890.04
897.181	12859.76
897.496	12881.91
897.811	12754.9
898.126	12792.64
898.441	12650.27
898.756	12720.33
899.071	12600.56
899.386	12682.82
899.7	12541.13
900.015	12454.8
900.33	12368.25
900.644	12437.4
900.959	12424.97
901.273	12406.21
901.588	12214.35
901.902	12334.12
902.216	12346.33
902.531	12229.72
902.845	12202.83
903.159	12138.88
903.473	12003.51
903.787	11996.51
904.101	11901.37
904.415	11975.94
904.729	11931.88
905.042	11831.77
905.356	11757.64
905.67	11785.66
905.984	11715.84
906.297	11732.11
906.611	11549.74
906.924	11589.06
907.237	11594.26
907.551	11416.41
907.864	11413.02
908.177	11454.6
908.491	11361.27
908.804	11297.77
909.117	11277.66
909.43	11200.6
909.743	11147.94
910.056	11147.26
910.368	11084.67
910.681	10982.97
910.994	10917.44
911.307	10952.47
911.619	10848.06
911.932	10895.97
912.244	10809.65
912.557	10729.42
912.869	10651.68
913.181	10639.48
913.494	10652.81
913.806	10566.26
914.118	10496.89
914.43	10422.31
914.742	10429.32
915.054	10284.46
915.366	10328.3
915.678	10226.16
915.99	10210.56
916.302	10112.94
916.613	10147.29
916.925	10059.61
917.236	10071.81
917.548	9968.99
917.859	9929.89
918.171	9898.26
918.482	9839.5
918.794	9806.06
919.105	9762.44
919.416	9675.44
919.727	9652.39
920.038	9579.17
920.349	9528.1
920.66	9487.19
920.971	9439.06
921.282	9367.88
921.593	9347.08
921.903	9203.81
922.214	9217.37
922.525	9189.57
922.835	9129.01
923.146	9159.75
923.456	9033.65
923.767	8968.34
924.077	9029.8
924.387	8932.41
924.697	8858.96
925.008	8821
925.318	8791.85
925.628	8827.78
925.938	8676.14
926.248	8596.37
926.558	8599.08
926.867	8593.43
927.177	8563.38
927.487	8535.13
927.796	8430.95
928.106	8460.1
928.416	8443.15
928.725	8307.34
929.034	8356.38
929.344	8367.9
929.653	8266.21
929.962	8129.72
930.271	8192.76
930.581	8131.52
930.89	8032.09
931.199	8019.21
931.508	8007.01
931.817	8008.81
932.125	7910.74
932.434	7900.8
932.743	7882.94
933.051	7816.96
933.36	7812.21
933.669	7770.18
933.977	7677.98
934.286	7686.79
934.594	7599.56
934.902	7566.57
935.21	7515.49
935.519	7571.99
935.827	7539
936.135	7446.34
936.443	7384.65
936.751	7379
937.059	7385.78
937.367	7331.77
937.674	7301.49
937.982	7300.58
938.29	7228.04
938.597	7257.87
938.905	7153.24
939.213	7168.16
939.52	7150.31
939.827	7125.9
940.135	7090.87
940.442	7035.51
940.749	7064.88
941.056	7024.21
941.363	7002.06
941.67	6978.11
941.977	6887.04
942.284	6842.29
942.591	6889.3
942.898	6858.56
943.205	6910.31
943.511	6821.95
943.818	6796.64
944.125	6734.27
944.431	6690.66
944.738	6748.06
945.044	6665.35
945.35	6682.97
945.657	6613.6
945.963	6592.13
946.269	6581.06
946.575	6602.07
946.881	6576.08
947.187	6510.55
947.493	6472.58
947.799	6475.07
948.105	6450.89
948.41	6388.97
948.716	6391
949.022	6315.07
949.327	6394.62
949.633	6308.97
949.938	6325.02
950.244	6265.58
950.549	6219.94
950.854	6220.16
951.16	6251.8
951.465	6207.96
951.77	6171.8
952.075	6124.12
952.38	6099.03
952.685	6134.51
952.99	6051.58
953.294	6005.03
953.599	6032.6
953.904	5956.89
954.209	5961.19
954.513	5985.14
954.818	5945.14
955.122	5907.63
955.426	5932.49
955.731	5821.08
956.035	5883.9
956.339	5804.35
956.643	5824.01
956.948	5737.91
957.252	5723.23
957.556	5748.54
957.86	5697.24
958.163	5657.92
958.467	5626.5
958.771	5615.43
959.075	5607.07
959.378	5557.13
959.682	5568.43
959.985	5556.45
960.289	5547.64
960.592	5454.08
960.896	5526.62
961.199	5431.26
961.502	5413.63
961.805	5400.75
962.108	5322.56
962.411	5392.61
962.714	5320.75
963.017	5332.05
963.32	5302.22
963.623	5310.13
963.926	5241.2
964.228	5201.21
964.531	5165.95
964.833	5167.53
965.136	5121.66
965.438	5098.16
965.741	5102.9
966.043	5114.65
966.345	5020.42
966.648	5004.15
966.95	5024.94
967.252	4988.78
967.554	4921.44
967.856	4924.83
968.158	4821.33
968.46	4797.83
968.761	4861.1
969.063	4830.37
969.365	4822.46
969.666	4776.36
969.968	4682.35
970.269	4744.04
970.571	4705.4
970.872	4676.25
971.174	4678.73
971.475	4643.48
971.776	4597.38
972.077	4575.23
972.378	4534.1
972.679	4519.42
972.98	4509.25
973.281	4493.65
973.582	4491.39
973.883	4447.78
974.183	4393.09
974.484	4384.73
974.785	4339.98
975.085	4350.38
975.386	4357.39
975.686	4299.08
975.986	4310.16
976.287	4300.66
976.587	4192.19
976.887	4180.44
977.187	4215.02
977.487	4198.97
977.787	4127.56
978.087	4112.42
978.387	4132.08
978.687	4143.61
978.987	4086.21
979.286	4103.61
979.586	4020.22
979.885	3996.04
980.185	3988.13
980.484	3927.11
980.784	3954.01
981.083	3916.72
981.382	3874.91
981.682	3877.62
981.981	3880.34
982.28	3827
982.579	3802.82
982.878	3761.47
983.177	3808.93
983.475	3765.31
983.774	3751.98
984.073	3713.33
984.372	3677.18
984.67	3663.62
984.969	3657.74
985.267	3660.68
985.566	3592.66
985.864	3587.69
986.162	3595.82
986.461	3574.36
986.759	3573.45
987.057	3542.04
987.355	3510.4
987.653	3496.84
987.951	3461.82
988.249	3393.34
988.547	3460.91
988.844	3436.28
989.142	3447.35
989.44	3411.87
989.737	3388.82
990.035	3374.36
990.332	3344.08
990.63	3310.41
990.927	3297.98
991.224	3262.5
991.521	3300.24
991.819	3262.5
992.116	3263.18
992.413	3247.36
992.71	3216.85
993.006	3204.2
993.303	3200.13
993.6	3164.2
993.897	3148.15
994.193	3114.25
994.49	3110.64
994.787	3118.55
995.083	3076.74
995.379	3104.76
995.676	3046.01
995.972	3048.72
996.268	2995.16
996.565	3032.9
996.861	3042.62
997.157	3000.81
997.453	2945.45
997.749	2954.71
998.044	2945.67
998.34	2920.36
998.636	2907.25
998.932	2912
999.227	2886.69
999.523	2839.46
999.818	2851.66
1000.114	2827.71
1000.409	2845.11
1000.704	2837.43
1001	2806.47
1001.295	2807.37
1001.59	2771.44
1001.885	2797.2
1002.18	2773.02
1002.475	2731.21
1002.77	2705.23
1003.065	2673.81
1003.359	2673.14
1003.654	2703.42
1003.949	2712.91
1004.243	2707.49
1004.538	2682.4
1004.832	2639.69
1005.127	2606.02
1005.421	2609.86
1005.715	2608.96
1006.009	2579.35
1006.304	2570.09
1006.598	2551.11
1006.892	2523.54
1007.186	2512.24
1007.48	2505.23
1007.773	2474.27
1008.067	2465.91
1008.361	2454.84
1008.655	2477.21
1008.948	2418.91
1009.242	2423.2
1009.535	2433.59
1009.829	2411.45
1010.122	2383.65
1010.415	2369.87
1010.708	2355.18
1011.001	2346.36
1011.295	2325.35
1011.588	2339.59
1011.881	2305.69
1012.173	2295.07
1012.466	2286.48
1012.759	2322.18
1013.052	2248.06
1013.344	2249.19
1013.637	2234.96
1013.93	2229.31
1014.222	2205.13
1014.514	2185.92
1014.807	2183.66
1015.099	2173.71
1015.391	2172.13
1015.683	2143.66
1015.976	2179.59
1016.268	2110.44
1016.56	2119.03
1016.851	2114.73
1017.143	2140.27
1017.435	2043.1
1017.727	2062.98
1018.018	2017.79
1018.31	2059.59
1018.602	2053.27
1018.893	1997.45
1019.185	2002.87
1019.476	1982.31
1019.767	1983.44
1020.058	1945.7
1020.35	1933.27
1020.641	1979.82
1020.932	1913.83
1021.223	1915.42
1021.514	1899.37
1021.804	1864.12
1022.095	1884
1022.386	1814.18
1022.677	1830.67
1022.967	1835.64
1023.258	1798.13
1023.548	1819.15
1023.839	1779.83
1024.129	1763.78
1024.419	1759.49
1024.709	1799.03
1025	1742.54
1025.29	1700.73
1025.58	1704.12
1025.87	1672.71
1026.16	1693.5
1026.449	1681.98
1026.739	1647.17
1027.029	1640.62
1027.319	1629.55
1027.608	1600.17
1027.898	1616.21
1028.187	1594.07
1028.477	1582.09
1028.766	1572.15
1029.055	1547.52
1029.344	1563.33
1029.634	1573.96
1029.923	1528.31
1030.212	1522.43
1030.501	1543
1030.79	1516.33
1031.078	1484.01
1031.367	1482.88
1031.656	1485.14
1031.945	1457.12
1032.233	1475.43
1032.522	1424.58
1032.81	1446.73
1033.099	1419.84
1033.387	1406.95
1033.675	1376.67
1033.963	1410.57
1034.251	1378.48
1034.54	1388.2
1034.828	1364.47
1035.116	1329.44
1035.403	1306.17
1035.691	1313.17
1035.979	1309.78
1036.267	1310.91
1036.554	1270.69
1036.842	1289.67
1037.129	1270.69
1037.417	1271.82
1037.704	1258.71
1037.992	1252.83
1038.279	1244.47
1038.566	1230.01
1038.853	1230.01
1039.14	1230.01
