Data from White_reflection_standard_FLMS001491_069.txt Node
Date: Tue Feb 07 10:32:09 GMT 2017
User: dcchb
Spectrometer: FLMS00149
Trigger mode: 0
Integration Time (sec): 2.000000E-2
Scans to average: 10
Electric dark correction enabled: true
Nonlinearity correction enabled: false
Boxcar width: 0
XAxis mode: Wavelengths
Number of Pixels in Spectrum: 2048
>>>>>Begin Spectral Data<<<<<
341.393	-1
341.776	-1
342.16	-1
342.543	-48.23
342.927	-59.08
343.31	-75.13
343.693	-79.64
344.077	-66.99
344.46	-60.66
344.843	-55.46
345.226	-39.65
345.61	-25.86
345.993	-24.28
346.376	-9.82
346.759	27.7
347.142	33.57
347.525	43.06
347.908	64.08
348.291	62.27
348.674	79.22
349.057	127.58
349.44	147.92
349.823	136.62
350.206	179.78
350.588	229.05
350.971	242.38
351.354	284.64
351.737	270.63
352.119	285.32
352.502	306.11
352.884	318.54
353.267	328.71
353.65	334.13
354.032	367.35
354.414	349.27
354.797	361.02
355.179	349.04
355.562	370.96
355.944	382.72
356.326	380.68
356.709	393.79
357.091	395.37
357.473	410.51
357.855	377.52
358.238	407.57
358.62	403.28
359.002	411.42
359.384	401.7
359.766	417.07
360.148	427.01
360.53	400.79
360.912	391.08
361.294	401.25
361.676	398.53
362.057	432.88
362.439	402.6
362.821	387.91
363.203	413.68
363.584	412.77
363.966	427.01
364.348	421.13
364.729	432.43
365.111	424.07
365.493	422.94
365.874	409.38
366.256	397.63
366.637	397.63
367.019	404.86
367.4	429.72
367.781	436.05
368.163	420.46
368.544	413.68
368.925	426.1
369.306	419.55
369.688	436.5
370.069	415.71
370.45	421.81
370.831	419.33
371.212	445.77
371.593	437.63
371.974	441.25
372.355	454.8
372.736	442.15
373.117	458.42
373.498	471.08
373.879	447.35
374.26	450.06
374.641	454.8
375.021	469.95
375.402	459.55
375.783	495.71
376.163	508.36
376.544	487.8
376.925	501.36
377.305	488.02
377.686	488.93
378.066	498.19
378.447	514.69
378.827	509.27
379.208	513.79
379.588	513.56
379.968	512.88
380.349	512.2
380.729	500.68
381.109	536.84
381.489	542.26
381.87	538.19
382.25	554.69
382.63	551.07
383.01	546.33
383.39	582.94
383.77	563.95
384.15	579.09
384.53	592.88
384.91	601.24
385.29	599.89
385.67	614.57
386.049	620.68
386.429	609.15
386.809	629.49
387.189	631.3
387.568	646.44
387.948	657.74
388.328	639.43
388.707	636.95
389.087	668.13
389.466	650.73
389.846	681.69
390.225	683.27
390.605	678.53
390.984	697.51
391.363	691.41
391.743	741.8
392.122	743.61
392.501	754.46
392.881	732.54
393.26	741.35
393.639	749.26
394.018	746.1
394.397	751.07
394.776	780.67
395.155	772.31
395.534	792.87
395.913	797.39
396.292	787.45
396.671	830.16
397.05	817.51
397.429	843.27
397.808	861.8
398.186	876.71
398.565	871.97
398.944	862.03
399.323	888.47
399.701	875.36
400.08	905.19
400.458	902.93
400.837	927.56
401.215	909.03
401.594	920.1
401.972	965.98
402.351	974.79
402.729	943.83
403.107	987.67
403.486	987.9
403.864	976.37
404.242	1017.73
404.62	1034.68
404.999	1045.98
405.377	1045.52
405.755	1082.13
406.133	1068.8
406.511	1088.69
406.889	1097.95
407.267	1094.79
407.645	1139.31
408.023	1140.89
408.401	1137.72
408.779	1160.55
409.156	1179.31
409.534	1180.21
409.912	1231.06
410.29	1215.24
410.667	1262.01
411.045	1288.68
411.422	1278.96
411.8	1301.11
412.178	1326.42
412.555	1336.14
412.933	1349.24
413.31	1399.64
413.687	1404.38
414.065	1423.59
414.442	1399.41
414.819	1452.29
415.197	1462.91
415.574	1471.73
415.951	1479.64
416.328	1504.04
416.705	1535.23
417.082	1539.75
417.46	1539.3
417.837	1570.03
418.214	1580.88
418.591	1607.77
418.967	1639.63
419.344	1645.73
419.721	1674.43
420.098	1665.62
420.475	1691.83
420.852	1718.5
421.228	1732.96
421.605	1701.1
421.982	1782.45
422.358	1798.95
422.735	1803.92
423.111	1830.36
423.488	1843.47
423.864	1851.6
424.241	1850.02
424.617	1930.25
424.994	1913.3
425.37	1928.89
425.746	1973.18
426.123	1983.58
426.499	2005.27
426.875	2032.16
427.251	2076.23
427.627	2095.89
428.003	2118.49
428.379	2167.75
428.756	2176.12
429.132	2209.33
429.507	2260.63
429.883	2297.02
430.259	2290.24
430.635	2333.85
431.011	2341.76
431.387	2448.2
431.763	2458.37
432.138	2466.5
432.514	2493.62
432.89	2555.77
433.265	2557.8
433.641	2583.11
434.016	2670.11
434.392	2673.96
434.767	2727.06
435.143	2725.48
435.518	2741.52
435.894	2807.74
436.269	2824.69
436.644	2871.01
437.02	2903.55
437.395	2908.75
437.77	2990.78
438.145	3008.41
438.52	3031.23
438.895	3057.45
439.271	3057.9
439.646	3162.08
440.021	3168.41
440.395	3157.78
440.77	3186.03
441.145	3219.93
441.52	3282.98
441.895	3235.07
442.27	3279.81
442.645	3299.7
443.019	3381.28
443.394	3355.07
443.769	3441.39
444.143	3400.26
444.518	3541.28
444.892	3468.96
445.267	3491.33
445.641	3518.9
446.016	3560.49
446.39	3558.23
446.764	3617.89
447.139	3628.05
447.513	3670.54
447.887	3708.05
448.262	3703.08
448.636	3726.81
449.01	3789.63
449.384	3843.42
449.758	3822.17
450.132	3897.88
450.506	3915.05
450.88	3925.67
451.254	3983.75
451.628	4003.64
452.002	4074.6
452.376	4083.86
452.75	4122.73
453.123	4155.72
453.497	4256.29
453.871	4281.14
454.244	4357.07
454.618	4440.91
454.992	4489.73
455.365	4461.48
455.739	4572.66
456.112	4701.02
456.486	4689.95
456.859	4707.8
457.232	4849.72
457.606	4782.83
457.979	4889.26
458.352	5000.22
458.725	5073.89
459.099	5075.93
459.472	5144.17
459.845	5216.94
460.218	5246.99
460.591	5273.21
460.964	5377.16
461.337	5501
461.71	5553.43
462.083	5628
462.456	5632.07
462.829	5646.53
463.201	5779.86
463.574	5800.43
463.947	5881.55
464.32	6051.49
464.692	6116.58
465.065	6127.2
465.438	6219.4
465.81	6302.79
466.183	6342.56
466.555	6547.53
466.928	6623.46
467.3	6558.82
467.672	6658.48
468.045	6891.25
468.417	6885.37
468.789	6955.42
469.161	7044.46
469.534	7177.57
469.906	7326.26
470.278	7402.19
470.65	7461.85
471.022	7609.64
471.394	7808.51
471.766	7860.26
472.138	7921.05
472.51	8118.11
472.882	8231.32
473.253	8298.21
473.625	8435.61
473.997	8563.29
474.369	8677.87
474.74	8764.42
475.112	8920.57
475.484	9108.59
475.855	9289.83
476.227	9376.6
476.598	9604.39
476.97	9677.39
477.341	9886.19
477.713	10073.53
478.084	10164.83
478.455	10387.2
478.827	10510.81
479.198	10789.67
479.569	10811.37
479.94	11172.71
480.311	11245.71
480.682	11451.35
481.053	11689.09
481.424	11903.09
481.795	11995.74
482.166	12230.77
482.537	12337.66
482.908	12653.35
483.279	12855.83
483.65	13001.59
484.021	13361.58
484.391	13441.36
484.762	13585.98
485.133	13679.77
485.503	13924.28
485.874	14257.61
486.244	14384.83
486.615	14626.18
486.985	14847.19
487.356	14999.96
487.726	15139.16
488.097	15526.95
488.467	15546.61
488.837	15926.26
489.207	16057.11
489.578	16262.3
489.948	16505.46
490.318	16719.24
490.688	16801.49
491.058	17127.59
491.428	17281.71
491.798	17424.08
492.168	17796.5
492.538	17870.84
492.908	18092.98
493.278	18398.97
493.648	18403.71
494.017	18578.85
494.387	18775.9
494.757	18941.32
495.126	19140.87
495.496	19237.36
495.866	19373.85
496.235	19668.08
496.605	19765.48
496.974	19936.78
497.344	20124.57
497.713	20176.32
498.082	20448.85
498.452	20624.44
498.821	20673.26
499.19	20791.44
499.559	20957.77
499.928	21143.98
500.298	21386.46
500.667	21475.72
501.036	21526.11
501.405	21734.02
501.774	21854.24
502.143	22021.02
502.512	22091.07
502.88	22389.59
503.249	22384.62
503.618	22654.22
503.987	22655.58
504.356	22754.33
504.724	22997.04
505.093	23086.98
505.462	23190.7
505.83	23299.18
506.199	23592.05
506.567	23966.28
506.936	23782.1
507.304	24142.09
507.672	24353.39
508.041	24410.78
508.409	24544.11
508.777	24809.19
509.145	24922.86
509.514	25010.32
509.882	25280.37
510.25	25411.66
510.618	25608.27
510.986	25553.35
511.354	25996.73
511.722	26136.62
512.09	26449.15
512.458	26417.74
512.826	26759.65
513.193	26871.74
513.561	26948.12
513.929	27186.3
514.297	27401.89
514.664	27699.96
515.032	27570.48
515.4	27955.78
515.767	28173.4
516.135	28242.32
516.502	28181.08
516.869	28736.09
517.237	28834.4
517.604	28805.25
517.972	29225.12
518.339	29472.35
518.706	29441.39
519.073	29694.04
519.44	29876.4
519.808	30367.01
520.175	30314.13
520.542	30661.47
520.909	30901.01
521.276	30856.04
521.643	31216.48
522.009	31446.76
522.376	31736.47
522.743	31941.43
523.11	32228.21
523.477	32605.82
523.843	32609.44
524.21	32999.94
524.577	33164.9
524.943	33406.03
525.31	33574.61
525.676	33955.17
526.043	34153.13
526.409	34266.34
526.776	34752.66
527.142	34753.11
527.508	35017.74
527.874	35303.38
528.241	35454.34
528.607	35527.1
528.973	35969.8
529.339	35908.56
529.705	36495.21
530.071	36518.94
530.437	36730.23
530.803	36995.09
531.169	37320.05
531.535	37185.59
531.901	37434.85
532.267	37566.15
532.632	37832.13
532.998	37935.4
533.364	38241.38
533.73	38345.33
534.095	38684.53
534.461	38787.81
534.826	38880.01
535.192	39052.21
535.557	39348.25
535.923	39374.91
536.288	39558.41
536.653	39758.4
537.019	39717.5
537.384	39888.12
537.749	40114.1
538.114	40237.94
538.479	40270.03
538.845	40554.77
539.21	40604.26
539.575	40859.62
539.94	40901.88
540.305	41162.89
540.67	41044.92
541.034	41176.45
541.399	41290.11
541.764	41497.34
542.129	41746.37
542.494	41893.94
542.858	42057.55
543.223	42008.06
543.587	42340.03
543.952	42372.57
544.316	42462.06
544.681	42497.54
545.045	42711.09
545.41	42920.13
545.774	43023.4
546.138	43175.94
546.503	43220.46
546.867	43208.26
547.231	43780.22
547.595	43716.94
547.959	43991.96
548.324	44028.12
548.688	44015.47
549.052	44255.23
549.416	44261.11
549.779	44535.68
550.143	44454.33
550.507	44804.6
550.871	44922.79
551.235	44975.44
551.599	45299.95
551.962	45351.93
552.326	45503.11
552.689	45695.65
553.053	45628.08
553.417	45719.6
553.78	46285.01
554.143	46161.17
554.507	46333.82
554.87	46481.39
555.234	46903.07
555.597	46665.57
555.96	46899.01
556.323	47102.62
556.686	47147.36
557.05	47513
557.413	47583.06
557.776	47712.09
558.139	48000.67
558.502	47955.93
558.865	48137.62
559.228	48389.59
559.59	48567.66
559.953	48646.08
560.316	49046.52
560.679	49112.51
561.041	49276.8
561.404	49358.15
561.767	49619.39
562.129	49557.24
562.492	49970.56
562.854	49876.33
563.217	49964.92
563.579	50241.29
563.941	50346.6
564.304	50596.31
564.666	50748.85
565.028	50814.16
565.39	50902.97
565.753	51122.4
566.115	51281.26
566.477	51414.14
566.839	51483.52
567.201	51694.14
567.563	51723.06
567.925	52017.06
568.287	51948.59
568.648	52075.59
569.01	52203.5
569.372	52477.84
569.734	52341.35
570.095	52623.83
570.457	52779.98
570.819	52787.44
571.18	52886.65
571.542	53013.65
571.903	53091.61
572.265	53162.8
572.626	53219.29
572.987	53294.55
573.349	53401.21
573.71	53474.88
574.071	53539.51
574.432	53736.79
574.794	53853.4
575.155	53787.64
575.516	53812.95
575.877	53920.07
576.238	53980.4
576.599	54028.76
576.96	54184.01
577.32	54101.53
577.681	54244.8
578.042	54304.46
578.403	54316.44
578.763	54276.89
579.124	54405.93
579.485	54496.55
579.845	54570.22
580.206	54528.18
580.566	54517.79
580.927	54603.66
581.287	54654.51
581.648	54628.3
582.008	54702.19
582.368	54675.3
582.728	54716.43
583.089	54665.13
583.449	54691.57
583.809	54710.1
584.169	54777.9
584.529	54718.69
584.889	54933.15
585.249	54777.67
585.609	54703.55
585.969	54857.44
586.329	54779.7
586.688	54927.72
587.048	54824.9
587.408	54805.92
587.768	54746.48
588.127	54815.41
588.487	54811.12
588.846	54983.77
589.206	54780.61
589.565	54815.41
589.925	54904.67
590.284	54737.44
590.643	54828.29
591.003	54858.12
591.362	55025.35
591.721	54944.45
592.08	55021.51
592.44	55018.57
592.799	54939.25
593.158	54917.55
593.517	54963.2
593.876	55028.28
594.235	55016.99
594.593	55060.15
594.952	55008.62
595.311	54960.72
595.67	55071.45
596.029	55237.77
596.387	55190.99
596.746	55233.7
597.104	55075.52
597.463	55083.88
597.822	55211.56
598.18	55064.44
598.538	55155.29
598.897	55332.23
599.255	55049.3
599.613	55439.35
599.972	55319.35
600.33	55300.59
600.688	55216.75
601.046	55329.07
601.404	55402.51
601.762	55373.81
602.12	55510.76
602.478	55507.37
602.836	55491.1
603.194	55409.74
603.552	55475.5
603.91	55380.59
604.268	55549.85
604.625	55418.1
604.983	55642.28
605.341	55467.82
605.698	55669.4
606.056	55627.59
606.413	55621.49
606.771	55686.57
607.128	55750.07
607.485	55595.05
607.843	55675.95
608.2	55795.5
608.557	55922.27
608.914	55764.99
609.272	55977.86
609.629	55956.62
609.986	56062.16
610.343	55938.32
610.7	56134.7
611.057	56029.84
611.414	56034.81
611.771	56099.44
612.127	56194.58
612.484	56114.58
612.841	56221.25
613.198	56177.63
613.554	56195.03
613.911	56258.53
614.267	56233
614.624	56274.58
614.98	56317.97
615.337	56376.05
615.693	56322.26
616.05	56300.57
616.406	56466.66
616.762	56367.68
617.118	56372.43
617.475	56314.35
617.831	56481.35
618.187	56398.64
618.543	56518.19
618.899	56707.79
619.255	56649.94
619.611	56548.02
619.967	56585.31
620.323	56588.02
620.678	56522.48
621.034	56517.51
621.39	56468.92
621.746	56505.76
622.101	56709.14
622.457	56524.52
622.812	56590.73
623.168	56616.49
623.523	56630.95
623.879	56753.44
624.234	56464.18
624.589	56626.89
624.945	56680.9
625.3	56650.61
625.655	56571.3
626.01	56621.69
626.365	56666.89
626.72	56619.43
627.075	56573.78
627.43	56614.01
627.785	56512.77
628.14	56626.66
628.495	56640.9
628.85	56548.92
629.205	56417.17
629.559	56610.39
629.914	56448.59
630.269	56476.16
630.623	56424.63
630.978	56356.39
631.332	56447.91
631.687	56430.51
632.041	56344.63
632.396	56405.2
632.75	56281.13
633.104	56290.62
633.459	56254.69
633.813	56237.07
634.167	56207.24
634.521	56148.26
634.875	56174.24
635.229	56072.1
635.583	55929.73
635.937	56044.98
636.291	55991.42
636.645	55959.56
636.999	55806.57
637.352	55967.47
637.706	55746.23
638.06	55896.51
638.413	55786.46
638.767	55663.97
639.121	55769.96
639.474	55698.32
639.828	55702.39
640.181	55683.18
640.534	55621.26
640.888	55553.47
641.241	55427.6
641.594	55519.57
641.947	55560.25
642.301	55441.83
642.654	55407.26
643.007	55389.63
643.36	55358.22
643.713	55295.17
644.066	55350.99
644.419	55183.99
644.771	54991.22
645.124	54717.56
645.477	54712.13
645.83	54434.18
646.182	54353.95
646.535	54319.38
646.888	54378.13
647.24	54151.7
647.593	54330.68
647.945	54303.11
648.298	54091.36
648.65	53988.31
649.002	53967.07
649.355	54097.01
649.707	54012.49
650.059	54122.55
650.411	54467.4
650.763	54500.39
651.115	54759.14
651.467	54631.23
651.819	54595.3
652.171	54569.54
652.523	54497.23
652.875	54541.52
653.227	54391.24
653.578	54519.37
653.93	54435.76
654.282	54396.66
654.633	54169.32
654.985	54259.04
655.337	54325.25
655.688	54247.51
656.039	54362.99
656.391	54082.77
656.742	54155.54
657.094	54115.31
657.445	54259.94
657.796	54118.7
658.147	54103.56
658.498	54021.31
658.849	54077.35
659.2	54052.94
659.551	53962.32
659.902	54063.79
660.253	53991.93
660.604	53942.89
660.955	53898.82
661.306	54017.46
661.656	53981.31
662.007	53953.74
662.358	53869.45
662.708	53881.87
663.059	53833.97
663.409	53669.45
663.76	53845.72
664.11	53839.16
664.461	53804.81
664.811	53762.56
665.161	53706.51
665.511	53643.91
665.862	53769.33
666.212	53712.84
666.562	53736.12
666.912	53621.99
667.262	53548.55
667.612	53645.95
667.962	53646.4
668.312	53545.61
668.662	53748.09
669.011	53577.48
669.361	53614.76
669.711	53476.69
670.06	53408.89
670.41	53369.8
670.76	53400.98
671.109	53520.98
671.459	53369.8
671.808	53332.51
672.157	53408.89
672.507	53226.07
672.856	53286.41
673.205	53303.81
673.554	53320.98
673.904	53160.09
674.253	53364.83
674.602	53219.74
674.951	52797.38
675.3	52687.56
675.649	52996.93
675.998	53086.19
676.346	53094.1
676.695	53130.93
677.044	52927.77
677.393	53017.04
677.741	52994.21
678.09	52944.05
678.438	52857.49
678.787	52958.96
679.135	52911.5
679.484	52528.92
679.832	52788.12
680.181	52622.7
680.529	52689.14
680.877	52577.73
681.225	52634
681.573	52687.56
681.922	52407.11
682.27	52347.9
682.618	52422.25
682.966	52407.34
683.314	52298.19
683.661	52215.03
684.009	52054.8
684.357	52013.22
684.705	51910.17
685.053	52012.32
685.4	51921.47
685.748	51701.59
686.095	51730.07
686.443	51626.11
686.79	51561.03
687.138	51518.09
687.485	51600.8
687.832	51384.31
688.18	51413.92
688.527	51261.6
688.874	51227.93
689.221	51191.1
689.568	51047.82
689.915	50902.52
690.262	50954.04
690.609	50745.01
690.956	50743.88
691.303	50735.97
691.65	50545.46
691.997	50465.24
692.344	50296.21
692.69	50328.52
693.037	50281.06
693.383	49888.53
693.73	50208.98
694.077	49981.19
694.423	49869.32
694.769	49736.9
695.116	49652.38
695.462	49620.74
695.808	49400.86
696.155	49597.02
696.501	49270.47
696.847	49170.59
697.193	48943.7
697.539	49225.27
697.885	48740.09
698.231	48774.66
698.577	48626.87
698.923	48658.73
699.269	48463.03
699.614	48335.13
699.96	48154.12
700.306	48195.24
700.651	48082.93
700.997	47929.04
701.342	47866.89
701.688	47806.78
702.033	47658.99
702.379	47628.25
702.724	47487.69
703.069	47641.13
703.415	47118.89
703.76	47135.16
704.105	47171.54
704.45	46953.92
704.795	46773.13
705.14	46691.1
705.485	46589.18
705.83	46419.92
706.175	46422.64
706.52	46389.19
706.865	46221.74
707.209	46135.41
707.554	45993.49
707.899	45975.42
708.243	45763.67
708.588	45877.11
708.932	45495.43
709.277	45625.37
709.621	45433.51
709.966	45332.04
710.31	45394.41
710.654	45031.26
710.998	45002.11
711.342	45033.29
711.687	44855.22
712.031	44714.21
712.375	44539.75
712.719	44735.9
713.063	44516.7
713.407	44617.26
713.75	44314.67
714.094	44368.68
714.438	44147.67
714.782	44212.3
715.125	43980.89
715.469	44146.99
715.812	43861.12
716.156	43719.66
716.499	43727.11
716.843	43725.31
717.186	43450.28
717.53	43671.75
717.873	43622.26
718.216	43322.6
718.559	43275.6
718.902	43081.25
719.246	43056.17
719.589	42912.22
719.932	42607.59
720.275	42728.72
720.617	42842.16
720.96	42810.75
721.303	42651.89
721.646	42747.48
721.989	42391.1
722.331	42549.52
722.674	42380.26
723.016	42401.72
723.359	42213.03
723.701	42272.69
724.044	41875.41
724.386	41867.95
724.729	41948.63
725.071	41855.3
725.413	41688.75
725.755	41711.57
726.097	41456.66
726.439	41384.12
726.782	41267.74
727.124	41638.58
727.465	41276.56
727.807	41409.21
728.149	41154.07
728.491	41139.38
728.833	41133.28
729.175	41076.56
729.516	40865.04
729.858	40875.44
730.199	40930.58
730.541	40682.45
730.882	40626.86
731.224	40821.43
731.565	40494.88
731.906	40527.88
732.248	40399.74
732.589	40271.16
732.93	40179.41
733.271	40239.52
733.612	40177.38
733.953	40307.09
734.294	39990.71
734.635	39923.6
734.976	40079.75
735.317	39923.82
735.658	39744.84
735.999	39831.85
736.339	39526.77
736.68	39717.95
737.021	39600.22
737.361	39451.29
737.702	39564.51
738.042	39493.55
738.383	39313.67
738.723	39260.11
739.063	39064.18
739.404	39252.2
739.744	39169.49
740.084	38837.3
740.424	38972.44
740.764	38874.59
741.104	39032.32
741.444	38747.58
741.784	38590.3
742.124	38706.45
742.464	38674.59
742.804	38646.12
743.143	38349.85
743.483	38372.9
743.823	38211.55
744.162	38165
744.502	38195.28
744.841	38159.8
745.181	38205.22
745.52	37870.09
745.86	38102.18
746.199	37963.42
746.538	37975.4
746.877	37936.98
747.216	37885.68
747.556	37737.67
747.895	37771.56
748.234	37522.3
748.573	37574.73
748.911	37497.45
749.25	37496.32
749.589	37284.8
749.928	37191.01
750.267	37277.79
750.605	37043.45
750.944	36997.12
751.283	36923.45
751.621	36926.39
751.96	36754.19
752.298	36826.73
752.636	36770.91
752.975	36580.86
753.313	36479.17
753.651	36563.46
753.989	36234.43
754.327	36243.69
754.666	35990.37
755.004	36027.88
755.342	36016.13
755.679	36085.28
756.017	35759.64
756.355	35784.95
756.693	35521.45
757.031	35678.29
757.368	35494.56
757.706	35392.64
758.044	35244.17
758.381	35310.61
758.719	35054.35
759.056	35194
759.394	34963.73
759.731	34752.43
760.068	34688.25
760.405	34588.14
760.743	34564.42
761.08	34437.41
761.417	34255.5
761.754	34267.47
762.091	34150.87
762.428	34120.59
762.765	33800.82
763.102	33826.81
763.438	33782.29
763.775	33526.93
764.112	33618.23
764.449	33556.98
764.785	33358.35
765.122	33174.17
765.458	33044.23
765.795	32961.75
766.131	32987.28
766.467	32841.98
766.804	32789.77
767.14	32542.32
767.476	32456.45
767.812	32388.2
768.148	32344.81
768.485	32158.6
768.821	32024.37
769.157	32026.18
769.492	31891.49
769.828	31886.29
770.164	31584.83
770.5	31425.97
770.836	31418.51
771.171	31255.12
771.507	31098.07
771.842	30943.49
772.178	30992.53
772.513	30992.76
772.849	30794.8
773.184	30602.26
773.519	30620.34
773.855	30369.95
774.19	30293.57
774.525	30178.77
774.86	30101.71
775.195	30115.95
775.53	30075.95
775.865	29881.15
776.2	29577.43
776.535	29352.35
776.87	29412.91
777.205	29329.98
777.539	29160.49
777.874	29217.66
778.209	28980.38
778.543	28859.93
778.878	28714.4
779.212	28648.64
779.547	28694.74
779.881	28640.5
780.215	28333.62
780.55	28450
780.884	28277.12
781.218	28216.11
781.552	28114.42
781.886	28043.91
782.22	27891.82
782.554	27712.62
782.888	27443.47
783.222	27418.39
783.556	27313.76
783.889	27172.97
784.223	27009.36
784.557	26944.05
784.89	27107.66
785.224	26769.82
785.557	26803.49
785.891	26615.25
786.224	26532.76
786.558	26589.94
786.891	26271.53
787.224	26206.9
787.557	26235.14
787.891	26101.59
788.224	26099.1
788.557	26094.58
788.89	25897.75
789.223	25939.56
789.556	25649.62
789.888	25696.85
790.221	25488.72
790.554	25367.14
790.887	25231.1
791.219	25183.65
791.552	25221.84
791.884	25049.19
792.217	24961.73
792.549	24802.41
792.882	24726.48
793.214	24546.83
793.546	24630.44
793.879	24483.55
794.211	24374.18
794.543	24413.72
794.875	24323.78
795.207	24286.27
795.539	24087.63
795.871	24140.74
796.203	23946.84
796.535	23779.16
796.867	23805.15
797.198	23707.53
797.53	23665.95
797.862	23441.09
798.193	23584.14
798.525	23393.18
798.856	23351.83
799.188	23136.24
799.519	23129.24
799.85	22957.49
800.182	23079.97
800.513	22932.18
800.844	22746.65
801.175	22926.08
801.506	22747.78
801.837	22745.29
802.168	22670.27
802.499	22567.22
802.83	22353.44
803.161	22484.73
803.491	22407.9
803.822	22463.72
804.153	22367.9
804.483	22075.48
804.814	21994.13
805.145	21957.06
805.475	21954.13
805.805	21872.55
806.136	21835.03
806.466	21860.57
806.796	21773.34
807.126	21570.63
807.457	21591.42
807.787	21553.68
808.117	21466.23
808.447	21238.44
808.777	21422.61
809.107	21181.72
809.436	21235.95
809.766	21190.08
810.096	21022.63
810.426	20983.53
810.755	20960.03
811.085	20925.9
811.414	20829.86
811.744	20676.65
812.073	20682.3
812.403	20723.88
812.732	20573.6
813.061	20531.79
813.39	20434.62
813.719	20364.11
814.049	20447.5
814.378	20349.65
814.707	20281.63
815.036	20354.17
815.365	20202.31
815.693	19920.73
816.022	19982.65
816.351	19911.92
816.68	19892.94
817.008	19918.7
817.337	19701.08
817.665	19696.78
817.994	19767.52
818.322	19776.56
818.651	19623.34
818.979	19605.71
819.307	19574.08
819.636	19493.4
819.964	19455.21
820.292	19551.03
820.62	19377.47
820.948	19411.59
821.276	19417.92
821.604	19366.17
821.932	19306.74
822.259	19346.96
822.587	19326.4
822.915	19337.47
823.243	19435.77
823.57	19389
823.898	19409.33
824.225	19196.46
824.553	19260.64
824.88	19304.7
825.207	19391.26
825.535	19344.93
825.862	19315.78
826.189	19148.32
826.516	19241.43
826.843	19347.87
827.17	19370.69
827.497	19298.83
827.824	19298.6
828.151	19338.83
828.478	19297.25
828.805	19395.55
829.131	19202.56
829.458	19189
829.785	19127.08
830.111	19130.25
830.438	19239.4
830.764	19140.41
831.09	19170.47
831.417	18998.95
831.743	19149.23
832.069	19163.47
832.395	19045.28
832.722	19087.53
833.048	19194.65
833.374	19075.78
833.7	18982.9
834.026	18978.84
834.351	18967.99
834.677	19044.37
835.003	18923.25
835.329	18996.24
835.654	18960.98
835.98	18869.24
836.306	18838.05
836.631	18735.91
836.956	18888.44
837.282	18745.62
837.607	18771.61
837.932	18630.6
838.258	18695
838.583	18709.47
838.908	18485.97
839.233	18531.17
839.558	18584.95
839.883	18475.57
840.208	18455.91
840.533	18399.64
840.858	18407.33
841.182	18378.4
841.507	18405.07
841.832	18247.1
842.156	18215.92
842.481	18137.5
842.805	18109.93
843.13	18126.2
843.454	18064.51
843.778	18043.27
844.103	18033.55
844.427	17979.77
844.751	17933.44
845.075	17823.84
845.399	17726.89
845.723	17742.49
846.047	17730.96
846.371	17588.82
846.695	17636.27
847.019	17448.93
847.343	17331.2
847.666	17269.05
847.99	17216.62
848.313	17152.22
848.637	17063.86
848.96	17069.51
849.284	17006.23
849.607	16888.95
849.931	16861.15
850.254	16771.66
850.577	16638.33
850.9	16481.5
851.223	16505.68
851.546	16476.08
851.869	16309.08
852.192	16470.88
852.515	16297.55
852.838	16176.88
853.161	16165.58
853.483	16093.72
853.806	15962.42
854.129	15968.29
854.451	15933.49
854.774	15809.88
855.096	15833.61
855.419	15807.4
855.741	15766.27
856.063	15697.79
856.385	15613.5
856.708	15513.17
857.03	15475.65
857.352	15459.38
857.674	15362.44
857.996	15383.45
858.318	15385.94
858.64	15294.87
858.961	15259.39
859.283	15213.51
859.605	15068.88
859.926	15133.29
860.248	15123.35
860.57	15008.77
860.891	14982.78
861.212	14925.38
861.534	14943.01
861.855	14954.31
862.176	14959.06
862.498	14954.54
862.819	14855.78
863.14	14785.28
863.461	14842.45
863.782	14772.39
864.103	14749.57
864.424	14691.49
864.745	14714.77
865.065	14573.53
865.386	14531.72
865.707	14527.65
866.027	14539.86
866.348	14453.08
866.668	14494.44
866.989	14416.7
867.309	14403.82
867.63	14364.27
867.95	14341.67
868.27	14307.32
868.59	14320.65
868.91	14247.21
869.23	14249.24
869.55	14213.99
869.87	14224.16
870.19	14221.22
870.51	14101.68
870.83	14187.32
871.15	14131.51
871.469	14015.35
871.789	14104.16
872.109	14059.42
872.428	14054.45
872.748	13974.67
873.067	14036.82
873.386	13989.14
873.706	13959.08
874.025	13802.7
874.344	13794.79
874.663	13850.84
874.982	13766.32
875.301	13856.49
875.62	13776.49
875.939	13768.13
876.258	13787.34
876.577	13732.87
876.896	13637.51
877.214	13620.79
877.533	13634.12
877.852	13592.54
878.17	13619.2
878.489	13597.28
878.807	13584.18
879.125	13584.4
879.444	13510.28
879.762	13436.16
880.08	13466.21
880.398	13404.07
880.716	13358.87
881.034	13318.87
881.352	13364.07
881.67	13334.47
881.988	13329.04
882.306	13274.81
882.624	13267.12
882.941	13120.91
883.259	13166.56
883.577	13184.41
883.894	13069.84
884.212	13085.43
884.529	13100.8
884.846	13015.38
885.164	12961.14
885.481	12942.16
885.798	12976.51
886.115	12908.04
886.432	12796.63
886.75	12767.7
887.067	12751.88
887.383	12816.74
887.7	12784.2
888.017	12754.82
888.334	12708.95
888.651	12584.43
888.967	12559.34
889.284	12538.1
889.6	12536.52
889.917	12378.56
890.233	12414.26
890.55	12474.15
890.866	12442.51
891.182	12370.88
891.498	12277.54
891.815	12249.3
892.131	12126.59
892.447	12195.74
892.763	12190.77
893.079	12168.39
893.395	12086.81
893.71	11997.78
894.026	12009.75
894.342	12073.48
894.657	11870.1
894.973	11986.25
895.289	11876.88
895.604	11861.74
895.92	11759.82
896.235	11704.9
896.55	11679.14
896.865	11601.86
897.181	11599.14
897.496	11582.42
897.811	11518.92
898.126	11536.77
898.441	11423.33
898.756	11410.45
899.071	11357.12
899.386	11308.08
899.7	11247.29
900.015	11318.25
900.33	11177.91
900.644	11184.69
900.959	11137.24
901.273	11104.92
901.588	11083.68
901.902	11010.69
902.216	10960.97
902.531	10867.19
902.845	10883.68
903.159	10837.81
903.473	10781.99
903.787	10772.27
904.101	10745.83
904.415	10726.85
904.729	10618.15
905.042	10538.83
905.356	10581.77
905.67	10576.8
905.984	10511.94
906.297	10527.53
906.611	10419.06
906.924	10349.91
907.237	10317.82
907.551	10318.95
907.864	10282.79
908.177	10255.22
908.491	10196.02
908.804	10137.04
909.117	10087.09
909.43	10028.56
909.743	9971.62
910.056	9950.15
910.368	9969.58
910.681	9870.6
910.994	9814.11
911.307	9756.03
911.619	9661.57
911.932	9720.32
912.244	9564.4
912.557	9630.16
912.869	9582.7
913.181	9512.42
913.494	9539.54
913.806	9476.04
914.118	9408.92
914.43	9414.57
914.742	9382.93
915.054	9319.2
915.366	9298.19
915.678	9282.14
915.99	9221.35
916.302	9168.25
916.613	9068.14
916.925	9003.96
917.236	9062.49
917.548	8973.9
917.859	9055.48
918.171	8924.64
918.482	8797.64
918.794	8865.88
919.105	8791.53
919.416	8763.29
919.727	8709.95
920.038	8726.45
920.349	8616.85
920.66	8590.86
920.971	8644.65
921.282	8585.21
921.593	8484.2
921.903	8459.57
922.214	8418.89
922.525	8349.51
922.835	8394.93
923.146	8304.09
923.456	8322.62
923.767	8269.06
924.077	8257.76
924.387	8230.42
924.697	8135.73
925.008	8123.08
925.318	8113.59
925.628	8064.55
925.938	8058.22
926.248	7956.3
926.558	7927.83
926.867	7917.89
927.177	7889.41
927.487	7760.83
927.796	7764.22
928.106	7767.83
928.416	7691.45
928.725	7674.95
929.034	7614.62
929.344	7652.58
929.653	7617.33
929.962	7545.47
930.271	7545.69
930.581	7500.95
930.89	7458.46
931.199	7375.53
931.508	7386.83
931.817	7347.05
932.125	7311.57
932.434	7300.27
932.743	7256.43
933.051	7226.38
933.36	7224.34
933.669	7148.87
933.977	7135.08
934.286	7114.06
934.594	7076.78
934.902	7044.69
935.21	6963.56
935.519	6979.38
935.827	6984.12
936.135	6887.86
936.443	6929.21
936.751	6793.39
937.059	6833.39
937.367	6700.52
937.674	6771.47
937.982	6743.45
938.29	6734.41
938.597	6723.57
938.905	6599.73
939.213	6578.03
939.52	6589.33
939.827	6562.21
940.135	6502.33
940.442	6493.74
940.749	6512.72
941.056	6418.72
941.363	6422.11
941.67	6364.03
941.977	6300.3
942.284	6276.57
942.591	6256.01
942.898	6238.16
943.205	6258.27
943.511	6208.1
943.818	6188.44
944.125	6170.13
944.431	6120.19
944.738	6133.53
945.044	6065.73
945.35	6069.8
945.657	6021.44
945.963	5956.35
946.269	5952.29
946.575	5932.85
946.881	5937.15
947.187	5867.09
947.493	5851.27
947.799	5870.48
948.105	5792.97
948.41	5730.82
948.716	5752.07
949.022	5701.45
949.327	5725.4
949.633	5652.86
949.938	5650.6
950.244	5684.72
950.549	5620.54
950.854	5559.08
951.16	5562.47
951.465	5489.7
951.77	5477.72
952.075	5486.08
952.38	5501.23
952.685	5472.75
952.99	5405.86
953.294	5371.06
953.599	5346.43
953.904	5355.01
954.209	5299.42
954.513	5320.21
954.818	5279.76
955.122	5212.19
955.426	5228.69
955.731	5205.87
956.035	5134.23
956.339	5195.92
956.643	5152.99
956.948	5141.01
957.252	5105.53
957.556	5057.17
957.86	5034.12
958.163	4969.04
958.467	4981.47
958.771	4994.12
959.075	4924.29
959.378	4835.03
959.682	4947.79
959.985	4862.15
960.289	4836.16
960.592	4812.66
960.896	4809.04
961.199	4794.35
961.502	4761.13
961.805	4657.86
962.108	4725.43
962.411	4722.26
962.714	4713.22
963.017	4678.87
963.32	4655.15
963.623	4607.24
963.926	4595.49
964.228	4566.56
964.531	4560.46
964.833	4498.31
965.136	4507.58
965.438	4520.23
965.741	4468.48
966.043	4440.01
966.345	4459.22
966.648	4395.04
966.95	4416.28
967.252	4405.21
967.554	4390.97
967.856	4314.59
968.158	4289.96
968.46	4313.69
968.761	4298.77
969.063	4239.34
969.365	4251.77
969.666	4199.11
969.968	4172.67
970.269	4192.11
970.571	4167.7
970.872	4133.58
971.174	4140.13
971.475	4108.72
971.776	4096.74
972.077	4069.85
972.378	4052.22
972.679	4070.53
972.98	4039.12
973.281	4018.1
973.582	4000.93
973.883	3928.16
974.183	3928.39
974.484	3941.04
974.785	3930.19
975.085	3877.31
975.386	3823.08
975.686	3844.32
975.986	3869.18
976.287	3807.94
976.587	3762.29
976.887	3824.89
977.187	3760.93
977.487	3758.67
977.787	3732.68
978.087	3707.15
978.387	3673.7
978.687	3674.15
978.987	3656.3
979.286	3645
979.586	3605.68
979.885	3576.53
980.185	3580.37
980.484	3623.08
980.784	3578.34
981.083	3562.52
981.382	3527.27
981.682	3527.04
981.981	3511.22
982.28	3538.79
982.579	3449.75
982.878	3448.62
983.177	3413.37
983.475	3423.09
983.774	3412.69
984.073	3369.3
984.372	3357.1
984.67	3399.13
984.969	3329.98
985.267	3316.2
985.566	3310.32
985.864	3308.51
986.162	3280.04
986.461	3290.89
986.759	3245.47
987.057	3202.75
987.355	3239.59
987.653	3213.15
987.951	3204.34
988.249	3195.07
988.547	3140.38
988.844	3161.17
989.142	3118.01
989.44	3109.2
989.737	3100.61
990.035	3093.15
990.332	3051.8
990.63	3045.92
990.927	3069.65
991.224	3031.69
991.521	3015.42
991.819	2984
992.116	2983.1
992.413	2997.11
992.71	2962.99
993.006	2965.7
993.303	2947.39
993.6	2918.69
993.897	2899.03
994.193	2906.27
994.49	2910.79
994.787	2848.41
995.083	2846.38
995.379	2794.18
995.676	2767.96
995.972	2761.41
996.268	2794.4
996.565	2729.77
996.861	2750.11
997.157	2747.85
997.453	2732.94
997.749	2726.84
998.044	2718.25
998.34	2666.72
998.636	2694.75
998.932	2669.89
999.227	2596.22
999.523	2642.32
999.818	2609.1
1000.114	2601.87
1000.409	2583.11
1000.704	2557.57
1001	2555.99
1001.295	2544.02
1001.59	2524.81
1001.885	2515.09
1002.18	2487.97
1002.475	2497.91
1002.77	2452.94
1003.065	2467.86
1003.359	2482.55
1003.654	2447.75
1003.949	2429.22
1004.243	2396
1004.538	2386.51
1004.832	2368.88
1005.127	2390.8
1005.421	2345.15
1005.715	2322.1
1006.009	2349.22
1006.304	2316.45
1006.598	2292.5
1006.892	2249.33
1007.186	2267.86
1007.48	2264.47
1007.773	2234.19
1008.067	2209.79
1008.361	2203.01
1008.655	2204.59
1008.948	2179.5
1009.242	2183.57
1009.535	2169.11
1009.829	2162.1
1010.122	2144.25
1010.415	2126.62
1010.708	2113.07
1011.001	2108.09
1011.295	2095.89
1011.588	2087.3
1011.881	2035.33
1012.173	2045.72
1012.466	2033.29
1012.759	2021.32
1013.052	2012.73
1013.344	1991.26
1013.637	1975.22
1013.93	1979.06
1014.222	1959.4
1014.514	1948.55
1014.807	1958.27
1015.099	1951.71
1015.391	1914.88
1015.683	1952.84
1015.976	1905.61
1016.268	1882.11
1016.56	1873.75
1016.851	1822.68
1017.143	1851.38
1017.435	1833.98
1017.727	1823.13
1018.018	1816.35
1018.31	1784.71
1018.602	1802.79
1018.893	1779.06
1019.185	1732.74
1019.476	1731.83
1019.767	1760.31
1020.058	1715.56
1020.35	1716.69
1020.641	1671.95
1020.932	1680.31
1021.223	1672.17
1021.514	1659.97
1021.804	1659.29
1022.095	1628.78
1022.386	1633.3
1022.677	1629.91
1022.967	1577.26
1023.258	1614.1
1023.548	1575
1023.839	1599.41
1024.129	1543.82
1024.419	1564.83
1024.709	1532.06
1025	1525.74
1025.29	1527.77
1025.58	1494.1
1025.87	1502.69
1026.16	1476.7
1026.449	1474.21
1026.739	1487.55
1027.029	1461.33
1027.319	1468.34
1027.608	1478.51
1027.898	1467.21
1028.187	1430.15
1028.477	1414.1
1028.766	1412.29
1029.055	1379.3
1029.344	1385.18
1029.634	1378.17
1029.923	1403.48
1030.212	1345.4
1030.501	1374.55
1030.79	1348.79
1031.078	1326.87
1031.367	1336.82
1031.656	1311.96
1031.945	1319.64
1032.233	1281.68
1032.522	1264.5
1032.81	1297.95
1033.099	1293.65
1033.387	1269.92
1033.675	1258.63
1033.963	1243.26
1034.251	1235.57
1034.54	1215.46
1034.828	1220.89
1035.116	1221.34
1035.403	1198.74
1035.691	1209.81
1035.979	1187.89
1036.267	1157.16
1036.554	1203.03
1036.842	1159.64
1037.129	1146.54
1037.417	1136.59
1037.704	1154
1037.992	1116.93
1038.279	1135.69
1038.566	1125.75
1038.853	1125.75
1039.14	1125.75
