Data from White_paper_FLMS001491_046.txt Node
Date: Tue Feb 07 10:35:08 GMT 2017
User: dcchb
Spectrometer: FLMS00149
Trigger mode: 0
Integration Time (sec): 2.000000E-2
Scans to average: 10
Electric dark correction enabled: true
Nonlinearity correction enabled: false
Boxcar width: 0
XAxis mode: Wavelengths
Number of Pixels in Spectrum: 2048
>>>>>Begin Spectral Data<<<<<
341.393	-19.12
341.776	-19.12
342.16	-19.12
342.543	-40.37
342.927	-64.55
343.31	-80.59
343.693	-80.14
344.077	-65.45
344.46	-51.67
344.843	-41.72
345.226	-36.3
345.61	-43.76
345.993	-15.51
346.376	0.76
346.759	7.09
347.142	7.09
347.525	45.51
347.908	84.38
348.291	68.11
348.674	108.33
349.057	93.87
349.44	141.1
349.823	155.11
350.206	180.42
350.588	216.35
350.971	224.71
351.354	260.64
351.737	265.61
352.119	280.76
352.502	286.63
352.884	295.67
353.267	307.42
353.65	332.96
354.032	331.15
354.414	325.05
354.797	338.15
355.179	354.2
355.562	339.96
355.944	346.74
356.326	371.15
356.709	371.6
357.091	366.18
357.473	363.01
357.855	357.82
358.238	368.66
358.62	386.29
359.002	373.63
359.384	367.98
359.766	383.13
360.148	366.18
360.53	361.21
360.912	366.85
361.294	375.89
361.676	380.19
362.057	370.47
362.439	365.5
362.821	353.97
363.203	388.1
363.584	360.75
363.966	372.96
364.348	344.48
364.729	378.15
365.111	363.47
365.493	344.03
365.874	369.79
366.256	360.98
366.637	370.02
367.019	357.36
367.4	368.89
367.781	380.87
368.163	373.41
368.544	374.09
368.925	362.56
369.306	350.81
369.688	369.57
370.069	377.02
370.45	378.83
370.831	362.11
371.212	377.93
371.593	353.97
371.974	366.4
372.355	377.02
372.736	350.58
373.117	356.01
373.498	371.15
373.879	390.58
374.26	361.88
374.641	377.7
375.021	357.36
375.402	388.55
375.783	402.11
376.163	384.71
376.544	403.92
376.925	397.14
377.305	392.62
377.686	378.38
378.066	401.43
378.447	406.4
378.827	401.43
379.208	394.42
379.588	391.49
379.968	389.23
380.349	401.2
380.729	425.38
381.109	390.81
381.489	416.8
381.87	421.77
382.25	422.45
382.63	422.22
383.01	442.33
383.39	428.77
383.77	439.4
384.15	409.57
384.53	437.36
384.91	445.27
385.29	449.79
385.67	450.47
386.049	440.53
386.429	437.81
386.809	450.92
387.189	450.69
387.568	464.93
387.948	456.57
388.328	465.61
388.707	467.87
389.087	457.02
389.466	497.92
389.846	491.15
390.225	494.99
390.605	510.81
390.984	487.76
391.363	507.87
391.743	507.19
392.122	516.23
392.501	521.88
392.881	534.76
393.26	531.14
393.639	546.06
394.018	538.38
394.397	551.26
394.776	566.62
395.155	546.06
395.534	547.64
395.913	547.41
396.292	582.89
396.671	589.9
397.05	597.36
397.429	583.12
397.808	608.2
398.186	610.01
398.565	619.73
398.944	600.97
399.323	624.02
399.701	595.55
400.08	633.29
400.458	626.06
400.837	626.96
401.215	650.01
401.594	668.54
401.972	671.03
402.351	693.4
402.729	685.04
403.107	718.94
403.486	712.38
403.864	713.29
404.242	727.07
404.62	746.96
404.999	761.42
405.377	774.08
405.755	788.99
406.133	777.69
406.511	810.01
406.889	808.65
407.267	866.95
407.645	843.45
408.023	873.96
408.401	915.09
408.779	904.24
409.156	964.81
409.534	972.26
409.912	994.41
410.29	1012.26
410.667	1049.55
411.045	1054.75
411.422	1079.38
411.8	1126.83
412.178	1129.77
412.555	1162.09
412.933	1195.31
413.31	1212.03
413.687	1237.11
414.065	1264.23
414.442	1305.36
414.819	1314.63
415.197	1350.33
415.574	1410.9
415.951	1421.97
416.328	1412.25
416.705	1442.98
417.082	1487.73
417.46	1510.55
417.837	1563.66
418.214	1534.73
418.591	1589.65
418.967	1604.56
419.344	1645.92
419.721	1663.54
420.098	1650.66
420.475	1717.55
420.852	1727.95
421.228	1753.03
421.605	1761.39
421.982	1811.56
422.358	1850.21
422.735	1847.95
423.111	1861.5
423.488	1891.79
423.864	1912.12
424.241	1944.67
424.617	1999.58
424.994	2014.95
425.37	2039.13
425.746	2054.04
426.123	2094.04
426.499	2090.88
426.875	2127.03
427.251	2212.23
427.627	2264.88
428.003	2269.63
428.379	2281.15
428.756	2306.69
429.132	2339.23
429.507	2385.33
429.883	2440.25
430.259	2459.23
430.635	2497.19
431.011	2544.88
431.387	2579.23
431.763	2580.81
432.138	2628.72
432.514	2655.83
432.89	2726.57
433.265	2789.39
433.641	2809.95
434.016	2834.59
434.392	2885.43
434.767	2937.63
435.143	2942.61
435.518	3017.63
435.894	3031.42
436.269	3091.75
436.644	3139.21
437.02	3173.56
437.395	3163.39
437.77	3206.1
438.145	3252.65
438.52	3275.7
438.895	3338.98
439.271	3316.38
439.646	3418.53
440.021	3402.48
440.395	3447.9
440.77	3437.96
441.145	3456.49
441.52	3531.52
441.895	3536.26
442.27	3615.36
442.645	3599.31
443.019	3625.53
443.394	3632.08
443.769	3677.05
444.143	3711.85
444.518	3758.18
444.892	3717.5
445.267	3770.61
445.641	3759.76
446.016	3849.93
446.39	3853.99
446.764	3870.49
447.139	3877.04
447.513	3946.65
447.887	3931.28
448.262	3921.11
448.636	3959.75
449.01	4018.96
449.384	4078.4
449.758	4083.14
450.132	4131.73
450.506	4092.86
450.88	4185.74
451.254	4190.03
451.628	4230.93
452.002	4293.76
452.376	4317.71
452.75	4365.62
453.123	4433.64
453.497	4443.36
453.871	4513.64
454.244	4597.03
454.618	4634.31
454.992	4676.57
455.365	4659.85
455.739	4807.64
456.112	4832.27
456.486	4893.29
456.859	4922.89
457.232	4997.47
457.606	5001.99
457.979	5076.11
458.352	5196.11
458.725	5220.74
459.099	5241.08
459.472	5344.13
459.845	5471.81
460.218	5474.74
460.591	5505.25
460.964	5575.98
461.337	5674.29
461.71	5737.34
462.083	5828.86
462.456	5867.28
462.829	5850.55
463.201	5972.58
463.574	6062.3
463.947	6130.77
464.32	6237.43
464.692	6258.68
465.065	6328.51
465.438	6438.11
465.81	6540.7
466.183	6607.37
466.555	6741.38
466.928	6750.19
467.3	6701.83
467.672	6942.5
468.045	7065.89
468.417	7148.37
468.789	7154.92
469.161	7260.68
469.534	7408.48
469.906	7568.47
470.278	7607.79
470.65	7702.93
471.022	7803.04
471.394	7985.41
471.766	8066.09
472.138	8089.82
472.51	8341.56
472.882	8442.12
473.253	8462.01
473.625	8642.12
473.997	8806.63
474.369	8891.15
474.74	8927.76
475.112	9123.23
475.484	9238.71
475.855	9469.67
476.227	9486.16
476.598	9825.36
476.97	9859.71
477.341	10073.04
477.713	10205.69
478.084	10245.24
478.455	10632.57
478.827	10690.2
479.198	11036.18
479.569	10972.23
479.94	11295.38
480.311	11347.81
480.682	11673.9
481.053	11894.46
481.424	12097.17
481.795	12113.21
482.166	12349.82
482.537	12623.71
482.908	12792.52
483.279	12878.16
483.65	13203.35
484.021	13404.93
484.391	13573.97
484.762	13631.82
485.133	13805.82
485.503	13960.17
485.874	14337.11
486.244	14416.43
486.615	14624.33
486.985	14906.36
487.356	15144.09
487.726	15234.71
488.097	15556.74
488.467	15575.49
488.837	15874.24
489.207	16069.94
489.578	16310.62
489.948	16483.27
490.318	16696.37
490.688	16735.01
491.058	16971.39
491.428	17204.15
491.798	17352.62
492.168	17729.79
492.538	17863.34
492.908	18023.11
493.278	18168.65
493.648	18283.22
494.017	18527.28
494.387	18579.03
494.757	18794.39
495.126	19049.75
495.496	19042.3
495.866	19129.75
496.235	19434.15
496.605	19614.26
496.974	19664.2
497.344	19895.38
497.713	19860.58
498.082	20148.48
498.452	20297.86
498.821	20407.23
499.19	20449.72
499.559	20816.94
499.928	20911.85
500.298	20843.83
500.667	21175.35
501.036	21152.3
501.405	21415.57
501.774	21328.79
502.143	21589.35
502.512	21709.34
502.88	21857.59
503.249	21887.87
503.618	22054.65
503.987	22224.13
504.356	22447.63
504.724	22421.87
505.093	22689.88
505.462	22734.18
505.83	22856.43
506.199	23073.15
506.567	23482.63
506.936	23298.23
507.304	23704.09
507.672	23659.35
508.041	23776.86
508.409	23967.36
508.777	24081.71
509.145	24371.42
509.514	24413.45
509.882	24561.02
510.25	24568.03
510.618	24826.55
510.986	24820.68
511.354	25193.77
511.722	25440.32
512.09	25519.87
512.458	25464.05
512.826	25844.6
513.193	25897.03
513.561	26060.42
513.929	26275.33
514.297	26491.14
514.664	26638.48
515.032	26727.29
515.4	27011.8
515.767	27216.54
516.135	27264
516.502	27146.26
516.869	27621.73
517.237	27822.86
517.604	27581.73
517.972	27899.24
518.339	28202.73
518.706	28346.01
519.073	28385.55
519.44	28678.43
519.808	28966.1
520.175	28927.23
520.542	29374.23
520.909	29450.84
521.276	29594.11
521.643	29811.05
522.009	30034.55
522.376	30295.11
522.743	30307.54
523.11	30616.68
523.477	30921.76
523.843	31117.01
524.21	31386.6
524.577	31571.91
524.943	31662.76
525.31	31900.04
525.676	32169.41
526.043	32288.05
526.409	32416.63
526.776	32862.5
527.142	32952.89
527.508	33107.69
527.874	33421.13
528.241	33537.51
528.607	33632.87
528.973	33965.07
529.339	33959.64
529.705	34415.23
530.071	34628.1
530.437	34761.2
530.803	35043.91
531.169	35215.43
531.535	35160.97
531.901	35250.68
532.267	35465.59
532.632	35863.77
532.998	35875.98
533.364	35941.29
533.73	36150.09
534.095	36454.95
534.461	36706.01
534.826	36820.13
535.192	36977.19
535.557	37209.05
535.923	37077.98
536.288	37350.29
536.653	37527.69
537.019	37416.73
537.384	37713.44
537.749	37830.05
538.114	37864.85
538.479	37935.58
538.845	38215.13
539.21	38249.7
539.575	38414.22
539.94	38486.08
540.305	38813.75
540.67	38820.76
541.034	38938.04
541.399	39177.59
541.764	39166.74
542.129	39401.53
542.494	39510.46
542.858	39555.43
543.223	39716.78
543.587	39933.95
543.952	39891.69
544.316	40105.92
544.681	40112.02
545.045	40315.63
545.41	40560.15
545.774	40559.47
546.138	40693.03
546.503	40911.78
546.867	40917.43
547.231	41266.12
547.595	41298.89
547.959	41385.44
548.324	41422.27
548.688	41572.55
549.052	41606.67
549.416	41729.16
549.779	41876.72
550.143	42050.28
550.507	42346.77
550.871	42472.64
551.235	42367.11
551.599	42682.8
551.962	42876.25
552.326	42854.55
552.689	43208.44
553.053	43034.43
553.417	43114.88
553.78	43704.25
554.143	43547.87
554.507	43692.04
554.87	43782.44
555.234	44228.07
555.597	44056.1
555.96	44257.68
556.323	44407.73
556.686	44446.15
557.05	44704.67
557.413	44755.97
557.776	44889.75
558.139	45026.47
558.502	45296.29
558.865	45326.12
559.228	45654.03
559.59	45729.73
559.953	45760.69
560.316	46230.96
560.679	46173.33
561.041	46423.72
561.404	46543.49
561.767	46799.31
562.129	46754.11
562.492	47198.39
562.854	47179.41
563.217	47141.44
563.579	47258.28
563.941	47613.07
564.304	47798.38
564.666	47971.7
565.028	48005.6
565.39	48086.73
565.753	48455.08
566.115	48484.69
566.477	48714.51
566.839	48832.47
567.201	49123.54
567.563	49150.43
567.925	49357.66
568.287	49303.42
568.648	49504.09
569.01	49687.37
569.372	49857.98
569.734	49798.55
570.095	50109.05
570.457	50201.7
570.819	50249.61
571.18	50265.88
571.542	50552.2
571.903	50549.49
572.265	50741.58
572.626	50831.52
572.987	50920.1
573.349	51087.56
573.71	51226.99
574.071	51243.94
574.432	51237.61
574.794	51616.81
575.155	51598.05
575.516	51495.45
575.877	51670.14
576.238	51702.23
576.599	51963.69
576.96	51999.85
577.32	52040.3
577.681	52086.17
578.042	52154.19
578.403	52120.07
578.763	52167.75
579.124	52361.19
579.485	52442.32
579.845	52541.75
580.206	52492.49
580.566	52503.11
580.927	52523.9
581.287	52731.13
581.648	52558.25
582.008	52711.24
582.368	52724.12
582.728	52870.78
583.089	52760.96
583.449	52848.64
583.809	52857.45
584.169	53021.29
584.529	52811.35
584.889	53082.76
585.249	52852.03
585.609	52951.46
585.969	53100.38
586.329	53013.61
586.688	53094.96
587.048	53143.09
587.408	53078.01
587.768	53071.01
588.127	53027.62
588.487	53098.12
588.846	53325.91
589.206	53138.57
589.565	53134.05
589.925	53355.29
590.284	53234.17
590.643	53280.27
591.003	53372.24
591.362	53433.03
591.721	53343.54
592.08	53415.63
592.44	53436.19
592.799	53454.72
593.158	53359.81
593.517	53399.81
593.876	53514.16
594.235	53386.48
594.593	53480.03
594.952	53635.51
595.311	53437.1
595.67	53571.56
596.029	53730.88
596.387	53768.39
596.746	53813.81
597.104	53684.32
597.463	53731.78
597.822	53808.84
598.18	53645.45
598.538	53701.95
598.897	53870.98
599.255	53606.81
599.613	54045.67
599.972	53780.37
600.33	53982.85
600.688	53876.18
601.046	54041.38
601.404	54063.52
601.762	54077.08
602.12	54249.51
602.478	54166.12
602.836	54148.49
603.194	54019.46
603.552	54163.86
603.91	53980.13
604.268	54205.67
604.625	54074.14
604.983	54318.66
605.341	54134.71
605.698	54273.46
606.056	54332.67
606.413	54228.72
606.771	54416.96
607.128	54356.4
607.485	54310.3
607.843	54239.79
608.2	54516.62
608.557	54519.33
608.914	54471.19
609.272	54562.94
609.629	54625.77
609.986	54674.13
610.343	54498.54
610.7	54685.2
611.057	54710.06
611.414	54747.57
611.771	54829.15
612.127	54881.35
612.484	54796.16
612.841	54882.71
613.198	54844.29
613.554	54847
613.911	55033.21
614.267	54997.51
614.624	54943.95
614.98	55038.86
615.337	55091.74
615.693	55052.2
616.05	54986.44
616.406	55100.33
616.762	55023.72
617.118	55094.46
617.475	55078.18
617.831	55182.36
618.187	55205.19
618.543	55290.16
618.899	55279.76
619.255	55278.18
619.611	55304.17
619.967	55412.87
620.323	55392.3
620.678	55270.27
621.034	55234.79
621.39	55244.06
621.746	55187.79
622.101	55521.34
622.457	55236.82
622.812	55312.3
623.168	55412.19
623.523	55410.83
623.879	55454.9
624.234	55227.11
624.589	55444.5
624.945	55359.08
625.3	55464.84
625.655	55424.62
626.01	55451.28
626.365	55428.23
626.72	55346.65
627.075	55354.34
627.43	55400.21
627.785	55299.2
628.14	55404.05
628.495	55463.03
628.85	55444.95
629.205	55303.49
629.559	55545.06
629.914	55355.92
630.269	55387.55
630.623	55305.98
630.978	55271.17
631.332	55416.93
631.687	55503.94
632.041	55310.04
632.396	55404.96
632.75	55259.2
633.104	55315.24
633.459	55193.21
633.813	55157.5
634.167	55192.31
634.521	55204.28
634.875	55295.58
635.229	55186.88
635.583	55103.27
635.937	55112.76
636.291	55089.71
636.645	55082.25
636.999	54983.27
637.352	55118.86
637.706	54933.33
638.06	55069.82
638.413	55007.45
638.767	54899.66
639.121	54996.15
639.474	54839.32
639.828	54888.59
640.181	54853.56
640.534	54889.26
640.888	54855.37
641.241	54709.38
641.594	54731.3
641.947	54830.28
642.301	54772.66
642.654	54850.85
643.007	54775.14
643.36	54736.95
643.713	54736.5
644.066	54819.43
644.419	54660.12
644.771	54472.1
645.124	54155.72
645.477	54148.04
645.83	53938.78
646.182	53822.17
646.535	53856.07
646.888	53880.7
647.24	53703.98
647.593	53890.87
647.945	53811.78
648.298	53653.14
648.65	53667.6
649.002	53624.44
649.355	53738.11
649.707	53680.71
650.059	53892.9
650.411	54176.06
650.763	54141.94
651.115	54494.47
651.467	54340.35
651.819	54355.72
652.171	54273.91
652.523	54263.06
652.875	54253.35
653.227	54106.68
653.578	54382.38
653.93	54195.27
654.282	54127.02
654.633	54192.33
654.985	54140.81
655.337	54187.13
655.688	54154.37
656.039	54184.65
656.391	53928.16
656.742	54045.44
657.094	54057.42
657.445	54176.29
657.796	54084.54
658.147	54054.26
658.498	53975.39
658.849	54041.6
659.2	53998.89
659.551	53983.75
659.902	54088.15
660.253	54013.13
660.604	53997.08
660.955	53896.97
661.306	53925.45
661.656	53893.58
662.007	53930.42
662.358	53902.62
662.708	53897.2
663.059	53823.3
663.409	53662.4
663.76	53937.2
664.11	53896.97
664.461	53837.31
664.811	53842.06
665.161	53777.2
665.511	53800.03
665.862	53708.05
666.212	53813.59
666.562	53840.03
666.912	53823.98
667.262	53709.63
667.612	53707.15
667.962	53706.47
668.312	53730.88
668.662	53843.64
669.011	53641.61
669.361	53656.98
669.711	53621.27
670.06	53529.75
670.41	53458.11
670.76	53492.01
671.109	53676.64
671.459	53540.6
671.808	53427.38
672.157	53510.54
672.507	53296.99
672.856	53350.55
673.205	53348.96
673.554	53444.33
673.904	53282.07
674.253	53476.42
674.602	53402.3
674.951	52901.74
675.3	52715.08
675.649	53205.47
675.998	53090.21
676.346	53144.45
676.695	53271.68
677.044	52999.6
677.393	53031.46
677.741	53165.92
678.09	53018.35
678.438	52919.37
678.787	52947.85
679.135	52996.43
679.484	52772.03
679.832	52864.91
680.181	52622.43
680.529	52771.58
680.877	52670.11
681.225	52638.7
681.573	52854.51
681.922	52644.12
682.27	52565.03
682.618	52449.1
682.966	52405.26
683.314	52451.81
683.661	52306.96
684.009	52148.77
684.357	52039.17
684.705	52066.29
685.053	52064.7
685.4	52025.38
685.748	51856.57
686.095	51906.52
686.443	51713.75
686.79	51553.31
687.138	51690.48
687.485	51681.66
687.832	51502.69
688.18	51495.23
688.527	51331.16
688.874	51246.19
689.221	51267.66
689.568	51204.39
689.915	51053.66
690.262	51013.43
690.609	50897.96
690.956	50864.06
691.303	50735.25
691.65	50502.49
691.997	50586.78
692.344	50409.38
692.69	50303.39
693.037	50267.46
693.383	50061.59
693.73	50177.3
694.077	49951.54
694.423	49894.82
694.769	49825.67
695.116	49931.88
695.462	49708.61
695.808	49582.51
696.155	49647.37
696.501	49244.21
696.847	49376.64
697.193	49023.65
697.539	49185.68
697.885	48976.2
698.231	48860.72
698.577	48862.75
698.923	48716.77
699.269	48542.09
699.614	48389.09
699.96	48313.84
700.306	48424.8
700.651	48171.7
700.997	48090.35
701.342	47865.49
701.688	48025.94
702.033	47885.83
702.379	47905.72
702.724	47734.2
703.069	47798.15
703.415	47392.28
703.76	47244.72
704.105	47432.74
704.45	47157.04
704.795	46995.91
705.14	46999.3
705.485	46858.06
705.83	46843.37
706.175	46712.3
706.52	46733.77
706.865	46441.35
707.209	46583.27
707.554	46366.55
707.899	46395.93
708.243	46228.02
708.588	46102.6
708.932	45877.52
709.277	45825.55
709.621	46032.55
709.966	45605.21
710.31	45745.1
710.654	45267.14
710.998	45462.84
711.342	45444.31
711.687	45321.6
712.031	45194.15
712.375	44943.76
712.719	45108.05
713.063	44987.6
713.407	45092.46
713.75	44959.81
714.094	44765.01
714.438	44544.22
714.782	44643.2
715.125	44554.17
715.469	44616.54
715.812	44270.56
716.156	44155.31
716.499	44207.28
716.843	44147.4
717.186	43915.31
717.53	44107.63
717.873	44020.62
718.216	43985.14
718.559	43700.18
718.902	43466.29
719.246	43648.43
719.589	43332.96
719.932	43454.99
720.275	43344.26
720.617	43205.28
720.96	43168.67
721.303	43122.57
721.646	43147.2
721.989	42849.13
722.331	43172.51
722.674	42821.78
723.016	42920.09
723.359	42805.96
723.701	42857.49
724.044	42641
724.386	42302.93
724.729	42549.47
725.071	42377.5
725.413	42479.19
725.755	42363.04
726.097	42224.29
726.439	42059.77
726.782	42054.12
727.124	42269.93
727.465	42036.04
727.807	41949.72
728.149	41762.83
728.491	41705.43
728.833	41935.03
729.175	41807.57
729.516	41528.03
729.858	41424.31
730.199	41538.43
730.541	41416.4
730.882	41399.22
731.224	41602.15
731.565	41287.81
731.906	41326.91
732.248	41357.87
732.589	41060.7
732.93	40914.26
733.271	41021.61
733.612	41141.6
733.953	41116.29
734.294	40891.89
734.635	40715.4
734.976	40753.59
735.317	40573.03
735.658	40592.46
735.999	40687.15
736.339	40368.06
736.68	40604.67
737.021	40415.97
737.361	40250.78
737.702	40361.28
738.042	40398.12
738.383	40130.33
738.723	40314.05
739.063	40100.95
739.404	40177.11
739.744	40081.97
740.084	39988.41
740.424	39951.58
740.764	39771.24
741.104	39957.9
741.444	39674.52
741.784	39628.87
742.124	39745.93
742.464	39537.35
742.804	39653.51
743.143	39540.74
743.483	39536.22
743.823	39181.65
744.162	39191.37
744.502	39299.84
744.841	39201.99
745.181	39286.96
745.52	39141.43
745.86	39169.45
746.199	39005.39
746.538	38977.82
746.877	38990.92
747.216	38992.28
747.556	38896.24
747.895	38907.99
748.234	38745.96
748.573	38715.22
748.911	38544.61
749.25	38653.98
749.589	38314.11
749.928	38449.02
750.267	38435.01
750.605	38339.42
750.944	38263.26
751.283	38177.16
751.621	38196.14
751.96	37911.4
752.298	37972.87
752.636	38010.61
752.975	37796.83
753.313	37764.52
753.651	37896.04
753.989	37538.08
754.327	37479.33
754.666	37298.54
755.004	37395.03
755.342	37469.61
755.679	37391.64
756.017	37085.44
756.355	37142.61
756.693	37050.18
757.031	37024.42
757.368	36767.71
757.706	36771.77
758.044	36510.31
758.381	36674.37
758.719	36425.57
759.056	36553.25
759.394	36347.83
759.731	36160.94
760.068	36162.07
760.405	35906.71
760.743	35878.01
761.08	35816.32
761.417	35739.48
761.754	35693.16
762.091	35610
762.428	35393.28
762.765	35186.73
763.102	35342.43
763.438	35071.7
763.775	34917.36
764.112	35032.61
764.449	35004.36
764.785	34784.03
765.122	34611.6
765.458	34472.62
765.795	34437.37
766.131	34522.57
766.467	34278.05
766.804	34117.83
767.14	33859.31
767.476	33970.04
767.812	33819.76
768.148	33893.43
768.485	33539.54
768.821	33468.13
769.157	33355.59
769.492	33369.83
769.828	33377.74
770.164	32982.49
770.5	32867.92
770.836	32839.22
771.171	32733.24
771.507	32785.89
771.842	32324.21
772.178	32613.92
772.513	32406.24
772.849	32366.47
773.184	32024.1
773.519	32007.83
773.855	31835.41
774.19	31860.94
774.525	31739.14
774.86	31727.84
775.195	31562.42
775.53	31436.77
775.865	31161.98
776.2	31095.76
776.535	30826.39
776.87	30919.72
777.205	30804.7
777.539	30630.92
777.874	30730.35
778.209	30473.18
778.543	30346.18
778.878	30130.14
779.212	30165.85
779.547	29930.15
779.881	30015.57
780.215	29712.98
780.55	29932.41
780.884	29666.88
781.218	29525.64
781.552	29596.14
781.886	29447.22
782.22	29294.68
782.554	29067.57
782.888	28833.22
783.222	28815.15
783.556	28689.27
783.889	28593.91
784.223	28458.09
784.557	28507.81
784.89	28489.51
785.224	28248.83
785.557	28167.71
785.891	28109.63
786.224	28004.77
786.558	27988.05
786.891	27699.02
787.224	27715.74
787.557	27589.42
787.891	27547.38
788.224	27578.34
788.557	27513.71
788.89	27344.45
789.223	27276.66
789.556	27067.4
789.888	26993.5
790.221	27014.74
790.554	26770.45
790.887	26765.93
791.219	26554.64
791.552	26569.33
791.884	26431.25
792.217	26317.58
792.549	26269.68
792.882	26052.51
793.214	26043.02
793.546	26070.36
793.879	25836.47
794.211	25678.73
794.543	25846.41
794.875	25717.37
795.207	25814.32
795.539	25633.31
795.871	25586.08
796.203	25168.24
796.535	25139.99
796.867	25070.84
797.198	25025.19
797.53	25034.23
797.862	24877.17
798.193	24939.77
798.525	24590.17
798.856	24736.61
799.188	24458.42
799.519	24429.05
799.85	24272.89
800.182	24260.69
800.513	24336.85
800.844	24096.63
801.175	24061.82
801.506	24118.77
801.837	24026.8
802.168	24002.39
802.499	23849.85
802.83	23809.4
803.161	23706.35
803.491	23681.95
803.822	23596.98
804.153	23421.84
804.483	23321.28
804.814	23311.11
805.145	23272.02
805.475	23243.77
805.805	23026.6
806.136	23214.84
806.466	23101.4
806.796	23004.45
807.126	22784.12
807.457	22813.72
807.787	22816.66
808.117	22749.77
808.447	22576.21
808.777	22622.09
809.107	22502.77
809.436	22392.04
809.766	22491.7
810.096	22337.58
810.426	22285.6
810.755	22242.89
811.085	22138.26
811.414	22216.22
811.744	22022.1
812.073	21979.39
812.403	21867.31
812.732	21780.98
813.061	21773.3
813.39	21644.94
813.719	21729.68
814.049	21672.74
814.378	21648.33
814.707	21496.69
815.036	21390.03
815.365	21433.65
815.693	21200.21
816.022	21277.04
816.351	21161.79
816.68	21032.07
817.008	21049.25
817.337	20902.81
817.665	20865.75
817.994	20908.69
818.322	20838.86
818.651	20852.19
818.979	20766.77
819.307	20837.73
819.636	20604.74
819.964	20538.53
820.292	20673.44
820.62	20572.65
820.948	20488.36
821.276	20664.17
821.604	20642.03
821.932	20571.97
822.259	20571.97
822.587	20539.21
822.915	20450.17
823.243	20540.56
823.57	20534.46
823.898	20508.92
824.225	20437.97
824.553	20413.11
824.88	20475.03
825.207	20417.18
825.535	20455.82
825.862	20479.09
826.189	20452.88
826.516	20510.05
826.843	20624.85
827.17	20418.53
827.497	20477.06
827.824	20492.2
828.151	20494.01
828.478	20469.38
828.805	20566.55
829.131	20323.17
829.458	20435.25
829.785	20312.55
830.111	20315.26
830.438	20479.77
830.764	20438.19
831.09	20383.28
831.417	20244.98
831.743	20408.36
832.069	20368.36
832.395	20196.16
832.722	20322.04
833.048	20244.98
833.374	20132.44
833.7	20145.54
834.026	20242.49
834.351	20225.99
834.677	20168.59
835.003	20214.02
835.329	20162.72
835.654	20037.52
835.98	20092.44
836.306	20102.61
836.631	19955.49
836.956	20059.22
837.282	20016.96
837.607	19839.79
837.932	19733.35
838.258	19874.59
838.583	19710.07
838.908	19633.92
839.233	19711.2
839.558	19708.49
839.883	19578.33
840.208	19634.37
840.533	19504.66
840.858	19615.16
841.182	19597.99
841.507	19511.89
841.832	19476.18
842.156	19303.53
842.481	19351.44
842.805	19332.01
843.13	19235.29
843.454	19171.11
843.778	19179.47
844.103	19134.72
844.427	19067.83
844.751	18934.28
845.075	19000.72
845.399	18959.13
845.723	18746.26
846.047	18879.14
846.371	18674.17
846.695	18657.45
847.019	18562.76
847.343	18391.92
847.666	18274.86
847.99	18258.36
848.313	18252.94
848.637	18191.24
848.96	18115.09
849.284	18123.68
849.607	17978.82
849.931	17864.02
850.254	17781.31
850.577	17651.15
850.9	17636.46
851.223	17607.08
851.546	17481.43
851.869	17418.61
852.192	17432.17
852.515	17220.2
852.838	17099.3
853.161	17287.31
853.483	17167.32
853.806	17090.48
854.129	16993.08
854.451	16995.57
854.774	16939.53
855.096	16839.19
855.419	16858.17
855.741	16760.77
856.063	16592.64
856.385	16576.37
856.708	16516.26
857.03	16428.35
857.352	16495.24
857.674	16432.2
857.996	16414.34
858.318	16276.04
858.64	16389.48
858.961	16266.78
859.283	16182.71
859.605	16077.4
859.926	16168.02
860.248	16002.15
860.57	15923.73
860.891	15983.17
861.212	15998.76
861.534	15822.49
861.855	15782.72
862.176	15867.01
862.498	15879.89
862.819	15870.18
863.14	15794.25
863.461	15710.18
863.782	15683.29
864.103	15638.77
864.424	15553.8
864.745	15587.92
865.065	15578.43
865.386	15512.45
865.707	15474.71
866.027	15521.26
866.348	15412.79
866.668	15403.75
866.989	15426.35
867.309	15266.8
867.63	15302.73
867.95	15294.6
868.27	15142.51
868.59	15194.26
868.91	15203.98
869.23	15239.23
869.55	15081.72
869.87	15214.83
870.19	15204.2
870.51	15090.08
870.83	15047.6
871.15	15040.59
871.469	15135.96
871.789	15040.14
872.109	14926.02
872.428	14929.18
872.748	14991.55
873.067	14895.74
873.386	14940.93
873.706	14858
874.025	14794.27
874.344	14732.8
874.663	14812.12
874.982	14727.16
875.301	14648.74
875.62	14690.77
875.939	14623.2
876.258	14665.01
876.577	14525.35
876.896	14572.36
877.214	14500.27
877.533	14604.67
877.852	14488.29
878.17	14486.94
878.489	14508.86
878.807	14531
879.125	14387.28
879.444	14403.1
879.762	14335.3
880.08	14445.81
880.398	14335.08
880.716	14318.58
881.034	14223.21
881.352	14191.58
881.67	14145.48
881.988	14173.5
882.306	14087.85
882.624	14128.75
882.941	14070.68
883.259	14040.85
883.577	13976.67
883.894	13932.6
884.212	13931.24
884.529	13887.86
884.846	13825.26
885.164	13852.6
885.481	13796.78
885.798	13811.92
886.115	13710.68
886.432	13705.94
886.75	13747.97
887.067	13656.9
887.383	13563.34
887.7	13617.81
888.017	13546.62
888.334	13548.88
888.651	13510.69
888.967	13380.52
889.284	13341.43
889.6	13318.6
889.917	13209.45
890.233	13305.95
890.55	13266.4
890.866	13258.72
891.182	13124.49
891.498	13066.18
891.815	13124.94
892.131	13015.79
892.447	12911.61
892.763	12800.43
893.079	12915.45
893.395	12888.79
893.71	12803.14
894.026	12792.52
894.342	12716.81
894.657	12692.18
894.973	12615.8
895.289	12638.4
895.604	12570.6
895.92	12508.46
896.235	12430.49
896.55	12484.28
896.865	12448.8
897.181	12361.12
897.496	12349.36
897.811	12327.44
898.126	12237.73
898.441	12207.22
898.756	12096.04
899.071	12039.77
899.386	12057.62
899.7	12015.14
900.015	11996.15
900.33	11831.86
900.644	11889.94
900.959	11898.08
901.273	11812.88
901.588	11793.9
901.902	11709.16
902.216	11712.09
902.531	11597.97
902.845	11624.86
903.159	11431.65
903.473	11447.02
903.787	11392.78
904.101	11371.76
904.415	11378.54
904.729	11376.28
905.042	11197.08
905.356	11220.35
905.67	11194.37
905.984	11210.64
906.297	11154.59
906.611	10994.15
906.924	11040.47
907.237	11030.98
907.551	11013.13
907.864	10918.67
908.177	10860.36
908.491	10759.35
908.804	10728.84
909.117	10746.02
909.43	10665.79
909.743	10573.14
910.056	10625.12
910.368	10578.34
910.681	10510.32
910.994	10459.24
911.307	10431.67
911.619	10256.31
911.932	10362.52
912.244	10229.42
912.557	10227.84
912.869	10140.38
913.181	10151.91
913.494	10113.27
913.806	10068.29
914.118	10068.75
914.43	9945.59
914.742	9976.09
915.054	9903.78
915.366	9808.41
915.678	9802.76
915.99	9737.23
916.302	9679.83
916.613	9671.02
916.925	9645.71
917.236	9613.62
917.548	9606.16
917.859	9558.25
918.171	9432.38
918.482	9443
918.794	9440.74
919.105	9391.7
919.416	9311.48
919.727	9291.82
920.038	9250.24
920.349	9253.85
920.66	9148.09
920.971	9184.93
921.282	9090.47
921.593	9043.01
921.903	8978.83
922.214	9002.11
922.525	8909.46
922.835	8868.33
923.146	8830.81
923.456	8825.84
923.767	8770.25
924.077	8735.9
924.387	8772.51
924.697	8652.74
925.008	8546.75
925.318	8599.18
925.628	8589.69
925.938	8589.69
926.248	8491.16
926.558	8436.25
926.867	8457.26
927.177	8339.98
927.487	8328.91
927.796	8240.55
928.106	8237.38
928.416	8262.69
928.725	8171.62
929.034	8123.04
929.344	8172.75
929.653	8069.7
929.962	8058.63
930.271	8044.62
930.581	7991.29
930.89	7878.75
931.199	7882.82
931.508	7909.03
931.817	7884.85
932.125	7825.19
932.434	7737.96
932.743	7735.02
933.051	7672.65
933.36	7656.15
933.669	7597.63
933.977	7611.41
934.286	7542.26
934.594	7531.86
934.902	7458.42
935.21	7464.52
935.519	7456.84
935.827	7431.3
936.135	7323.73
936.443	7281.48
936.751	7262.04
937.059	7249.84
937.367	7208.71
937.674	7218.88
937.982	7136.62
938.29	7143.4
938.597	7121.48
938.905	7072.67
939.213	7029.73
939.52	6959.68
939.827	6968.26
940.135	6902.5
940.442	6849.17
940.749	6890.53
941.056	6904.31
941.363	6819.11
941.67	6800.13
941.977	6731.21
942.284	6695.95
942.591	6668.84
942.898	6638.78
943.205	6658.44
943.511	6543.87
943.818	6634.26
944.125	6532.79
944.431	6533.02
944.738	6439.01
945.044	6452.12
945.35	6439.01
945.657	6352.23
945.963	6354.49
946.269	6356.53
946.575	6342.06
946.881	6277.66
947.187	6241.5
947.493	6182.52
947.799	6190.2
948.105	6242.86
948.41	6121.96
948.716	6128.29
949.022	6082.86
949.327	6143.88
949.633	6036.31
949.938	5999.93
950.244	6001.96
950.549	5950.21
950.854	5894.17
951.16	5878.8
951.465	5895.97
951.77	5841.97
952.075	5818.69
952.38	5816.43
952.685	5761.29
952.99	5747.96
953.294	5743.89
953.599	5693.49
953.904	5652.59
954.209	5637.45
954.513	5598.36
954.818	5564.68
955.122	5563.78
955.426	5579.15
955.731	5505.48
956.035	5469.09
956.339	5470
956.643	5448.76
956.948	5423.67
957.252	5384.12
957.556	5372.6
957.86	5291.02
958.163	5342.77
958.467	5327.18
958.771	5271.81
959.075	5274.97
959.378	5218.25
959.682	5211.02
959.985	5221.87
960.289	5173.28
960.592	5118.59
960.896	5129.67
961.199	5106.17
961.502	5079.05
961.805	5028.65
962.108	4990.46
962.411	4985.26
962.714	4916.34
963.017	4938.03
963.32	4959.73
963.623	4862.1
963.926	4886.28
964.228	4875.66
964.531	4830.47
964.833	4840.86
965.136	4789.34
965.438	4764.48
965.741	4744.82
966.043	4728.55
966.345	4646.97
966.648	4667.31
966.95	4666.4
967.252	4640.64
967.554	4597.03
967.856	4588.21
968.158	4569.68
968.46	4575.56
968.761	4542.79
969.063	4526.29
969.365	4516.35
969.666	4466.41
969.968	4460.31
970.269	4432.51
970.571	4413.3
970.872	4414.88
971.174	4360.65
971.475	4356.81
971.776	4338.5
972.077	4296.47
972.378	4319.75
972.679	4261.44
972.98	4232.74
973.281	4227.09
973.582	4238.84
973.883	4197.94
974.183	4199.97
974.484	4202.01
974.785	4098.06
975.085	4096.47
975.386	4127.66
975.686	4122.01
975.986	4095.8
976.287	4052.86
976.587	4011.73
976.887	3992.52
977.187	3994.78
977.487	4007.89
977.787	3934.44
978.087	3931.28
978.387	3934.9
978.687	3922.24
978.987	3893.32
979.286	3824.84
979.586	3849.93
979.885	3769.93
980.185	3797.95
980.484	3789.82
980.784	3769.48
981.083	3735.35
981.382	3731.96
981.682	3708.91
981.981	3700.55
982.28	3680.44
982.579	3641.8
982.878	3680.21
983.177	3607.22
983.475	3611.52
983.774	3585.3
984.073	3586.66
984.372	3570.84
984.67	3548.69
984.969	3505.76
985.267	3513.21
985.566	3518.18
985.864	3473.21
986.162	3470.28
986.461	3445.87
986.759	3465.08
987.057	3408.81
987.355	3397.96
987.653	3398.64
987.951	3421.46
988.249	3343.27
988.547	3317.06
988.844	3303.05
989.142	3325.87
989.44	3307.12
989.737	3254.69
990.035	3247.01
990.332	3216.72
990.63	3211.53
990.927	3235.71
991.224	3202.71
991.521	3206.33
991.819	3161.81
992.116	3180.34
992.413	3130.85
992.71	3141.7
993.006	3133.56
993.303	3093.79
993.6	3061.25
993.897	3062.15
994.193	3080.68
994.49	3047.69
994.787	3041.81
995.083	3002.72
995.379	2997.97
995.676	2977.41
995.972	2960.46
996.268	2921.59
996.565	2946.67
996.861	2908.93
997.157	2873.46
997.453	2866.45
997.749	2866.45
998.044	2819.22
998.34	2849.95
998.636	2821.93
998.932	2785.1
999.227	2763.63
999.523	2760.92
999.818	2764.76
1000.114	2708.71
1000.409	2713.23
1000.704	2715.49
1001	2738.54
1001.295	2698.77
1001.59	2694.93
1001.885	2645.89
1002.18	2612.22
1002.475	2624.87
1002.77	2624.65
1003.065	2613.35
1003.359	2574.93
1003.654	2595.5
1003.949	2540.36
1004.243	2552.33
1004.538	2487.7
1004.832	2524.09
1005.127	2448.16
1005.421	2486.57
1005.715	2470.98
1006.009	2486.8
1006.304	2442.96
1006.598	2416.07
1006.892	2393.02
1007.186	2388.27
1007.48	2372
1007.773	2340.81
1008.067	2380.36
1008.361	2337.2
1008.655	2303.08
1008.948	2280.25
1009.242	2282.96
1009.535	2270.99
1009.829	2292.68
1010.122	2249.29
1010.415	2271.44
1010.708	2198.9
1011.001	2215.39
1011.295	2183.08
1011.588	2193.7
1011.881	2204.55
1012.173	2162.97
1012.466	2164.32
1012.759	2141.27
1013.052	2145.34
1013.344	2105.11
1013.637	2099.92
1013.93	2052.69
1014.222	2037.32
1014.514	2040.03
1014.807	2040.71
1015.099	2038.68
1015.391	2026.02
1015.683	1983.76
1015.976	1999.13
1016.268	1938.79
1016.56	1938.34
1016.851	1939.92
1017.143	1933.37
1017.435	1912.35
1017.727	1920.26
1018.018	1905.35
1018.31	1861.28
1018.602	1898.57
1018.893	1860.83
1019.185	1842.75
1019.476	1858.11
1019.767	1806.14
1020.058	1803.65
1020.35	1785.35
1020.641	1791.22
1020.932	1768.85
1021.223	1749.42
1021.514	1753.71
1021.804	1744.67
1022.095	1706.25
1022.386	1715.07
1022.677	1687.72
1022.967	1710.55
1023.258	1697.67
1023.548	1666.48
1023.839	1626.03
1024.129	1635.07
1024.419	1636.65
1024.709	1616.31
1025	1602.3
1025.29	1578.57
1025.58	1579.25
1025.87	1558.69
1026.16	1570.21
1026.449	1579.03
1026.739	1540.84
1027.029	1568.86
1027.319	1536.32
1027.608	1520.72
1027.898	1482.53
1028.187	1491.34
1028.477	1482.31
1028.766	1477.33
1029.055	1466.26
1029.344	1460.61
1029.634	1414.06
1029.923	1432.36
1030.212	1412.93
1030.501	1400.5
1030.79	1381.74
1031.078	1388.3
1031.367	1376.09
1031.656	1331.35
1031.945	1335.64
1032.233	1334.51
1032.522	1346.26
1032.81	1341.29
1033.099	1312.82
1033.387	1323.44
1033.675	1286.15
1033.963	1306.04
1034.251	1296.32
1034.54	1277.11
1034.828	1260.16
1035.116	1252.71
1035.403	1245.02
1035.691	1211.35
1035.979	1263.78
1036.267	1198.7
1036.554	1232.82
1036.842	1182.43
1037.129	1211.35
1037.417	1229.2
1037.704	1205.02
1037.992	1142.43
1038.279	1171.81
1038.566	1142.65
1038.853	1142.65
1039.14	1142.65
