Data from white_wall_FLMS001491_048.txt Node
Date: Tue Feb 07 11:04:35 GMT 2017
User: dcchb
Spectrometer: FLMS00149
Trigger mode: 0
Integration Time (sec): 2.000000E-2
Scans to average: 10
Electric dark correction enabled: true
Nonlinearity correction enabled: false
Boxcar width: 0
XAxis mode: Wavelengths
Number of Pixels in Spectrum: 2048
>>>>>Begin Spectral Data<<<<<
341.393	-12.25
341.776	-12.25
342.16	-12.25
342.543	-66.71
342.927	-80.49
343.31	-73.71
343.693	-74.39
344.077	-70.55
344.46	-38.23
344.843	-50.44
345.226	-56.54
345.61	-26.26
345.993	-14.73
346.376	4.48
346.759	6.51
347.142	24.59
347.525	33.4
347.908	72.72
348.291	77.7
348.674	88.32
349.057	97.13
349.44	124.7
349.823	144.59
350.206	149.78
350.588	220.74
350.971	223.23
351.354	252.83
351.737	256
352.119	257.35
352.502	284.47
352.884	286.5
353.267	303.45
353.65	313.4
354.032	297.8
354.414	317.01
354.797	303
355.179	315.43
355.562	333.28
355.944	348.2
356.326	341.64
356.709	349.33
357.091	347.97
357.473	350
357.855	352.72
358.238	359.72
358.62	358.82
359.002	350.68
359.384	371.7
359.766	341.87
360.148	335.99
360.53	369.67
360.912	350
361.294	341.19
361.676	338.71
362.057	368.54
362.439	352.26
362.821	346.39
363.203	355.43
363.584	340.06
363.966	333.73
364.348	335.54
364.729	357.24
365.111	329.44
365.493	328.08
365.874	323.56
366.256	335.32
366.637	323.34
367.019	333.96
367.4	320.4
367.781	313.62
368.163	329.44
368.544	327.18
368.925	324.02
369.306	319.27
369.688	346.62
370.069	318.59
370.45	329.67
370.831	316.79
371.212	324.69
371.593	335.09
371.974	357.69
372.355	348.65
372.736	339.16
373.117	343.68
373.498	345.26
373.879	353.39
374.26	332.15
374.641	334.64
375.021	339.38
375.402	356.78
375.783	336.45
376.163	379.16
376.544	349.55
376.925	330.57
377.305	332.38
377.686	323.56
378.066	355.88
378.447	337.35
378.827	331.47
379.208	351.81
379.588	349.78
379.968	354.52
380.349	366.95
380.729	378.03
381.109	372.15
381.489	374.41
381.87	357.01
382.25	385.48
382.63	356.11
383.01	362.43
383.39	369.89
383.77	372.38
384.15	400.63
384.53	375.31
384.91	369.44
385.29	396.11
385.67	382.77
386.049	391.81
386.429	403.79
386.809	379.83
387.189	394.98
387.568	400.63
387.948	371.02
388.328	381.64
388.707	410.79
389.087	431.58
389.466	432.26
389.846	422.55
390.225	438.82
390.605	440.17
390.984	447.4
391.363	423.22
391.743	451.02
392.122	457.57
392.501	447.4
392.881	477.46
393.26	473.62
393.639	456.67
394.018	472.71
394.397	456.89
394.776	489.66
395.155	495.31
395.534	485.59
395.913	471.13
396.292	491.24
396.671	527.4
397.05	518.36
397.429	540.28
397.808	519.04
398.186	541.19
398.565	571.02
398.944	567.17
399.323	571.92
399.701	582.99
400.08	575.54
400.458	615.99
400.837	612.37
401.215	647.17
401.594	614.18
401.972	639.49
402.351	644.01
402.729	647.4
403.107	659.6
403.486	675.42
403.864	668.41
404.242	678.58
404.62	719.26
404.999	721.75
405.377	697.79
405.755	724.46
406.133	745.25
406.511	756.55
406.889	780.28
407.267	804.46
407.645	820.5
408.023	818.47
408.401	830.67
408.779	849.2
409.156	849.88
409.534	878.13
409.912	904.11
410.29	937.11
410.667	911.8
411.045	942.76
411.422	959.03
411.8	952.7
412.178	1013.26
412.555	1009.42
412.933	992.7
413.31	1041.06
413.687	1035.86
414.065	1058.91
414.442	1076.31
414.819	1091.68
415.197	1088.29
415.574	1100.27
415.951	1141.62
416.328	1128.06
416.705	1173.03
417.082	1145.24
417.46	1166.48
417.837	1203.77
418.214	1219.81
418.591	1210.55
418.967	1229.3
419.344	1222.52
419.721	1244.22
420.098	1268.17
420.475	1290.55
420.852	1260.04
421.228	1296.65
421.605	1304.78
421.982	1347.27
422.358	1350.88
422.735	1359.24
423.111	1371.22
423.488	1370.09
423.864	1398.11
424.241	1411.9
424.617	1421.16
424.994	1440.15
425.37	1438.34
425.746	1482.63
426.123	1514.27
426.499	1493.03
426.875	1514.49
427.251	1513.14
427.627	1561.72
428.003	1595.4
428.379	1592.91
428.756	1625.68
429.132	1657.09
429.507	1676.98
429.883	1717.88
430.259	1719.46
430.635	1706.81
431.011	1757.65
431.387	1796.75
431.763	1833.58
432.138	1858.67
432.514	1874.48
432.89	1819.8
433.265	1889.85
433.641	1955.61
434.016	1949.51
434.392	2001.94
434.767	2025.44
435.143	2011.66
435.518	2036.97
435.894	2035.84
436.269	2090.07
436.644	2131.43
437.02	2163.97
437.395	2151.31
437.77	2191.76
438.145	2246
438.52	2237.86
438.895	2278.99
439.271	2262.72
439.646	2294.36
440.021	2305.43
440.395	2341.14
440.77	2307.47
441.145	2380.01
441.52	2414.58
441.895	2417.52
442.27	2422.72
442.645	2475.15
443.019	2486.67
443.394	2467.69
443.769	2505.65
444.143	2506.33
444.518	2544.52
444.892	2528.48
445.267	2584.3
445.641	2640.34
446.016	2622.71
446.39	2661.58
446.764	2654.35
447.139	2650.96
447.513	2713.33
447.887	2712.88
448.262	2744.74
448.636	2735.7
449.01	2806.89
449.384	2805.08
449.758	2839.66
450.132	2879.43
450.506	2869.49
450.88	2903.61
451.254	2909.03
451.628	3005.08
452.002	3010.05
452.376	3028.13
452.75	3086.66
453.123	3093.21
453.497	3123.04
453.871	3149.48
454.244	3236.03
454.618	3249.36
454.992	3315.8
455.365	3297.95
455.739	3434.9
456.112	3425.86
456.486	3429.92
456.859	3517.61
457.232	3530.49
457.606	3547.43
457.979	3625.85
458.352	3682.12
458.725	3710.59
459.099	3765.28
459.472	3824.94
459.845	3835.11
460.218	3873.3
460.591	3936.58
460.964	3967.76
461.337	4010.02
461.71	4096.8
462.083	4186.29
462.456	4203.46
462.829	4202.78
463.201	4275.33
463.574	4352.16
463.947	4393.51
464.32	4446.39
464.692	4490.46
465.065	4514.87
465.438	4600.51
465.81	4659.5
466.183	4728.42
466.555	4790.79
466.928	4830.79
467.3	4849.1
467.672	4893.61
468.045	5065.59
468.417	5047.28
468.789	5142.2
469.161	5138.35
469.534	5261.29
469.906	5416.76
470.278	5461.96
470.65	5514.16
471.022	5661.28
471.394	5737.89
471.766	5778.56
472.138	5840.93
472.51	5994.38
472.882	6048.84
473.253	6173.35
473.625	6282.05
473.997	6365.21
474.369	6402.5
474.74	6452.9
475.112	6583.06
475.484	6724.53
475.855	6823.28
476.227	6905.09
476.598	7099.88
476.97	7205.87
477.341	7356.83
477.713	7443.38
478.084	7469.14
478.455	7702.58
478.827	7762.47
479.198	8011.27
479.569	8022.35
479.94	8217.82
480.311	8323.35
480.682	8517.25
481.053	8732.16
481.424	8854.41
481.795	8872.04
482.166	9090.57
482.537	9218.47
482.908	9363.1
483.279	9505.47
483.65	9735.29
484.021	9919.24
484.391	10052.12
484.762	10143.87
485.133	10116.75
485.503	10444.43
485.874	10550.87
486.244	10723.29
486.615	10969.84
486.985	11032.66
487.356	11316.27
487.726	11278.31
488.097	11649.82
488.467	11633.1
488.837	11923.03
489.207	12020.66
489.578	12227.21
489.948	12300.88
490.318	12475.34
490.688	12564.15
491.058	12816.8
491.428	12971.14
491.798	13091.59
492.168	13373.62
492.538	13491.58
492.908	13644.12
493.278	13814.96
493.648	13814.96
494.017	14014.05
494.387	14106.03
494.757	14244.55
495.126	14406.13
495.496	14443.65
495.866	14641.38
496.235	14830.75
496.605	14950.75
496.974	15002.5
497.344	15182.38
497.713	15308.03
498.082	15373.34
498.452	15529.72
498.821	15697.17
499.19	15699.43
499.559	15908.01
499.928	16050.84
500.298	16121.34
500.667	16323.14
501.036	16327.66
501.405	16579.86
501.774	16503.03
502.143	16723.13
502.512	16770.36
502.88	16986.63
503.249	16992.96
503.618	17122.9
503.987	17270.69
504.356	17419.16
504.724	17507.97
505.093	17628.65
505.462	17695.54
505.83	17950.22
506.199	18040.61
506.567	18274.73
506.936	18238.8
507.304	18492.13
507.672	18500.94
508.041	18686.47
508.409	18817.99
508.777	18985.67
509.145	19102.28
509.514	19102.73
509.882	19408.94
510.25	19485.77
510.618	19617.97
510.986	19762.83
511.354	19868.59
511.722	20062.48
512.09	20337.5
512.458	20251.4
512.826	20466.09
513.193	20682.58
513.561	20773.65
513.929	20949.01
514.297	21120.76
514.664	21263.58
515.032	21353.52
515.4	21523.69
515.767	21677.13
516.135	21866.95
516.502	21657.47
516.869	22183.78
517.237	22174.06
517.604	22198.47
517.972	22491.12
518.339	22716.65
518.706	22758
519.073	22836.19
519.44	22975.85
519.808	23366.57
520.175	23343.98
520.542	23648.83
520.909	23736.96
521.276	23873.23
521.643	24178.76
522.009	24272.31
522.376	24369.03
522.743	24548.24
523.11	24843.37
523.477	25103.03
523.843	25181.89
524.21	25423.24
524.577	25661.43
524.943	25792.95
525.31	26013.74
525.676	26263.9
526.043	26324.46
526.409	26373.5
526.776	26746.15
527.142	26787.95
527.508	27052.35
527.874	27205.12
528.241	27333.48
528.607	27494.15
528.973	27770.07
529.339	27765.78
529.705	28101.37
530.071	28251.87
530.437	28337.07
530.803	28526.21
531.169	28585.42
531.535	28643.95
531.901	28850.5
532.267	28923.26
532.632	29113.77
532.998	29239.19
533.364	29410.71
533.73	29443.93
534.095	29780.64
534.461	29892.73
534.826	29996.23
535.192	30125.27
535.557	30440.06
535.923	30377.46
536.288	30617.23
536.653	30682.09
537.019	30691.35
537.384	30801.86
537.749	31026.94
538.114	31182.19
538.479	31120.27
538.845	31503.99
539.21	31431.22
539.575	31508.06
539.94	31691.33
540.305	31924.09
540.67	31681.84
541.034	31881.38
541.399	32150.07
541.764	32310.97
542.129	32429.16
542.494	32515.71
542.858	32652.88
543.223	32572.66
543.587	32897.85
543.952	32962.25
544.316	32966.32
544.681	32994.34
545.045	33199.99
545.41	33269.59
545.774	33480.89
546.138	33507.55
546.503	33625.74
546.867	33805.17
547.231	34119.96
547.595	34123.58
547.959	34349.79
548.324	34465.04
548.688	34432.95
549.052	34568.54
549.416	34690.8
549.779	34867.06
550.143	34871.58
550.507	35118.36
550.871	35197.68
551.235	35326.03
551.599	35649.19
551.962	35700.71
552.326	35906.58
552.689	36181.61
553.053	36082.4
553.417	36150.19
553.78	36584.76
554.143	36475.83
554.507	36841.25
554.87	36884.41
555.234	37350.61
555.597	37062.49
555.96	37308.13
556.323	37510.84
556.686	37579.99
557.05	37820.66
557.413	38051.39
557.776	38210.48
558.139	38530.02
558.502	38488.21
558.865	38587.42
559.228	39000.51
559.59	39116.67
559.953	39163.9
560.316	39562.76
560.679	39520.05
561.041	39818.12
561.404	39988.28
561.767	40279.8
562.129	40064.89
562.492	40434.37
562.854	40505.33
563.217	40602.73
563.579	40804.76
563.941	41086.79
564.304	41254.92
564.666	41469.38
565.028	41615.81
565.39	41572.88
565.753	41817.84
566.115	42078.85
566.477	42101
566.839	42277.04
567.201	42462.8
567.563	42561.55
567.925	42819.62
568.287	42947.3
568.648	42868.89
569.01	43377.8
569.372	43338.03
569.734	43344.13
570.095	43735.08
570.457	43803.78
570.819	43916.32
571.18	43978.69
571.542	44349.07
571.903	44241.05
572.265	44569.86
572.626	44558.79
572.987	44621.61
573.349	44762.17
573.71	44948.61
574.071	44997.64
574.432	45257.52
574.794	45334.58
575.155	45381.82
575.516	45359.89
575.877	45437.86
576.238	45611.19
576.599	45669.94
576.96	45668.14
577.32	45662.94
577.681	45827.45
578.042	46028.13
578.403	45934.57
578.763	45900.45
579.124	46059.99
579.485	46198.97
579.845	46298.4
580.206	46235.35
580.566	46250.72
580.927	46249.81
581.287	46504.95
581.648	46400.55
582.008	46602.8
582.368	46448.68
582.728	46607.77
583.089	46645.74
583.449	46494.1
583.809	46727.32
584.169	46650.03
584.529	46545.85
584.889	46819.97
585.249	46625.62
585.609	46624.72
585.969	46888.22
586.329	46642.57
586.688	46950.59
587.048	46869.69
587.408	46742.46
587.768	46928.89
588.127	46651.16
588.487	46722.34
588.846	46944.71
589.206	46751.72
589.565	46798.73
589.925	46943.13
590.284	46804.15
590.643	46859.74
591.003	46972.96
591.362	47061.32
591.721	46904.49
592.08	46932.96
592.44	47003.47
592.799	47095.44
593.158	46887.54
593.517	47003.02
593.876	47019.51
594.235	46910.36
594.593	47025.39
594.952	47187.19
595.311	46987.42
595.67	47116.68
596.029	47360.07
596.387	47325.72
596.746	47324.14
597.104	47134.54
597.463	47273.06
597.822	47281.43
598.18	47097.7
598.538	47189.45
598.897	47369.33
599.255	47090.47
599.613	47594.41
599.972	47269.68
600.33	47546.5
600.688	47327.53
601.046	47562.55
601.404	47664.02
601.762	47391.03
602.12	47756.89
602.478	47640.74
602.836	47808.19
603.194	47613.17
603.552	47556.9
603.91	47614.07
604.268	47806.16
604.625	47725.48
604.983	47893.16
605.341	47679.16
605.698	47965.7
606.056	47871.69
606.413	48134.06
606.771	48052.48
607.128	48238.92
607.485	48023.78
607.843	48021.29
608.2	48308.97
608.557	48342.19
608.914	48316.65
609.272	48424.67
609.629	48505.8
609.986	48545.8
610.343	48360.72
610.7	48628.51
611.057	48540.38
611.414	48516.2
611.771	48623.76
612.127	48649.75
612.484	48702.63
612.841	48924.32
613.198	48642.07
613.554	48775.17
613.911	48943.76
614.267	48948.28
614.624	48805.68
614.98	49011.1
615.337	49146.91
615.693	49000.93
616.05	49136.07
616.406	49216.74
616.762	49159.79
617.118	49127.48
617.475	49234.14
617.831	49240.02
618.187	49333.35
618.543	49359.11
618.899	49442.05
619.255	49472.33
619.611	49410.64
619.967	49601.14
620.323	49605.43
620.678	49467.36
621.034	49391.88
621.39	49450.41
621.746	49427.58
622.101	49797.52
622.457	49479.33
622.812	49558.65
623.168	49659.67
623.523	49670.29
623.879	49759.55
624.234	49410.64
624.589	49554.36
624.945	49578.09
625.3	49624.42
625.655	49649.73
626.01	49666.45
626.365	49692.21
626.72	49620.12
627.075	49615.83
627.43	49722.72
627.785	49484.08
628.14	49755.03
628.495	49606.79
628.85	49663.96
629.205	49441.14
629.559	49673.91
629.914	49504.19
630.269	49542.38
630.623	49457.87
630.978	49247.7
631.332	49490.63
631.687	49565.21
632.041	49337.64
632.396	49400.24
632.75	49237.53
633.104	49385.1
633.459	49144.65
633.813	49165.22
634.167	49226.01
634.521	49101.04
634.875	49239.57
635.229	48998.44
635.583	48840.93
635.937	48944.89
636.291	48861.5
636.645	48899.24
636.999	48735.85
637.352	48940.59
637.706	48727.72
638.06	48833.7
638.413	48701.28
638.767	48656.76
639.121	48682.97
639.474	48428.97
639.828	48552.13
640.181	48522.75
640.534	48424.22
640.888	48360.95
641.241	48267.16
641.594	48332.92
641.947	48386.71
642.301	48362.08
642.654	48401.85
643.007	48275.3
643.36	48130.67
643.713	48074.4
644.066	48379.93
644.419	48120.05
644.771	47784.01
645.124	47422.67
645.477	47251.6
645.83	47112.39
646.182	46923.47
646.535	46809.8
646.888	46979.06
647.24	46703.81
647.593	46946.07
647.945	46806.41
648.298	46513.54
648.65	46443.26
649.002	46362.13
649.355	46613.65
649.707	46630.37
650.059	46654.32
650.411	46994.43
650.763	47049.57
651.115	47415.43
651.467	47233.97
651.819	47313.52
652.171	47136.35
652.523	47187.42
652.875	47205.27
653.227	46871.49
653.578	47252.73
653.93	47115.1
654.282	46854.32
654.633	46839.18
654.985	46797.6
655.337	46909.01
655.688	46937.71
656.039	46974.32
656.391	46544.27
656.742	46765.96
657.094	46782
657.445	46900.65
657.796	46732.29
658.147	46656.36
658.498	46640.99
658.849	46660.2
659.2	46655.23
659.551	46520.99
659.902	46561.45
660.253	46503.82
660.604	46565.06
660.955	46317.16
661.306	46447.1
661.656	46308.8
662.007	46392.18
662.358	46306.31
662.708	46299.76
663.059	46239.42
663.409	46030.16
663.76	46470.83
664.11	46371.85
664.461	46414.33
664.811	46334.11
665.161	46257.27
665.511	46179.08
665.862	46309.02
666.212	46435.35
666.562	46307.89
666.912	46261.79
667.262	46001.46
667.612	46157.84
667.962	46177.05
668.312	46216.14
668.662	46226.54
669.011	46076.03
669.361	45960.11
669.711	45982.25
670.06	45842.82
670.41	45830.84
670.76	45729.15
671.109	45900.9
671.459	45730.73
671.808	45825.87
672.157	45943.83
672.507	45635.37
672.856	45556.73
673.205	45779.09
673.554	45805.76
673.904	45440.34
674.253	45738.19
674.602	45535.03
674.951	45075.61
675.3	44682.4
675.649	45320.35
675.998	45387.92
676.346	45377.52
676.695	45542.26
677.044	45215.49
677.393	45266.11
677.741	45234.25
678.09	45083.74
678.438	45140.24
678.787	45125.1
679.135	45064.99
679.484	44746.13
679.832	44911.09
680.181	44888.95
680.529	44889.62
680.877	44711.55
681.225	44716.75
681.573	44874.71
681.922	44612.57
682.27	44375.06
682.618	44642.17
682.966	44349.75
683.314	44403.54
683.661	44278.79
684.009	44074.96
684.357	43905.92
684.705	43778.24
685.053	43932.81
685.4	43828.41
685.748	43631.35
686.095	43749.77
686.443	43544.12
686.79	43429.32
687.138	43542.99
687.485	43501.64
687.832	43412.6
688.18	43349.78
688.527	43029.33
688.874	43202.66
689.221	43150.24
689.568	42893.07
689.915	42818.04
690.262	42822.79
690.609	42622.57
690.956	42589.8
691.303	42386.87
691.65	42307.77
691.997	42325.85
692.344	42147.55
692.69	42112.3
693.037	42048.57
693.383	41745.07
693.73	41902.36
694.077	41699.43
694.423	41591.86
694.769	41489.04
695.116	41268.7
695.462	41324.75
695.808	41134.7
696.155	41235.71
696.501	40953.46
696.847	41038.43
697.193	40560.25
697.539	40791.43
697.885	40465.33
698.231	40293.59
698.577	40367.48
698.923	40412.45
699.269	40163.87
699.614	40084.55
699.96	40098.79
700.306	40016.08
700.651	39772.47
700.997	39603.44
701.342	39505.36
701.688	39604.34
702.033	39291.81
702.379	39303.33
702.724	39216.33
703.069	39269.66
703.415	38916.67
703.76	38923.91
704.105	38868.99
704.45	38872.83
704.795	38537.7
705.14	38411.6
705.485	38611.6
705.83	38182.23
706.175	38270.36
706.52	38229.69
706.865	38106.3
707.209	38015.91
707.554	37916.93
707.899	38175.45
708.243	37786.99
708.588	37660.21
708.932	37516.49
709.277	37492.98
709.621	37561
709.966	37309.94
710.31	37408.69
710.654	37015.71
710.998	37105.42
711.342	37156.27
711.687	37101.81
712.031	36799.22
712.375	36757.86
712.719	36851.19
713.063	36580.92
713.407	36764.64
713.75	36601.03
714.094	36486.46
714.438	36405.1
714.782	36443.07
715.125	36201.72
715.469	36276.29
715.812	35998.56
716.156	35927.83
716.499	35993.81
716.843	36000.37
717.186	35718.79
717.53	35950.42
717.873	35890.99
718.216	35668.62
718.559	35603.99
718.902	35492.36
719.246	35552.02
719.589	35342.76
719.932	35189.54
720.275	35232.93
720.617	35240.39
720.96	35224.57
721.303	35057.11
721.646	35000.39
721.989	34979.83
722.331	35075.19
722.674	34872.94
723.016	34915.88
723.359	34823.9
723.701	34735.54
724.044	34556.56
724.386	34445.38
724.729	34694.19
725.071	34473.4
725.413	34493.29
725.755	34292.16
726.097	34293.29
726.439	34122.22
726.782	34007.43
727.124	34205.84
727.465	34166.97
727.807	34063.47
728.149	34027.99
728.491	33840.88
728.833	33809.46
729.175	33693.76
729.516	33649.24
729.858	33698.73
730.199	33742.57
730.541	33633.88
730.882	33525.18
731.224	33598.85
731.565	33258.97
731.906	33375.35
732.248	33416.93
732.589	33148.24
732.93	33061.01
733.271	33138.07
733.612	33152.53
733.953	33064.17
734.294	32961.12
734.635	32927
734.976	32973.33
735.317	32780.34
735.658	32885.87
735.999	32825.31
736.339	32644.75
736.68	32748.93
737.021	32609.95
737.361	32494.24
737.702	32721.13
738.042	32562.04
738.383	32424.19
738.723	32459.9
739.063	32415.38
739.404	32336.28
739.744	32347.13
740.084	32174.25
740.424	32124.76
740.764	32135.84
741.104	32235.95
741.444	31998.44
741.784	31931.32
742.124	31880.48
742.464	31855.62
742.804	31757.09
743.143	31695.17
743.483	31668.73
743.823	31460.6
744.162	31597.54
744.502	31609.52
744.841	31445.68
745.181	31530.43
745.52	31331.34
745.86	31465.57
746.199	31434.39
746.538	31351.45
746.877	31265.12
747.216	31167.05
747.556	31214.5
747.895	31080.04
748.234	30967.73
748.573	30906.26
748.911	30901.74
749.25	30890.44
749.589	30741.3
749.928	30911.91
750.267	30839.37
750.605	30620.4
750.944	30557.35
751.283	30499.27
751.621	30489.33
751.96	30290.01
752.298	30411.59
752.636	30314.64
752.975	30240.07
753.313	30093.86
753.651	30288.88
753.989	30031.71
754.327	29946.29
754.666	29783.58
755.004	29916.69
755.342	29870.36
755.679	29764.82
756.017	29570.48
756.355	29736.12
756.693	29578.16
757.031	29533.87
757.368	29495.68
757.706	29518.5
758.044	29301.79
758.381	29401.22
758.719	29131.4
759.056	29254.56
759.394	29033.32
759.731	28728.47
760.068	28797.39
760.405	28796.04
760.743	28732.99
761.08	28712.2
761.417	28341.13
761.754	28430.4
762.091	28356.05
762.428	28200.35
762.765	28136.39
763.102	28273.56
763.438	28032.44
763.775	27923.07
764.112	27983.63
764.449	27899.56
764.785	27786.57
765.122	27601.27
765.458	27497.54
765.795	27566.92
766.131	27368.73
766.467	27383.64
766.804	27171.45
767.14	27127.83
767.476	27031.11
767.812	26922.87
768.148	26964.45
768.485	26784.79
768.821	26720.16
769.157	26693.04
769.492	26618.69
769.828	26547.06
770.164	26207.18
770.5	26248.76
770.836	26247.86
771.171	26014.41
771.507	26025.94
771.842	25810.13
772.178	25776.68
772.513	25679.06
772.849	25462.79
773.184	25400.65
773.519	25401.78
773.855	25331.49
774.19	25225.28
774.525	25166.98
774.86	25082.46
775.195	25095.12
775.53	24995.01
775.865	24668.46
776.2	24664.62
776.535	24498.3
776.87	24538.97
777.205	24410.84
777.539	24312.31
777.874	24356.38
778.209	24175.82
778.543	24210.39
778.878	23978.76
779.212	23958.2
779.547	23804.76
779.881	23847.01
780.215	23708.26
780.55	23647.02
780.884	23603.86
781.218	23558.21
781.552	23465.33
781.886	23363.41
782.22	23101.05
782.554	23184.21
782.888	22902.86
783.222	22786.48
783.556	22757.33
783.889	22701.51
784.223	22463.1
784.557	22482.98
784.89	22545.81
785.224	22401.85
785.557	22305.13
785.891	22271.91
786.224	22166.15
786.558	22107.85
786.891	21968.19
787.224	21862.89
787.557	21823.79
787.891	21812.94
788.224	21712.16
788.557	21793.96
788.89	21685.94
789.223	21555.78
789.556	21398.27
789.888	21411.6
790.221	21191.04
790.554	20991.27
790.887	21073.3
791.219	21108.1
791.552	20921.44
791.884	20839.41
792.217	20828.34
792.549	20704.95
792.882	20588.34
793.214	20446.2
793.546	20605.97
793.879	20492.07
794.211	20285.75
794.543	20334.56
794.875	20314
795.207	20392.19
795.539	20145.42
795.871	20194
796.203	19986.55
796.535	19917.4
796.867	19904.97
797.198	19780
797.53	19756.05
797.862	19806.89
798.193	19735.03
798.525	19614.36
798.856	19631.08
799.188	19406.9
799.519	19319.45
799.85	19264.76
800.182	19217.08
800.513	19245.1
800.844	19071.77
801.175	19153.13
801.506	18988.16
801.837	18889.4
802.168	18883.3
802.499	18792.68
802.83	18768.73
803.161	18657.09
803.491	18650.77
803.822	18656.64
804.153	18549.53
804.483	18401.51
804.814	18306.59
805.145	18455.29
805.475	18332.13
805.805	18321.74
806.136	18288.97
806.466	18246.03
806.796	18155.41
807.126	18062.76
807.457	17990.67
807.787	18037.9
808.117	17874.06
808.447	17809.21
808.777	17843.1
809.107	17736.89
809.436	17735.31
809.766	17717.91
810.096	17698.25
810.426	17572.83
810.755	17620.51
811.085	17515.2
811.414	17531.02
811.744	17350.01
812.073	17337.35
812.403	17257.81
812.732	17275.44
813.061	17264.14
813.39	17101.2
813.719	17119.06
814.049	17159.05
814.378	17091.49
814.707	16992.28
815.036	17013.97
815.365	16920.64
815.693	16708.22
816.022	16764.49
816.351	16732.63
816.68	16585.74
817.008	16652.4
817.337	16574.44
817.665	16510.26
817.994	16527.43
818.322	16472.07
818.651	16399.98
818.979	16328.12
819.307	16377.83
819.636	16400.88
819.964	16254.67
820.292	16222.13
820.62	16224.62
820.948	16226.2
821.276	16237.72
821.604	16167.67
821.932	16179.42
822.259	16187.78
822.587	16203.15
822.915	16133.32
823.243	16115.92
823.57	16088.8
823.898	16110.04
824.225	16046.32
824.553	16105.07
824.88	16119.53
825.207	16116.6
825.535	16085.41
825.862	16223.49
826.189	16028.69
826.516	16111.62
826.843	16269.13
827.17	16138.29
827.497	16108.01
827.824	16112.75
828.151	16153.43
828.478	16124.73
828.805	16193.2
829.131	16101.68
829.458	16031.63
829.785	15978.29
830.111	16039.54
830.438	16165.63
830.764	16050.84
831.09	16011.29
831.417	15996.15
831.743	16044.96
832.069	16042.25
832.395	15902.82
832.722	15988.69
833.048	15900.33
833.374	15967
833.7	15800.9
834.026	15941.46
834.351	15936.71
834.677	15876.38
835.003	15957.28
835.329	15969.71
835.654	15800.45
835.98	15882.7
836.306	15882.48
836.631	15778.3
836.956	15886.55
837.282	15744.18
837.607	15703.5
837.932	15672.31
838.258	15614.46
838.583	15606.1
838.908	15555.03
839.233	15563.39
839.558	15594.12
839.883	15540.79
840.208	15475.93
840.533	15495.82
840.858	15468.48
841.182	15442.49
841.507	15364.75
841.832	15273.91
842.156	15280.69
842.481	15246.34
842.805	15216.51
843.13	15138.77
843.454	15158.66
843.778	15023.97
844.103	15068.94
844.427	14945.33
844.751	15040.01
845.075	14981.03
845.399	14893.35
845.723	14838.89
846.047	14849.74
846.371	14698.1
846.695	14737.65
847.019	14620.59
847.343	14610.65
847.666	14460.59
847.99	14496.98
848.313	14499.24
848.637	14362.74
848.96	14355.74
849.284	14281.39
849.607	14112.81
849.931	14099.7
850.254	14065.35
850.577	13988.97
850.9	13916.65
851.223	13922.3
851.546	13824
851.869	13722.53
852.192	13734.74
852.515	13692.93
852.838	13630.56
853.161	13705.81
853.483	13504.01
853.806	13464.69
854.129	13461.52
854.451	13398.02
854.774	13297.91
855.096	13335.2
855.419	13280.96
855.741	13228.08
856.063	13210.46
856.385	13105.38
856.708	13161.42
857.03	13062.21
857.352	13063.79
857.674	12973.4
857.996	12958.94
858.318	12803.24
858.64	12828.77
858.961	12911.71
859.283	12731.6
859.605	12734.31
859.926	12790.13
860.248	12724.37
860.57	12579.74
860.891	12577.03
861.212	12667.65
861.534	12497.71
861.855	12516.92
862.176	12569.12
862.498	12471.72
862.819	12475.56
863.14	12349.24
863.461	12433.98
863.782	12380.65
864.103	12440.53
864.424	12336.13
864.745	12321.67
865.065	12269.92
865.386	12155.12
865.707	12225.85
866.027	12249.13
866.348	12142.01
866.668	12132.75
866.989	12057.27
867.309	12060.43
867.63	11992.64
867.95	12055.23
868.27	11997.83
868.59	11941.79
868.91	11852.98
869.23	11999.87
869.55	11930.49
869.87	12003.71
870.19	11862.7
870.51	11937.27
870.83	11957.38
871.15	11863.83
871.469	11858.18
871.789	11875.8
872.109	11770.04
872.428	11743.83
872.748	11758.07
873.067	11792.87
873.386	11678.97
873.706	11762.13
874.025	11696.83
874.344	11601.46
874.663	11742.25
874.982	11714
875.301	11658.86
875.62	11526.43
875.939	11564.4
876.258	11589.71
876.577	11570.95
876.896	11556.26
877.214	11405.31
877.533	11481.01
877.852	11483.95
878.17	11436.95
878.489	11439.43
878.807	11413.44
879.125	11343.39
879.444	11332.32
879.762	11309.49
880.08	11408.47
880.398	11233.11
880.716	11287.57
881.034	11211.41
881.352	11177.97
881.67	11191.75
881.988	11203.05
882.306	11204.41
882.624	11120.12
882.941	11108.14
883.259	11024.53
883.577	11066.33
883.894	10965.77
884.212	10977.52
884.529	10921.93
884.846	10958.09
885.164	10907.02
885.481	10904.3
885.798	10856.85
886.115	10825.66
886.432	10793.57
886.75	10793.12
887.067	10758.32
887.383	10670.86
887.7	10799.22
888.017	10706.79
888.334	10675.61
888.651	10623.18
888.967	10651.88
889.284	10585.89
889.6	10516.74
889.917	10464.54
890.233	10502.51
890.55	10422.51
890.866	10466.35
891.182	10346.58
891.498	10448.5
891.815	10344.32
892.131	10275.62
892.447	10217.77
892.763	10279.24
893.079	10266.58
893.395	10155.85
893.71	10155.85
894.026	10181.61
894.342	10061.16
894.657	9989.3
894.973	10005.8
895.289	9967.15
895.604	9923.31
895.92	9892.13
896.235	9883.99
896.55	9873.14
896.865	9865.01
897.181	9783.2
897.496	9761.96
897.811	9718.8
898.126	9707.95
898.441	9714.05
898.756	9622.53
899.071	9578.69
899.386	9554.96
899.7	9480.16
900.015	9432.25
900.33	9354.51
900.644	9390.67
900.959	9408.75
901.273	9397.68
901.588	9287.4
901.902	9251.01
902.216	9225.7
902.531	9194.52
902.845	9179.38
903.159	9091.47
903.473	9101.87
903.787	9028.65
904.101	8996.11
904.415	9003.79
904.729	8952.04
905.042	8913.17
905.356	8929.21
905.67	8870.91
905.984	8901.64
906.297	8795.43
906.611	8818.93
906.924	8788.65
907.237	8693.06
907.551	8678.37
907.864	8612.39
908.177	8667.3
908.491	8643.8
908.804	8554.08
909.117	8545.72
909.43	8470.24
909.743	8465.27
910.056	8389.57
910.368	8345.27
910.681	8384.37
910.994	8275.67
911.307	8247.65
911.619	8272.28
911.932	8194.09
912.244	8172.62
912.557	8186.41
912.869	8123.13
913.181	8048.33
913.494	8080.88
913.806	8027.09
914.118	7921.56
914.43	7888.34
914.742	7962.01
915.054	7906.42
915.366	7869.58
915.678	7827.32
915.99	7782.13
916.302	7747.32
916.613	7746.19
916.925	7709.59
917.236	7661.23
917.548	7604.05
917.859	7628.91
918.171	7573.32
918.482	7542.58
918.794	7492.64
919.105	7479.76
919.416	7467.56
919.727	7366.77
920.038	7355.92
920.349	7318.64
920.66	7270.73
920.971	7313.66
921.282	7191.86
921.593	7137.17
921.903	7189.37
922.214	7152.76
922.525	7139.88
922.835	7113.22
923.146	7015.37
923.456	7018.53
923.767	7032.99
924.077	6954.35
924.387	6961.58
924.697	6927.69
925.008	6902.38
925.318	6884.52
925.628	6825.09
925.938	6766.11
926.248	6748.03
926.558	6713.91
926.867	6681.59
927.177	6642.49
927.487	6671.87
927.796	6581.03
928.106	6518.2
928.416	6548.49
928.725	6555.04
929.034	6439.56
929.344	6450.64
929.653	6437.3
929.962	6384.65
930.271	6397.98
930.581	6309.85
930.89	6293.8
931.199	6284.31
931.508	6306.46
931.817	6253.58
932.125	6217.2
932.434	6189.4
932.743	6166.58
933.051	6130.19
933.36	6150.98
933.669	6077.31
933.977	6045.45
934.286	6013.58
934.594	6023.3
934.902	5974.26
935.21	5967.94
935.519	6006.13
935.827	5909.63
936.135	5922.06
936.443	5838.45
936.751	5805
937.059	5799.58
937.367	5787.6
937.674	5741.05
937.982	5751.67
938.29	5669.41
938.597	5698.56
938.905	5622.86
939.213	5648.4
939.52	5583.99
939.827	5632.35
940.135	5505.58
940.442	5541.96
940.749	5501.73
941.056	5509.64
941.363	5454.28
941.67	5455.63
941.977	5392.58
942.284	5386.71
942.591	5365.01
942.898	5343.55
943.205	5354.62
943.511	5312.81
943.818	5277.78
944.125	5226.94
944.431	5213.38
944.738	5214.51
945.044	5207.5
945.35	5152.14
945.657	5127.28
945.963	5111.69
946.269	5097.68
946.575	5082.08
946.881	5050.45
947.187	5061.75
947.493	5032.82
947.799	5004.8
948.105	4988.53
948.41	4918.92
948.716	4886.38
949.022	4857.68
949.327	4911.47
949.633	4807.51
949.938	4810.9
950.244	4834.18
950.549	4781.3
950.854	4809.77
951.16	4758.02
951.465	4725.94
951.77	4686.16
952.075	4687.74
952.38	4682.09
952.685	4699.72
952.99	4586.05
953.294	4600.29
953.599	4581.53
953.904	4575.66
954.209	4513.06
954.513	4527.52
954.818	4551.48
955.122	4497.69
955.426	4459.28
955.731	4440.52
956.035	4409.79
956.339	4427.41
956.643	4419.28
956.948	4353.52
957.252	4352.61
957.556	4362.33
957.86	4276.46
958.163	4336.11
958.467	4286.4
958.771	4283.23
959.075	4251.82
959.378	4232.39
959.682	4240.98
959.985	4158.27
960.289	4202.33
960.592	4161.88
960.896	4122.56
961.199	4132.28
961.502	4088.89
961.805	4085.05
962.108	4092.28
962.411	4018.38
962.714	4021.09
963.017	3972.73
963.32	4019.06
963.623	3943.81
963.926	3964.6
964.228	3948.1
964.531	3952.4
964.833	3920.31
965.136	3858.16
965.438	3862.23
965.741	3846.18
966.043	3880.08
966.345	3819.07
966.648	3797.15
966.95	3805.96
967.252	3758.28
967.554	3756.92
967.856	3726.19
968.158	3682.57
968.46	3678.28
968.761	3705.17
969.063	3629.92
969.365	3640.09
969.666	3631.05
969.968	3584.95
970.269	3655.23
970.571	3581.11
970.872	3565.29
971.174	3487.55
971.475	3504.72
971.776	3549.02
972.077	3539.75
972.378	3511.05
972.679	3485.06
972.98	3481
973.281	3477.38
973.582	3426.53
973.883	3412.3
974.183	3373.2
974.484	3379.3
974.785	3354.9
975.085	3393.54
975.386	3366.2
975.686	3336.82
975.986	3306.09
976.287	3345.18
976.587	3279.42
976.887	3316.48
977.187	3255.01
977.487	3251.85
977.787	3201.91
978.087	3195.13
978.387	3179.76
978.687	3200.78
978.987	3169.82
979.286	3137.95
979.586	3167.11
979.885	3108.12
980.185	3142.02
980.484	3091.63
980.784	3085.53
981.083	3088.69
981.382	3085.3
981.682	3041.46
981.981	2994.91
982.28	2984.51
982.579	2987.45
982.878	2992.42
983.177	2959.65
983.475	2962.37
983.774	2951.74
984.073	2897.28
984.372	2931.41
984.67	2924.17
984.969	2886.66
985.267	2904.29
985.566	2838.53
985.864	2842.37
986.162	2854.57
986.461	2815.7
986.759	2800.56
987.057	2763.95
987.355	2785.65
987.653	2769.38
987.951	2726.89
988.249	2764.63
988.547	2745.65
988.844	2716.04
989.142	2691.86
989.44	2716.72
989.737	2627.46
990.035	2685.99
990.332	2692.99
990.63	2627.91
990.927	2639.89
991.224	2658.19
991.521	2598.76
991.819	2622.49
992.116	2593.79
992.413	2575.94
992.71	2556.95
993.006	2532.77
993.303	2558.53
993.6	2558.08
993.897	2537.74
994.193	2531.19
994.49	2491.42
994.787	2505.65
995.083	2483.96
995.379	2449.38
995.676	2460.68
995.972	2432.66
996.268	2463.4
996.565	2412.78
996.861	2409.84
997.157	2395.15
997.453	2379.78
997.749	2374.81
998.044	2346.11
998.34	2358.77
998.636	2322.16
998.932	2323.51
999.227	2327.35
999.523	2316.96
999.818	2274.7
1000.114	2250.75
1000.409	2232.89
1000.704	2231.76
1001	2238.54
1001.295	2247.36
1001.59	2215.94
1001.885	2213.01
1002.18	2191.09
1002.475	2173.46
1002.77	2183.18
1003.065	2168.71
1003.359	2116.96
1003.654	2160.58
1003.949	2103.18
1004.243	2125.1
1004.538	2086.68
1004.832	2116.96
1005.127	2064.08
1005.421	2030.86
1005.715	2036.06
1006.009	2062.73
1006.304	2027.25
1006.598	2024.76
1006.892	2027.25
1007.186	1986.57
1007.48	1972.56
1007.773	1975.27
1008.067	1961.71
1008.361	1948.38
1008.655	1942.51
1008.948	1906.12
1009.242	1909.29
1009.535	1872.9
1009.829	1917.87
1010.122	1881.26
1010.415	1855.05
1010.708	1838.33
1011.001	1868.84
1011.295	1853.47
1011.588	1806.24
1011.881	1818.21
1012.173	1800.36
1012.466	1792.23
1012.759	1758.78
1013.052	1780.48
1013.344	1760.82
1013.637	1752.91
1013.93	1740.48
1014.222	1739.8
1014.514	1725.34
1014.807	1696.18
1015.099	1722.4
1015.391	1670.2
1015.683	1681.72
1015.976	1662.06
1016.268	1653.47
1016.56	1639.01
1016.851	1640.59
1017.143	1632.68
1017.435	1610.31
1017.727	1613.47
1018.018	1625
1018.31	1581.61
1018.602	1593.14
1018.893	1565.79
1019.185	1552.91
1019.476	1552.69
1019.767	1568.73
1020.058	1532.8
1020.35	1513.59
1020.641	1510.88
1020.932	1501.61
1021.223	1492.57
1021.514	1488.73
1021.804	1454.16
1022.095	1455.96
1022.386	1447.6
1022.677	1446.47
1022.967	1429.07
1023.258	1416.42
1023.548	1389.07
1023.839	1409.19
1024.129	1405.8
1024.419	1390.88
1024.709	1355.4
1025	1371
1025.29	1352.01
1025.58	1332.8
1025.87	1299.36
1026.16	1330.54
1026.449	1339.13
1026.739	1288.96
1027.029	1300.49
1027.319	1286.93
1027.608	1275.4
1027.898	1280.6
1028.187	1253.94
1028.477	1243.09
1028.766	1258
1029.055	1271.56
1029.344	1228.4
1029.634	1197.44
1029.923	1201.96
1030.212	1197.44
1030.501	1219.36
1030.79	1201.51
1031.078	1177.1
1031.367	1177.55
1031.656	1169.87
1031.945	1166.71
1032.233	1149.76
1032.522	1158.35
1032.81	1135.52
1033.099	1137.33
1033.387	1119.93
1033.675	1114.5
1033.963	1120.15
1034.251	1088.97
1034.54	1096.2
1034.828	1081.96
1035.116	1072.7
1035.403	1076.31
1035.691	1071.12
1035.979	1055.52
1036.267	1040.61
1036.554	1030.44
1036.842	1046.71
1037.129	1017.56
1037.417	1020.72
1037.704	1030.89
1037.992	1025.24
1038.279	991.34
1038.566	994.28
1038.853	994.28
1039.14	994.28
