Data from white_wall_FLMS001491_006.txt Node
Date: Tue Feb 07 11:03:12 GMT 2017
User: dcchb
Spectrometer: FLMS00149
Trigger mode: 0
Integration Time (sec): 2.000000E-2
Scans to average: 10
Electric dark correction enabled: true
Nonlinearity correction enabled: false
Boxcar width: 0
XAxis mode: Wavelengths
Number of Pixels in Spectrum: 2048
>>>>>Begin Spectral Data<<<<<
341.393	-13.74
341.776	-13.74
342.16	-13.74
342.543	-54.42
342.927	-73.18
343.31	-81.31
343.693	-70.01
344.077	-66.17
344.46	-70.69
344.843	-38.6
345.226	-43.8
345.61	-29.56
345.993	-34.53
346.376	5.24
346.759	20.83
347.142	34.62
347.525	36.65
347.908	64
348.291	76.88
348.674	82.3
349.057	114.16
349.44	129.08
349.823	135.86
350.206	172.69
350.588	210.66
350.971	241.39
351.354	255.63
351.737	256.76
352.119	273.71
352.502	252.01
352.884	275.52
353.267	276.42
353.65	303.54
354.032	291.11
354.414	330.88
354.797	310.32
355.179	336.08
355.562	329.53
355.944	346.93
356.326	351.9
356.709	363.2
357.091	358
357.473	367.49
357.855	361.39
358.238	359.13
358.62	355.97
359.002	343.76
359.384	377.21
359.766	355.51
360.148	358
360.53	331.56
360.912	353.48
361.294	372.69
361.676	350.32
362.057	355.29
362.439	364.55
362.821	362.74
363.203	338.11
363.584	345.12
363.966	358
364.348	370.65
364.729	333.14
365.111	346.02
365.493	355.51
365.874	337.43
366.256	325.01
366.637	336.53
367.019	342.86
367.4	354.84
367.781	331.79
368.163	347.6
368.544	317.55
368.925	339.92
369.306	344.67
369.688	357.77
370.069	313.03
370.45	327.27
370.831	346.7
371.212	329.75
371.593	343.54
371.974	317.77
372.355	330.66
372.736	347.6
373.117	355.51
373.498	348.73
373.879	343.31
374.26	340.6
374.641	343.76
375.021	363.42
375.402	367.94
375.783	337.66
376.163	358.68
376.544	379.02
376.925	369.07
377.305	382.41
377.686	364.55
378.066	352.12
378.447	359.58
378.827	358.68
379.208	375.4
379.588	349.86
379.968	364.78
380.349	381.95
380.729	368.39
381.109	367.04
381.489	380.37
381.87	382.41
382.25	379.02
382.63	381.5
383.01	360.26
383.39	396.19
383.77	394.38
384.15	407.04
384.53	419.24
384.91	411.11
385.29	402.52
385.67	404.78
386.049	395.96
386.429	386.7
386.809	391.22
387.189	415.85
387.568	430.54
387.948	427.83
388.328	422.4
388.707	446.81
389.087	447.94
389.466	451.56
389.846	442.29
390.225	457.88
390.605	453.59
390.984	462.63
391.363	480.48
391.743	482.74
392.122	469.41
392.501	477.09
392.881	520.71
393.26	499.46
393.639	509.41
394.018	521.61
394.397	517.77
394.776	536.53
395.155	553.25
395.534	547.82
395.913	524.32
396.292	554.6
396.671	562.51
397.05	590.31
397.429	581.04
397.808	591.44
398.186	600.7
398.565	594.83
398.944	630.31
399.323	633.25
399.701	643.64
400.08	650.65
400.458	671.21
400.837	682.28
401.215	694.26
401.594	694.49
401.972	726.12
402.351	729.97
402.729	732.45
403.107	731.77
403.486	766.58
403.864	783.52
404.242	768.84
404.62	808.61
404.999	805.22
405.377	817.65
405.755	836.86
406.133	844.31
406.511	871.88
406.889	865.33
407.267	902.17
407.645	924.31
408.023	948.27
408.401	986.68
408.779	1000.24
409.156	1003.63
409.534	995.5
409.912	1033.01
410.29	1045.44
410.667	1032.33
411.045	1081.14
411.422	1077.3
411.8	1113.69
412.178	1129.5
412.555	1144.87
412.933	1164.76
413.31	1200.91
413.687	1228.48
414.065	1216.06
414.442	1243.63
414.819	1278.65
415.197	1262.83
415.574	1294.92
415.951	1334.24
416.328	1320.91
416.705	1327.47
417.082	1352.78
417.46	1375.6
417.837	1395.94
418.214	1388.25
418.591	1431.64
418.967	1418.08
419.344	1452.89
419.721	1477.74
420.098	1455.37
420.475	1492.88
420.852	1503.51
421.228	1515.48
421.605	1558.42
421.982	1560.68
422.358	1572.66
422.735	1616.05
423.111	1561.13
423.488	1611.53
423.864	1625.99
424.241	1690.85
424.617	1678.42
424.994	1677.74
425.37	1711.18
425.746	1739.66
426.123	1756.15
426.499	1761.58
426.875	1795.7
427.251	1838.64
427.627	1859.43
428.003	1854
428.379	1913.44
428.756	1936.94
429.132	1941.23
429.507	1958.86
429.883	1981.01
430.259	2044.96
430.635	2043.6
431.011	2082.47
431.387	2133.32
431.763	2147.33
432.138	2160.44
432.514	2193.88
432.89	2217.39
433.265	2216.71
433.641	2273.43
434.016	2308.46
434.392	2352.75
434.767	2373.54
435.143	2383.26
435.518	2388.45
435.894	2469.81
436.269	2501.67
436.644	2559.3
437.02	2529.92
437.395	2569.92
437.77	2579.18
438.145	2682.23
438.52	2673.19
438.895	2675.45
439.271	2660.09
439.646	2755.45
440.021	2769.91
440.395	2818.73
440.77	2774.21
441.145	2798.61
441.52	2872.51
441.895	2880.87
442.27	2924.03
442.645	2906.18
443.019	2974.2
443.394	2989.57
443.769	3021.43
444.143	3002.45
444.518	3049
444.892	3050.81
445.267	3074.76
445.641	3125.38
446.016	3112.28
446.39	3155.67
446.764	3177.59
447.139	3140.75
447.513	3233.86
447.887	3227.08
448.262	3251.93
448.636	3297.58
449.01	3324.93
449.384	3398.15
449.758	3396.11
450.132	3456.67
450.506	3471.36
450.88	3482.66
451.254	3484.02
451.628	3564.69
452.002	3591.81
452.376	3661.64
452.75	3682.43
453.123	3690.34
453.497	3795.65
453.871	3775.31
454.244	3862.54
454.618	3900.05
454.992	3962.2
455.365	3958.36
455.739	4072.7
456.112	4109.09
456.486	4129.2
456.859	4164.45
457.232	4272.25
457.606	4247.84
457.979	4286.03
458.352	4380.72
458.725	4454.16
459.099	4511.34
459.472	4533.03
459.845	4611.67
460.218	4679.47
460.591	4710.88
460.964	4732.35
461.337	4854.6
461.71	4938.9
462.083	4999.91
462.456	5040.36
462.829	5024.09
463.201	5166.23
463.574	5199
463.947	5211.2
464.32	5380.69
464.692	5429.96
465.065	5456.62
465.438	5555.15
465.81	5633.57
466.183	5690.74
466.555	5775.26
466.928	5845.09
467.3	5927.8
467.672	5965.08
468.045	6123.5
468.417	6121.92
468.789	6157.39
469.161	6283.72
469.534	6365.3
469.906	6509.02
470.278	6563.94
470.65	6684.61
471.022	6787.89
471.394	6921.89
471.766	7012.29
472.138	7104.94
472.51	7240.3
472.882	7346.74
473.253	7445.72
473.625	7532.95
473.997	7770.91
474.369	7782.44
474.74	7868.76
475.112	7993.5
475.484	8192.14
475.855	8294.97
476.227	8359.6
476.598	8581.29
476.97	8740.38
477.341	8913.93
477.713	9026.92
478.084	9143.76
478.455	9427.14
478.827	9388.04
479.198	9705.55
479.569	9773.34
479.94	10031.42
480.311	10155.48
480.682	10428.47
481.053	10568.35
481.424	10742.36
481.795	10828.46
482.166	10982.58
482.537	11255.79
482.908	11465.96
483.279	11544.37
483.65	11811.03
484.021	11990.24
484.391	12107.75
484.762	12252.38
485.133	12457.79
485.503	12624.57
485.874	12923.54
486.244	13086.93
486.615	13296.19
486.985	13469.07
487.356	13686.01
487.726	13790.87
488.097	14086.23
488.467	14159.44
488.837	14525.99
489.207	14677.17
489.578	14912.42
489.948	14997.16
490.318	15245.52
490.688	15360.09
491.058	15521.67
491.428	15824.26
491.798	15885.5
492.168	16377.01
492.538	16370.01
492.908	16561.19
493.278	16811.58
493.648	16859.49
494.017	17064.45
494.387	17237.56
494.757	17378.57
495.126	17612.23
495.496	17720.93
495.866	17828.05
496.235	18023.75
496.605	18214.93
496.974	18335.15
497.344	18510.06
497.713	18687.46
498.082	18745.99
498.452	19004.51
498.821	19052.42
499.19	19144.62
499.559	19402.24
499.928	19523.82
500.298	19678.4
500.667	19746.19
501.036	19914.1
501.405	20139.85
501.774	20084.03
502.143	20405.16
502.512	20397.47
502.88	20706.16
503.249	20697.8
503.618	21034.29
503.987	21086.27
504.356	21173.5
504.724	21318.35
505.093	21487.84
505.462	21557.44
505.83	21703.2
506.199	21926.25
506.567	22309.06
506.936	22319.23
507.304	22525.55
507.672	22598.32
508.041	22722.61
508.409	23060.23
508.777	23136.61
509.145	23357.39
509.514	23437.17
509.882	23554.9
510.25	23691.85
510.618	23852.97
510.986	24057.94
511.354	24294.32
511.722	24551.71
512.09	24798.03
512.458	24779.73
512.826	25104.24
513.193	25139.95
513.561	25172.49
513.929	25459.94
514.297	25764.34
514.664	25986.25
515.032	26044.1
515.4	26319.35
515.767	26331.1
516.135	26562.28
516.502	26497.42
516.869	26962.5
517.237	26997.07
517.604	27139.67
517.972	27383.96
518.339	27663.5
518.706	27600.22
519.073	27915.69
519.44	28048.12
519.808	28383.02
520.175	28354.33
520.542	28846.29
520.909	28944.59
521.276	28994.31
521.643	29336.22
522.009	29570.79
522.376	29795.19
522.743	29960.16
523.11	30245.8
523.477	30526.7
523.843	30661.38
524.21	30939.57
524.577	31269.73
524.943	31328.94
525.31	31550.85
525.676	31816.15
526.043	32110.16
526.409	32236.26
526.776	32510.37
527.142	32548.57
527.508	32776.58
527.874	33131.37
528.241	33246.85
528.607	33385.38
528.973	33663.56
529.339	33648.42
529.705	34000.05
530.071	34200.05
530.437	34457.89
530.803	34763.2
531.169	34837.32
531.535	34866.7
531.901	35126.58
532.267	35249.74
532.632	35503.29
532.998	35578.32
533.364	35926.56
533.73	36056.5
534.095	36204.06
534.461	36286.77
534.826	36512.53
535.192	36594.33
535.557	36970.6
535.923	36781.9
536.288	37196.35
536.653	37155.68
537.019	37225.96
537.384	37355.67
537.749	37621.2
538.114	37722.44
538.479	37827.3
538.845	38232.94
539.21	38169.89
539.575	38231.58
539.94	38337.57
540.305	38667.73
540.67	38624.79
541.034	38789.3
541.399	38996.76
541.764	39119.47
542.129	39245.79
542.494	39240.14
542.858	39595.84
543.223	39618.21
543.587	39855.27
543.952	39918.99
544.316	40193.79
544.681	39956.28
545.045	40259.55
545.41	40432.65
545.774	40708.12
546.138	40713.77
546.503	40824.96
546.867	41022.47
547.231	41292.06
547.595	41311.27
547.959	41456.81
548.324	41616.8
548.688	41795.55
549.052	41857.7
549.416	42044.13
549.779	42321.87
550.143	42290
550.507	42581.75
550.871	42742.87
551.235	42809.76
551.599	43047.95
551.962	43161.39
552.326	43168.4
552.689	43501.5
553.053	43511.44
553.417	43688.16
553.78	44220.57
554.143	44142.61
554.507	44360.01
554.87	44404.52
555.234	44867.79
555.597	44726.1
555.96	45032.53
556.323	45105.52
556.686	45155.24
557.05	45420.32
557.413	45719.74
557.776	45731.04
558.139	46173.07
558.502	46134.2
558.865	46361.08
559.228	46645.14
559.59	46776.89
559.953	46715.65
560.316	47256.43
560.679	47360.83
561.041	47504.1
561.404	47752.01
561.767	47889.4
562.129	47822.74
562.492	48328.94
562.854	48392.89
563.217	48444.64
563.579	48548.37
563.941	48853.22
564.304	49006.66
564.666	49174.12
565.028	49343.38
565.39	49406.65
565.753	49522.81
566.115	49858.39
566.477	49824.72
566.839	49975.68
567.201	50343.8
567.563	50215.67
567.925	50476.23
568.287	50552.61
568.648	50627.86
569.01	50784.92
569.372	51012.71
569.734	50906.5
570.095	51088.87
570.457	51253.16
570.819	51398.46
571.18	51381.29
571.542	51594.39
571.903	51586.26
572.265	51672.58
572.626	51856.98
572.987	51809.08
573.349	52062.85
573.71	52136.75
574.071	52211.32
574.432	52359.34
574.794	52587.13
575.155	52500.81
575.516	52431.21
575.877	52601.37
576.238	52614.25
576.599	52850.18
576.96	52776.06
577.32	52790.52
577.681	52992.77
578.042	52996.84
578.403	52988.93
578.763	53051.53
579.124	53124.07
579.485	53206.78
579.845	53268.47
580.206	53195.25
580.566	53234.35
580.927	53201.36
581.287	53336.72
581.648	53299.88
582.008	53454.91
582.368	53362.71
582.728	53447
583.089	53399.09
583.449	53420.11
583.809	53443.83
584.169	53465.76
584.529	53423.27
584.889	53691.06
585.249	53483.83
585.609	53367.45
585.969	53664.39
586.329	53479.77
586.688	53646.09
587.048	53642.25
587.408	53489.26
587.768	53538.52
588.127	53578.52
588.487	53500.1
588.846	53787.33
589.206	53643.38
589.565	53639.76
589.925	53778.97
590.284	53588.92
590.643	53664.85
591.003	53755.24
591.362	53787.55
591.721	53792.53
592.08	53754.34
592.44	53852.64
592.799	53815.12
593.158	53820.1
593.517	53734
593.876	53803.37
594.235	53783.03
594.593	53871.85
594.952	53849.93
595.311	53774.9
595.67	53819.64
596.029	53983.26
596.387	53991.39
596.746	53980.77
597.104	53881.34
597.463	53911.39
597.822	54003.82
598.18	53930.15
598.538	53928.79
598.897	54040.88
599.255	53879.98
599.613	54293.53
599.972	54079.98
600.33	54117.49
600.688	54004.95
601.046	54218.96
601.404	54323.36
601.762	54188.45
602.12	54356.58
602.478	54328.56
602.836	54301.89
603.194	54207.88
603.552	54287.2
603.91	54137.83
604.268	54330.82
604.625	54265.51
604.983	54379.4
605.341	54176.24
605.698	54395
606.056	54454.66
606.413	54389.8
606.771	54535.11
607.128	54531.49
607.485	54507.08
607.843	54571.04
608.2	54667.31
608.557	54706.63
608.914	54636.12
609.272	54844.02
609.629	54835.66
609.986	54891.48
610.343	54804.7
610.7	54989.78
611.057	54855.55
611.414	54832.72
611.771	54890.35
612.127	55017.8
612.484	54967.18
612.841	55130.57
613.198	55035.88
613.554	54972.38
613.911	55240.85
614.267	55175.77
614.624	55128.54
614.98	55205.37
615.337	55368.3
615.693	55294.18
616.05	55287.85
616.406	55428.87
616.762	55381.19
617.118	55403.78
617.475	55340.73
617.831	55447.17
618.187	55474.74
618.543	55423.22
618.899	55613.27
619.255	55494.63
619.611	55579.6
619.967	55615.76
620.323	55702.31
620.678	55697.79
621.034	55521.75
621.39	55554.06
621.746	55508.19
622.101	55820.27
622.457	55618.24
622.812	55733.94
623.168	55742.76
623.523	55711.8
623.879	55801.74
624.234	55663.66
624.589	55767.39
624.945	55759.71
625.3	55803.77
625.655	55741.85
626.01	55744.11
626.365	55762.87
626.72	55758.35
627.075	55708.41
627.43	55675.87
627.785	55735.75
628.14	55759.25
628.495	55713.15
628.85	55639.71
629.205	55585.47
629.559	55776.88
629.914	55679.71
630.269	55632.03
630.623	55540.05
630.978	55534.63
631.332	55530.33
631.687	55601.29
632.041	55518.58
632.396	55625.7
632.75	55440.84
633.104	55481.97
633.459	55331.69
633.813	55378.25
634.167	55384.12
634.521	55377.8
634.875	55407.4
635.229	55329.89
635.583	55258.25
635.937	55224.58
636.291	55244.01
636.645	55210.12
636.999	55128.31
637.352	55199.04
637.706	54986.39
638.06	55157.46
638.413	55014.64
638.767	54987.52
639.121	55027.3
639.474	54863.91
639.828	54862.1
640.181	54975.32
640.534	54917.02
640.888	54835.66
641.241	54738.72
641.594	54740.07
641.947	54764.03
642.301	54645.84
642.654	54635.22
643.007	54690.58
643.36	54597.25
643.713	54575.56
644.066	54644.03
644.419	54446.75
644.771	54299.63
645.124	54012.86
645.477	53907.33
645.83	53726.31
646.182	53606.77
646.535	53496.71
646.888	53642.47
647.24	53528.35
647.593	53598.86
647.945	53514.12
648.298	53372.42
648.65	53418.52
649.002	53321.8
649.355	53437.51
649.707	53351.18
650.059	53474.12
650.411	53802.47
650.763	53778.29
651.115	54107.77
651.467	54037.04
651.819	53943.03
652.171	53929.02
652.523	53909.81
652.875	53906.65
653.227	53777.39
653.578	53980.77
653.93	53886.76
654.282	53748.46
654.633	53661.68
654.985	53707.33
655.337	53616.26
655.688	53639.76
656.039	53776.71
656.391	53504.17
656.742	53590.27
657.094	53569.71
657.445	53675.47
657.796	53610.38
658.147	53536.04
658.498	53502.36
658.849	53567
659.2	53600.89
659.551	53476.38
659.902	53533.78
660.253	53426.66
660.604	53503.49
660.955	53402.25
661.306	53492.87
661.656	53481.12
662.007	53445.42
662.358	53413.78
662.708	53407.45
663.059	53366.55
663.409	53110.74
663.76	53314.57
664.11	53302.14
664.461	53253.11
664.811	53310.28
665.161	53328.36
665.511	53161.36
665.862	53207.46
666.212	53257.85
666.562	53265.99
666.912	53218.3
667.262	53170.4
667.612	53186.67
667.962	53195.71
668.312	53118.65
668.662	53138.53
669.011	53170.85
669.361	52998.65
669.711	53044.3
670.06	52900.35
670.41	52925.66
670.76	52904.64
671.109	53024.86
671.459	52949.38
671.808	52868.03
672.157	52966.33
672.507	52737.41
672.856	52676.62
673.205	52754.81
673.554	52845.43
673.904	52719.56
674.253	52876.62
674.602	52690.18
674.951	52225.34
675.3	52099.24
675.649	52583.97
675.998	52466.69
676.346	52482.96
676.695	52573.58
677.044	52341.49
677.393	52452.67
677.741	52434.14
678.09	52447.25
678.438	52268.95
678.787	52313.47
679.135	52373.13
679.484	52162.74
679.832	52266.92
680.181	52031.67
680.529	52114.6
680.877	52153.7
681.225	51971.11
681.573	52246.8
681.922	52031.89
682.27	51847.94
682.618	51906.7
682.966	51759.59
683.314	51798
683.661	51743.31
684.009	51449.99
684.357	51483.89
684.705	51462.64
685.053	51483.89
685.4	51407.28
685.748	51192.37
686.095	51141.97
686.443	51065.82
686.79	51035.54
687.138	51047.29
687.485	50968.19
687.832	50873.96
688.18	50918.25
688.527	50687.3
688.874	50801.87
689.221	50655.66
689.568	50482.1
689.915	50418.38
690.262	50518.71
690.609	50313.97
690.956	50236.69
691.303	50237.59
691.65	50000.54
691.997	49944.94
692.344	49723.48
692.69	49672.86
693.037	49698.4
693.383	49446.88
693.73	49591.73
694.077	49259.09
694.423	49290.05
694.769	49176.83
695.116	49089.83
695.462	49073.33
695.808	48862.26
696.155	48927.8
696.501	48652.1
696.847	48634.7
697.193	48353.12
697.539	48509.28
697.885	48095.5
698.231	48240.13
698.577	48127.59
698.923	48123.52
699.269	47906.35
699.614	47719.69
699.96	47627.49
700.306	47753.81
700.651	47432.69
700.997	47419.81
701.342	47156.54
701.688	47303.21
702.033	47102.53
702.379	47037.9
702.724	46875.42
703.069	47048.97
703.415	46605.82
703.76	46536.9
704.105	46521.76
704.45	46479.5
704.795	46313.63
705.14	46181.88
705.485	46158.38
705.83	45857.37
706.175	45909.12
706.52	45851.04
706.865	45676.36
707.209	45618.96
707.554	45609.92
707.899	45588.22
708.243	45383.71
708.588	45374.89
708.932	45083.38
709.277	45183.26
709.621	45216.03
709.966	44776.94
710.31	44775.14
710.654	44671.18
710.998	44756.38
711.342	44764.06
711.687	44541.47
712.031	44470.96
712.375	44294.92
712.719	44278.65
713.063	44297.86
713.407	44347.58
713.75	44079.56
714.094	44087.92
714.438	43896.97
714.782	43890.87
715.125	43629.86
715.469	43758.44
715.812	43614.94
716.156	43433.48
716.499	43503.53
716.843	43267.83
717.186	43063.09
717.53	43295.63
717.873	43301.05
718.216	43123.2
718.559	43016.99
718.902	42661.29
719.246	42764.12
719.589	42636.89
719.932	42546.27
720.275	42582.65
720.617	42537.68
720.96	42536.1
721.303	42485.93
721.646	42444.8
721.989	42083.91
722.331	42266.73
722.674	42335.43
723.016	42160.06
723.359	42093.62
723.701	42118.48
724.044	41847.98
724.386	41623.81
724.729	41884.82
725.071	41697.03
725.413	41654.77
725.755	41629.23
726.097	41414.77
726.439	41207.32
726.782	41265.62
727.124	41472.85
727.465	41107.44
727.807	41127.77
728.149	41064.95
728.491	40891.4
728.833	41011.85
729.175	40871.51
729.516	40814.11
729.858	40817.05
730.199	40899.31
730.541	40821.34
730.882	40585.64
731.224	40633.1
731.565	40566.43
731.906	40552.42
732.248	40505.64
732.589	40294.58
732.93	40219.78
733.271	40202.15
733.612	40194.47
733.953	40290.51
734.294	40032.66
734.635	40008.26
734.976	40027.92
735.317	39953.34
735.658	39808.04
735.999	39764.87
736.339	39633.12
736.68	39823.18
737.021	39559.68
737.361	39515.84
737.702	39669.73
738.042	39566.91
738.383	39426.35
738.723	39537.99
739.063	39240.59
739.404	39386.8
739.744	39181.39
740.084	39046.02
740.424	39114.04
740.764	38985.46
741.104	39134.15
741.444	38889.64
741.784	38711.34
742.124	38837.89
742.464	38769.64
742.804	38792.02
743.143	38554.51
743.483	38618.69
743.823	38364.46
744.162	38337.34
744.502	38391.35
744.841	38121.75
745.181	38370.33
745.52	38065.93
745.86	38315.42
746.199	38089.21
746.538	38042.43
746.877	38121.75
747.216	37920.4
747.556	37823.45
747.895	37739.84
748.234	37672.95
748.573	37508.66
748.911	37515.67
749.25	37534.2
749.589	37302.34
749.928	37374.65
750.267	37417.14
750.605	37292.62
750.944	37153.42
751.283	36987.09
751.621	37110.25
751.96	36985.74
752.298	36914.33
752.636	36866.87
752.975	36669.36
753.313	36502.36
753.651	36684.73
753.989	36486.77
754.327	36353.66
754.666	36242.48
755.004	36321.12
755.342	36278.41
755.679	36201.8
756.017	36052.65
756.355	36021.69
756.693	35860.79
757.031	36029.15
757.368	35681.82
757.706	35616.73
758.044	35613.8
758.381	35597.07
758.719	35447.92
759.056	35426.23
759.394	35305.33
759.731	35137.2
760.068	35051.1
760.405	34972.23
760.743	34798
761.08	34807.71
761.417	34621.05
761.754	34592.13
762.091	34491.56
762.428	34283.21
762.765	34262.87
763.102	34273.49
763.438	33955.76
763.775	33830.11
764.112	33888.64
764.449	34005.02
764.785	33794.41
765.122	33519.16
765.458	33407.53
765.795	33326.85
766.131	33402.33
766.467	33123.24
766.804	32976.58
767.14	32845.05
767.476	32713.31
767.812	32575.46
768.148	32698.62
768.485	32624.04
768.821	32456.14
769.157	32322.58
769.492	32224.51
769.828	32199.65
770.164	31940.22
770.5	31951.52
770.836	31852.99
771.171	31575.94
771.507	31481.47
771.842	31237.19
772.178	31329.84
772.513	31195.38
772.849	31057.76
773.184	30987.02
773.519	30895.73
773.855	30773.47
774.19	30718.78
774.525	30642.85
774.86	30664.09
775.195	30481.73
775.53	30294.84
775.865	30116.54
776.2	30042.19
776.535	29644.91
776.87	29796.77
777.205	29693.05
777.539	29431.58
777.874	29530.57
778.209	29399.5
778.543	29357.46
778.878	29105.27
779.212	29081.99
779.547	28842.45
779.881	28988.66
780.215	28782.11
780.55	28860.53
780.884	28470.25
781.218	28521.33
781.552	28396.36
781.886	28245.4
782.22	28088.8
782.554	28018.51
782.888	27867.33
783.222	27792.98
783.556	27652.87
783.889	27660.33
784.223	27446.78
784.557	27416.95
784.89	27520.22
785.224	27281.13
785.557	27096.51
785.891	27135.6
786.224	27037.07
786.558	26908.49
786.891	26646.35
787.224	26520.93
787.557	26513.02
787.891	26567.48
788.224	26419.69
788.557	26534.94
788.89	26389.86
789.223	26216.53
789.556	26064.44
789.888	25940.6
790.221	25852.24
790.554	25770.44
790.887	25722.3
791.219	25564.12
791.552	25509.88
791.884	25458.81
792.217	25403.67
792.549	25221.3
792.882	25119.38
793.214	25023.57
793.546	24951.25
793.879	24981.53
794.211	24817.69
794.543	24839.16
794.875	24673.29
795.207	24718.71
795.539	24572.05
795.871	24638.26
796.203	24396.24
796.535	24181.78
796.867	24211.38
797.198	24104.27
797.53	24134.1
797.862	23922.35
798.193	24035.12
798.525	23838.29
798.856	23810.26
799.188	23511.29
799.519	23487.79
799.85	23369.6
800.182	23336.38
800.513	23391.97
800.844	23247.11
801.175	23240.11
801.506	23240.79
801.837	23053.45
802.168	23123.95
802.499	22982.49
802.83	22816.62
803.161	22669.95
803.491	22707.02
803.822	22700.69
804.153	22526.68
804.483	22455.5
804.814	22324.2
805.145	22388.38
805.475	22288.72
805.805	22195.84
806.136	22150.87
806.466	22212.79
806.796	22133.47
807.126	21919.01
807.457	21828.17
807.787	21818.23
808.117	21833.14
808.447	21731.9
808.777	21826.14
809.107	21594.28
809.436	21596.76
809.766	21580.27
810.096	21474.28
810.426	21472.25
810.755	21422.08
811.085	21362.87
811.414	21198.13
811.744	21113.84
812.073	21060.28
812.403	21045.82
812.732	20914.75
813.061	21003.33
813.39	20798.37
813.719	20814.86
814.049	20906.16
814.378	20747.97
814.707	20611.03
815.036	20658.71
815.365	20542.78
815.693	20329
816.022	20403.35
816.351	20296.68
816.68	20234.99
817.008	20216.46
817.337	20096.01
817.665	20068.89
817.994	20125.61
818.322	20124.03
818.651	19956.81
818.979	19925.39
819.307	19970.82
819.636	19980.99
819.964	19797.26
820.292	19825.96
820.62	19733.08
820.948	19685.85
821.276	19745.96
821.604	19645.85
821.932	19770.82
822.259	19759.75
822.587	19811.5
822.915	19624.39
823.243	19780.77
823.57	19565.86
823.898	19576.48
824.225	19549.13
824.553	19632.97
824.88	19643.14
825.207	19718.85
825.535	19551.62
825.862	19591.39
826.189	19640.66
826.516	19656.93
826.843	19777.83
827.17	19672.07
827.497	19621.45
827.824	19614.67
828.151	19643.59
828.478	19684.5
828.805	19724.27
829.131	19552.52
829.458	19581.67
829.785	19472.3
830.111	19549.36
830.438	19610.6
830.764	19592.07
831.09	19628.9
831.417	19453.77
831.743	19522.92
832.069	19448.8
832.395	19434.79
832.722	19491.51
833.048	19361.12
833.374	19400.21
833.7	19384.84
834.026	19351.62
834.351	19428.46
834.677	19439.31
835.003	19398.4
835.329	19382.13
835.654	19353.88
835.98	19229.59
836.306	19310.04
836.631	19151.86
836.956	19305.07
837.282	19158.86
837.607	19098.75
837.932	19104.62
838.258	19060.78
838.583	19055.81
838.908	18899.43
839.233	18896.49
839.558	18898.08
839.883	18907.79
840.208	18833.45
840.533	18778.98
840.858	18800.9
841.182	18809.49
841.507	18805.65
841.832	18721.13
842.156	18629.84
842.481	18652.89
842.805	18567.24
843.13	18553.9
843.454	18579.21
843.778	18480.46
844.103	18435.26
844.427	18404.3
844.751	18377.19
845.075	18265.1
845.399	18254.03
845.723	18113.92
846.047	18120.7
846.371	18009.29
846.695	18028.49
847.019	17840.7
847.343	17743.98
847.666	17617.88
847.99	17645.45
848.313	17545.34
848.637	17369.08
848.96	17477.32
849.284	17412.24
849.607	17186.48
849.931	17189.42
850.254	17104.23
850.577	17062.19
850.9	16908.98
851.223	16919.6
851.546	16877.34
851.869	16696.78
852.192	16820.17
852.515	16628.98
852.838	16590.57
853.161	16536.78
853.483	16427.41
853.806	16380.18
854.129	16514.18
854.451	16382.44
854.774	16302.66
855.096	16250.01
855.419	16158.49
855.741	16188.77
856.063	15987.42
856.385	15983.58
856.708	15894.77
857.03	15949.91
857.352	15911.71
857.674	15800.76
857.996	15762.57
858.318	15669.46
858.64	15722.57
858.961	15550.59
859.283	15554.89
859.605	15501.33
859.926	15505.17
860.248	15383.59
860.57	15362.8
860.891	15307.44
861.212	15379.98
861.534	15261.34
861.855	15190.83
862.176	15273.99
862.498	15228.34
862.819	15159.42
863.14	15106.09
863.461	15078.97
863.782	15038.07
864.103	15075.8
864.424	15059.53
864.745	15084.84
865.065	14896.15
865.386	14796.04
865.707	14792.87
866.027	14798.75
866.348	14855.47
866.668	14818.86
866.989	14729.82
867.309	14660
867.63	14634.46
867.95	14681.92
868.27	14617.96
868.59	14610.96
868.91	14567.79
869.23	14576.61
869.55	14429.49
869.87	14514.24
870.19	14497.51
870.51	14508.36
870.83	14470.85
871.15	14373.45
871.469	14354.02
871.789	14407.12
872.109	14304.98
872.428	14293.9
872.748	14372.55
873.067	14268.37
873.386	14154.92
873.706	14283.28
874.025	14128.26
874.344	14149.95
874.663	14147.02
874.982	14124.42
875.301	14200.8
875.62	14037.64
875.939	14036.51
876.258	13983.18
876.577	13881.03
876.896	13947.02
877.214	13946.34
877.533	13927.13
877.852	13959
878.17	13848.04
878.489	13897.3
878.807	13872.67
879.125	13791.09
879.444	13779.12
879.762	13764.88
880.08	13713.13
880.398	13654.15
880.716	13712.9
881.034	13617.31
881.352	13631.77
881.67	13632.9
881.988	13597.2
882.306	13673.58
882.624	13520.59
882.941	13540.25
883.259	13510.87
883.577	13331.44
883.894	13305
884.212	13328.73
884.529	13242.63
884.846	13204.44
885.164	13224.33
885.481	13194.72
885.798	13264.78
886.115	13142.3
886.432	13168.28
886.75	13121.28
887.067	13094.16
887.383	12968.97
887.7	13049.64
888.017	12978.23
888.334	12982.53
888.651	12893.71
888.967	12994.73
889.284	12845.58
889.6	12767.39
889.917	12692.14
890.233	12652.82
890.55	12696.88
890.866	12676.55
891.182	12631.57
891.498	12535.98
891.815	12615.98
892.131	12559.26
892.447	12481.07
892.763	12425.25
893.079	12394.97
893.395	12429.32
893.71	12314.52
894.026	12283.34
894.342	12236.56
894.657	12159.95
894.973	12196.11
895.289	12206.73
895.604	12219.83
895.92	12040.63
896.235	11960.86
896.55	11980.07
896.865	11938.49
897.181	11877.47
897.496	11886.74
897.811	11824.59
898.126	11849.67
898.441	11755.67
898.756	11652.17
899.071	11610.58
899.386	11571.04
899.7	11567.65
900.015	11478.84
900.33	11479.29
900.644	11409.01
900.959	11362.91
901.273	11398.84
901.588	11325.39
901.902	11264.38
902.216	11223.25
902.531	11232.52
902.845	11096.25
903.159	11013.54
903.473	11020.09
903.787	10998.17
904.101	10907.1
904.415	10941.45
904.729	10902.81
905.042	10809.02
905.356	10848.57
905.67	10735.35
905.984	10800.66
906.297	10685.19
906.611	10627.56
906.924	10555.92
907.237	10609.93
907.551	10651.97
907.864	10475.02
908.177	10473.89
908.491	10425.08
908.804	10315.25
909.117	10327.68
909.43	10280.68
909.743	10205.42
910.056	10199.1
910.368	10091.98
910.681	10101.92
910.994	10063.73
911.307	9978.09
911.619	9983.51
911.932	9991.19
912.244	9910.06
912.557	9912.32
912.869	9840.46
913.181	9885.21
913.494	9812.44
913.806	9684.53
914.118	9646.12
914.43	9611.09
914.742	9606.12
915.054	9567.7
915.366	9560.02
915.678	9485.67
915.99	9403.41
916.302	9412
916.613	9359.8
916.925	9288.16
917.236	9272.34
917.548	9217.88
917.859	9255.62
918.171	9215.62
918.482	9121.16
918.794	9133.14
919.105	9073.93
919.416	8952.35
919.727	8958.22
920.038	8926.81
920.349	8828.28
920.66	8848.62
920.971	8759.59
921.282	8753.48
921.593	8709.64
921.903	8649.53
922.214	8658.8
922.525	8597.1
922.835	8586.71
923.146	8581.74
923.456	8476.43
923.767	8508.75
924.077	8454.96
924.387	8430.56
924.697	8371.8
925.008	8329.99
925.318	8280.05
925.628	8248.41
925.938	8224.68
926.248	8144.69
926.558	8155.76
926.867	8071.02
927.177	8137
927.487	8021.75
927.796	8022.43
928.106	7949.44
928.416	7926.84
928.725	7882.1
929.034	7901.08
929.344	7859.72
929.653	7864.24
929.962	7808.88
930.271	7728.2
930.581	7705.83
930.89	7647.07
931.199	7503.35
931.508	7648.2
931.817	7540.86
932.125	7548.32
932.434	7492.73
932.743	7425.38
933.051	7396.68
933.36	7384.71
933.669	7295.22
933.977	7319.62
934.286	7291.38
934.594	7302.68
934.902	7209.34
935.21	7151.49
935.519	7135.9
935.827	7157.82
936.135	7083.92
936.443	7069.91
936.751	6984.72
937.059	6986.07
937.367	6950.59
937.674	6973.42
937.982	6948.33
938.29	6899.07
938.597	6878.51
938.905	6794.67
939.213	6809.81
939.52	6760.77
939.827	6744.95
940.135	6704.5
940.442	6670.15
940.749	6664.95
941.056	6600.32
941.363	6530.72
941.67	6516.03
941.977	6532.53
942.284	6444.62
942.591	6415.24
942.898	6468.35
943.205	6409.82
943.511	6419.76
943.818	6328.24
944.125	6320.33
944.431	6323.49
944.738	6297.96
945.044	6247.11
945.35	6212.76
945.657	6168.92
945.963	6119.43
946.269	6140.22
946.575	6175.7
946.881	6056.83
947.187	6052.99
947.493	6022.93
947.799	6029.04
948.105	5949.04
948.41	5935.48
948.716	5896.84
949.022	5862.26
949.327	5835.82
949.633	5730.97
949.938	5777.97
950.244	5771.19
950.549	5732.32
950.854	5674.47
951.16	5707.91
951.465	5655.49
951.77	5627.92
952.075	5572.33
952.38	5586.11
952.685	5591.53
952.99	5526
953.294	5503.63
953.599	5491.65
953.904	5424.98
954.209	5417.3
954.513	5449.16
954.818	5428.6
955.122	5401.26
955.426	5359.68
955.731	5326.91
956.035	5325.78
956.339	5261.37
956.643	5305.44
956.948	5234.71
957.252	5230.19
957.556	5182.28
957.86	5184.99
958.163	5147.93
958.467	5152.45
958.771	5100.93
959.075	5130.98
959.378	5079
959.682	5078.55
959.985	5021.15
960.289	4981.61
960.592	4937.09
960.896	4957.2
961.199	4911.55
961.502	4902.06
961.805	4846.69
962.108	4891.21
962.411	4828.39
962.714	4826.58
963.017	4794.27
963.32	4779.35
963.623	4776.64
963.926	4776.87
964.228	4765.79
964.531	4703.65
964.833	4698.22
965.136	4681.5
965.438	4641.28
965.741	4617.1
966.043	4587.27
966.345	4569.64
966.648	4549.53
966.95	4567.83
967.252	4519.25
967.554	4500.04
967.856	4520.6
968.158	4445.35
968.46	4420.94
968.761	4385.92
969.063	4358.8
969.365	4326.48
969.666	4287.16
969.968	4336.88
970.269	4293.94
970.571	4314.28
970.872	4305.92
971.174	4250.1
971.475	4240.83
971.776	4237.45
972.077	4201.06
972.378	4213.94
972.679	4142.98
972.98	4136.66
973.281	4121.29
973.582	4140.95
973.883	4087.84
974.183	4056.66
974.484	4047.17
974.785	4030.9
975.085	4010.78
975.386	4041.97
975.686	3985.7
975.986	3974.63
976.287	3939.15
976.587	3912.48
976.887	3909.09
977.187	3909.54
977.487	3909.32
977.787	3844.91
978.087	3813.95
978.387	3820.28
978.687	3818.02
978.987	3773.73
979.286	3786.61
979.586	3785.03
979.885	3724.24
980.185	3701.87
980.484	3714.75
980.784	3671.36
981.083	3672.94
981.382	3678.14
981.682	3678.82
981.981	3612.83
982.28	3594.52
982.579	3545.26
982.878	3596.56
983.177	3549.78
983.475	3538.48
983.774	3495.32
984.073	3508.2
984.372	3475.66
984.67	3464.13
984.969	3469.78
985.267	3456.9
985.566	3442.21
985.864	3345.27
986.162	3350.01
986.461	3393.17
986.759	3357.02
987.057	3308.2
987.355	3312.5
987.653	3313.85
987.951	3293.97
988.249	3258.94
988.547	3269.56
988.844	3258.71
989.142	3212.84
989.44	3188.21
989.737	3166.51
990.035	3209.45
990.332	3140.75
990.63	3178.26
990.927	3132.62
991.224	3132.16
991.521	3125.84
991.819	3087.19
992.116	3043.8
992.413	3090.81
992.71	3071.83
993.006	3041.54
993.303	3030.47
993.6	3013.07
993.897	3013.97
994.193	2996.8
994.49	2955.22
994.787	2941.21
995.083	2918.38
995.379	2877.25
995.676	2917.48
995.972	2868.67
996.268	2842.45
996.565	2852.17
996.861	2830.7
997.157	2842
997.453	2815.79
997.749	2812.17
998.044	2769.24
998.34	2738.73
998.636	2749.57
998.932	2726.98
999.227	2736.24
999.523	2735.34
999.818	2685.85
1000.114	2667.09
1000.409	2661.67
1000.704	2652.85
1001	2662.12
1001.295	2617.83
1001.59	2624.38
1001.885	2627.09
1002.18	2585.51
1002.475	2592.52
1002.77	2587.54
1003.065	2521.78
1003.359	2509.35
1003.654	2512.52
1003.949	2475.68
1004.243	2484.95
1004.538	2468.68
1004.832	2478.85
1005.127	2440.88
1005.421	2447.21
1005.715	2421
1006.009	2400.66
1006.304	2380.54
1006.598	2352.52
1006.892	2337.16
1007.186	2316.82
1007.48	2361.11
1007.773	2314.56
1008.067	2302.35
1008.361	2270.94
1008.655	2281.79
1008.948	2257.84
1009.242	2245.18
1009.535	2231.85
1009.829	2220.1
1010.122	2187.1
1010.415	2167.22
1010.708	2173.54
1011.001	2168.12
1011.295	2135.58
1011.588	2139.87
1011.881	2137.61
1012.173	2128.8
1012.466	2108.01
1012.759	2093.77
1013.052	2074.34
1013.344	2029.59
1013.637	2048.8
1013.93	2039.31
1014.222	2029.82
1014.514	2023.94
1014.807	2016.49
1015.099	2004.28
1015.391	1988.92
1015.683	1966.09
1015.976	1974
1016.268	1932.87
1016.56	1922.48
1016.851	1905.08
1017.143	1920.44
1017.435	1919.54
1017.727	1894.23
1018.018	1828.92
1018.31	1905.75
1018.602	1856.26
1018.893	1842.48
1019.185	1812.88
1019.476	1800.45
1019.767	1799.09
1020.058	1781.01
1020.35	1783.27
1020.641	1761.58
1020.932	1738.3
1021.223	1725.42
1021.514	1717.29
1021.804	1689.72
1022.095	1690.62
1022.386	1688.13
1022.677	1694.46
1022.967	1638.64
1023.258	1648.59
1023.548	1648.13
1023.839	1663.5
1024.129	1627.12
1024.419	1586.22
1024.709	1603.84
1025	1599.55
1025.29	1585.09
1025.58	1572.66
1025.87	1536.5
1026.16	1553.45
1026.449	1527.01
1026.739	1518.65
1027.029	1527.69
1027.319	1487.69
1027.608	1471.19
1027.898	1497.86
1028.187	1473.68
1028.477	1481.13
1028.766	1437.07
1029.055	1428.93
1029.344	1414.69
1029.634	1405.88
1029.923	1422.15
1030.212	1413.79
1030.501	1381.47
1030.79	1407.01
1031.078	1387.58
1031.367	1346.45
1031.656	1375.15
1031.945	1365.43
1032.233	1346.67
1032.522	1322.95
1032.81	1327.92
1033.099	1296.96
1033.387	1289.5
1033.675	1292.66
1033.963	1273.23
1034.251	1270.07
1034.54	1253.79
1034.828	1255.15
1035.116	1237.75
1035.403	1225.77
1035.691	1221.71
1035.979	1220.8
1036.267	1218.54
1036.554	1166.11
1036.842	1197.75
1037.129	1172.21
1037.417	1176.96
1037.704	1153.68
1037.992	1154.14
1038.279	1161.14
1038.566	1147.36
1038.853	1147.36
1039.14	1147.36
