Data from whiteboard_FLMS001491_00092.txt Node
Date: Wed Feb 08 11:28:44 GMT 2017
User: dcchb
Spectrometer: FLMS00149
Trigger mode: 0
Integration Time (sec): 2.000000E-2
Scans to average: 10
Electric dark correction enabled: true
Nonlinearity correction enabled: false
Boxcar width: 0
XAxis mode: Wavelengths
Number of Pixels in Spectrum: 2048
>>>>>Begin Spectral Data<<<<<
341.393	-6.12
341.776	-6.12
342.16	-6.12
342.543	-51.09
342.927	-68.94
343.31	-70.75
343.693	-70.52
344.077	-63.29
344.46	-71.88
344.843	-44.98
345.226	-47.47
345.61	-23.97
345.993	-16.51
346.376	8.35
346.759	12.64
347.142	43.83
347.525	18.52
347.908	55.35
348.291	78.85
348.674	84.05
349.057	107.78
349.44	133.09
349.823	140.1
350.206	162.02
350.588	221.22
350.971	230.71
351.354	257.83
351.737	251.05
352.119	277.94
352.502	293.99
352.884	313.42
353.267	294.89
353.65	319.98
354.032	334.89
354.414	345.29
354.797	337.38
355.179	352.07
355.562	360.88
355.944	364.04
356.326	372.63
356.709	383.48
357.091	376.47
357.473	367.43
357.855	365.17
358.238	376.47
358.62	385.51
359.002	379.18
359.384	403.37
359.766	380.54
360.148	375.57
360.53	368.11
360.912	368.79
361.294	381.44
361.676	382.57
362.057	395.23
362.439	372.18
362.821	362.24
363.203	380.77
363.584	388.22
363.966	365.85
364.348	358.85
364.729	355.46
365.111	353.87
365.493	368.11
365.874	357.72
366.256	350.94
366.637	354.78
367.019	365.17
367.4	378.28
367.781	358.17
368.163	357.04
368.544	357.49
368.925	381.44
369.306	378.28
369.688	386.42
370.069	357.94
370.45	374.89
370.831	380.31
371.212	383.7
371.593	359.75
371.974	382.57
372.355	363.37
372.736	384.83
373.117	371.73
373.498	390.26
373.879	373.08
374.26	362.91
374.641	357.26
375.021	388
375.402	374.89
375.783	387.09
376.163	387.09
376.544	404.04
376.925	380.09
377.305	382.57
377.686	404.04
378.066	404.95
378.447	412.63
378.827	385.29
379.208	404.72
379.588	423.48
379.968	405.17
380.349	412.63
380.729	404.95
381.109	435
381.489	398.62
381.87	421.9
382.25	417.6
382.63	424.61
383.01	437.94
383.39	443.36
383.77	423.25
384.15	434.32
384.53	468.67
384.91	445.85
385.29	480.2
385.67	445.62
386.049	447.43
386.429	484.04
386.809	456.7
387.189	473.42
387.568	453.99
387.948	465.06
388.328	484.49
388.707	490.59
389.087	482.23
389.466	493.98
389.846	522.91
390.225	517.26
390.605	533.53
390.984	515
391.363	510.03
391.743	536.02
392.122	540.99
392.501	551.38
392.881	555.45
393.26	575.79
393.639	568.33
394.018	556.36
394.397	600.42
394.776	592.29
395.155	609.91
395.534	597.26
395.913	603.13
396.292	603.59
396.671	639.74
397.05	625.05
397.429	631.38
397.808	645.84
398.186	649.23
398.565	652.85
398.944	675.45
399.323	665.96
399.701	700.98
400.08	709.35
400.458	726.07
400.837	723.36
401.215	745.28
401.594	746.63
401.972	769.46
402.351	783.24
402.729	761.32
403.107	799.06
403.486	814.65
403.864	815.33
404.242	826.18
404.62	848.78
404.999	872.28
405.377	929.9
405.755	886.06
406.133	900.98
406.511	912.73
406.889	933.07
407.267	984.59
407.645	981.65
408.023	1009.9
408.401	1038.6
408.779	1036.34
409.156	1068.66
409.534	1090.8
409.912	1089
410.29	1123.12
410.667	1151.14
411.045	1183.46
411.422	1183.46
411.8	1226.85
412.178	1237.24
412.555	1276.79
412.933	1283.79
413.31	1289.9
413.687	1353.4
414.065	1357.46
414.442	1360.18
414.819	1364.47
415.197	1426.39
415.574	1467.52
415.951	1487.18
416.328	1485.14
416.705	1507.97
417.082	1501.87
417.46	1534.41
417.837	1561.3
418.214	1569.44
418.591	1617.34
418.967	1608.31
419.344	1622.99
419.721	1635.88
420.098	1673.39
420.475	1682.65
420.852	1693.27
421.228	1749.09
421.605	1766.49
421.982	1779.6
422.358	1787.96
422.735	1840.16
423.111	1809.88
423.488	1841.97
423.864	1878.13
424.241	1879.03
424.617	1898.69
424.994	1959.48
425.37	1945.92
425.746	2005.81
426.123	2020.27
426.499	2006.94
426.875	2082.87
427.251	2116.09
427.627	2140.27
428.003	2172.13
428.379	2192.92
428.756	2214.62
429.132	2260.27
429.507	2266.37
429.883	2311.56
430.259	2336.2
430.635	2370.09
431.011	2394.5
431.387	2451.9
431.763	2486.02
432.138	2507.49
432.514	2544.1
432.89	2589.52
433.265	2657.54
433.641	2683.31
434.016	2719.46
434.392	2770.31
434.767	2836.52
435.143	2756.75
435.518	2833.36
435.894	2888.95
436.269	2918.55
436.644	2909.29
437.02	2999.91
437.395	2967.14
437.77	3036.06
438.145	3085.78
438.52	3127.14
438.895	3188.83
439.271	3141.37
439.646	3196.29
440.021	3257.53
440.395	3231.54
440.77	3228.83
441.145	3288.94
441.52	3354.02
441.895	3354.47
442.27	3396.73
442.645	3405.32
443.019	3493.68
443.394	3455.94
443.769	3507.92
444.143	3511.76
444.518	3540.68
444.892	3595.37
445.267	3559.44
445.641	3608.25
446.016	3658.87
446.39	3673.56
446.764	3694.8
447.139	3711.07
447.513	3760.79
447.887	3749.04
448.262	3795.14
448.636	3791.3
449.01	3875.14
449.384	3835.59
449.758	3894.12
450.132	3970.5
450.506	3983.84
450.88	4031.74
451.254	4047.79
451.628	4089.37
452.002	4119.2
452.376	4150.84
452.75	4223.38
453.123	4269.48
453.497	4366.65
453.871	4377.95
454.244	4502.69
454.618	4544.27
454.992	4544.27
455.365	4592.18
455.739	4681.44
456.112	4754.66
456.486	4841.89
456.859	4820.42
457.232	4895.68
457.606	4903.13
457.979	4980.87
458.352	5107.2
458.725	5150.58
459.099	5187.87
459.472	5317.81
459.845	5360.52
460.218	5408.88
460.591	5429
460.964	5496.11
461.337	5601.42
461.71	5717.12
462.083	5778.82
462.456	5802.77
462.829	5814.52
463.201	5959.6
463.574	5914.41
463.947	6047.51
464.32	6146.04
464.692	6202.08
465.065	6233.27
465.438	6360.04
465.81	6453.83
466.183	6534.5
466.555	6675.06
466.928	6660.38
467.3	6686.36
467.672	6876.64
468.045	7014.26
468.417	7037.99
468.789	7085.9
469.161	7207.93
469.534	7315.05
469.906	7415.16
470.278	7572.44
470.65	7615.83
471.022	7819.67
471.394	7935.14
471.766	7979.44
472.138	8108.47
472.51	8366.55
472.882	8428.01
473.253	8511.4
473.625	8599.31
473.997	8780.77
474.369	8799.53
474.74	8990.48
475.112	9092.18
475.484	9223.25
475.855	9459.17
476.227	9496.23
476.598	9826.62
476.97	9743.01
477.341	10091.7
477.713	10215.31
478.084	10267.96
478.455	10618.24
478.827	10631.8
479.198	10951.11
479.569	10929.64
479.94	11279.46
480.311	11394.04
480.682	11683.52
481.053	11878.32
481.424	12144.98
481.795	12216.16
482.166	12478.53
482.537	12605.08
482.908	12814.79
483.279	13059.08
483.65	13274.44
484.021	13514.21
484.391	13663.81
484.762	13795.78
485.133	14000.97
485.503	14151.7
485.874	14431.7
486.244	14580.17
486.615	14848.86
486.985	15019.03
487.356	15307.83
487.726	15414.72
488.097	15789.85
488.467	15821.04
488.837	16137.41
489.207	16292.44
489.578	16536.73
489.948	16649.27
490.318	16856.04
490.688	16964.96
491.058	17316.37
491.428	17523.82
491.798	17596.36
492.168	17878.61
492.538	18024.82
492.908	18228.89
493.278	18449.22
493.648	18509.56
494.017	18809.89
494.387	18993.61
494.757	19094.85
495.126	19362.41
495.496	19378.01
495.866	19633.82
496.235	19774.16
496.605	20080.59
496.974	20120.59
497.344	20383.18
497.713	20279
498.082	20556.06
498.452	20900.23
498.821	20975.93
499.19	21039.43
499.559	21219.09
499.928	21394.68
500.298	21625.63
500.667	21748.34
501.036	21758.74
501.405	21989.24
501.774	21968.45
502.143	22251.38
502.512	22344.48
502.88	22584.7
503.249	22546.96
503.618	22759.39
503.987	22900.4
504.356	22957.12
504.724	23243.44
505.093	23217.45
505.462	23366.38
505.83	23432.59
506.199	23675.52
506.567	23866.03
506.936	23938.34
507.304	24170.88
507.672	24318.22
508.041	24333.13
508.409	24533.13
508.777	24821.03
509.145	24941.93
509.514	24985.32
509.882	25254.92
510.25	25343.5
510.618	25583.95
510.986	25552.53
511.354	25873.66
511.722	26074.33
512.09	26460.53
512.458	26360.65
512.826	26638.38
513.193	26827.53
513.561	26901.65
513.929	27167.86
514.297	27516.78
514.664	27677.68
515.032	27818.01
515.4	28051.23
515.767	28139.58
516.135	28287.83
516.502	28383.65
516.869	28803.52
517.237	28907.25
517.604	28993.35
517.972	29338.42
518.339	29451.19
518.706	29528.93
519.073	29683.5
519.44	29974.79
519.808	30229.25
520.175	30283.48
520.542	30557.6
520.909	30714.21
521.276	30769.35
521.643	31059.06
522.009	31265.38
522.376	31475.32
522.743	31628.08
523.11	31911.24
523.477	32237.56
523.843	32280.27
524.21	32630.77
524.577	32873.02
524.943	32934.71
525.31	33202.05
525.676	33414.7
526.043	33554.13
526.409	33734.47
526.776	34232.76
527.142	34407.89
527.508	34593.2
527.874	34796.59
528.241	34961.1
528.607	35237.7
528.973	35425.04
529.339	35437.25
529.705	36015.54
530.071	36164.68
530.437	36459.59
530.803	36764.67
531.169	36800.37
531.535	36815.06
531.901	37130.76
532.267	37356.74
532.632	37531.65
532.998	37760.35
533.364	37932.1
533.73	38117.18
534.095	38460.22
534.461	38430.16
534.826	38644.85
535.192	38810.72
535.557	39066.08
535.923	39077.15
536.288	39415.9
536.653	39587.65
537.019	39526.4
537.384	39758.71
537.749	39872.84
538.114	40003.23
538.479	39922.55
538.845	40110.34
539.21	40021.31
539.575	40259.49
539.94	40326.16
540.305	40614.96
540.67	40448.41
541.034	40716.2
541.399	40897.44
541.764	40883.2
542.129	40955.52
542.494	41099.92
542.858	41196.42
543.223	41219.02
543.587	41521.61
543.952	41511.44
544.316	41569.51
544.681	41823.52
545.045	41944.65
545.41	42221.47
545.774	42264.64
546.138	42346.9
546.503	42495.82
546.867	42578.98
547.231	42905.07
547.595	43012.41
547.959	43138.96
548.324	43283.59
548.688	43412.18
549.052	43572.17
549.416	43764.71
549.779	43944.14
550.143	43995.44
550.507	44462.09
550.871	44370.8
551.235	44552.03
551.599	44984.57
551.962	44986.83
552.326	45147.5
552.689	45445.57
553.053	45302.98
553.417	45312.01
553.78	45923.75
554.143	45821.15
554.507	45941.83
554.87	46066.8
555.234	46451.65
555.597	46284.42
555.96	46373
556.323	46650.28
556.686	46635.37
557.05	46797.17
557.413	46989.71
557.776	47072.19
558.139	47315.58
558.502	47346.54
558.865	47354.67
559.228	47586.76
559.59	47692.74
559.953	47785.85
560.316	48140.87
560.679	48184.48
561.041	48371.37
561.404	48414.08
561.767	48643.23
562.129	48448.66
562.492	48990.56
562.854	48752.83
563.217	48924.35
563.579	49097.9
563.941	49326.82
564.304	49539.7
564.666	49721.84
565.028	49654.5
565.39	49845
565.753	49953.7
566.115	50145.11
566.477	50307.14
566.839	50291.54
567.201	50641.37
567.563	50804.07
567.925	50964.52
568.287	51090.62
568.648	51164.74
569.01	51400.89
569.372	51695.12
569.734	51608.57
570.095	51898.73
570.457	52051.72
570.819	52184.6
571.18	52247.43
571.542	52422.79
571.903	52515.67
572.265	52533.97
572.626	52650.13
572.987	52781.42
573.349	52903.68
573.71	53034.07
574.071	53040.17
574.432	53192.49
574.794	53389.54
575.155	53413.72
575.516	53344.35
575.877	53510.9
576.238	53520.84
576.599	53684
576.96	53612.81
577.32	53679.7
577.681	53735.97
578.042	53859.59
578.403	53764.45
578.763	53683.77
579.124	53808.06
579.485	53822.3
579.845	53936.87
580.206	53819.14
580.566	53905.01
580.927	53816.42
581.287	53936.19
581.648	53774.62
582.008	53940.94
582.368	53796.54
582.728	53870.43
583.089	53891.68
583.449	53808.29
583.809	53889.87
584.169	53985.46
584.529	53774.17
584.889	54079.69
585.249	53831.11
585.609	53770.32
585.969	53989.53
586.329	53965.35
586.688	53934.61
587.048	54009.87
587.408	53895.52
587.768	53955.18
588.127	53992.92
588.487	53909.53
588.846	54221.61
589.206	53923.99
589.565	54048.96
589.925	54241.05
590.284	54136.87
590.643	54260.71
591.003	54331.21
591.362	54518.33
591.721	54472.23
592.08	54505.45
592.44	54656.85
592.799	54720.81
593.158	54621.6
593.517	54643.75
593.876	54648.27
594.235	54579.34
594.593	54843.06
594.952	54762.39
595.311	54726.46
595.67	54795.16
596.029	54878.32
596.387	54802.61
596.746	54914.47
597.104	54787.02
597.463	54813.23
597.822	54935.04
598.18	54769.62
598.538	54812.78
598.897	54900.92
599.255	54627.25
599.613	55081.93
599.972	54913.12
600.33	54875.15
600.688	54731.2
601.046	54813.01
601.404	54899.33
601.762	54860.24
602.12	54921.25
602.478	54869.5
602.836	54791.54
603.194	54621.6
603.552	54643.52
603.91	54580.47
604.268	54675.38
604.625	54595.16
604.983	54667.93
605.341	54416.41
605.698	54638.32
606.056	54676.74
606.413	54577.99
606.771	54645.55
607.128	54628.15
607.485	54650.07
607.843	54618.21
608.2	54817.75
608.557	54842.39
608.914	54700.24
609.272	54888.26
609.629	54910.41
609.986	55021.59
610.343	54928.26
610.7	55179.1
611.057	55038.99
611.414	55098.2
611.771	55072.89
612.127	55297.06
612.484	55218.42
612.841	55355.14
613.198	55337.29
613.554	55365.08
613.911	55565.76
614.267	55514.23
614.624	55567.79
614.98	55636.26
615.337	55832.42
615.693	55730.27
616.05	55789.48
616.406	56066.08
616.762	55852.75
617.118	55929.81
617.475	56097.72
617.831	56097.95
618.187	56093.65
618.543	56176.36
618.899	56250.94
619.255	56163.48
619.611	56135.91
619.967	56212.29
620.323	56328
620.678	56130.71
621.034	56076.25
621.39	56154.67
621.746	56083.93
622.101	56369.35
622.457	56100.43
622.812	56105.63
623.168	56121.9
623.523	56043.03
623.879	56138.17
624.234	55812.3
624.589	55996.71
624.945	55977.5
625.3	56001.23
625.655	55958.97
626.01	55909.25
626.365	55876.48
626.72	55803.04
627.075	55737.05
627.43	55705.41
627.785	55642.59
628.14	55645.53
628.495	55723.94
628.85	55589.94
629.205	55437.4
629.559	55690.95
629.914	55454.57
630.269	55485.08
630.623	55348.14
630.978	55318.98
631.332	55386.55
631.687	55389.26
632.041	55239.66
632.396	55291.87
632.75	55160.34
633.104	55278.08
633.459	55132.77
633.813	55123.96
634.167	55204.86
634.521	55163.73
634.875	55175.94
635.229	55097.52
635.583	55062.04
635.937	55084.87
636.291	55041.7
636.645	55069.95
636.999	55008.03
637.352	55095.94
637.706	55003.51
638.06	55062.27
638.413	55040.57
638.767	54993.79
639.121	55071.08
639.474	54903.4
639.828	54939.33
640.181	54940.69
640.534	55064.53
640.888	55029.05
641.241	54872.67
641.594	54991.76
641.947	55052.1
642.301	54931.2
642.654	55029.95
643.007	54998.09
643.36	55040.35
643.713	54963.29
644.066	55184.75
644.419	54946.56
644.771	54699.56
645.124	54407.14
645.477	54347.48
645.83	54120.6
646.182	54132.57
646.535	54020.03
646.888	54047.6
647.24	53868.17
647.593	54086.93
647.945	53971.67
648.298	53781.4
648.65	53701.4
649.002	53491.23
649.355	53758.57
649.707	53625.24
650.059	53721.74
650.411	53860.04
650.763	53871.79
651.115	54168.28
651.467	54032.24
651.819	53951.11
652.171	53827.5
652.523	53733.49
652.875	53737.1
653.227	53555.41
653.578	53757.67
653.93	53562.19
654.282	53520.16
654.633	53447.85
654.985	53501.4
655.337	53309.32
655.688	53420.95
656.039	53466.6
656.391	52999.72
656.742	53157.01
657.094	53150
657.445	53172.15
657.796	53141.64
658.147	53003.11
658.498	53079.04
658.849	53067.52
659.2	52997.91
659.551	52902.32
659.902	53034.52
660.253	52943.23
660.604	52985.03
660.955	52825.72
661.306	52891.48
661.656	52881.31
662.007	52912.49
662.358	52926.73
662.708	53023
663.059	52905.49
663.409	52627.08
663.76	52879.95
664.11	52973.51
664.461	53016.44
664.811	53062.32
665.161	53022.55
665.511	52894.87
665.862	52984.81
666.212	53052.15
666.562	53086.05
666.912	52981.87
667.262	52870.46
667.612	52966.28
667.962	52987.07
668.312	52991.13
668.662	53154.29
669.011	53032.04
669.361	53089.89
669.711	52965.82
670.06	52887.18
670.41	52900.97
670.76	52990.46
671.109	53029.1
671.459	52936.67
671.808	52882.44
672.157	52947.07
672.507	52703.46
672.856	52843.12
673.205	52786.39
673.554	52761.76
673.904	52732.84
674.253	52908.88
674.602	52783
674.951	52239.97
675.3	52232.28
675.649	52661.88
675.998	52586.17
676.346	52558.6
676.695	52641.54
677.044	52288.1
677.393	52507.98
677.741	52497.81
678.09	52294.2
678.438	52242.91
678.787	52250.82
679.135	52175.34
679.484	52037.94
679.832	52094.21
680.181	51875.68
680.529	51945.29
680.877	51728.57
681.225	51666.88
681.573	51730.15
681.922	51439.09
682.27	51429.14
682.618	51344.4
682.966	51209.03
683.314	51257.85
683.661	51175.14
684.009	50931.53
684.357	50923.39
684.705	50844.52
685.053	50679.78
685.4	50796.39
685.748	50557.07
686.095	50477.08
686.443	50346.01
686.79	50262.62
687.138	50332
687.485	50261.94
687.832	50028.05
688.18	50191.21
688.527	49978.78
688.874	49884.78
689.221	49798
689.568	49755.74
689.915	49563.88
690.262	49701.05
690.609	49477.55
690.956	49337.45
691.303	49327.28
691.65	49146.72
691.997	49087.51
692.344	48972.48
692.69	48986.27
693.037	48985.82
693.383	48714.64
693.73	48807.97
694.077	48531.37
694.423	48659.72
694.769	48517.58
695.116	48499.5
695.462	48412.27
695.808	48245.27
696.155	48317.59
696.501	48114.43
696.847	48140.64
697.193	47962.79
697.539	48098.16
697.885	47706.53
698.231	47650.48
698.577	47763.25
698.923	47622.24
699.269	47586.53
699.614	47243.04
699.96	47294.56
700.306	47238.97
700.651	47054.57
700.997	47028.13
701.342	47060.67
701.688	47001.91
702.033	46845.08
702.379	46797.17
702.724	46715.37
703.069	46770.51
703.415	46251.65
703.76	46304.53
704.105	46382.95
704.45	46310.86
704.795	46028.15
705.14	45946.8
705.485	45820.93
705.83	45779.12
706.175	45854.15
706.52	45646.47
706.865	45400.15
707.209	45318.57
707.554	45146.82
707.899	45267.5
708.243	45069.99
708.588	45065.24
708.932	44753.39
709.277	44650.34
709.621	44545.26
709.966	44349.1
710.31	44371.7
710.654	43842
710.998	43938.27
711.342	43974.42
711.687	43865.73
712.031	43498.96
712.375	43430.03
712.719	43580.31
713.063	43382.35
713.407	43339.41
713.75	43104.84
714.094	43065.07
714.438	42741.23
714.782	42884.28
715.125	42615.14
715.469	42580.34
715.812	42421.47
716.156	42184.41
716.499	42193
716.843	41968.37
717.186	42004.08
717.53	41953.46
717.873	41985.55
718.216	41859.68
718.559	41608.84
718.902	41358.9
719.246	41393.02
719.589	41171.33
719.932	41054.95
720.275	41045.91
720.617	40987.83
720.96	40900.38
721.303	40878.46
721.646	40753.72
721.989	40609.77
722.331	40671.91
722.674	40563.21
723.016	40580.61
723.359	40351.02
723.701	40398.02
724.044	40200.06
724.386	40058.82
724.729	40231.24
725.071	40153.96
725.413	40041.42
725.755	40012.72
726.097	39867.19
726.439	39661.99
726.782	39600.07
727.124	39784.7
727.465	39588.78
727.807	39628.77
728.149	39544.71
728.491	39451.6
728.833	39429.68
729.175	39302.46
729.516	39109.01
729.858	39160.09
730.199	39287.31
730.541	39157.15
730.882	39138.84
731.224	39135.45
731.565	39010.03
731.906	39027.89
732.248	38987.44
732.589	38888.45
732.93	38788.8
733.271	38819.08
733.612	38960.09
733.953	38977.72
734.294	38843.71
734.635	38576.82
734.976	38822.02
735.317	38516.71
735.658	38541.8
735.999	38634.22
736.339	38492.31
736.68	38705.41
737.021	38525.07
737.361	38280.34
737.702	38443.49
738.042	38341.35
738.383	38250.73
738.723	38398.07
739.063	38145.2
739.404	38263.16
739.744	38056.16
740.084	37900.91
740.424	37969.16
740.764	37808.48
741.104	37876.28
741.444	37792.44
741.784	37569.39
742.124	37740.01
742.464	37491.2
742.804	37653.46
743.143	37553.12
743.483	37253.47
743.823	37114.04
744.162	37201.27
744.502	37249.85
744.841	37018.67
745.181	37026.58
745.52	36923.08
745.86	37041.95
746.199	36854.38
746.538	36731.68
746.877	36618.01
747.216	36674.5
747.556	36577.33
747.895	36498.69
748.234	36216.43
748.573	36462.08
748.911	36068.19
749.25	36098.92
749.589	35950.45
749.928	35979.83
750.267	35903.22
750.605	35781.42
750.944	35675.43
751.283	35556.79
751.621	35435.66
751.96	35085.17
752.298	35166.97
752.636	35091.27
752.975	34925.62
753.313	34813.76
753.651	34926.98
753.989	34695.8
754.327	34658.06
754.666	34318.18
755.004	34335.13
755.342	34228.24
755.679	34194.12
756.017	33948.02
756.355	33870.06
756.693	33797.52
757.031	33828.7
757.368	33488.14
757.706	33514.58
758.044	33280.92
758.381	33340.35
758.719	33191.2
759.056	33225.33
759.394	33018.78
759.731	32705.34
760.068	32861.49
760.405	32559.58
760.743	32578.79
761.08	32611.78
761.417	32435.52
761.754	32290.89
762.091	32302.41
762.428	32060.61
762.765	31965.25
763.102	32137.22
763.438	31838.47
763.775	31748.08
764.112	31805.03
764.449	31925.93
764.785	31643.9
765.122	31460.85
765.458	31332.95
765.795	31184.7
766.131	31372.49
766.467	31252.95
766.804	30952.17
767.14	30894.99
767.476	30906.29
767.812	30734.09
768.148	30824.94
768.485	30763.24
768.821	30569.35
769.157	30424.04
769.492	30388.11
769.828	30350.6
770.164	30184.28
770.5	30087.1
770.836	29942.93
771.171	30023.83
771.507	29888.92
771.842	29611.18
772.178	29652.31
772.513	29645.99
772.849	29477.18
773.184	29239.9
773.519	29405.99
773.855	29261.14
774.19	29128.03
774.525	29016.4
774.86	29018.43
775.195	28954.48
775.53	28923.52
775.865	28808.04
776.2	28563.98
776.535	28321.05
776.87	28400.6
777.205	28309.75
777.539	28185.23
777.874	28371.22
778.209	28115.86
778.543	28070.66
778.878	27812.36
779.212	27749.76
779.547	27664.34
779.881	27663.67
780.215	27524.91
780.55	27479.72
780.884	27268.42
781.218	27364.69
781.552	27296.22
781.886	27074.53
782.22	26929
782.554	26878.83
782.888	26562.23
783.222	26610.13
783.556	26516.8
783.889	26411.49
784.223	26138.73
784.557	26103.03
784.89	26145.97
785.224	26036.36
785.557	25865.97
785.891	25731.06
786.224	25541.69
786.558	25588.92
786.891	25268.93
787.224	25334.46
787.557	25181.92
787.891	25172.88
788.224	24978.99
788.557	24951.42
788.89	24834.59
789.223	24684.99
789.556	24658.77
789.888	24527.93
790.221	24412.68
790.554	24130.65
790.887	24222.63
791.219	24120.71
791.552	23935.63
791.884	23919.13
792.217	23787.16
792.549	23647.5
792.882	23435.98
793.214	23318.69
793.546	23295.87
793.879	23192.14
794.211	23032.83
794.543	23158.47
794.875	22935.2
795.207	23012.04
795.539	22888.65
795.871	22941.3
796.203	22581.31
796.535	22464.71
796.867	22350.81
797.198	22360.75
797.53	22286.63
797.862	22092.74
798.193	22129.8
798.525	21958.73
798.856	22090.48
799.188	21789.92
799.519	21688
799.85	21582.02
800.182	21526.2
800.513	21542.7
800.844	21493.21
801.175	21363.27
801.506	21418.86
801.837	21146.1
802.168	21077.62
802.499	21103.61
802.83	21011.41
803.161	20960.56
803.491	20758.31
803.822	20875.37
804.153	20744.53
804.483	20608.71
804.814	20596.96
805.145	20499.79
805.475	20388.6
805.805	20346.34
806.136	20371.88
806.466	20214.6
806.796	20316.29
807.126	20072.68
807.457	20152
807.787	20107.71
808.117	20181.38
808.447	20068.84
808.777	20133.24
809.107	20037.88
809.436	19824.55
809.766	19890.31
810.096	19816.41
810.426	19786.58
810.755	19798.79
811.085	19634.27
811.414	19721.5
811.744	19603.54
812.073	19543.43
812.403	19648.96
812.732	19492.81
813.061	19480.83
813.39	19374.39
813.719	19359.48
814.049	19422.53
814.378	19411.45
814.707	19264.34
815.036	19258.46
815.365	19244.45
815.693	18986.15
816.022	19037
816.351	19052.82
816.68	19014.85
817.008	19081.29
817.337	18950
817.665	18846.5
817.994	19001.75
818.322	18892.14
818.651	18713.62
818.979	18640.85
819.307	18826.16
819.636	18764.92
819.964	18636.33
820.292	18754.97
820.62	18746.39
820.948	18681.53
821.276	18664.35
821.604	18656.67
821.932	18681.3
822.259	18691.02
822.587	18602.66
822.915	18577.35
823.243	18668.42
823.57	18554.98
823.898	18614.86
824.225	18574.86
824.553	18508.2
824.88	18538.93
825.207	18652.6
825.535	18550.46
825.862	18663.45
826.189	18491.03
826.516	18658.48
826.843	18681.3
827.17	18556.33
827.497	18587.29
827.824	18630
828.151	18559.05
828.478	18485.15
828.805	18593.17
829.131	18283.12
829.458	18540.97
829.785	18332.39
830.111	18347.53
830.438	18487.18
830.764	18337.81
831.09	18332.61
831.417	18210.58
831.743	18392.5
832.069	18350.69
832.395	18229.56
832.722	18265.49
833.048	18212.61
833.374	18177.81
833.7	17985.05
834.026	18070.25
834.351	18059.4
834.677	18084.26
835.003	18046.74
835.329	17943.47
835.654	17990.93
835.98	17853.3
836.306	17807.65
836.631	17763.36
836.956	17890.59
837.282	17795.45
837.607	17711.61
837.932	17610.37
838.258	17598.17
838.583	17477.94
838.908	17527.21
839.233	17505.06
839.558	17373.54
839.883	17206.31
840.208	17216.48
840.533	17216.03
840.858	17193.88
841.182	17153.89
841.507	17180.55
841.832	16991.4
842.156	17011.97
842.481	17010.39
842.805	16994.57
843.13	16931.52
843.454	16741.47
843.778	16800.67
844.103	16670.51
844.427	16543.73
844.751	16658.3
845.075	16625.09
845.399	16482.49
845.723	16339.44
846.047	16359.78
846.371	16233.23
846.695	16337.64
847.019	16066.46
847.343	16011.54
847.666	15848.83
847.99	15819
848.313	15842.51
848.637	15794.15
848.96	15736.07
849.284	15668.73
849.607	15528.39
849.931	15485.23
850.254	15413.82
850.577	15457.66
850.9	15237.55
851.223	15246.36
851.546	15127.5
851.869	15067.16
852.192	15268.96
852.515	15070.55
852.838	15041.62
853.161	15003.89
853.483	14964.79
853.806	14870.1
854.129	14872.82
854.451	14769.09
854.774	14727.96
855.096	14676.89
855.419	14677.57
855.741	14624.69
856.063	14614.52
856.385	14553.5
856.708	14489.1
857.03	14428.99
857.352	14360.74
857.674	14382.21
857.996	14337.24
858.318	14345.6
858.64	14364.13
858.961	14283
859.283	14267.18
859.605	14175.88
859.926	14291.36
860.248	14180.18
860.57	14146.05
860.891	14073.97
861.212	14089.56
861.534	14102.21
861.855	14075.32
862.176	14020.18
862.498	14066.73
862.819	14051.37
863.14	13966.62
863.461	13962.33
863.782	13987.41
864.103	13995.78
864.424	13921.65
864.745	13843.92
865.065	13820.19
865.386	13840.3
865.707	13828.32
866.027	13878.04
866.348	13861.54
866.668	13845.27
866.989	13859.73
867.309	13671.26
867.63	13726.63
867.95	13707.65
868.27	13709.23
868.59	13733.86
868.91	13658.84
869.23	13665.84
869.55	13532.96
869.87	13692.73
870.19	13638.72
870.51	13636.69
870.83	13695.22
871.15	13558.27
871.469	13535
871.789	13581.78
872.109	13516.69
872.428	13435.56
872.748	13548.78
873.067	13456.36
873.386	13506.52
873.706	13438.05
874.025	13384.72
874.344	13329.8
874.663	13339.52
874.982	13306.98
875.301	13321.22
875.62	13208.23
875.939	13174.33
876.258	13209.58
876.577	13176.81
876.896	13217.72
877.214	13085.74
877.533	13167.78
877.852	13018.17
878.17	13012.07
878.489	13045.52
878.807	12964.16
879.125	13015.69
879.444	12895.92
879.762	12860.66
880.08	12891.62
880.398	12769.82
880.716	12787.9
881.034	12784.51
881.352	12687.56
881.67	12669.94
881.988	12669.03
882.306	12611.63
882.624	12593.78
882.941	12509.26
883.259	12417.74
883.577	12390.85
883.894	12391.98
884.212	12300.68
884.529	12332.32
884.846	12292.32
885.164	12246.9
885.481	12187.01
885.798	12178.42
886.115	12045.32
886.432	11978.43
886.75	11933.23
887.067	12021.14
887.383	11900.24
887.7	11809.39
888.017	11747.93
888.334	11818.88
888.651	11842.84
888.967	11692.11
889.284	11618.21
889.6	11542.06
889.917	11486.92
890.233	11513.81
890.55	11522.39
890.866	11440.36
891.182	11408.05
891.498	11349.97
891.815	11267.26
892.131	11229.07
892.447	11143.87
892.763	11103.42
893.079	11171.22
893.395	11017.32
893.71	10975.74
894.026	11037.21
894.342	10947.95
894.657	10925.8
894.973	10866.37
895.289	10814.62
895.604	10718.8
895.92	10669.76
896.235	10665.02
896.55	10684.22
896.865	10680.83
897.181	10671.34
897.496	10579.37
897.811	10565.58
898.126	10475.19
898.441	10437.9
898.756	10434.51
899.071	10321.52
899.386	10265.03
899.7	10321.75
900.015	10200.85
900.33	10133.05
900.644	10188.42
900.959	10102.55
901.273	10025.26
901.588	10043.79
901.902	9997.46
902.216	9975.77
902.531	9961.31
902.845	9921.98
903.159	9879.05
903.473	9886.51
903.787	9826.85
904.101	9705.04
904.415	9744.36
904.729	9738.03
905.042	9691.48
905.356	9664.36
905.67	9699.17
905.984	9658.04
906.297	9631.15
906.611	9561.54
906.924	9581.2
907.237	9558.6
907.551	9481.32
907.864	9456.23
908.177	9446.74
908.491	9404.03
908.804	9326.07
909.117	9288.56
909.43	9253.3
909.743	9216.01
910.056	9296.92
910.368	9191.83
910.681	9134.43
910.994	9090.82
911.307	9136.69
911.619	9035.45
911.932	9100.76
912.244	9006.75
912.557	9013.99
912.869	8927.21
913.181	8985.74
913.494	8897.15
913.806	8843.6
914.118	8869.58
914.43	8761.56
914.742	8782.35
915.054	8759.3
915.366	8723.82
915.678	8735.58
915.99	8690.83
916.302	8655.8
916.613	8558.63
916.925	8595.69
917.236	8595.92
917.548	8574.45
917.859	8567.44
918.171	8458.07
918.482	8491.97
918.794	8394.79
919.105	8370.16
919.416	8324.06
919.727	8319.77
920.038	8338.07
920.349	8240.9
920.66	8212.65
920.971	8225.31
921.282	8194.57
921.593	8085.87
921.903	8090.62
922.214	8031.19
922.525	8026.67
922.835	7988.7
923.146	8007.23
923.456	7972.88
923.767	7915.94
924.077	7858.99
924.387	7881.36
924.697	7858.99
925.008	7831.19
925.318	7778.99
925.628	7835.71
925.938	7682.72
926.248	7701.7
926.558	7626.9
926.867	7636.85
927.177	7598.88
927.487	7518.88
927.796	7457.19
928.106	7444.99
928.416	7443.18
928.725	7469.17
929.034	7393.01
929.344	7409.06
929.653	7341.04
929.962	7304.65
930.271	7252.68
930.581	7156.41
930.89	7131.55
931.199	7141.72
931.508	7080.93
931.817	7039.57
932.125	7019.24
932.434	7063.08
932.743	6908.05
933.051	6902.4
933.36	6896.08
933.669	6842.07
933.977	6796.42
934.286	6760.94
934.594	6761.16
934.902	6720.04
935.21	6648.17
935.519	6728.62
935.827	6583.77
936.135	6574.5
936.443	6494.96
936.751	6452.02
937.059	6423.77
937.367	6400.04
937.674	6445.47
937.982	6348.07
938.29	6369.08
938.597	6321.4
938.905	6265.58
939.213	6267.17
939.52	6174.29
939.827	6201.63
940.135	6141.07
940.442	6053.61
940.749	6053.39
941.056	6073.5
941.363	6005.7
941.67	5997.12
941.977	5925.93
942.284	5847.06
942.591	5891.58
942.898	5811.81
943.205	5831.7
943.511	5718.48
943.818	5798.93
944.125	5652.27
944.431	5679.61
944.738	5677.8
945.044	5599.16
945.35	5548.54
945.657	5519.61
945.963	5542.66
946.269	5405.72
946.575	5436.91
946.881	5400.52
947.187	5401.43
947.493	5327.76
947.799	5313.52
948.105	5262.22
948.41	5302.67
948.716	5224.03
949.022	5219.28
949.327	5289.56
949.633	5198.27
949.938	5190.36
950.244	5189
950.549	5102.9
950.854	5074.65
951.16	5034.43
951.465	5004.6
951.77	5007.99
952.075	4980.65
952.38	4978.39
952.685	4945.39
952.99	4930.48
953.294	4865.85
953.599	4833.08
953.904	4835.79
954.209	4802.35
954.513	4752.63
954.818	4742.91
955.122	4716.47
955.426	4725.29
955.731	4669.69
956.035	4603.25
956.339	4648.45
956.643	4613.2
956.948	4537.04
957.252	4585.63
957.556	4544.5
957.86	4503.82
958.163	4498.62
958.467	4444.84
958.771	4442.81
959.075	4449.59
959.378	4424.05
959.682	4379.98
959.985	4409.36
960.289	4386.09
960.592	4349.48
960.896	4348.57
961.199	4293.21
961.502	4245.52
961.805	4281.46
962.108	4273.55
962.411	4203.72
962.714	4222.93
963.017	4212.3
963.32	4222.25
963.623	4171.85
963.926	4141.8
964.228	4134.11
964.531	4086.43
964.833	4109.93
965.136	4093.21
965.438	4084.4
965.741	4037.62
966.043	4062.25
966.345	4042.82
966.648	4030.16
966.95	4067.22
967.252	4000.56
967.554	3974.8
967.856	3995.59
968.158	3937.96
968.46	3946.32
968.761	3986.55
969.063	3894.8
969.365	3878.98
969.666	3908.81
969.968	3888.25
970.269	3887.79
970.571	3846.66
970.872	3880.11
971.174	3792.88
971.475	3800.79
971.776	3801.69
972.077	3775.93
972.378	3782.49
972.679	3774.58
972.98	3749.49
973.281	3748.81
973.582	3718.76
973.883	3682.37
974.183	3689.15
974.484	3690.96
974.785	3616.39
975.085	3650.06
975.386	3631.08
975.686	3657.06
975.986	3606.67
976.287	3659.55
976.587	3566.67
976.887	3546.33
977.187	3572.55
977.487	3534.81
977.787	3519.89
978.087	3540.01
978.387	3555.37
978.687	3510.18
978.987	3525.09
979.286	3462.95
979.586	3490.29
979.885	3478.99
980.185	3436.05
980.484	3384.08
980.784	3424.53
981.083	3347.47
981.382	3361.71
981.682	3360.58
981.981	3389.95
982.28	3330.07
982.579	3350.41
982.878	3324.64
983.177	3281.26
983.475	3322.16
983.774	3231.31
984.073	3239.9
984.372	3254.36
984.67	3246.91
984.969	3218.66
985.267	3246.23
985.566	3197.64
985.864	3185.66
986.162	3178.21
986.461	3166.46
986.759	3123.29
987.057	3094.59
987.355	3154.03
987.653	3076.97
987.951	3092.56
988.249	3099.34
988.547	3073.35
988.844	3016.86
989.142	3018.44
989.44	2992.22
989.737	2982.51
990.035	2996.74
990.332	2943.41
990.63	2983.64
990.927	2936.86
991.224	2938.89
991.521	2948.61
991.819	2931.43
992.116	2885.79
992.413	2875.39
992.71	2884.2
993.006	2845.56
993.303	2806.69
993.6	2883.98
993.897	2785.68
994.193	2801.04
994.49	2814.6
994.787	2761.5
995.083	2758.78
995.379	2679.46
995.676	2681.95
995.972	2731.44
996.268	2656.19
996.565	2644.44
996.861	2639.46
997.157	2656.41
997.453	2622.06
997.749	2596.08
998.044	2581.84
998.34	2578
998.636	2539.35
998.932	2560.37
999.227	2513.14
999.523	2505.23
999.818	2502.97
1000.114	2478.34
1000.409	2475.18
1000.704	2423.2
1001	2428.17
1001.295	2420.04
1001.59	2420.94
1001.885	2390.43
1002.18	2341.17
1002.475	2340.94
1002.77	2340.49
1003.065	2279.7
1003.359	2299.36
1003.654	2309.76
1003.949	2268.63
1004.243	2280.6
1004.538	2213.26
1004.832	2225.24
1005.127	2183.66
1005.421	2186.37
1005.715	2175.97
1006.009	2167.84
1006.304	2177.1
1006.598	2153.15
1006.892	2119.93
1007.186	2075.64
1007.48	2103.43
1007.773	2088.07
1008.067	2044.68
1008.361	2042.64
1008.655	2039.03
1008.948	2006.71
1009.242	2023.66
1009.535	1963.78
1009.829	2008.97
1010.122	1989.09
1010.415	1975.75
1010.708	1935.08
1011.001	1935.53
1011.295	1869.32
1011.588	1895.3
1011.881	1866.83
1012.173	1883.33
1012.466	1855.76
1012.759	1836.1
1013.052	1828.86
1013.344	1834.51
1013.637	1814.85
1013.93	1802.42
1014.222	1792.26
1014.514	1780.05
1014.807	1750.22
1015.099	1723.1
1015.391	1752.71
1015.683	1700.73
1015.976	1707.74
1016.268	1700.73
1016.56	1703.22
1016.851	1649.43
1017.143	1658.02
1017.435	1649.89
1017.727	1621.41
1018.018	1656.89
1018.31	1638.36
1018.602	1592.26
1018.893	1586.61
1019.185	1580.96
1019.476	1596.1
1019.767	1549.78
1020.058	1516.78
1020.35	1532.83
1020.641	1533.28
1020.932	1514.07
1021.223	1492.15
1021.514	1529.44
1021.804	1484.47
1022.095	1496.22
1022.386	1475.65
1022.677	1434.52
1022.967	1478.14
1023.258	1418.25
1023.548	1452.83
1023.839	1375.77
1024.129	1424.13
1024.419	1404.02
1024.709	1396.79
1025	1381.87
1025.29	1356.56
1025.58	1350.46
1025.87	1338.48
1026.16	1338.93
1026.449	1368.09
1026.739	1325.15
1027.029	1319.95
1027.319	1303
1027.608	1343.23
1027.898	1300.06
1028.187	1284.25
1028.477	1266.85
1028.766	1296.67
1029.055	1249.44
1029.344	1280.4
1029.634	1245.6
1029.923	1258.94
1030.212	1250.35
1030.501	1226.17
1030.79	1199.95
1031.078	1212.84
1031.367	1208.32
1031.656	1193.17
1031.945	1170.8
1032.233	1185.49
1032.522	1174.19
1032.81	1195.43
1033.099	1177.13
1033.387	1157.47
1033.675	1153.85
1033.963	1149.33
1034.251	1155.21
1034.54	1126.51
1034.828	1138.04
1035.116	1132.84
1035.403	1121.76
1035.691	1119.05
1035.979	1103.69
1036.267	1077.47
1036.554	1105.72
1036.842	1083.8
1037.129	1057.81
1037.417	1058.94
1037.704	1047.87
1037.992	1060.75
1038.279	1044.03
1038.566	1049.22
1038.853	1049.22
1039.14	1049.22
