Data from white_poster_card_FLMS001491_00067.txt Node
Date: Wed Feb 08 11:51:51 GMT 2017
User: dcchb
Spectrometer: FLMS00149
Trigger mode: 0
Integration Time (sec): 2.000000E-2
Scans to average: 10
Electric dark correction enabled: true
Nonlinearity correction enabled: false
Boxcar width: 0
XAxis mode: Wavelengths
Number of Pixels in Spectrum: 2048
>>>>>Begin Spectral Data<<<<<
341.393	-5.95
341.776	-5.95
342.16	-5.95
342.543	-65.83
342.927	-73.29
343.31	-64.93
343.693	-80.52
344.077	-62.89
344.46	-79.16
344.843	-51.59
345.226	-40.3
345.61	-36
345.993	-33.74
346.376	-6.4
346.759	12.13
347.142	39.25
347.525	49.87
347.908	42.64
348.291	87.84
348.674	99.81
349.057	123.99
349.44	115.41
349.823	123.99
350.206	157.21
350.588	221.62
350.971	206.25
351.354	218
351.737	248.51
352.119	254.16
352.502	247.15
352.884	283.09
353.267	274.72
353.65	297.77
354.032	302.52
354.414	314.72
354.797	310.43
355.179	321.5
355.562	316.08
355.944	331.9
356.326	337.77
356.709	311.11
357.091	326.93
357.473	354.72
357.855	349.3
358.238	356.76
358.62	355.85
359.002	347.94
359.384	340.26
359.766	337.77
360.148	344.55
360.53	346.13
360.912	346.81
361.294	357.21
361.676	324.67
362.057	335.29
362.439	336.64
362.821	326.93
363.203	323.08
363.584	336.19
363.966	344.78
364.348	329.64
364.729	305.46
365.111	311.33
365.493	326.25
365.874	326.47
366.256	312.46
366.637	331.67
367.019	298.45
367.4	309.98
367.781	307.94
368.163	317.66
368.544	331.9
368.925	319.47
369.306	314.05
369.688	329.41
370.069	312.92
370.45	331.9
370.831	327.83
371.212	309.98
371.593	321.28
371.974	316.31
372.355	311.11
372.736	323.31
373.117	317.66
373.498	319.02
373.879	310.2
374.26	289.87
374.641	330.09
375.021	323.99
375.402	324.89
375.783	328.28
376.163	349.98
376.544	341.84
376.925	338.23
377.305	326.93
377.686	337.55
378.066	326.47
378.447	345.91
378.827	353.14
379.208	344.55
379.588	336.42
379.968	321.95
380.349	326.47
380.729	354.5
381.109	317.44
381.489	341.16
381.87	341.39
382.25	362.41
382.63	359.47
383.01	348.17
383.39	361.28
383.77	343.65
384.15	338.9
384.53	366.7
384.91	361.28
385.29	374.61
385.67	359.24
386.049	382.97
386.429	350.2
386.809	371.45
387.189	349.52
387.568	377.77
387.948	368.73
388.328	382.29
388.707	373.25
389.087	401.73
389.466	394.95
389.846	369.41
390.225	402.18
390.605	376.64
390.984	394.72
391.363	392.24
391.743	383.87
392.122	395.85
392.501	385.68
392.881	419.81
393.26	418.45
393.639	410.77
394.018	397.89
394.397	417.55
394.776	422.07
395.155	425.68
395.534	398.56
395.913	400.37
396.292	421.61
396.671	409.18
397.05	421.61
397.429	428.39
397.808	430.65
398.186	442.63
398.565	434.27
398.944	449.41
399.323	464.55
399.701	436.08
400.08	460.03
400.458	457.09
400.837	439.92
401.215	461.16
401.594	453.7
401.972	472.46
402.351	488.28
402.729	481.27
403.107	470.88
403.486	487.37
403.864	472.69
404.242	467.26
404.62	489.41
404.999	486.02
405.377	491.22
405.755	505.68
406.133	523.53
406.511	530.76
406.889	526.02
407.267	514.49
407.645	528.5
408.023	549.07
408.401	554.72
408.779	582.29
409.156	580.48
409.534	586.35
409.912	590.42
410.29	607.37
410.667	613.25
411.045	606.47
411.422	636.97
411.8	636.75
412.178	656.18
412.555	671.55
412.933	669.06
413.31	684.43
413.687	702.28
414.065	725.33
414.442	749.29
414.819	762.62
415.197	772.79
415.574	766.91
415.951	797.65
416.328	822.51
416.705	824.77
417.082	822.51
417.46	853.47
417.837	866.35
418.214	898.44
418.591	888.72
418.967	911.32
419.344	915.39
419.721	961.03
420.098	962.16
420.475	973.46
420.852	980.92
421.228	987.7
421.605	1007.13
421.982	1020.02
422.358	1029.73
422.735	1060.92
423.111	1064.08
423.488	1083.29
423.864	1103.63
424.241	1093.91
424.617	1132.55
424.994	1144.31
425.37	1153.8
425.746	1161.25
426.123	1198.09
426.499	1230.63
426.875	1215.26
427.251	1237.18
427.627	1296.39
428.003	1274.02
428.379	1273.79
428.756	1294.58
429.132	1318.31
429.507	1335.26
429.883	1376.39
430.259	1387.24
430.635	1398.31
431.011	1397.86
431.387	1446.9
431.763	1447.8
432.138	1474.47
432.514	1498.2
432.89	1513.56
433.265	1541.58
433.641	1577.06
434.016	1591.07
434.392	1606.67
434.767	1630.17
435.143	1662.94
435.518	1661.13
435.894	1668.36
436.269	1682.6
436.644	1696.61
437.02	1767.57
437.395	1742.71
437.77	1783.39
438.145	1828.13
438.52	1831.52
438.895	1849.15
439.271	1857.28
439.646	1895.47
440.021	1899.77
440.395	1935.02
440.77	1879.88
441.145	1918.3
441.52	1936.83
441.895	1953.55
442.27	2005.53
442.645	2003.04
443.019	2025.41
443.394	2000.78
443.769	2017.73
444.143	1991.52
444.518	2077.84
444.892	2074.68
445.267	2084.62
445.641	2088.46
446.016	2105.18
446.39	2146.77
446.764	2144.73
447.139	2119.87
447.513	2149.7
447.887	2162.36
448.262	2170.27
448.636	2192.87
449.01	2204.39
449.384	2218.63
449.758	2263.82
450.132	2266.08
450.506	2280.1
450.88	2289.36
451.254	2313.09
451.628	2351.28
452.002	2386.99
452.376	2409.81
452.75	2431.28
453.123	2445.06
453.497	2473.08
453.871	2479.19
454.244	2503.14
454.618	2549.24
454.992	2583.14
455.365	2577.26
455.739	2640.99
456.112	2662.46
456.486	2668.56
456.859	2674.44
457.232	2741.1
457.606	2723.47
457.979	2797.14
458.352	2851.61
458.725	2849.12
459.099	2890.47
459.472	2924.6
459.845	2977.25
460.218	2983.35
460.591	3028.55
460.964	3045.27
461.337	3124.59
461.71	3141.54
462.083	3200.3
462.456	3167.98
462.829	3199.62
463.201	3284.81
463.574	3288.43
463.947	3350.35
464.32	3398.48
464.692	3420.86
465.065	3461.08
465.438	3494.07
465.81	3531.81
466.183	3545.82
466.555	3623.56
466.928	3651.36
467.3	3675.09
467.672	3732.49
468.045	3816.55
468.417	3832.82
468.789	3801.86
469.161	3903.78
469.534	3999.6
469.906	4051.35
470.278	4090.67
470.65	4124.11
471.022	4191.23
471.394	4260.61
471.766	4267.16
472.138	4338.12
472.51	4409.53
472.882	4494.27
473.253	4510.09
473.625	4602.07
473.997	4706.02
474.369	4704.66
474.74	4771.56
475.112	4827.6
475.484	4962.51
475.855	5051.1
476.227	5064.43
476.598	5177.65
476.97	5265.55
477.341	5351.65
477.713	5431.2
478.084	5484.53
478.455	5615.37
478.827	5633.45
479.198	5781.25
479.569	5793.68
479.94	5934.46
480.311	6044.52
480.682	6151.41
481.053	6293.32
481.424	6373.77
481.795	6406.09
482.166	6528.35
482.537	6598.85
482.908	6741.45
483.279	6773.99
483.65	6952.29
484.021	7060.31
484.391	7154.09
484.762	7179.85
485.133	7229.8
485.503	7365.84
485.874	7569.9
486.244	7582.33
486.615	7793.4
486.985	7871.13
487.356	7979.15
487.726	8099.38
488.097	8283.55
488.467	8185.7
488.837	8397.67
489.207	8486.03
489.578	8654.39
489.948	8743.88
490.318	8867.04
490.688	8915.85
491.058	8984.55
491.428	9156.98
491.798	9224.55
492.168	9434.03
492.538	9495.27
492.908	9614.37
493.278	9725.78
493.648	9707.47
494.017	9852.78
494.387	9912.44
494.757	10039.44
495.126	10163.96
495.496	10208.93
495.866	10244.18
496.235	10323.95
496.605	10487.79
496.974	10518.07
497.344	10605.75
497.713	10700.66
498.082	10791.06
498.452	10928
498.821	10948.12
499.19	11002.35
499.559	11109.92
499.928	11222.23
500.298	11276.24
500.667	11386.97
501.036	11382
501.405	11553.3
501.774	11599.4
502.143	11703.35
502.512	11700.86
502.88	11901.76
503.249	11897.7
503.618	11936.34
503.987	12033.51
504.356	12133.85
504.724	12215.65
505.093	12202.09
505.462	12367.29
505.83	12396.44
506.199	12542.42
506.567	12774.28
506.936	12727.5
507.304	12871.23
507.672	12926.82
508.041	12963.88
508.409	13120.49
508.777	13235.74
509.145	13270.31
509.514	13289.52
509.882	13348.73
510.25	13424.66
510.618	13609.29
510.986	13603.64
511.354	13801.6
511.722	13845.89
512.09	13960.47
512.458	14052.67
512.826	14150.97
513.193	14252.21
513.561	14355.48
513.929	14348.03
514.297	14565.87
514.664	14722.93
515.032	14776.72
515.4	14877.96
515.767	14864.4
516.135	15082.92
516.502	14989.59
516.869	15310.04
517.237	15408.79
517.604	15356.81
517.972	15611.72
518.339	15637.71
518.706	15726.75
519.073	15781.66
519.44	15938.49
519.808	16125.83
520.175	16132.16
520.542	16309.78
520.909	16470.91
521.276	16506.39
521.643	16691.92
522.009	16853.27
522.376	16939.15
522.743	16983.89
523.11	17332.13
523.477	17435.63
523.843	17410.55
524.21	17682.85
524.577	17716.98
524.943	17846.24
525.31	17970.53
525.676	18171.43
526.043	18214.82
526.409	18429.95
526.776	18518.09
527.142	18703.17
527.508	18772.09
527.874	18894.8
528.241	18958.75
528.607	19103.83
528.973	19251.17
529.339	19252.76
529.705	19544.05
530.071	19677.6
530.437	19779.52
530.803	19834.44
531.169	20016.8
531.535	20079.18
531.901	20173.86
532.267	20250.7
532.632	20367.98
532.998	20452.27
533.364	20671.25
533.73	20626.51
534.095	20856.56
534.461	20840.74
534.826	21002.32
535.192	21083.44
535.557	21249.54
535.923	21262.87
536.288	21374.96
536.653	21456.09
537.019	21432.81
537.384	21560.27
537.749	21702.41
538.114	21760.49
538.479	21878.45
538.845	21934.49
539.21	21939.92
539.575	22016.07
539.94	22120.48
540.305	22334.48
540.67	22240.7
541.034	22311.21
541.399	22556.4
541.764	22550.3
542.129	22665.32
542.494	22697.19
542.858	22762.04
543.223	22885.2
543.587	23050.4
543.952	23060.79
544.316	23108.47
544.681	23160.9
545.045	23251.75
545.41	23328.13
545.774	23390.5
546.138	23439.31
546.503	23546.88
546.867	23607.22
547.231	23869.58
547.595	23800.66
547.959	23913.65
548.324	23971.73
548.688	24030.94
549.052	24161.55
549.416	24200.87
549.779	24138.5
550.143	24327.65
550.507	24555.89
550.871	24618.27
551.235	24607.87
551.599	24738.04
551.962	24897.35
552.326	25037.46
552.689	25065.26
553.053	24997.92
553.417	25019.84
553.78	25422.99
554.143	25339.38
554.507	25382.31
554.87	25530.33
555.234	25799.48
555.597	25637
555.96	25974.84
556.323	25854.62
556.686	26016.65
557.05	26118.34
557.413	26239.69
557.776	26324.66
558.139	26541.38
558.502	26610.53
558.865	26607.37
559.228	26867.92
559.59	26945.66
559.953	27053.46
560.316	27539.77
560.679	27379.55
561.041	27424.97
561.404	27667.9
561.767	27760.78
562.129	27751.74
562.492	27982.47
562.854	27979.98
563.217	28050.27
563.579	28175.23
563.941	28376.81
564.304	28480.99
564.666	28712.85
565.028	28699.06
565.39	28756.69
565.753	29058.37
566.115	29064.48
566.477	29204.81
566.839	29377.01
567.201	29309.67
567.563	29503.11
567.925	29737.45
568.287	29786.49
568.648	29803.89
569.01	29962.08
569.372	30156.2
569.734	30035.52
570.095	30380.15
570.457	30476.87
570.819	30484.55
571.18	30542.63
571.542	30664.66
571.903	30770.65
572.265	30921.15
572.626	30862.17
572.987	31076.17
573.349	31099.68
573.71	31252.67
574.071	31293.34
574.432	31484.07
574.794	31612.66
575.155	31562.26
575.516	31604.52
575.877	31699.66
576.238	31888.36
576.599	31974.46
576.96	31831.86
577.32	31950.73
577.681	32026.88
578.042	32141.46
578.403	32167.45
578.763	32281.34
579.124	32304.39
579.485	32419.19
579.845	32498.06
580.206	32404.28
580.566	32492.18
580.927	32513.88
581.287	32743.48
581.648	32487.21
582.008	32536.25
582.368	32679.52
582.728	32623.03
583.089	32614.67
583.449	32715.68
583.809	32751.84
584.169	32743.25
584.529	32683.14
584.889	33015.33
585.249	32849.24
585.609	32630.03
585.969	32827.99
586.329	32778.5
586.688	32869.57
587.048	32793.87
587.408	32719.52
587.768	32832.74
588.127	32842.91
588.487	32918.61
588.846	33019.63
589.206	32794.32
589.565	32882.68
589.925	32975.56
590.284	32922.23
590.643	32962.9
591.003	33118.83
591.362	32974.88
591.721	32833.42
592.08	32976.92
592.44	33034.99
592.799	33068.89
593.158	33041.55
593.517	33041.55
593.876	33095.33
594.235	33075.9
594.593	33088.32
594.952	33230.92
595.311	33128.78
595.67	33276.12
596.029	33343.91
596.387	33239.51
596.746	33357.92
597.104	33206.97
597.463	33173.52
597.822	33408.99
598.18	33110.02
598.538	33213.75
598.897	33388.43
599.255	33200.64
599.613	33659.38
599.972	33400.63
600.33	33523.57
600.688	33507.75
601.046	33458.03
601.404	33594.3
601.762	33546.84
602.12	33733.73
602.478	33688.31
602.836	33655.09
603.194	33595.43
603.552	33697.8
603.91	33558.82
604.268	33816.44
604.625	33686.28
604.983	33809.66
605.341	33659.61
605.698	33778.93
606.056	33925.14
606.413	33868.42
606.771	33992.03
607.128	34034.06
607.485	33922.65
607.843	33887.85
608.2	34175.98
608.557	34254.62
608.914	34092.14
609.272	34283.1
609.629	34253.72
609.986	34485.35
610.343	34215.07
610.7	34545.24
611.057	34309.54
611.414	34343.89
611.771	34450.1
612.127	34476.31
612.484	34595.4
612.841	34689.19
613.198	34494.39
613.554	34550.43
613.911	34716.53
614.267	34731.67
614.624	34745.46
614.98	34668.85
615.337	34948.61
615.693	34707.04
616.05	34739.35
616.406	34975.05
616.762	34937.32
617.118	34905.23
617.475	34938.22
617.831	35022.29
618.187	35093.47
618.543	35021.83
618.899	35227.93
619.255	35147.93
619.611	35105.22
619.967	35295.72
620.323	35249.4
620.678	35139.8
621.034	35175.05
621.39	35082.62
621.746	35151.32
622.101	35584.98
622.457	35116.97
622.812	35276.97
623.168	35391.54
623.523	35231.09
623.879	35307.48
624.234	35145.9
624.589	35311.77
624.945	35322.84
625.3	35356.97
625.655	35294.37
626.01	35282.39
626.365	35374.82
626.72	35320.58
627.075	35276.06
627.43	35267.48
627.785	35047.6
628.14	35182.06
628.495	35211.88
628.85	35189.51
629.205	35095.05
629.559	35313.58
629.914	35064.32
630.269	35135.73
630.623	34981.16
630.978	34889.41
631.332	34975.05
631.687	35165.78
632.041	34966.02
632.396	34997.65
632.75	34857.32
633.104	34946.36
633.459	34776.19
633.813	34791.56
634.167	34705.68
634.521	34653.93
634.875	34630.88
635.229	34641.96
635.583	34480.38
635.937	34495.75
636.291	34439.7
636.645	34375.52
636.999	34301.63
637.352	34440.61
637.706	34319.93
638.06	34467.72
638.413	34272.7
638.767	34179.37
639.121	34321.96
639.474	34042.65
639.828	34074.74
640.181	34112.03
640.534	33965.36
640.888	33896.67
641.241	33714.75
641.594	33849.66
641.947	33852.37
642.301	33769.66
642.654	33756.1
643.007	33756.78
643.36	33838.59
643.713	33655.99
644.066	33743.45
644.419	33519.05
644.771	33385.04
645.124	33001.55
645.477	33078.38
645.83	32845.85
646.182	32646.08
646.535	32651.27
646.888	32637.94
647.24	32554.1
647.593	32584.16
647.945	32424.16
648.298	32200.66
648.65	32339.87
649.002	32087.67
649.355	32255.35
649.707	32233.21
650.059	32455.8
650.411	32756.58
650.763	32797.49
651.115	33083.13
651.467	33048.33
651.819	32883.81
652.171	32824.38
652.523	32768.56
652.875	32798.39
653.227	32654.89
653.578	32867.31
653.93	32716.58
654.282	32543.25
654.633	32581.22
654.985	32554.33
655.337	32561.11
655.688	32391.39
656.039	32639.52
656.391	32334.67
656.742	32344.62
657.094	32400.43
657.445	32533.31
657.796	32388.91
658.147	32256.71
658.498	32293.54
658.849	32342.13
659.2	32217.16
659.551	32221.91
659.902	32411.05
660.253	32192.08
660.604	32357.5
660.955	32183.49
661.306	32140.33
661.656	32166.32
662.007	32198.86
662.358	31998.18
662.708	32103.04
663.059	32158.41
663.409	31874.35
663.76	31983.5
664.11	32035.7
664.461	32093.32
664.811	32186.2
665.161	32064.4
665.511	31950.73
665.862	31993.66
666.212	31977.62
666.562	32021.01
666.912	32046.77
667.262	32010.61
667.612	31892.65
667.962	31874.57
668.312	31848.13
668.662	32011.07
669.011	31920.67
669.361	31857.17
669.711	31752.77
670.06	31717.29
670.41	31803.84
670.76	31555.48
671.109	31665.09
671.459	31707.34
671.808	31596.16
672.157	31665.76
672.507	31498.08
672.856	31626.89
673.205	31536.95
673.554	31586.44
673.904	31496.5
674.253	31611.08
674.602	31463.73
674.951	31083.41
675.3	30797.76
675.649	31343.74
675.998	31225.55
676.346	31388.03
676.695	31456.28
677.044	31199.56
677.393	31283.85
677.741	31355.04
678.09	31244.76
678.438	31080.47
678.787	31231.42
679.135	31210.18
679.484	31025.1
679.832	30967.48
680.181	30850.19
680.529	31007.48
680.877	30788.72
681.225	30822.85
681.573	30962.51
681.922	30768.84
682.27	30689.97
682.618	30804.54
682.966	30625.79
683.314	30677.77
683.661	30510.09
684.009	30492.23
684.357	30267.16
684.705	30401.16
685.053	30335.63
685.4	30247.72
685.748	30169.98
686.095	30024.45
686.443	29975.41
686.79	29935.19
687.138	30051.34
687.485	29809.32
687.832	29846.15
688.18	29906.49
688.527	29682.99
688.874	29767.96
689.221	29573.16
689.568	29511.92
689.915	29520.06
690.262	29378.82
690.609	29311.48
690.956	29238.03
691.303	29186.28
691.65	29024.93
691.997	29146.96
692.344	28968.21
692.69	28909.68
693.037	28953.74
693.383	28664.71
693.73	28817.48
694.077	28537.26
694.423	28650.7
694.769	28476.69
695.116	28481.67
695.462	28383.36
695.808	28275.57
696.155	28242.58
696.501	28067.44
696.847	28103.37
697.193	27936.14
697.539	28077.16
697.885	27748.35
698.231	27691.63
698.577	27684.63
698.923	27582.03
699.269	27540.45
699.614	27345.88
699.96	27341.81
700.306	27423.84
700.651	27163.28
700.997	27107.69
701.342	27059.56
701.688	27175.49
702.033	26947.02
702.379	26942.05
702.724	26830.86
703.069	26882.16
703.415	26648.72
703.76	26578.67
704.105	26608.5
704.45	26527.59
704.795	26457.09
705.14	26323.98
705.485	26389.97
705.83	26210.31
706.175	26194.27
706.52	26091.9
706.865	25986.82
707.209	25947.04
707.554	25852.13
707.899	25885.35
708.243	25716.32
708.588	25727.61
708.932	25616.43
709.277	25474.97
709.621	25508.19
709.966	25267.51
710.31	25434.06
710.654	25199.49
710.998	25239.04
711.342	25197.01
711.687	25132.6
712.031	25032.94
712.375	25015.77
712.719	25120.4
713.063	24926.96
713.407	25092.15
713.75	24938.93
714.094	24853.74
714.438	24820.29
714.782	24818.26
715.125	24738.04
715.469	24565.39
715.812	24528.78
716.156	24433.41
716.499	24406.07
716.843	24406.97
717.186	24250.82
717.53	24286.3
717.873	24353.41
718.216	24246.07
718.559	24142.57
718.902	24028
719.246	24156.13
719.589	24039.07
719.932	23820.32
720.275	23849.7
720.617	23921.33
720.96	23876.82
721.303	23816.48
721.646	23786.42
721.989	23706.65
722.331	23690.15
722.674	23550.5
723.016	23634.11
723.359	23544.85
723.701	23646.31
724.044	23376.72
724.386	23338.3
724.729	23426.66
725.071	23381.01
725.413	23339.2
725.755	23266.44
726.097	23183.5
726.439	23158.64
726.782	23136.04
727.124	23174.91
727.465	23003.39
727.807	22991.42
728.149	22933.34
728.491	22865.32
728.833	22960.46
729.175	22838.88
729.516	22776.51
729.858	22771.08
730.199	22875.71
730.541	22749.84
730.882	22739.44
731.224	22750.07
731.565	22499.9
731.906	22508.26
732.248	22485.67
732.589	22540.58
732.93	22387.59
733.271	22445.67
733.612	22395.72
733.953	22459.23
734.294	22227.82
734.635	22264.2
734.976	22303.75
735.317	22157.54
735.658	22251.32
735.999	22251.32
736.339	22181.72
736.68	22091.55
737.021	22141.04
737.361	22044.55
737.702	22049.75
738.042	21955.96
738.383	21958.67
738.723	21840.26
739.063	21837.55
739.404	21777.66
739.744	21762.52
740.084	21721.39
740.424	21788.28
740.764	21584.22
741.104	21872.57
741.444	21564.33
741.784	21448.86
742.124	21554.16
742.464	21459.7
742.804	21389.42
743.143	21455.41
743.483	21379.71
743.823	21209.54
744.162	21167.51
744.502	21303.78
744.841	21257.45
745.181	21283.66
745.52	21155.31
745.86	21272.59
746.199	21101.07
746.538	20972.03
746.877	21147.17
747.216	21016.78
747.556	20945.82
747.895	20972.26
748.234	20918.48
748.573	20937.01
748.911	20829.89
749.25	20837.12
749.589	20764.36
749.928	20808.2
750.267	20673.06
750.605	20636.45
750.944	20565.26
751.283	20566.62
751.621	20614.08
751.96	20471.26
752.298	20450.01
752.636	20407.08
752.975	20337.7
753.313	20297.47
753.651	20374.99
753.989	20237.82
754.327	20207.53
754.666	20101.77
755.004	20248.44
755.342	20087.99
755.679	20126.18
756.017	19932.29
756.355	20021.1
756.693	19880.99
757.031	19824.49
757.368	19820.88
757.706	19774.32
758.044	19659.07
758.381	19726.19
758.719	19628.11
759.056	19656.14
759.394	19564.16
759.731	19371.62
760.068	19406.88
760.405	19341.12
760.743	19162.59
761.08	19208.46
761.417	19082.82
761.754	19082.37
762.091	19066.32
762.428	18947.45
762.765	18889.15
763.102	18886.66
763.438	18789.27
763.775	18751.07
764.112	18787.46
764.449	18716.5
764.785	18568.03
765.122	18526
765.458	18370.52
765.795	18293.46
766.131	18287.13
766.467	18307.47
766.804	18200.35
767.14	18087.36
767.476	18093.69
767.812	18057.53
768.148	18079.23
768.485	18032.9
768.821	17834.26
769.157	17823.87
769.492	17780.93
769.828	17797.65
770.164	17535.51
770.5	17620.48
770.836	17498.68
771.171	17474.95
771.507	17318.12
771.842	17314.73
772.178	17294.39
772.513	17228.18
772.849	17210.55
773.184	17101.63
773.519	17189.31
773.855	16975.98
774.19	16887.17
774.525	16905.25
774.86	16881.29
775.195	16831.13
775.53	16694.63
775.865	16481.98
776.2	16485.37
776.535	16423.9
776.87	16374.87
777.205	16338.03
777.539	16244.93
777.874	16205.15
778.209	16020.07
778.543	16062.33
778.878	15937.59
779.212	15989.11
779.547	15949.57
779.881	15901.43
780.215	15828.89
780.55	15927.42
780.884	15773.98
781.218	15669.12
781.552	15739.85
781.886	15510.26
782.22	15508
782.554	15456.7
782.888	15356.81
783.222	15284.73
783.556	15261
783.889	15163.82
784.223	15063.94
784.557	15126.31
784.89	15101.91
785.224	15033.43
785.557	14959.76
785.891	14837.96
786.224	14781.01
786.558	14824.62
786.891	14683.61
787.224	14668.92
787.557	14634.35
787.891	14574.01
788.224	14579.43
788.557	14508.25
788.89	14548.25
789.223	14452.2
789.556	14228.03
789.888	14243.85
790.221	14233
790.554	14089.95
790.887	14084.53
791.219	14010.86
791.552	13968.15
791.884	13912.78
792.217	13886.57
792.549	13855.61
792.882	13764.77
793.214	13679.12
793.546	13701.94
793.879	13742.39
794.211	13637.76
794.543	13623.53
794.875	13566.58
795.207	13523.87
795.539	13518.22
795.871	13517.31
796.203	13377.2
796.535	13307.38
796.867	13352.8
797.198	13238.68
797.53	13241.62
797.862	13105.35
798.193	13118.45
798.525	13042.07
798.856	13080.04
799.188	12934.28
799.519	12902.19
799.85	12886.82
800.182	12840.95
800.513	12842.53
800.844	12674.4
801.175	12685.02
801.506	12718.92
801.837	12666.94
802.168	12646.83
802.499	12541.52
802.83	12549.66
803.161	12536.1
803.491	12458.58
803.822	12475.31
804.153	12419.49
804.483	12379.94
804.814	12323.45
805.145	12305.37
805.475	12192.6
805.805	12215.43
806.136	12216.11
806.466	12140.4
806.796	12125.94
807.126	12034.64
807.457	12005.26
807.787	11942.21
808.117	11943.57
808.447	11938.6
808.777	11972.72
809.107	11858.37
809.436	11829
809.766	11817.25
810.096	11786.51
810.426	11720.3
810.755	11705.61
811.085	11753.97
811.414	11708.1
811.744	11685.5
812.073	11645.27
812.403	11528.89
812.732	11517.59
813.061	11501.55
813.39	11494.54
813.719	11404.15
814.049	11477.59
814.378	11381.1
814.707	11415.22
815.036	11320.08
815.365	11274.44
815.693	11217.49
816.022	11223.36
816.351	11140.65
816.68	11114.44
817.008	11130.03
817.337	11080.32
817.665	11016.81
817.994	11054.55
818.322	11050.94
818.651	10984.05
818.979	10942.69
819.307	11003.26
819.636	10968
819.964	10871.73
820.292	10898.63
820.62	10862.92
820.948	10839.42
821.276	10856.59
821.604	10813.2
821.932	10903.82
822.259	10938.17
822.587	10834.9
822.915	10778.63
823.243	10805.52
823.57	10801
823.898	10843.03
824.225	10683.26
824.553	10791.28
824.88	10707.9
825.207	10809.59
825.535	10738.18
825.862	10837.38
826.189	10813.88
826.516	10827.44
826.843	10820.21
827.17	10808.23
827.497	10845.52
827.824	10836.93
828.151	10754.67
828.478	10880.55
828.805	10853.43
829.131	10737.5
829.458	10761
829.785	10661.34
830.111	10694.79
830.438	10753.32
830.764	10764.84
831.09	10804.39
831.417	10615.02
831.743	10792.19
832.069	10709.25
832.395	10718.97
832.722	10716.26
833.048	10641.23
833.374	10625.86
833.7	10584.28
834.026	10650.95
834.351	10673.32
834.677	10619.76
835.003	10650.5
835.329	10652.08
835.654	10578.41
835.98	10574.79
836.306	10535.7
836.631	10544.51
836.956	10599.88
837.282	10567.11
837.607	10506.32
837.932	10536.15
838.258	10366.44
838.583	10484.63
838.908	10442.37
839.233	10481.69
839.558	10364.85
839.883	10373.44
840.208	10356.95
840.533	10391.52
840.858	10348.58
841.182	10333.44
841.507	10352.2
841.832	10304.52
842.156	10169.15
842.481	10223.84
842.805	10176.61
843.13	10150.4
843.454	10174.35
843.778	10138.87
844.103	10131.41
844.427	10078.99
844.751	10046.9
845.075	10061.13
845.399	10022.26
845.723	9914.7
846.047	9994.02
846.371	9938.2
846.695	9962.15
847.019	9788.82
847.343	9813
847.666	9721.26
847.99	9701.82
848.313	9686.45
848.637	9591.09
848.96	9574.59
849.284	9609.85
849.607	9485.78
849.931	9528.27
850.254	9417.76
850.577	9403.3
850.9	9313.81
851.223	9344.32
851.546	9257.99
851.869	9195.39
852.192	9230.65
852.515	9151.55
852.838	9040.37
853.161	9170.08
853.483	9068.62
853.806	9013.93
854.129	9030.65
854.451	8974.61
854.774	8921.73
855.096	8962.63
855.419	8900.94
855.741	8912.24
856.063	8808.06
856.385	8794.5
856.708	8772.58
857.03	8737.55
857.352	8745.46
857.674	8751.56
857.996	8667.5
858.318	8611.91
858.64	8655.3
858.961	8647.39
859.283	8524.23
859.605	8516.54
859.926	8542.98
860.248	8533.04
860.57	8485.36
860.891	8525.13
861.212	8484.9
861.534	8456.2
861.855	8444.45
862.176	8384.12
862.498	8454.85
862.819	8454.85
863.14	8310.22
863.461	8379.6
863.782	8305.7
864.103	8345.92
864.424	8280.62
864.745	8271.12
865.065	8270.45
865.386	8276.55
865.707	8251.46
866.027	8221.86
866.348	8276.32
866.668	8248.75
866.989	8213.5
867.309	8147.74
867.63	8173.73
867.95	8109.77
868.27	8117
868.59	8090.79
868.91	8028.87
869.23	8099.6
869.55	8034.97
869.87	8072.49
870.19	8081.3
870.51	8007.63
870.83	8074.29
871.15	8043.11
871.469	8048.08
871.789	8039.27
872.109	7970.34
872.428	7938.25
872.748	7988.19
873.067	7887.86
873.386	7926.27
873.706	7898.48
874.025	7920.4
874.344	7837.24
874.663	7853.73
874.982	7828.65
875.301	7844.69
875.62	7810.57
875.939	7849.67
876.258	7742.32
876.577	7742.32
876.896	7810.57
877.214	7689.9
877.533	7740.06
877.852	7686.05
878.17	7647.86
878.489	7644.25
878.807	7670.01
879.125	7625.04
879.444	7597.92
879.762	7600.18
880.08	7604.02
880.398	7588.66
880.716	7558.83
881.034	7497.59
881.352	7562.22
881.67	7526.51
881.988	7550.01
882.306	7511.82
882.624	7507.3
882.941	7507.75
883.259	7417.36
883.577	7464.59
883.894	7430.47
884.212	7431.15
884.529	7342.11
884.846	7355.44
885.164	7386.85
885.481	7359.28
885.798	7287.2
886.115	7303.47
886.432	7290.81
886.75	7290.36
887.067	7306.63
887.383	7266.4
887.7	7206.29
888.017	7204.94
888.334	7205.84
888.651	7138.95
888.967	7177.14
889.284	7073.42
889.6	7025.06
889.917	7049.01
890.233	7005.85
890.55	7015.56
890.866	6989.12
891.182	6998.84
891.498	6987.32
891.815	6943.93
892.131	6902.8
892.447	6958.39
892.763	6887.43
893.079	6876.36
893.395	6826.19
893.71	6816.47
894.026	6801.56
894.342	6778.06
894.657	6773.99
894.973	6744.16
895.289	6722.92
895.604	6681.79
895.92	6623.71
896.235	6632.07
896.55	6596.37
896.865	6669.81
897.181	6602.47
897.496	6648.34
897.811	6569.02
898.126	6495.35
898.441	6484.05
898.756	6543.49
899.071	6463.71
899.386	6449.93
899.7	6414.22
900.015	6424.39
900.33	6368.8
900.644	6337.39
900.959	6331.74
901.273	6352.08
901.588	6270.95
901.902	6251.97
902.216	6281.35
902.531	6176.04
902.845	6205.19
903.159	6163.84
903.473	6151.63
903.787	6139.88
904.101	6142.82
904.415	6130.39
904.729	6119.54
905.042	6085.65
905.356	6063.27
905.67	6023.95
905.984	6005.2
906.297	6006.78
906.611	5896.72
906.924	5927.46
907.237	5866.22
907.551	5908.93
907.864	5867.8
908.177	5859.66
908.491	5856.95
908.804	5843.17
909.117	5790.74
909.43	5696.05
909.743	5697.63
910.056	5744.86
910.368	5689.72
910.681	5695.37
910.994	5631.19
911.307	5611.99
911.619	5527.92
911.932	5582.83
912.244	5541.7
912.557	5529.5
912.869	5510.74
913.181	5453.35
913.494	5459.9
913.806	5455.61
914.118	5438.43
914.43	5366.12
914.742	5408.15
915.054	5326.57
915.366	5309.17
915.678	5261.03
915.99	5254.71
916.302	5241.37
916.613	5203.41
916.925	5170.64
917.236	5231.88
917.548	5155.5
917.859	5166.57
918.171	5134.26
918.482	5066.69
918.794	5098.55
919.105	5071.21
919.416	5030.98
919.727	5035.96
920.038	5013.81
920.349	4959.8
920.66	5023.07
920.971	4968.84
921.282	4923.87
921.593	4927.71
921.903	4870.54
922.214	4855.85
922.525	4831.67
922.835	4795.74
923.146	4780.37
923.456	4782.85
923.767	4740.6
924.077	4807.94
924.387	4749.64
924.697	4762.74
925.008	4730.65
925.318	4713.7
925.628	4679.81
925.938	4669.41
926.248	4587.83
926.558	4600.26
926.867	4576.08
927.177	4582.63
927.487	4539.25
927.796	4487.72
928.106	4478.68
928.416	4502.86
928.725	4512.13
929.034	4502.18
929.344	4498.12
929.653	4442.52
929.962	4398.46
930.271	4360.49
930.581	4384.9
930.89	4311.68
931.199	4340.83
931.508	4304.9
931.817	4305.35
932.125	4312.81
932.434	4266.71
932.743	4266.26
933.051	4221.06
933.36	4179.25
933.669	4168.18
933.977	4193.49
934.286	4158.01
934.594	4171.8
934.902	4086.6
935.21	4085.92
935.519	4083.89
935.827	4067.62
936.135	4052.03
936.443	4042.31
936.751	4018.58
937.059	4012.71
937.367	3990.11
937.674	4012.03
937.982	3983.78
938.29	3971.35
938.597	3958.24
938.905	3912.59
939.213	3917.34
939.52	3868.53
939.827	3835.76
940.135	3877.12
940.442	3796.89
940.749	3831.24
941.056	3823.11
941.363	3771.58
941.67	3791.24
941.977	3724.8
942.284	3708.98
942.591	3702.88
942.898	3678.02
943.205	3692.49
943.511	3720.28
943.818	3652.71
944.125	3656.56
944.431	3630.79
944.738	3585.37
945.044	3604.58
945.35	3589.44
945.657	3563.9
945.963	3560.74
946.269	3551.7
946.575	3582.21
946.881	3471.93
947.187	3537.69
947.493	3482.78
947.799	3437.35
948.105	3494.53
948.41	3413.4
948.716	3434.64
949.022	3411.14
949.327	3358.71
949.633	3342.44
949.938	3367.3
950.244	3370.46
950.549	3333.63
950.854	3308.99
951.16	3340.86
951.465	3296.57
951.77	3273.52
952.075	3259.28
952.38	3257.02
952.685	3236
952.99	3214.99
953.294	3197.36
953.599	3161.2
953.904	3203.01
954.209	3202.11
954.513	3176.57
954.818	3117.81
955.122	3125.04
955.426	3109
955.731	3097.93
956.035	3113.97
956.339	3065.61
956.643	3063.35
956.948	3059.28
957.252	3054.09
957.556	3035.78
957.86	3009.79
958.163	2995.1
958.467	3011.6
958.771	2949.68
959.075	2962.79
959.378	2950.36
959.682	2942.22
959.985	2927.31
960.289	2906.29
960.592	2876.92
960.896	2854.32
961.199	2892.96
961.502	2874.66
961.805	2841.66
962.108	2869.23
962.411	2842.79
962.714	2820.42
963.017	2813.41
963.32	2831.27
963.623	2759.63
963.926	2763.92
964.228	2725.73
964.531	2739.07
964.833	2735
965.136	2721.44
965.438	2703.14
965.741	2683.93
966.043	2659.07
966.345	2690.25
966.648	2688.9
966.95	2655.45
967.252	2630.14
967.554	2663.59
967.856	2628.33
968.158	2620.43
968.46	2585.17
968.761	2617.49
969.063	2576.36
969.365	2565.74
969.666	2559.18
969.968	2510.82
970.269	2519.86
970.571	2564.16
970.872	2537.94
971.174	2511.73
971.475	2502.46
971.776	2484.16
972.077	2476.47
972.378	2483.93
972.679	2419.3
972.98	2435.35
973.281	2468.11
973.582	2443.25
973.883	2436.48
974.183	2408.45
974.484	2404.84
974.785	2343.14
975.085	2392.41
975.386	2357.38
975.686	2389.25
975.986	2346.53
976.287	2345.63
976.587	2337.5
976.887	2309.7
977.187	2332.52
977.487	2294.56
977.787	2294.56
978.087	2303.37
978.387	2245.29
978.687	2281.45
978.987	2273.32
979.286	2235.12
979.586	2227.67
979.885	2200.55
980.185	2200.55
980.484	2212.98
980.784	2157.61
981.083	2197.84
981.382	2189.93
981.682	2174.11
981.981	2154.45
982.28	2135.47
982.579	2135.24
982.878	2144.96
983.177	2160.55
983.475	2132.53
983.774	2067.67
984.073	2079.42
984.372	2097.28
984.67	2101.8
984.969	2066.77
985.267	2085.75
985.566	2044.85
985.864	2028.58
986.162	2037.84
986.461	2005.3
986.759	2048.92
987.057	2043.49
987.355	2015.24
987.653	2005.75
987.951	1990.39
988.249	1954.45
988.547	1984.06
988.844	1961.69
989.142	1973.66
989.44	1943.83
989.737	1917.39
990.035	1951.06
990.332	1924.85
990.63	1921.91
990.927	1908.58
991.224	1909.71
991.521	1891.86
991.819	1833.78
992.116	1861.58
992.413	1834.23
992.71	1860.22
993.006	1844.63
993.303	1833.55
993.6	1812.54
993.897	1798.3
994.193	1782.71
994.49	1794.91
994.787	1771.41
995.083	1761.24
995.379	1770.5
995.676	1776.38
995.972	1735.48
996.268	1774.35
996.565	1763.95
996.861	1747.23
997.157	1716.95
997.453	1709.26
997.749	1711.3
998.044	1675.59
998.34	1739.32
998.636	1689.6
998.932	1682.82
999.227	1659.77
999.523	1674.24
999.818	1648.02
1000.114	1671.52
1000.409	1641.69
1000.704	1618.64
1001	1626.55
1001.295	1610.96
1001.59	1615.93
1001.885	1589.94
1002.18	1597.18
1002.475	1572.32
1002.77	1556.72
1003.065	1537.29
1003.359	1589.04
1003.654	1563.28
1003.949	1561.47
1004.243	1520.12
1004.538	1543.17
1004.832	1515.6
1005.127	1495.48
1005.421	1495.48
1005.715	1496.84
1006.009	1481.92
1006.304	1500.91
1006.598	1478.76
1006.892	1456.16
1007.186	1466.11
1007.48	1466.33
1007.773	1431.76
1008.067	1429.04
1008.361	1398.31
1008.655	1428.37
1008.948	1414.36
1009.242	1413.9
1009.535	1398.99
1009.829	1391.08
1010.122	1378.65
1010.415	1364.19
1010.708	1355.6
1011.001	1368.71
1011.295	1351.98
1011.588	1363.74
1011.881	1346.11
1012.173	1353.34
1012.466	1332.78
1012.759	1305.66
1013.052	1314.25
1013.344	1299.33
1013.637	1301.59
1013.93	1261.14
1014.222	1295.71
1014.514	1265.43
1014.807	1254.81
1015.099	1244.87
1015.391	1251.65
1015.683	1230.86
1015.976	1243.74
1016.268	1249.84
1016.56	1248.71
1016.851	1215.26
1017.143	1238.54
1017.435	1222.95
1017.727	1194.02
1018.018	1184.53
1018.31	1198.99
1018.602	1166.45
1018.893	1171.2
1019.185	1176.17
1019.476	1158.99
1019.767	1176.85
1020.058	1144.31
1020.35	1117.41
1020.641	1127.58
1020.932	1125.78
1021.223	1105.44
1021.514	1109.73
1021.804	1098.88
1022.095	1084.19
1022.386	1098.43
1022.677	1076.06
1022.967	1074.93
1023.258	1061.14
1023.548	1052.11
1023.839	1049.85
1024.129	1062.95
1024.419	1018.89
1024.709	1037.19
1025	1040.81
1025.29	1040.58
1025.58	1019.34
1025.87	1015.72
1026.16	1012.11
1026.449	1009.39
1026.739	1007.36
1027.029	982.5
1027.319	989.73
1027.608	970.98
1027.898	970.07
1028.187	961.49
1028.477	979.34
1028.766	964.88
1029.055	953.8
1029.344	931.66
1029.634	966.01
1029.923	922.84
1030.212	935.72
1030.501	963.97
1030.79	914.48
1031.078	943.63
1031.367	891.66
1031.656	924.65
1031.945	881.04
1032.233	889.17
1032.522	885.33
1032.81	872.22
1033.099	872.9
1033.387	875.61
1033.675	848.49
1033.963	866.12
1034.251	859.79
1034.54	848.04
1034.828	848.95
1035.116	862.96
1035.403	845.1
1035.691	828.16
1035.979	819.57
1036.267	799.68
1036.554	813.02
1036.842	816.41
1037.129	800.13
1037.417	782.51
1037.704	813.02
1037.992	814.15
1038.279	806.46
1038.566	777.99
1038.853	777.99
1039.14	777.99
