Data from White_paper_FLMS001491_100.txt Node
Date: Tue Feb 07 10:35:50 GMT 2017
User: dcchb
Spectrometer: FLMS00149
Trigger mode: 0
Integration Time (sec): 2.000000E-2
Scans to average: 10
Electric dark correction enabled: true
Nonlinearity correction enabled: false
Boxcar width: 0
XAxis mode: Wavelengths
Number of Pixels in Spectrum: 2048
>>>>>Begin Spectral Data<<<<<
341.393	-0.13
341.776	-0.13
342.16	-0.13
342.543	-64.53
342.927	-61.59
343.31	-80.58
343.693	-65.21
344.077	-64.76
344.46	-44.65
344.843	-54.59
345.226	-39
345.61	-29.73
345.993	2.81
346.376	-7.13
346.759	41.68
347.142	13.66
347.525	38.06
347.908	59.53
348.291	78.97
348.674	69.7
349.057	81.23
349.44	127.1
349.823	160.32
350.206	188.12
350.588	218.17
350.971	250.71
351.354	258.62
351.737	276.02
352.119	272.86
352.502	281.22
352.884	280.09
353.267	305.4
353.65	305.63
354.032	336.81
354.414	328.23
354.797	332.07
355.179	322.35
355.562	335.91
355.944	354.89
356.326	360.54
356.709	377.72
357.091	367.09
357.473	358.06
357.855	371.84
358.238	367.32
358.62	390.82
359.002	370.03
359.384	360.77
359.766	381.56
360.148	384.27
360.53	382.01
360.912	355.34
361.294	376.59
361.676	357.15
362.057	357.15
362.439	366.42
362.821	366.87
363.203	366.42
363.584	354.89
363.966	332.75
364.348	355.57
364.729	374.55
365.111	362.35
365.493	349.47
365.874	343.37
366.256	360.32
366.637	372.29
367.019	363.25
367.4	358.96
367.781	354.21
368.163	366.87
368.544	348.34
368.925	358.96
369.306	359.41
369.688	359.86
370.069	355.8
370.45	369.35
370.831	377.72
371.212	340.2
371.593	367.77
371.974	384.95
372.355	361.45
372.736	369.81
373.117	360.54
373.498	378.17
373.879	370.48
374.26	366.64
374.641	356.47
375.021	368.22
375.402	381.11
375.783	391.95
376.163	403.7
376.544	403.25
376.925	379.07
377.305	403.93
377.686	378.62
378.066	396.7
378.447	380.65
378.827	388.79
379.208	389.47
379.588	413.87
379.968	412.97
380.349	402.35
380.729	420.88
381.109	419.3
381.489	419.97
381.87	402.8
382.25	414.78
382.63	422.01
383.01	438.96
383.39	417.26
383.77	438.05
384.15	409.35
384.53	426.98
384.91	449.35
385.29	430.14
385.67	434.66
386.049	446.87
386.429	437.6
386.809	445.96
387.189	468.11
387.568	457.94
387.948	469.01
388.328	463.14
388.707	435.12
389.087	486.19
389.466	485.96
389.846	483.25
390.225	490.93
390.605	519.86
390.984	491.61
391.363	488.22
391.743	516.02
392.122	497.03
392.501	509.24
392.881	515.11
393.26	521.22
393.639	519.41
394.018	551.5
394.397	524.6
394.776	547.2
395.155	541.55
395.534	553.76
395.913	562.34
396.292	556.02
396.671	560.54
397.05	582.91
397.429	574.55
397.808	568.9
398.186	587.88
398.565	585.62
398.944	585.85
399.323	577.48
399.701	596.69
400.08	608.22
400.458	631.95
400.837	635.34
401.215	643.25
401.594	662
401.972	646.18
402.351	651.16
402.729	663.36
403.107	688.67
403.486	687.99
403.864	695.9
404.242	702.68
404.62	745.84
404.999	713.75
405.377	751.04
405.755	763.47
406.133	754.2
406.511	799.63
406.889	813.41
407.267	811.6
407.645	847.99
408.023	868.55
408.401	887.53
408.779	878.49
409.156	920.98
409.534	950.36
409.912	953.07
410.29	986.29
410.667	1008.66
411.045	1036
411.422	1044.59
411.8	1078.71
412.178	1108.32
412.555	1137.7
412.933	1124.14
413.31	1155.1
413.687	1173.85
414.065	1232.61
414.442	1217.92
414.819	1247.3
415.197	1283
415.574	1349.67
415.951	1355.09
416.328	1374.53
416.705	1410.68
417.082	1420.85
417.46	1428.31
417.837	1485.71
418.214	1519.15
418.591	1546.5
418.967	1547.63
419.344	1568.65
419.721	1608.64
420.098	1612.71
420.475	1670.11
420.852	1660.17
421.228	1688.42
421.605	1749.43
421.982	1733.84
422.358	1783.1
422.735	1804.35
423.111	1792.37
423.488	1833.05
423.864	1850.22
424.241	1889.99
424.617	1922.99
424.994	1953.04
425.37	1966.83
425.746	1977
426.123	2028.52
426.499	2064.45
426.875	2067.62
427.251	2091.34
427.627	2141.29
428.003	2184.22
428.379	2189.87
428.756	2219.02
429.132	2260.38
429.507	2327.5
429.883	2341.96
430.259	2366.14
430.635	2357.33
431.011	2454.05
431.387	2489.75
431.763	2531.33
432.138	2548.51
432.514	2601.61
432.89	2626.02
433.265	2692.68
433.641	2693.81
434.016	2767.26
434.392	2761.61
434.767	2817.2
435.143	2803.41
435.518	2879.57
435.894	2924.77
436.269	2992.56
436.644	2997.53
437.02	3012
437.395	3054.71
437.77	3101.26
438.145	3151.2
438.52	3203.18
438.895	3198.66
439.271	3213.57
439.646	3296.96
440.021	3270.52
440.395	3357.75
440.77	3303.74
441.145	3338.09
441.52	3388.94
441.895	3422.38
442.27	3449.27
442.645	3455.6
443.019	3509.61
443.394	3503.74
443.769	3513.68
444.143	3531.76
444.518	3668.03
444.892	3572.89
445.267	3633.9
445.641	3626.9
446.016	3680.68
446.39	3696.72
446.764	3717.29
447.139	3726.78
447.513	3772.2
447.887	3790.51
448.262	3819.66
448.636	3840.9
449.01	3935.81
449.384	3926.55
449.758	3920
450.132	3979.43
450.506	4001.35
450.88	3995.7
451.254	4039.31
451.628	4062.59
452.002	4122.25
452.376	4164.51
452.75	4234.79
453.123	4232.76
453.497	4314.11
453.871	4332.19
454.244	4374.45
454.618	4429.81
454.992	4458.29
455.365	4521.11
455.739	4629.58
456.112	4636.81
456.486	4714.33
456.859	4769.69
457.232	4806.98
457.606	4796.58
457.979	4951.38
458.352	4970.14
458.725	5033.86
459.099	5057.82
459.472	5155.44
459.845	5235.89
460.218	5244.25
460.591	5309.34
460.964	5352.73
461.337	5468.66
461.71	5527.64
462.083	5635.43
462.456	5625.49
462.829	5675.43
463.201	5772.15
463.574	5799.49
463.947	5938.47
464.32	5984.57
464.692	6034.52
465.065	6196.55
465.438	6210.33
465.81	6280.61
466.183	6305.02
466.555	6469.53
466.928	6502.07
467.3	6534.39
467.672	6672.01
468.045	6848.28
468.417	6825.46
468.789	6881.95
469.161	7010.31
469.534	7110.19
469.906	7284.43
470.278	7338.89
470.65	7401.49
471.022	7508.15
471.394	7687.81
471.766	7696.17
472.138	7836.28
472.51	8009.38
472.882	8079.89
473.253	8228.13
473.625	8330.05
473.997	8471.97
474.369	8546.31
474.74	8586.31
475.112	8761.45
475.484	8997.6
475.855	9103.59
476.227	9162.8
476.598	9410.92
476.97	9494.76
477.341	9718.49
477.713	9851.14
478.084	9888.43
478.455	10240.73
478.827	10301.07
479.198	10614.06
479.569	10548.07
479.94	10903.77
480.311	10959.81
480.682	11233.93
481.053	11506.69
481.424	11614.71
481.795	11795.72
482.166	11909.16
482.537	12091.53
482.908	12331.98
483.279	12419.43
483.65	12674.34
484.021	12938.29
484.391	13009.47
484.762	13116.82
485.133	13215.34
485.503	13498.73
485.874	13716.8
486.244	13898.49
486.615	14119.73
486.985	14326.73
487.356	14568.98
487.726	14704.35
488.097	15046.71
488.467	14985.47
488.837	15399.24
489.207	15485.34
489.578	15598.33
489.948	15808.04
490.318	16055.95
490.688	16137.08
491.058	16414.36
491.428	16581.81
491.798	16723.95
492.168	17052.98
492.538	17072.42
492.908	17290.49
493.278	17511.5
493.648	17466.53
494.017	17785.62
494.387	17896.35
494.757	18013.18
495.126	18269.22
495.496	18408.88
495.866	18462.21
496.235	18701.08
496.605	18793.5
496.974	18858.59
497.344	19174.06
497.713	19196.43
498.082	19406.37
498.452	19594.84
498.821	19725.68
499.19	19787.38
499.559	19961.83
499.928	20118.21
500.298	20094.94
500.667	20371.77
501.036	20431.88
501.405	20569.73
501.774	20638.65
502.143	20852.66
502.512	20941.24
502.88	21112.09
503.249	21164.29
503.618	21268.69
503.987	21357.96
504.356	21559.08
504.724	21731.96
505.093	21744.16
505.462	21822.58
505.83	22050.82
506.199	22282.45
506.567	22481.77
506.936	22470.02
507.304	22734.42
507.672	22870.91
508.041	22818.71
508.409	23131.47
508.777	23228.87
509.145	23401.07
509.514	23431.57
509.882	23625.92
510.25	23680.38
510.618	23901.84
510.986	23972.12
511.354	24277.65
511.722	24452.56
512.09	24691.43
512.458	24609.85
512.826	24935.94
513.193	24954.7
513.561	24980.68
513.929	25314.46
514.297	25589.93
514.664	25642.59
515.032	25736.6
515.4	26182.01
515.767	26120.99
516.135	26243.7
516.502	26303.81
516.869	26586.97
517.237	26698.83
517.604	26676.01
517.972	27006.62
518.339	27113.96
518.706	27342.43
519.073	27453.39
519.44	27534.06
519.808	27844.11
520.175	27925.01
520.542	28211.33
520.909	28432.57
521.276	28408.62
521.643	28673.02
522.009	28894.03
522.376	29155.26
522.743	29311.64
523.11	29541.47
523.477	29752.99
523.843	29906.43
524.21	30310.26
524.577	30479.52
524.943	30562.91
525.31	30703.47
525.676	30945.5
526.043	31126.29
526.409	31382.55
526.776	31688.08
527.142	31821.86
527.508	32066.83
527.874	32296.65
528.241	32402.18
528.607	32474.95
528.973	32760.82
529.339	32743.19
529.705	33256.4
530.071	33471.76
530.437	33522.38
530.803	33822.03
531.169	33885.08
531.535	33937.06
531.901	34122.14
532.267	34352.19
532.632	34502.92
532.998	34523.26
533.364	34782.46
533.73	34905.85
534.095	35261.77
534.461	35193.07
534.826	35460.86
535.192	35443.69
535.557	35912.37
535.923	35851.59
536.288	35977.91
536.653	36276.66
537.019	36125.7
537.384	36307.17
537.749	36488.63
538.114	36586.26
538.479	36659.02
538.845	36929.07
539.21	36827.38
539.575	37078.67
539.94	37112.8
540.305	37367.48
540.67	37468.94
541.034	37608.83
541.399	37662.84
541.764	37840.23
542.129	38012.21
542.494	38077.97
542.858	38200.68
543.223	38330.16
543.587	38495.58
543.952	38482.02
544.316	38651.29
544.681	38706.88
545.045	38861.22
545.41	39175.34
545.774	39227.54
546.138	39287.65
546.503	39456.46
546.867	39554.99
547.231	39695.1
547.595	39865.04
547.959	39891.25
548.324	39994.53
548.688	40223.9
549.052	40267.29
549.416	40460.73
549.779	40494.18
550.143	40534.85
550.507	40817.78
550.871	41107.94
551.235	41024.33
551.599	41423.19
551.962	41389.97
552.326	41529.63
552.689	41737.98
553.053	41544.32
553.417	41694.14
553.78	42254.36
554.143	42058.43
554.507	42328.48
554.87	42381.13
555.234	42806.88
555.597	42549.49
555.96	42866.32
556.323	42976.37
556.686	43079.19
557.05	43347.66
557.413	43435.57
557.776	43525.28
558.139	43830.81
558.502	43877.82
558.865	43880.53
559.228	44259.73
559.59	44373.4
559.953	44505.14
560.316	44899.26
560.679	44899.94
561.041	45087.05
561.404	45263.99
561.767	45447.72
562.129	45277.78
562.492	45775.39
562.854	45766.81
563.217	45866.46
563.579	45950.98
563.941	46238.21
564.304	46339.22
564.666	46625.31
565.028	46588.25
565.39	46797.51
565.753	47062.36
566.115	47266.65
566.477	47266.88
566.839	47441.56
567.201	47733.99
567.563	47790.25
567.925	48008.78
568.287	48001.1
568.648	48053.52
569.01	48319.96
569.372	48549.33
569.734	48445.83
570.095	48792.49
570.457	48897.57
570.819	49013.95
571.18	49053.5
571.542	49281.29
571.903	49193.83
572.265	49616.42
572.626	49649.41
572.987	49711.56
573.349	49774.61
573.71	49981.16
574.071	49944.1
574.432	50150.42
574.794	50350.87
575.155	50269.96
575.516	50241.04
575.877	50424.99
576.238	50561.93
576.599	50696.39
576.96	50733.45
577.32	50861.59
577.681	50955.6
578.042	50956.73
578.403	51043.95
578.763	51137.74
579.124	51094.57
579.485	51355.58
579.845	51439.65
580.206	51294.34
580.566	51409.59
580.927	51482.36
581.287	51620.89
581.648	51351.07
582.008	51568.69
582.368	51549.7
582.728	51676.93
583.089	51624.96
583.449	51630.15
583.809	51741.11
584.169	51852.29
584.529	51698.4
584.889	52052.29
585.249	51822.47
585.609	51855.68
585.969	51984.27
586.329	51913.99
586.688	51945.4
587.048	51938.17
587.408	51950.6
587.768	51951.73
588.127	52033.08
588.487	51982.69
588.846	52209.57
589.206	51963.25
589.565	52096.58
589.925	52248.67
590.284	52067.2
590.643	52200.31
591.003	52262.45
591.362	52363.02
591.721	52276.24
592.08	52386.52
592.44	52404.14
592.799	52385.39
593.158	52356.24
593.517	52358.04
593.876	52457.25
594.235	52353.75
594.593	52299.06
594.952	52563.69
595.311	52346.29
595.67	52447.08
596.029	52598.94
596.387	52690.24
596.746	52645.72
597.104	52568.43
597.463	52605.27
597.822	52766.4
598.18	52687.08
598.538	52644.36
598.897	52802.1
599.255	52544.93
599.613	52970.91
599.972	52746.06
600.33	52995.32
600.688	52740.63
601.046	52895.88
601.404	53015.2
601.762	52950.12
602.12	53099.49
602.478	53120.74
602.836	53163.22
603.194	52934.98
603.552	53065.6
603.91	52837.58
604.268	53092.94
604.625	52954.41
604.983	53204.35
605.341	53042.32
605.698	53233.95
606.056	53277.12
606.413	53185.37
606.771	53369.09
607.128	53339.49
607.485	53095.88
607.843	53295.42
608.2	53409.54
608.557	53531.12
608.914	53363.89
609.272	53594.62
609.629	53630.1
609.986	53631.01
610.343	53579.48
610.7	53675.3
611.057	53622.64
611.414	53627.62
611.771	53712.36
612.127	53747.16
612.484	53798.91
612.841	53913.03
613.198	53774.96
613.554	53828.51
613.911	53897.44
614.267	53924.33
614.624	53898.79
614.98	53957.55
615.337	54071.9
615.693	53962.97
616.05	54017.21
616.406	54163.65
616.762	53998.45
617.118	54092.91
617.475	54097.66
617.831	54236.41
618.187	54175.62
618.543	54150.54
618.899	54271.89
619.255	54292.68
619.611	54241.84
619.967	54391.21
620.323	54369.74
620.678	54245.45
621.034	54285
621.39	54314.83
621.746	54116.87
622.101	54553.47
622.457	54213.14
622.812	54362.51
623.168	54275.96
623.523	54338.56
623.879	54420.36
624.234	54234.15
624.589	54375.84
624.945	54492.45
625.3	54460.59
625.655	54406.58
626.01	54421.27
626.365	54503.07
626.72	54403.41
627.075	54437.99
627.43	54345.34
627.785	54271.67
628.14	54446.8
628.495	54406.8
628.85	54481.83
629.205	54288.61
629.559	54501.49
629.914	54315.51
630.269	54391.44
630.623	54348.73
630.978	54254.49
631.332	54396.63
631.687	54410.42
632.041	54373.13
632.396	54452.68
632.75	54259.69
633.104	54342.17
633.459	54153.7
633.813	54183.31
634.167	54240.93
634.521	54238.67
634.875	54224.21
635.229	54177.66
635.583	54129.07
635.937	54079.35
636.291	54090.88
636.645	54083.2
636.999	53968.85
637.352	54082.52
637.706	53915.52
638.06	54017.89
638.413	53934.05
638.767	53844.56
639.121	54009.3
639.474	53768.85
639.828	53825.8
640.181	53840.49
640.534	53836.65
640.888	53798.68
641.241	53648.18
641.594	53779.93
641.947	53868.51
642.301	53710.78
642.654	53728.63
643.007	53667.39
643.36	53646.37
643.713	53620.61
644.066	53647.05
644.419	53546.49
644.771	53346.72
645.124	53036.67
645.477	53072.6
645.83	52821.53
646.182	52777.69
646.535	52745.38
646.888	52739.96
647.24	52639.84
647.593	52796.22
647.945	52718.03
648.298	52546.51
648.65	52528.44
649.002	52498.38
649.355	52573.86
649.707	52556.23
650.059	52746.51
650.411	53056.1
650.763	53122.77
651.115	53497.68
651.467	53330.22
651.819	53280.05
652.171	53197.34
652.523	53222.2
652.875	53257.23
653.227	53127.97
653.578	53310.34
653.93	53209.55
654.282	53116.44
654.633	53012.72
654.985	53067.18
655.337	53056.1
655.688	53097.23
656.039	53114.41
656.391	52906.96
656.742	52968.2
657.094	52986.05
657.445	53062.43
657.796	53056.78
658.147	52983.56
658.498	52918.26
658.849	53023.34
659.2	52935.88
659.551	52939.27
659.902	52905.15
660.253	52904.02
660.604	52958.03
660.955	52804.81
661.306	52905.83
661.656	52887.97
662.007	52886.62
662.358	52831.48
662.708	52917.13
663.059	52827.41
663.409	52562.78
663.76	52852.27
664.11	52761.65
664.461	52860.86
664.811	52894.98
665.161	52716
665.511	52621.09
665.862	52683.23
666.212	52725.49
666.562	52781.99
666.912	52680.52
667.262	52675.55
667.612	52586.96
667.962	52581.09
668.312	52469.45
668.662	52791.03
669.011	52687.53
669.361	52579.51
669.711	52484.14
670.06	52458.15
670.41	52385.39
670.76	52400.08
671.109	52537.7
671.459	52496.12
671.808	52447.31
672.157	52442.34
672.507	52196.01
672.856	52303.81
673.205	52357.82
673.554	52427.42
673.904	52168.22
674.253	52371.6
674.602	52230.59
674.951	51680.32
675.3	51546.54
675.649	52038.5
675.998	52011.84
676.346	52061.78
676.695	52132.29
677.044	51849.81
677.393	51989.69
677.741	51965.06
678.09	51822.69
678.438	51756.48
678.787	51831.05
679.135	51807.55
679.484	51555.58
679.832	51737.95
680.181	51445.53
680.529	51645.52
680.877	51518.74
681.225	51495.24
681.573	51590.15
681.922	51358.97
682.27	51240.56
682.618	51221.12
682.966	51260.9
683.314	51288.24
683.661	51105.87
684.009	50943.84
684.357	50911.98
684.705	50744.75
685.053	50858.2
685.4	50870.63
685.748	50568.26
686.095	50613.91
686.443	50488.94
686.79	50413.91
687.138	50562.61
687.485	50412.78
687.832	50335.5
688.18	50305.22
688.527	50063.42
688.874	49990.65
689.221	50011.67
689.568	49909.52
689.915	49717.89
690.262	49848.05
690.609	49656.65
690.956	49548.4
691.303	49500.72
691.65	49305.7
691.997	49374.39
692.344	49119.26
692.69	49068.87
693.037	49041.3
693.383	48732.15
693.73	48912.49
694.077	48673.4
694.423	48701.42
694.769	48467.75
695.116	48332.61
695.462	48246.74
695.808	48247.19
696.155	48312.5
696.501	47919.74
696.847	48070.02
697.193	47730.6
697.539	47759.97
697.885	47628.23
698.231	47411.96
698.577	47512.52
698.923	47340.1
699.269	47233.43
699.614	47086.77
699.96	46948.02
700.306	46983.27
700.651	46836.83
700.997	46590.29
701.342	46484.3
701.688	46557.97
702.033	46476.62
702.379	46445.88
702.724	46296.28
703.069	46374.47
703.415	45994.37
703.76	45876.18
704.105	45915.5
704.45	45777.43
704.795	45562.06
705.14	45618.11
705.485	45512.8
705.83	45319.13
706.175	45323.88
706.52	45221.28
706.865	44948.97
707.209	45086.37
707.554	44895.42
707.899	44926.15
708.243	44668.75
708.588	44790.56
708.932	44336.56
709.277	44333.4
709.621	44522.54
709.966	44165.27
710.31	44264.7
710.654	43901.32
710.998	44040.52
711.342	44009.56
711.687	43917.36
712.031	43697.03
712.375	43529.35
712.719	43605.28
713.063	43563.93
713.407	43709.01
713.75	43471.05
714.094	43385.17
714.438	43201.22
714.782	43355.57
715.125	43023.15
715.469	43071.73
715.812	42784.96
716.156	42683.72
716.499	42633.78
716.843	42746.55
717.186	42504.29
717.53	42728.92
717.873	42674.23
718.216	42492.31
718.559	42401.7
718.902	41989.28
719.246	42169.16
719.589	41895.49
719.932	41871.31
720.275	41905.21
720.617	41736.18
720.96	41708.61
721.303	41795.61
721.646	41752.45
721.989	41559.46
722.331	41606.46
722.674	41426.35
723.016	41563.53
723.359	41483.98
723.701	41494.15
724.044	41217.55
724.386	40949.08
724.729	41146.14
725.071	41130.99
725.413	40983.88
725.755	40961.51
726.097	40750.21
726.439	40650.56
726.782	40804
727.124	40781.4
727.465	40562.2
727.807	40592.48
728.149	40587.73
728.491	40333.95
728.833	40412.82
729.175	40296.44
729.516	40150.46
729.858	40054.86
730.199	40158.82
730.541	40153.62
730.882	39998.6
731.224	40030.23
731.565	39844.25
731.906	40013.28
732.248	40041.08
732.589	39543.24
732.93	39552.96
733.271	39598.83
733.612	39623.69
733.953	39635.89
734.294	39531.49
734.635	39344.15
734.976	39589.79
735.317	39144.38
735.658	39275.22
735.999	39224.38
736.339	39213.76
736.68	39289.69
737.021	39133.08
737.361	38984.84
737.702	39049.24
738.042	38893.99
738.383	38725.63
738.723	38988.23
739.063	38680.44
739.404	38849.92
739.744	38671.62
740.084	38545.53
740.424	38614.9
740.764	38531.29
741.104	38547.79
741.444	38435.92
741.784	38285.19
742.124	38453.55
742.464	38290.62
742.804	38338.3
743.143	38188.25
743.483	38217.17
743.823	38040.91
744.162	37996.39
744.502	37995.48
744.841	37921.14
745.181	37958.42
745.52	37765.43
745.86	37987.12
746.199	37651.09
746.538	37778.31
746.877	37724.76
747.216	37789.16
747.556	37539.68
747.895	37446.35
748.234	37360.25
748.573	37368.61
748.911	37267.82
749.25	37261.27
749.589	37117.09
749.928	37165.45
750.267	37122.96
750.605	36932.01
750.944	36867.6
751.283	36658.57
751.621	36854.5
751.96	36629.42
752.298	36738.57
752.636	36592.13
752.975	36421.29
753.313	36330.44
753.651	36508.07
753.989	36286.38
754.327	36111.47
754.666	36026.5
755.004	35995.99
755.342	36117.57
755.679	35961.19
756.017	35897.23
756.355	35982.43
756.693	35667.41
757.031	35728.65
757.368	35614.3
757.706	35636.68
758.044	35440.75
758.381	35443.69
758.719	35238.27
759.056	35242.79
759.394	35153.98
759.731	34975
760.068	34869.01
760.405	34615.46
760.743	34548.34
761.08	34604.84
761.417	34454.56
761.754	34383.15
762.091	34278.29
762.428	34223.61
762.765	34053.67
763.102	34206.43
763.438	33921.69
763.775	33811.64
764.112	33869.04
764.449	33784.97
764.785	33655.94
765.122	33437.86
765.458	33294.59
765.795	33216.17
766.131	33185.44
766.467	33089.85
766.804	32917.65
767.14	32893.02
767.476	32782.97
767.812	32568.06
768.148	32637.88
768.485	32434.27
768.821	32395.18
769.157	32238.12
769.492	32099.37
769.828	32092.36
770.164	31801.75
770.5	31735.76
770.836	31755.2
771.171	31502.77
771.507	31423.23
771.842	31149.34
772.178	31335.09
772.513	31305.94
772.849	31201.99
773.184	31014.42
773.519	31006.52
773.855	30849.46
774.19	30752.96
774.525	30468
774.86	30492.86
775.195	30572.18
775.53	30373.31
775.865	30183.03
776.2	29915.92
776.535	29773.55
776.87	29806.32
777.205	29690.62
777.539	29569.26
777.874	29620.79
778.209	29357.07
778.543	29207.24
778.878	29232.1
779.212	29142.16
779.547	28965.66
779.881	28954.59
780.215	28791.43
780.55	28877.31
780.884	28622.4
781.218	28496.98
781.552	28486.81
781.886	28431.67
782.22	28256.53
782.554	28183.76
782.888	27939.48
783.222	27823.32
783.556	27742.65
783.889	27668.07
784.223	27580.16
784.557	27442.32
784.89	27484.12
785.224	27279.61
785.557	27179.05
785.891	27134.3
786.224	27006.39
786.558	26998.94
786.891	26763.01
787.224	26694.54
787.557	26520.53
787.891	26579.51
788.224	26534.54
788.557	26480.98
788.89	26408.9
789.223	26305.85
789.556	26108.34
789.888	25982.01
790.221	25888.23
790.554	25745.18
790.887	25751.29
791.219	25710.38
791.552	25546.55
791.884	25458.19
792.217	25346.33
792.549	25300.68
792.882	25206.89
793.214	25109.95
793.546	25090.74
793.879	25006.67
794.211	24961.48
794.543	24876.73
794.875	24729.62
795.207	24800.8
795.539	24630.41
795.871	24572.79
796.203	24427.25
796.535	24291.89
796.867	24303.41
797.198	24184.55
797.53	24153.14
797.862	23983.88
798.193	24062.52
798.525	23816.65
798.856	23904.78
799.188	23651.23
799.519	23554.96
799.85	23458.92
800.182	23561.06
800.513	23407.39
800.844	23285.14
801.175	23309.77
801.506	23323.55
801.837	23164.46
802.168	23081.07
802.499	23003.56
802.83	22843.79
803.161	22838.82
803.491	22815.54
803.822	22867.29
804.153	22753.85
804.483	22482.22
804.814	22468.66
805.145	22435.22
805.475	22432.5
805.805	22311.6
806.136	22329.91
806.466	22308.21
806.796	22184.37
807.126	22112.29
807.457	22065.73
807.787	22016.92
808.117	21815.34
808.447	21808.34
808.777	21813.99
809.107	21738.74
809.436	21637.04
809.766	21678.17
810.096	21592.98
810.426	21430.04
810.755	21457.16
811.085	21477.05
811.414	21380.78
811.744	21280.67
812.073	21248.81
812.403	21182.37
812.732	20996.16
813.061	21016.27
813.39	20955.48
813.719	20840.68
814.049	20900.11
814.378	20818.76
814.707	20728.82
815.036	20711.19
815.365	20536.51
815.693	20475.27
816.022	20516.17
816.351	20401.14
816.68	20381.03
817.008	20355.5
817.337	20125.45
817.665	20180.36
817.994	20276.18
818.322	20210.41
818.651	20038.44
818.979	19910.76
819.307	20005.9
819.636	20058.33
819.964	19925.68
820.292	19949.63
820.62	19918.67
820.948	19865.79
821.276	19953.92
821.604	19852.01
821.932	19851.1
822.259	19902.85
822.587	19758
822.915	19683.65
823.243	19772.46
823.57	19782.86
823.898	19778.34
824.225	19687.49
824.553	19641.16
824.88	19738.79
825.207	19787.83
825.535	19651.11
825.862	19682.75
826.189	19708.73
826.516	19845.68
826.843	19729.75
827.17	19760.48
827.497	19785.12
827.824	19677.32
828.151	19775.62
828.478	19721.39
828.805	19784.21
829.131	19709.19
829.458	19623.54
829.785	19563.43
830.111	19644.1
830.438	19727.26
830.764	19642.97
831.09	19676.64
831.417	19579.7
831.743	19633.25
832.069	19597.1
832.395	19487.95
832.722	19643.42
833.048	19518.68
833.374	19534.05
833.7	19346.26
834.026	19464.45
834.351	19500.83
834.677	19377.22
835.003	19426.03
835.329	19506.7
835.654	19414.28
835.98	19285.69
836.306	19354.62
836.631	19187.62
836.956	19294.73
837.282	19383.09
837.607	19128.41
837.932	19130.44
838.258	19230.78
838.583	19184.45
838.908	19087.28
839.233	19031.91
839.558	18995.31
839.883	18875.76
840.208	18897.91
840.533	18829.43
840.858	18911.47
841.182	18852.94
841.507	18812.94
841.832	18700.85
842.156	18763.45
842.481	18692.94
842.805	18592.15
843.13	18608.2
843.454	18528.65
843.778	18496.56
844.103	18447.52
844.427	18362.1
844.751	18468.31
845.075	18346.96
845.399	18316.91
845.723	18217.92
846.047	18234.42
846.371	18101.77
846.695	18044.14
847.019	17816.58
847.343	17862
847.666	17751.5
847.99	17574.33
848.313	17705.17
848.637	17510.82
848.96	17478.06
849.284	17494.78
849.607	17248.23
849.931	17340.43
850.254	17152.42
850.577	17124.39
850.9	16987.45
851.223	17012.76
851.546	16887.56
851.869	16754.69
852.192	16888.47
852.515	16622.49
852.838	16584.97
853.161	16589.04
853.483	16520.34
853.806	16533.22
854.129	16453.23
854.451	16321.7
854.774	16226.34
855.096	16242.84
855.419	16182.72
855.741	16239.9
856.063	16098.66
856.385	16020.69
856.708	16017.76
857.03	15955.16
857.352	15920.36
857.674	15843.3
857.996	15864.54
858.318	15657.54
858.64	15698.22
858.961	15669.29
859.283	15662.51
859.605	15547.03
859.926	15580.48
860.248	15563.31
860.57	15490.77
860.891	15442.18
861.212	15387.94
861.534	15401.95
861.855	15278.79
862.176	15283.09
862.498	15281.73
862.819	15250.32
863.14	15221.85
863.461	15187.72
863.782	15162.41
864.103	15147.95
864.424	15098.01
864.745	15087.61
865.065	14968.97
865.386	14964
865.707	14965.13
866.027	14937.11
866.348	14893.27
866.668	14964.9
866.989	14867.73
867.309	14716.32
867.63	14790.44
867.95	14750.45
868.27	14651.01
868.59	14698.24
868.91	14672.48
869.23	14611.24
869.55	14583.22
869.87	14651.47
870.19	14535.54
870.51	14594.97
870.83	14546.84
871.15	14419.38
871.469	14473.16
871.789	14577.57
872.109	14539.83
872.428	14350.68
872.748	14415.54
873.067	14393.17
873.386	14417.12
873.706	14299.61
874.025	14226.84
874.344	14249.44
874.663	14277.69
874.982	14164.02
875.301	14211.48
875.62	14128.09
875.939	14140.07
876.258	14072.95
876.577	14081.31
876.896	14070.92
877.214	14079.95
877.533	14047.19
877.852	13947.53
878.17	14069.33
878.489	13925.38
878.807	13962.22
879.125	13929
879.444	13904.37
879.762	13894.65
880.08	13894.2
880.398	13805.39
880.716	13821.88
881.034	13682
881.352	13771.04
881.67	13618.95
881.988	13654.88
882.306	13619.63
882.624	13604.26
882.941	13548.22
883.259	13528.1
883.577	13526.75
883.894	13502.57
884.212	13439.52
884.529	13410.59
884.846	13354.78
885.164	13282.69
885.481	13223.93
885.798	13292.63
886.115	13223.03
886.432	13242.01
886.75	13136.25
887.067	13129.25
887.383	13138.74
887.7	13035.69
888.017	13023.26
888.334	13070.49
888.651	13009.02
888.967	12922.24
889.284	12865.3
889.6	12881.34
889.917	12733.78
890.233	12805.41
890.55	12775.58
890.866	12711.63
891.182	12712.98
891.498	12632.08
891.815	12567.9
892.131	12599.09
892.447	12582.82
892.763	12353.9
893.079	12469.83
893.395	12437.74
893.71	12405.2
894.026	12260.79
894.342	12298.76
894.657	12181.7
894.973	12201.13
895.289	12226.67
895.604	12198.65
895.92	12119.33
896.235	12032.78
896.55	12062.38
896.865	11965.43
897.181	12001.37
897.496	11974.47
897.811	11886.79
898.126	11824.19
898.441	11788.04
898.756	11653.58
899.071	11650.41
899.386	11609.74
899.7	11619.91
900.015	11558.21
900.33	11422.62
900.644	11511.89
900.959	11374.49
901.273	11398.44
901.588	11362.74
901.902	11256.3
902.216	11306.69
902.531	11193.7
902.845	11221.5
903.159	11109.41
903.473	11081.62
903.787	11020.6
904.101	10995.29
904.415	10998.45
904.729	10894.73
905.042	10853.6
905.356	10872.36
905.67	10793.49
905.984	10730.44
906.297	10677.56
906.611	10700.61
906.924	10682.3
907.237	10632.14
907.551	10574.74
907.864	10565.47
908.177	10442.54
908.491	10431.46
908.804	10491.35
909.117	10356.44
909.43	10296.78
909.743	10297.23
910.056	10176.78
910.368	10169.77
910.681	10125.26
910.994	10077.35
911.307	10066.27
911.619	9918.26
911.932	10002.32
912.244	9919.84
912.557	9833.96
912.869	9841.42
913.181	9845.26
913.494	9786.73
913.806	9694.99
914.118	9649.34
914.43	9605.95
914.742	9572.05
915.054	9548.55
915.366	9526.18
915.678	9570.47
915.99	9410.25
916.302	9364.82
916.613	9334.32
916.925	9300.87
917.236	9291.15
917.548	9202.79
917.859	9186.3
918.171	9175.9
918.482	9162.34
918.794	9117.15
919.105	9053.42
919.416	9009.35
919.727	8966.19
920.038	8970.71
920.349	8858.85
920.66	8828.34
920.971	8886.42
921.282	8812.52
921.593	8751.51
921.903	8707.21
922.214	8701.11
922.525	8633.77
922.835	8589.7
923.146	8543.6
923.456	8528.01
923.767	8528.24
924.077	8463.61
924.387	8421.12
924.697	8409.6
925.008	8340.67
925.318	8315.59
925.628	8337.05
925.938	8279.2
926.248	8192.2
926.558	8176.16
926.867	8122.82
927.177	8020.68
927.487	8037.4
927.796	7941.36
928.106	7959.44
928.416	7954.24
928.725	7901.13
929.034	7868.14
929.344	7878.54
929.653	7794.7
929.962	7830.18
930.271	7687.58
930.581	7716.05
930.89	7605.77
931.199	7627.24
931.508	7561.26
931.817	7555.15
932.125	7579.79
932.434	7502.5
932.743	7439.9
933.051	7450.3
933.36	7365.33
933.669	7266.8
933.977	7295.05
934.286	7304.77
934.594	7286.46
934.902	7215.95
935.21	7158.78
935.519	7192.68
935.827	7125.34
936.135	7105.22
936.443	7027.03
936.751	7059.35
937.059	7006.69
937.367	6975.28
937.674	6935.28
937.982	6888.73
938.29	6925.34
938.597	6889.41
938.905	6793.59
939.213	6774.16
939.52	6748.85
939.827	6784.33
940.135	6682.18
940.442	6673.82
940.749	6686.7
941.056	6672.47
941.363	6580.49
941.67	6573.49
941.977	6519.25
942.284	6502.3
942.591	6432.7
942.898	6452.58
943.205	6459.82
943.511	6371.91
943.818	6377.78
944.125	6314.28
944.431	6266.37
944.738	6279.26
945.044	6257.34
945.35	6237.9
945.657	6162.42
945.963	6150.22
946.269	6099.83
946.575	6116.77
946.881	6047.62
947.187	6029.77
947.493	6023.9
947.799	5995.65
948.105	5945.03
948.41	5918.36
948.716	5901.86
949.022	5867.06
949.327	5832.94
949.633	5827.52
949.938	5789.33
950.244	5774.18
950.549	5722.21
950.854	5717.01
951.16	5704.13
951.465	5690.34
951.77	5636.56
952.075	5670.91
952.38	5532.83
952.685	5578.26
952.99	5517.92
953.294	5480.63
953.599	5505.04
953.904	5504.59
954.209	5485.38
954.513	5439.96
954.818	5381.88
955.122	5405.83
955.426	5350.69
955.731	5332.61
956.035	5318.38
956.339	5297.36
956.643	5254.2
956.948	5246.51
957.252	5242.9
957.556	5208.1
957.86	5151.15
958.163	5141.43
958.467	5101.89
958.771	5101.21
959.075	5110.25
959.378	5053.98
959.682	4993.19
959.985	5007.65
960.289	5002
960.592	4939.4
960.896	4943.92
961.199	4935.56
961.502	4894.66
961.805	4861.44
962.108	4794.32
962.411	4830.25
962.714	4790.71
963.017	4785.06
963.32	4797.03
963.623	4729.92
963.926	4736.02
964.228	4696.02
964.531	4701.9
964.833	4651.95
965.136	4643.59
965.438	4619.86
965.741	4568.11
966.043	4580.77
966.345	4550.49
966.648	4525.63
966.95	4544.61
967.252	4451.96
967.554	4471.85
967.856	4455.57
968.158	4422.58
968.46	4465.74
968.761	4397.5
969.063	4361.34
969.365	4378.06
969.666	4320.66
969.968	4322.92
970.269	4307.56
970.571	4243.38
970.872	4238.86
971.174	4257.61
971.475	4178.07
971.776	4208.35
972.077	4182.81
972.378	4146.66
972.679	4142.36
972.98	4164.28
973.281	4098.07
973.582	4063.27
973.883	4097.62
974.183	4065.08
974.484	3993.21
974.785	4010.39
975.085	3973.1
975.386	3974.46
975.686	3941.46
975.986	3950.73
976.287	3893.78
976.587	3933.55
976.887	3873.44
977.187	3882.48
977.487	3873.9
977.787	3829.38
978.087	3823.5
978.387	3799.55
978.687	3765.2
978.987	3763.39
979.286	3714.8
979.586	3716.16
979.885	3689.27
980.185	3669.15
980.484	3670.74
980.784	3627.12
981.083	3652.43
981.382	3618.08
981.682	3610.63
981.981	3602.04
982.28	3588.48
982.579	3525.2
982.878	3545.99
983.177	3498.54
983.475	3511.42
983.774	3472.1
984.073	3486.56
984.372	3414.47
984.67	3462.38
984.969	3457.41
985.267	3410.63
985.566	3407.47
985.864	3402.72
986.162	3379.67
986.461	3378.09
986.759	3319.79
987.057	3334.02
987.355	3326.79
987.653	3279.11
987.951	3277.53
988.249	3295.61
988.547	3258.09
988.844	3239.11
989.142	3223.97
989.44	3189.17
989.737	3163.41
990.035	3136.06
990.332	3140.13
990.63	3117.98
990.927	3128.38
991.224	3105.33
991.521	3100.81
991.819	3071.43
992.116	3005.44
992.413	3059
992.71	3027.59
993.006	3024.65
993.303	2962.05
993.6	2978.55
993.897	2956.18
994.193	2967.7
994.49	2931.55
994.787	2915.73
995.083	2921.83
995.379	2908.05
995.676	2854.49
995.972	2859.46
996.268	2858.55
996.565	2833.7
996.861	2813.36
997.157	2768.16
997.453	2797.77
997.749	2732.23
998.044	2787.37
998.34	2763.87
998.636	2737.65
998.932	2697.66
999.227	2678.45
999.523	2671.44
999.818	2664.21
1000.114	2677.32
1000.409	2655.17
1000.704	2663.31
1001	2617.88
1001.295	2611.33
1001.59	2605
1001.885	2598.9
1002.18	2582.86
1002.475	2520.71
1002.77	2499.69
1003.065	2532.46
1003.359	2493.14
1003.654	2515.74
1003.949	2476.64
1004.243	2450.43
1004.538	2460.37
1004.832	2432.58
1005.127	2433.93
1005.421	2386.25
1005.715	2371.56
1006.009	2372.69
1006.304	2325.46
1006.598	2316.65
1006.892	2296.08
1007.186	2290.66
1007.48	2292.69
1007.773	2254.5
1008.067	2274.84
1008.361	2276.65
1008.655	2275.29
1008.948	2226.71
1009.242	2204.56
1009.535	2223.54
1009.829	2197.1
1010.122	2185.58
1010.415	2166.14
1010.708	2115.52
1011.001	2133.6
1011.295	2116.88
1011.588	2116.88
1011.881	2098.12
1012.173	2089.99
1012.466	2079.82
1012.759	2067.62
1013.052	2045.92
1013.344	2011.12
1013.637	2049.76
1013.93	2025.81
1014.222	2018.12
1014.514	1993.72
1014.807	1993.49
1015.099	1971.12
1015.391	1938.35
1015.683	1945.58
1015.976	1946.04
1016.268	1914.4
1016.56	1884.34
1016.851	1890.67
1017.143	1879.6
1017.435	1885.25
1017.727	1874.4
1018.018	1807.51
1018.31	1844.8
1018.602	1851.58
1018.893	1815.19
1019.185	1815.87
1019.476	1789.2
1019.767	1765.48
1020.058	1754.4
1020.35	1760.73
1020.641	1730.45
1020.932	1711.69
1021.223	1699.26
1021.514	1711.24
1021.804	1688.87
1022.095	1691.81
1022.386	1664.46
1022.677	1656.55
1022.967	1660.39
1023.258	1645.93
1023.548	1614.52
1023.839	1614.97
1024.129	1591.02
1024.419	1572.26
1024.709	1568.19
1025	1560.51
1025.29	1526.39
1025.58	1561.19
1025.87	1519.61
1026.16	1520.96
1026.449	1505.14
1026.739	1489.78
1027.029	1488.65
1027.319	1478.7
1027.608	1436.9
1027.898	1465.15
1028.187	1452.04
1028.477	1438.03
1028.766	1449.78
1029.055	1417.24
1029.344	1434.41
1029.634	1385.83
1029.923	1384.92
1030.212	1372.94
1030.501	1381.98
1030.79	1358.48
1031.078	1335.88
1031.367	1322.32
1031.656	1345.83
1031.945	1296.11
1032.233	1308.31
1032.522	1294.53
1032.81	1319.39
1033.099	1278.71
1033.387	1311.48
1033.675	1299.27
1033.963	1293.17
1034.251	1251.14
1034.54	1233.06
1034.828	1254.53
1035.116	1219.5
1035.403	1231.25
1035.691	1221.31
1035.979	1239.61
1036.267	1219.28
1036.554	1183.8
1036.842	1191.25
1037.129	1181.76
1037.417	1166.17
1037.704	1153.06
1037.992	1136.34
1038.279	1121.88
1038.566	1124.59
1038.853	1124.59
1039.14	1124.59
