Data from White_reflection_standard_FLMS001491_082.txt Node
Date: Tue Feb 07 10:32:11 GMT 2017
User: dcchb
Spectrometer: FLMS00149
Trigger mode: 0
Integration Time (sec): 2.000000E-2
Scans to average: 10
Electric dark correction enabled: true
Nonlinearity correction enabled: false
Boxcar width: 0
XAxis mode: Wavelengths
Number of Pixels in Spectrum: 2048
>>>>>Begin Spectral Data<<<<<
341.393	-10.24
341.776	-10.24
342.16	-10.24
342.543	-52.27
342.927	-59.28
343.31	-61.31
343.693	-83.01
344.077	-74.19
344.46	-66.96
344.843	-55.66
345.226	-10.01
345.61	-39.17
345.993	-4.36
346.376	-4.36
346.759	6.71
347.142	37.22
347.525	53.04
347.908	51.91
348.291	62.98
348.674	85.8
349.057	101.4
349.44	139.81
349.823	141.62
350.206	180.94
350.588	239.47
350.971	256.19
351.354	274.05
351.737	269.07
352.119	299.13
352.502	326.7
352.884	305.68
353.267	321.95
353.65	343.42
354.032	355.85
354.414	357.66
354.797	361.73
355.179	372.12
355.562	362.86
355.944	373.7
356.326	372.35
356.709	384.1
357.091	383.42
357.473	392.91
357.855	407.15
358.238	423.65
358.62	425.23
359.002	398.79
359.384	407.83
359.766	418.45
360.148	399.69
360.53	409.86
360.912	412.8
361.294	406.25
361.676	420.48
362.057	401.73
362.439	410.31
362.821	401.73
363.203	408.73
363.584	409.41
363.966	417.32
364.348	412.8
364.729	439.01
365.111	431.1
365.493	416.42
365.874	394.72
366.256	414.38
366.637	411.22
367.019	430.88
367.4	413.7
367.781	398.56
368.163	418.45
368.544	415.29
368.925	414.16
369.306	446.25
369.688	431.33
370.069	430.88
370.45	420.03
370.831	439.69
371.212	426.36
371.593	465.68
371.974	448.73
372.355	437.66
372.736	432.46
373.117	464.32
373.498	463.87
373.879	455.06
374.26	450.54
374.641	453.25
375.021	448.05
375.402	453.25
375.783	466.58
376.163	500.26
376.544	495.51
376.925	486.92
377.305	495.51
377.686	488.28
378.066	500.03
378.447	492.12
378.827	516.07
379.208	514.94
379.588	516.07
379.968	492.12
380.349	511.1
380.729	532.8
381.109	525.34
381.489	559.69
381.87	545
382.25	547.26
382.63	556.07
383.01	556.98
383.39	567.82
383.77	552.23
384.15	593.59
384.53	583.19
384.91	589.52
385.29	592
385.67	616.18
386.049	641.27
386.429	626.35
386.809	634.71
387.189	624.77
387.568	620.93
387.948	639.46
388.328	667.03
388.707	665.9
389.087	671.55
389.466	691.21
389.846	681.27
390.225	703.64
390.605	685.34
390.984	689.63
391.363	703.87
391.743	720.14
392.122	709.29
392.501	732.11
392.881	744.77
393.26	742.28
393.639	759.01
394.018	762.4
394.397	776.18
394.776	800.36
395.155	775.95
395.534	801.94
395.913	776.86
396.292	797.87
396.671	812.79
397.05	856.18
397.429	833.81
397.808	842.62
398.186	847.36
398.565	836.07
398.944	858.21
399.323	884.2
399.701	869.29
400.08	897.53
400.458	916.29
400.837	909.51
401.215	928.94
401.594	940.02
401.972	914.48
402.351	954.48
402.729	987.93
403.107	983.63
403.486	997.42
403.864	988.83
404.242	1021.82
404.62	1042.84
404.999	1020.92
405.377	1048.72
405.755	1074.03
406.133	1046.68
406.511	1083.52
406.889	1097.75
407.267	1111.09
407.645	1107.47
408.023	1137.3
408.401	1158.32
408.779	1171.88
409.156	1206.68
409.534	1199.67
409.912	1206
410.29	1266.79
410.667	1243.96
411.045	1273.12
411.422	1312.44
411.8	1299.78
412.178	1345.43
412.555	1342.04
412.933	1340.69
413.31	1380.23
413.687	1413
414.065	1421.36
414.442	1423.17
414.819	1451.19
415.197	1467.24
415.574	1503.39
415.951	1485.99
416.328	1501.13
416.705	1514.69
417.082	1519.66
417.46	1540
417.837	1618.64
418.214	1582.03
418.591	1607.12
418.967	1632.43
419.344	1633.56
419.721	1658.64
420.098	1687.79
420.475	1680.34
420.852	1742.93
421.228	1730.28
421.605	1749.49
421.982	1764.85
422.358	1801.69
422.735	1778.87
423.111	1840.56
423.488	1849.6
423.864	1845.53
424.241	1881.46
424.617	1899.54
424.994	1937.96
425.37	1912.42
425.746	1928.01
426.123	2002.14
426.499	2012.08
426.875	2015.47
427.251	2058.86
427.627	2098.41
428.003	2138.18
428.379	2160.1
428.756	2189.48
429.132	2211.17
429.507	2252.53
429.883	2288.23
430.259	2325.97
430.635	2324.84
431.011	2375.01
431.387	2414.1
431.763	2431.05
432.138	2466.53
432.514	2489.13
432.89	2520.77
433.265	2555.12
433.641	2580.88
434.016	2639.41
434.392	2689.12
434.767	2722.34
435.143	2754.43
435.518	2775.22
435.894	2807.09
436.269	2826.3
436.644	2884.37
437.02	2928.89
437.395	2927.08
437.77	2948.78
438.145	2981.77
438.52	3037.59
438.895	3094.99
439.271	3062
439.646	3172.28
440.021	3153.29
440.395	3205.49
440.77	3194.87
441.145	3247.08
441.52	3258.6
441.895	3277.58
442.27	3298.6
442.645	3302.67
443.019	3381.54
443.394	3339.28
443.769	3417.47
444.143	3422.44
444.518	3471.93
444.892	3494.3
445.267	3523.23
445.641	3527.52
446.016	3576.11
446.39	3548.76
446.764	3612.26
447.139	3634.41
447.513	3649.78
447.887	3711.47
448.262	3687.52
448.636	3733.39
449.01	3769.32
449.384	3839.15
449.758	3850.9
450.132	3913.05
450.506	3925.25
450.88	3934.97
451.254	3960.96
451.628	3987.62
452.002	4047.28
452.376	4093.16
452.75	4149.2
453.123	4210.44
453.497	4270.1
453.871	4276.43
454.244	4364.56
454.618	4412.69
454.992	4488.62
455.365	4482.52
455.739	4595.29
456.112	4626.02
456.486	4692.46
456.859	4700.37
457.232	4876.64
457.606	4807.26
457.979	4944.43
458.352	4992.79
458.725	5076.18
459.099	5073.69
459.472	5160.02
459.845	5290.64
460.218	5259.23
460.591	5345.1
460.964	5336.51
461.337	5484.98
461.71	5538.54
462.083	5665.54
462.456	5634.58
462.829	5699.44
463.201	5797.52
463.574	5798.65
463.947	5932.88
464.32	6041.35
464.692	6105.31
465.065	6120.67
465.438	6201.57
465.81	6347.79
466.183	6449.03
466.555	6572.41
466.928	6550.72
467.3	6531.28
467.672	6703.48
468.045	6831.16
468.417	6860.09
468.789	6953.64
469.161	6985.28
469.534	7135.33
469.906	7368.32
470.278	7370.58
470.65	7443.8
471.022	7619.16
471.394	7808.09
471.766	7804.92
472.138	7948.87
472.51	8059.6
472.882	8202.88
473.253	8331.24
473.625	8441.97
473.997	8629.08
474.369	8638.57
474.74	8822.07
475.112	8905.91
475.484	9098
475.855	9234.94
476.227	9301.61
476.598	9613.91
476.97	9650.52
477.341	9876.73
477.713	10020
478.084	10131.87
478.455	10430.62
478.827	10463.16
479.198	10783.83
479.569	10824.05
479.94	11116.93
480.311	11241.44
480.682	11519.4
481.053	11740.86
481.424	11996.45
481.795	12059.27
482.166	12225.6
482.537	12416.33
482.908	12649.99
483.279	12774.96
483.65	13083.65
484.021	13278.45
484.391	13461.5
484.762	13573.13
485.133	13662.62
485.503	13871.88
485.874	14234.81
486.244	14354.81
486.615	14642.03
486.985	14867.56
487.356	15071.85
487.726	15241.79
488.097	15484.04
488.467	15541.89
488.837	15943.69
489.207	16069.34
489.578	16320.18
489.948	16463.9
490.318	16703.44
490.688	16706.83
491.058	17081.51
491.428	17330.77
491.798	17536.87
492.168	17777.77
492.538	17778.9
492.908	18037.87
493.278	18334.81
493.648	18397.19
494.017	18652.55
494.387	18719.66
494.757	18968.92
495.126	19187.22
495.496	19224.96
495.866	19376.14
496.235	19659.53
496.605	19712.86
496.974	19800.09
497.344	20054.54
497.713	20125.05
498.082	20349.22
498.452	20569.33
498.821	20646.39
499.19	20734.53
499.559	20932.71
499.928	21074.4
500.298	21175.64
500.667	21519.14
501.036	21515.52
501.405	21825.57
501.774	21786.93
502.143	22058.56
502.512	22179.46
502.88	22323.86
503.249	22315.27
503.618	22580.13
503.987	22670.07
504.356	22820.12
504.724	23045.88
505.093	23155.93
505.462	23137.85
505.83	23434.79
506.199	23632.75
506.567	23880.43
506.936	23868.91
507.304	24190.71
507.672	24260.53
508.041	24304.83
508.409	24585.95
508.777	24738.04
509.145	24914.98
509.514	25024.36
509.882	25368.53
510.25	25312.94
510.618	25643.55
510.986	25614.17
511.354	25974.84
511.722	26201.05
512.09	26406.01
512.458	26340.93
512.826	26673.35
513.193	26795.16
513.561	26973.68
513.929	27108.14
514.297	27470.85
514.664	27638.07
515.032	27710.61
515.4	27863.38
515.767	28110.38
516.135	28267.89
516.502	28292.74
516.869	28719.85
517.237	28799.17
517.604	28814.54
517.972	29119.62
518.339	29380.17
518.706	29577.46
519.073	29652.26
519.44	29823.1
519.808	30253.37
520.175	30361.16
520.542	30597.99
520.909	30880.47
521.276	30888.61
521.643	31370.4
522.009	31451.31
522.376	31745.99
522.743	31942.59
523.11	32213.32
523.477	32561.56
523.843	32567.21
524.21	33102.79
524.577	33190.92
524.943	33484.47
525.31	33662.1
525.676	33955.87
526.043	34104.12
526.409	34396.99
526.776	34645.8
527.142	34784.33
527.508	35093.24
527.874	35309.06
528.241	35538.2
528.607	35679.22
528.973	36074.24
529.339	36093.44
529.705	36389.93
530.071	36672.41
530.437	36735.23
530.803	36935
531.169	37131.16
531.535	37231.72
531.901	37509.9
532.267	37659.05
532.632	37771.37
532.998	37996.44
533.364	38099.94
533.73	38305.14
534.095	38765.01
534.461	38753.71
534.826	38878.68
535.192	39199.35
535.557	39316.64
535.923	39404.32
536.288	39658.1
536.653	39728.38
537.019	39718.66
537.384	39882.04
537.749	40030.74
538.114	40209.27
538.479	40402.03
538.845	40483.38
539.21	40487.45
539.575	40743.04
539.94	40900.1
540.305	41077.72
540.67	41012.18
541.034	41364.04
541.399	41443.13
541.764	41672.51
542.129	41717.93
542.494	41913.63
542.858	42062.55
543.223	42119.5
543.587	42295.09
543.952	42194.53
544.316	42392.94
544.681	42487.4
545.045	42710.9
545.41	42919.7
545.774	43019.82
546.138	43053.94
546.503	43288.06
546.867	43355.85
547.231	43772.56
547.595	43758.55
547.959	43898.89
548.324	43996.96
548.688	43980.47
549.052	44116.06
549.416	44329.39
549.779	44480.57
550.143	44608.47
550.507	44859.77
550.871	44989.48
551.235	45000.1
551.599	45379.98
551.962	45282.35
552.326	45462.24
552.689	45607.09
553.053	45525.74
553.417	45767.54
553.78	46410.46
554.143	46072.39
554.507	46486.84
554.87	46481.65
555.234	46760.73
555.597	46706.05
555.96	46862.65
556.323	47102.19
556.686	47267.84
557.05	47557.32
557.413	47555.06
557.776	47703.31
558.139	48028.27
558.502	48097.87
558.865	48297.87
559.228	48402.95
559.59	48521.59
559.953	48711.42
560.316	48934.46
560.679	48915.48
561.041	49272.53
561.404	49465.07
561.767	49613.77
562.129	49526.99
562.492	49945.06
562.854	49909.35
563.217	49944.38
563.579	50116.13
563.941	50425.72
564.304	50513.63
564.666	50711.36
565.028	50776.9
565.39	51011.02
565.753	51152.71
566.115	51344.12
566.477	51435.87
566.839	51361.97
567.201	51724.67
567.563	51665.24
567.925	51966.92
568.287	51907.27
568.648	51988.39
569.01	52225.67
569.372	52413.92
569.734	52443.3
570.095	52628.6
570.457	52703.18
570.819	52766
571.18	52821.37
571.542	53052.32
571.903	53025.2
572.265	53113.34
572.626	53148.81
572.987	53266.33
573.349	53362.37
573.71	53429.71
574.071	53569.59
574.432	53645.52
574.794	53924.84
575.155	53870.6
575.516	53736.14
575.877	53940.88
576.238	53974.56
576.599	54052.29
576.96	54132.07
577.32	54138.62
577.681	54219.29
578.042	54309.24
578.403	54319.86
578.763	54310.82
579.124	54385.62
579.485	54546.97
579.845	54472.85
580.206	54520.08
580.566	54551.49
580.927	54562.34
581.287	54681.43
581.648	54546.52
582.008	54701.32
582.368	54688.43
582.728	54762.11
583.089	54661.09
583.449	54695.21
583.809	54756.23
584.169	54855.89
584.529	54711.49
584.889	54974.3
585.249	54799.39
585.609	54651.37
585.969	54922.78
586.329	54741.99
586.688	54856.11
587.048	54892.5
587.408	54786.51
587.768	54781.09
588.127	54720.98
588.487	54796.23
588.846	54991.03
589.206	54817.92
589.565	54777.7
589.925	54866.96
590.284	54834.87
590.643	54922.78
591.003	54924.13
591.362	54982.89
591.721	54953.06
592.08	54944.47
592.44	55037.13
592.799	55025.6
593.158	54980.18
593.517	54955.77
593.876	55036.22
594.235	54948.54
594.593	54942.67
594.952	55087.29
595.311	54943.8
595.67	55003.68
596.029	55214.52
596.387	55123.68
596.746	55214.07
597.104	55101.53
597.463	55114.41
597.822	55230.79
598.18	55109.21
598.538	55118.93
598.897	55231.25
599.255	55064.02
599.613	55466.49
599.972	55217.91
600.33	55358.93
600.688	55256.1
601.046	55344.46
601.404	55458.81
601.762	55470.79
602.12	55457
602.478	55479.6
602.836	55508.07
603.194	55343.33
603.552	55470.56
603.91	55363.67
604.268	55544.68
604.625	55482.54
604.983	55589.88
605.341	55423.78
605.698	55689.76
606.056	55709.65
606.413	55637.79
606.771	55654.96
607.128	55705.58
607.485	55611.57
607.843	55605.47
608.2	55824.22
608.557	55861.74
608.914	55799.14
609.272	55929.76
609.629	55961.85
609.986	56068.06
610.343	55909.87
610.7	56086.36
611.057	56022.19
611.414	55989.87
611.771	56127.49
612.127	56159.58
612.484	56228.73
612.841	56196.64
613.198	56118.91
613.554	56170.43
613.911	56244.33
614.267	56302.86
614.624	56252.91
614.98	56273.7
615.337	56395.28
615.693	56272.12
616.05	56273.48
616.406	56503.53
616.762	56320.93
617.118	56440.71
617.475	56433.02
617.831	56506.92
618.187	56435.06
618.543	56543.3
618.899	56625.11
619.255	56536.75
619.611	56563.41
619.967	56653.81
620.323	56683.86
620.678	56564.32
621.034	56456.3
621.39	56566.13
621.746	56524.32
622.101	56815.16
622.457	56520.7
622.812	56509.18
623.168	56659.46
623.523	56608.84
623.879	56724.99
624.234	56553.24
624.589	56648.38
624.945	56616.75
625.3	56729.29
625.655	56596.18
626.01	56575.39
626.365	56640.25
626.72	56642.28
627.075	56666.01
627.43	56602.06
627.785	56509.86
628.14	56611.1
628.495	56534.94
628.85	56649.29
629.205	56460.14
629.559	56647.71
629.914	56469.86
630.269	56515.28
630.623	56424.89
630.978	56346.24
631.332	56473.92
631.687	56449.29
632.041	56389.86
632.396	56382.4
632.75	56245.91
633.104	56295.17
633.459	56231.9
633.813	56167.27
634.167	56195.06
634.521	56158.9
634.875	56107.61
635.229	56078.23
635.583	56002.98
635.937	56020.38
636.291	55984.67
636.645	55943.09
636.999	55924.33
637.352	55974.73
637.706	55747.16
638.06	55859.25
638.413	55825.81
638.767	55773.15
639.121	55769.54
639.474	55589.88
639.828	55637.56
640.181	55612.7
640.534	55647.73
640.888	55471.24
641.241	55440.28
641.594	55432.6
641.947	55578.81
642.301	55483.44
642.654	55438.02
643.007	55428.3
643.36	55385.59
643.713	55303.33
644.066	55412.71
644.419	55254.75
644.771	55016.11
645.124	54737.47
645.477	54640.53
645.83	54502.45
646.182	54392.85
646.535	54314.21
646.888	54345.39
647.24	54156.25
647.593	54312.17
647.945	54249.35
648.298	54065.4
648.65	54097.94
649.002	53945.4
649.355	54054.55
649.707	54037.38
650.059	54168.67
650.411	54424.26
650.763	54531.38
651.115	54745.38
651.467	54630.81
651.819	54599.4
652.171	54533.41
652.523	54500.42
652.875	54492.06
653.227	54407.09
653.578	54621.09
653.93	54447.99
654.282	54316.69
654.633	54233.31
654.985	54265.85
655.337	54356.69
655.688	54264.04
656.039	54398.05
656.391	54050.94
656.742	54236.02
657.094	54086.64
657.445	54243.93
657.796	54105.63
658.147	54136.81
658.498	54101.56
658.849	54076.7
659.2	54007.1
659.551	53977.95
659.902	54121.9
660.253	53963.03
660.604	53972.97
660.955	53842.36
661.306	54017.49
661.656	53932.3
662.007	53883.71
662.358	53865.63
662.708	53841.68
663.059	53819.76
663.409	53589.93
663.76	53856.82
664.11	53858.63
664.461	53819.08
664.811	53799.64
665.161	53834.9
665.511	53692.75
665.862	53683.04
666.212	53869.25
666.562	53723.71
666.912	53588.12
667.262	53527.34
667.612	53680.78
667.962	53629.03
668.312	53590.38
668.662	53690.04
669.011	53563.04
669.361	53559.65
669.711	53427.9
670.06	53488.69
670.41	53389.49
670.76	53376.38
671.109	53486.43
671.459	53366.89
671.808	53327.79
672.157	53364.85
672.507	53185.2
672.856	53221.81
673.205	53234.01
673.554	53248.7
673.904	53183.16
674.253	53309.04
674.602	53190.85
674.951	52789.28
675.3	52599.68
675.649	53143.16
675.998	53004.86
676.346	53035.6
676.695	53192.66
677.044	52939.1
677.393	53003.73
677.741	53048.25
678.09	52889.16
678.438	52879.89
678.787	52909.27
679.135	52832.89
679.484	52687.58
679.832	52832.44
680.181	52536.4
680.529	52701.14
680.877	52586.34
681.225	52492.79
681.573	52698.88
681.922	52485.78
682.27	52376.86
682.618	52496.4
682.966	52280.36
683.314	52283.98
683.661	52281.94
684.009	52087.37
684.357	51947.26
684.705	51944.1
685.053	52029.07
685.4	51909.75
685.748	51795.4
686.095	51784.78
686.443	51628.18
686.79	51519.7
687.138	51617.78
687.485	51673.15
687.832	51374.85
688.18	51495.52
688.527	51302.76
688.874	51356.09
689.221	51119.49
689.568	51056.44
689.915	51039.27
690.262	50932.38
690.609	50864.35
690.956	50741.87
691.303	50670.46
691.65	50498.04
691.997	50504.82
692.344	50256.46
692.69	50155.45
693.037	50301.43
693.383	49975.56
693.73	50104.6
694.077	49867.54
694.423	49972.4
694.769	49700.09
695.116	49719.98
695.462	49558.63
695.808	49451.06
696.155	49536.48
696.501	49211.52
696.847	49230.27
697.193	49024.63
697.539	49082.93
697.885	48736.28
698.231	48692.89
698.577	48652.21
698.923	48597.3
699.269	48444.98
699.614	48343.74
699.96	48207.02
700.306	48122.51
700.651	48026.24
700.997	48015.16
701.342	47917.54
701.688	47824.66
702.033	47763.65
702.379	47666.92
702.724	47550.54
703.069	47516.65
703.415	47061.29
703.76	47153.49
704.105	47086.6
704.45	46959.82
704.795	46667.85
705.14	46618.59
705.485	46760.73
705.83	46540.17
706.175	46475.09
706.52	46453.17
706.865	46244.36
707.209	46087.08
707.554	45940.64
707.899	46006.18
708.243	45910.36
708.588	45743.13
708.932	45637.83
709.277	45596.92
709.621	45662.68
709.966	45199.42
710.31	45432.63
710.654	45006.43
710.998	45118.29
711.342	45028.12
711.687	44920.56
712.031	44706.32
712.375	44596.95
712.719	44700.45
713.063	44424.75
713.407	44718.53
713.75	44340.23
714.094	44389.5
714.438	44168.03
714.782	44298.2
715.125	43995.61
715.469	44104.98
715.812	43952.67
716.156	43787.25
716.499	43728.05
716.843	43709.29
717.186	43474.04
717.53	43756.07
717.873	43496.41
718.216	43457.32
718.559	43208.96
718.902	43030.21
719.246	43081.73
719.589	43045.8
719.932	42947.5
720.275	42766.71
720.617	42754.51
720.96	42664.12
721.303	42660.5
721.646	42559.26
721.989	42416.89
722.331	42407.4
722.674	42289.66
723.016	42278.37
723.359	42225.94
723.701	42238.82
724.044	41903.91
724.386	41745.5
724.729	41948.66
725.071	41889
725.413	41740.3
725.755	41732.62
726.097	41527.65
726.439	41384.83
726.782	41513.41
727.124	41515.67
727.465	41334.89
727.807	41094.44
728.149	41246.53
728.491	41164.04
728.833	41131.05
729.175	41031.62
729.516	40815.13
729.858	40728.8
730.199	40963.6
730.541	40795.47
730.882	40795.01
731.224	40762.93
731.565	40596.6
731.906	40579.65
732.248	40515.93
732.589	40226.67
732.93	40216.95
733.271	40217.18
733.612	40139.66
733.953	40182.6
734.294	40027.8
734.635	39994.58
734.976	40098.54
735.317	39807.7
735.658	39789.84
735.999	39693.35
736.339	39573.58
736.68	39669.62
737.021	39639.57
737.361	39335.84
737.702	39615.84
738.042	39459.91
738.383	39252.46
738.723	39296.98
739.063	39147.37
739.404	39235.73
739.744	39071.67
740.084	38966.36
740.424	39015.63
740.764	38855.86
741.104	39005.68
741.444	38767.27
741.784	38615.86
742.124	38682.3
742.464	38702.64
742.804	38604.56
743.143	38543.1
743.483	38527.05
743.823	38167.06
744.162	38205.93
744.502	38421.07
744.841	38101.53
745.181	38202.77
745.52	37947.18
745.86	38094.07
746.199	37996.44
746.538	37854.08
746.877	37865.6
747.216	37798.48
747.556	37748.32
747.895	37741.76
748.234	37605.04
748.573	37492.73
748.911	37436.46
749.25	37461.09
749.589	37210.02
749.928	37219.29
750.267	37192.17
750.605	37154.66
750.944	37073.53
751.283	36796.25
751.621	36972.52
751.96	36678.06
752.298	36616.37
752.636	36711.28
752.975	36556.03
753.313	36245.53
753.651	36462.47
753.989	36285.98
754.327	36183.61
754.666	36039.21
755.004	36089.83
755.342	36077.17
755.679	36036.04
756.017	35734.36
756.355	35852.32
756.693	35584.76
757.031	35767.8
757.368	35428.83
757.706	35439
758.044	35318.55
758.381	35256.63
758.719	35025.9
759.056	35082.4
759.394	34927.82
759.731	34640.83
760.068	34736.64
760.405	34476.31
760.743	34380.72
761.08	34649.19
761.417	34262.76
761.754	34273.83
762.091	34141.18
762.428	34063.67
762.765	33951.35
763.102	33966.95
763.438	33743.45
763.775	33607.41
764.112	33640.4
764.449	33570.57
764.785	33350.46
765.122	33187.53
765.458	33037.25
765.795	33056.69
766.131	33119.96
766.467	32938.05
766.804	32713.87
767.14	32530.15
767.476	32536.02
767.812	32367.44
768.148	32254.67
768.485	32127.67
768.821	31960.9
769.157	32004.29
769.492	31950.73
769.828	31857.85
770.164	31536.05
770.5	31521.59
770.836	31491.3
771.171	31289.05
771.507	31344.42
771.842	30990.53
772.178	30988.27
772.513	30851.55
772.849	30783.75
773.184	30616.53
773.519	30563.87
773.855	30443.2
774.19	30359.13
774.525	30229.64
774.86	30189.19
775.195	30234.39
775.53	29826.72
775.865	29854.29
776.2	29667.17
776.535	29372.72
776.87	29524.8
777.205	29298.14
777.539	29246.62
777.874	29172.27
778.209	28993.97
778.543	28932.28
778.878	28772.05
779.212	28822.67
779.547	28487.99
779.881	28616.35
780.215	28421.1
780.55	28499.74
780.884	28228.11
781.218	28238.51
781.552	28079.87
781.886	27973.21
782.22	27904.28
782.554	27772.31
782.888	27512.65
783.222	27450.96
783.556	27300.45
783.889	27283.96
784.223	27085.32
784.557	26991.99
784.89	27048.26
785.224	26929.84
785.557	26661.38
785.891	26763.29
786.224	26640.81
786.558	26599.46
786.891	26350.42
787.224	26308.16
787.557	26128.28
787.891	26133.48
788.224	26105.01
788.557	25983.88
788.89	26017.78
789.223	25921.06
789.556	25705.24
789.888	25705.69
790.221	25545.47
790.554	25283.33
790.887	25273.39
791.219	25200.17
791.552	25141.87
791.884	25105.94
792.217	25015.09
792.549	24814.19
792.882	24684.25
793.214	24529.23
793.546	24631.37
793.879	24481.55
794.211	24371.04
794.543	24523.13
794.875	24261.21
795.207	24305.73
795.539	24115.68
795.871	24073.19
796.203	23965.4
796.535	23876.36
796.867	23839.08
797.198	23829.13
797.53	23764.28
797.862	23479.31
798.193	23544.4
798.525	23446.54
798.856	23435.25
799.188	23170.17
799.519	23073
799.85	22968.37
800.182	22991.87
800.513	23017.18
800.844	22881.81
801.175	22955.03
801.506	22894.24
801.837	22691.99
802.168	22637.3
802.499	22538.32
802.83	22557.3
803.161	22349.17
803.491	22582.39
803.822	22460.58
804.153	22235.28
804.483	22018.11
804.814	21910.77
805.145	22075.73
805.475	21960.93
805.805	21933.82
806.136	21892.46
806.466	21859.24
806.796	21758.68
807.126	21598.91
807.457	21464.9
807.787	21572.02
808.117	21481.17
808.447	21365.47
808.777	21270.78
809.107	21261.74
809.436	21184.46
809.766	21230.78
810.096	21073.73
810.426	21033.73
810.755	20979.49
811.085	20821.98
811.414	20883.45
811.744	20721.42
812.073	20731.36
812.403	20652.04
812.732	20583.12
813.061	20480.29
813.39	20498.15
813.719	20441.43
814.049	20524.81
814.378	20281.2
814.707	20343.12
815.036	20223.58
815.365	20075.11
815.693	20048.67
816.022	19927.77
816.351	19949.46
816.68	19833.31
817.008	19895.23
817.337	19697.94
817.665	19734.78
817.994	19780.2
818.322	19753.53
818.651	19559.42
818.979	19537.04
819.307	19698.17
819.636	19593.99
819.964	19386.99
820.292	19421.57
820.62	19549.02
820.948	19377.27
821.276	19533.65
821.604	19417.27
821.932	19434.22
822.259	19337.95
822.587	19311.06
822.915	19377.27
823.243	19299.08
823.57	19246.88
823.898	19343.38
824.225	19254.11
824.553	19189.26
824.88	19313.77
825.207	19313.55
825.535	19331.4
825.862	19289.82
826.189	19221.12
826.516	19281.46
826.843	19373.21
827.17	19285.75
827.497	19255.47
827.824	19263.38
828.151	19323.49
828.478	19315.13
828.805	19294.11
829.131	19228.8
829.458	19138.86
829.785	19129.37
830.111	19201.23
830.438	19306.09
830.764	19244.62
831.09	19215.7
831.417	18993.55
831.743	19180.67
832.069	19249.82
832.395	18999.43
832.722	19084.85
833.048	19084.63
833.374	19082.14
833.7	18964.18
834.026	18980.9
834.351	19020.9
834.677	19012.99
835.003	19040.78
835.329	18908.58
835.654	18970.28
835.98	18863.16
836.306	18879.66
836.631	18727.12
836.956	18815.48
837.282	18781.36
837.607	18727.57
837.932	18655.71
838.258	18649.83
838.583	18609.38
838.908	18499.1
839.233	18528.03
839.558	18588.82
839.883	18457.3
840.208	18424.53
840.533	18489.39
840.858	18490.29
841.182	18376.17
841.507	18319.22
841.832	18202.84
842.156	18287.13
842.481	18253.69
842.805	18143.41
843.13	18117.42
843.454	18074.93
843.778	18005.33
844.103	18026.8
844.427	17945.9
844.751	17872.45
845.075	17895.28
845.399	17782.06
845.723	17738.9
846.047	17721.72
846.371	17583.42
846.695	17631.78
847.019	17487.15
847.343	17340.04
847.666	17252.81
847.99	17174.62
848.313	17096.43
848.637	17063.66
848.96	17084.23
849.284	17016.43
849.607	16908.41
849.931	16809.2
850.254	16757.68
850.577	16650.11
850.9	16472.94
851.223	16542.55
851.546	16373.96
851.869	16264.36
852.192	16389.55
852.515	16315.66
852.838	16152.5
853.161	16202.44
853.483	16121.31
853.806	16043.8
854.129	15996.8
854.451	15992.05
854.774	15870.92
855.096	15837.48
855.419	15883.35
855.741	15758.39
856.063	15632.96
856.385	15622.57
856.708	15639.52
857.03	15498.96
857.352	15445.17
857.674	15496.7
857.996	15397.04
858.318	15328.34
858.64	15326.53
858.961	15304.16
859.283	15224.61
859.605	15058.52
859.926	15123.37
860.248	15099.19
860.57	15191.39
860.891	15063.71
861.212	14866.88
861.534	14877.73
861.855	14865.3
862.176	14954.34
862.498	14966.54
862.819	14895.81
863.14	14778.52
863.461	14747.56
863.782	14641.8
864.103	14731.07
864.424	14651.07
864.745	14643.16
865.065	14573.33
865.386	14547.12
865.707	14474.35
866.027	14563.84
866.348	14500.11
866.668	14470.96
866.989	14506.21
867.309	14369.04
867.63	14384.64
867.95	14283.4
868.27	14269.84
868.59	14298.31
868.91	14272.1
869.23	14302.15
869.55	14069.39
869.87	14282.72
870.19	14235.94
870.51	14197.75
870.83	14221.93
871.15	14026.23
871.469	14142.61
871.789	14123.85
872.109	14013.57
872.428	13987.81
872.748	14071.2
873.067	13959.79
873.386	14052.89
873.706	13964.53
874.025	13923.86
874.344	13932.22
874.663	13897.42
874.982	13840.47
875.301	13773.8
875.62	13791.66
875.939	13791.21
876.258	13723.18
876.577	13651.32
876.896	13678.44
877.214	13580.82
877.533	13662.85
877.852	13580.36
878.17	13684.54
878.489	13636.18
878.807	13566.13
879.125	13511.44
879.444	13464.66
879.762	13409.97
880.08	13552.57
880.398	13400.26
880.716	13485.22
881.034	13304.66
881.352	13340.14
881.67	13300.14
881.988	13321.39
882.306	13300.6
882.624	13146.7
882.941	13187.83
883.259	13202.75
883.577	13116.19
883.894	13168.62
884.212	13061.28
884.529	13011.34
884.846	13108.74
885.164	13016.31
885.481	12893.6
885.798	12942.64
886.115	12921.62
886.432	12877.1
886.75	12850.89
887.067	12780.16
887.383	12760.05
887.7	12735.19
888.017	12648.86
888.334	12672.14
888.651	12668.3
888.967	12623.33
889.284	12666.04
889.6	12488.87
889.917	12402.54
890.233	12514.18
890.55	12394.41
890.866	12475.31
891.182	12325.93
891.498	12332.71
891.815	12265.14
892.131	12231.25
892.447	12177.91
892.763	12188.76
893.079	12065.83
893.395	12060.4
893.71	12091.81
894.026	12010.91
894.342	11960.29
894.657	11918.71
894.973	11923.01
895.289	11850.69
895.604	11826.96
895.92	11822.67
896.235	11704.71
896.55	11764.59
896.865	11708.77
897.181	11638.95
897.496	11633.97
897.811	11538.61
898.126	11446.63
898.441	11451.15
898.756	11444.6
899.071	11392.85
899.386	11424.94
899.7	11310.37
900.015	11239.41
900.33	11233.53
900.644	11152.4
900.959	11160.09
901.273	11148.79
901.588	11082.12
901.902	11003.71
902.216	11001.45
902.531	10928.46
902.845	10874.67
903.159	10874.22
903.473	10823.15
903.787	10720.1
904.101	10710.83
904.415	10762.13
904.729	10708.57
905.042	10533.21
905.356	10605.53
905.67	10495.47
905.984	10532.53
906.297	10491.86
906.611	10410.5
906.924	10383.16
907.237	10387.68
907.551	10323.5
907.864	10220
908.177	10224.52
908.491	10204.63
908.804	10094.58
909.117	10077.4
909.43	10010.51
909.743	10036.05
910.056	9940.68
910.368	9950.4
910.681	9871.31
910.994	9784.76
911.307	9763.29
911.619	9671.31
911.932	9714.93
912.244	9630.64
912.557	9641.48
912.869	9546.12
913.181	9533.46
913.494	9520.58
913.806	9449.4
914.118	9486.01
914.43	9413.24
914.742	9357.88
915.054	9272.45
915.366	9336.63
915.678	9271.78
915.99	9214.83
916.302	9144.32
916.613	9142.06
916.925	9110.42
917.236	9098.45
917.548	9015.06
917.859	8983.2
918.171	8945.68
918.482	8862.75
918.794	8847.38
919.105	8816.65
919.416	8706.14
919.727	8764.22
920.038	8714.28
920.349	8679.7
920.66	8636.09
920.971	8690.77
921.282	8591.57
921.593	8507.95
921.903	8445.13
922.214	8389.54
922.525	8438.8
922.835	8357.45
923.146	8346.15
923.456	8342.76
923.767	8195.87
924.077	8249.88
924.387	8183.67
924.697	8190.67
925.008	8116.78
925.318	8064.35
925.628	8091.24
925.938	8030.23
926.248	7911.81
926.558	7905.71
926.867	7945.71
927.177	7889.21
927.487	7830.91
927.796	7765.6
928.106	7752.95
928.416	7740.52
928.725	7725.15
929.034	7611.03
929.344	7642.67
929.653	7598.37
929.962	7569.45
930.271	7538.94
930.581	7524.93
930.89	7419.4
931.199	7421.66
931.508	7367.65
931.817	7365.84
932.125	7408.1
932.434	7282.45
932.743	7333.75
933.051	7184.6
933.36	7203.13
933.669	7176.24
933.977	7125.17
934.286	7130.82
934.594	7131.72
934.902	7008.33
935.21	6959.75
935.519	6979.86
935.827	6950.26
936.135	6890.37
936.443	6891.27
936.751	6866.64
937.059	6804.5
937.367	6784.61
937.674	6773.99
937.982	6696.93
938.29	6723.82
938.597	6674.33
938.905	6551.62
939.213	6558.63
939.52	6566.08
939.827	6592.98
940.135	6537.84
940.442	6469.14
940.749	6437.05
941.056	6470.72
941.363	6377.39
941.67	6369.25
941.977	6368.8
942.284	6286.32
942.591	6297.39
942.898	6244.06
943.205	6223.49
943.511	6173.78
943.818	6147.11
944.125	6118.19
944.431	6105.08
944.738	6084.74
945.044	6077.28
945.35	6057.4
945.657	6037.06
945.963	6017.62
946.269	5935.82
946.575	5998.64
946.881	5905.31
947.187	5879.77
947.493	5856.05
947.799	5848.59
948.105	5806.33
948.41	5757.07
948.716	5760.46
949.022	5735.6
949.327	5689.72
949.633	5643.17
949.938	5646.79
950.244	5672.32
950.549	5582.38
950.854	5572.66
951.16	5564.53
951.465	5503.97
951.77	5465.32
952.075	5496.51
952.38	5442.72
952.685	5446.11
952.99	5386
953.294	5390.07
953.599	5368.15
953.904	5348.49
954.209	5322.05
954.513	5261.94
954.818	5293.12
955.122	5204.76
955.426	5264.42
955.731	5194.6
956.035	5156.86
956.339	5150.3
956.643	5149.4
956.948	5076.18
957.252	5064.88
957.556	5064.2
957.86	5047.25
958.163	5012.45
958.467	4938.78
958.771	4950.99
959.075	4957.31
959.378	4930.65
959.682	4912.12
959.985	4920.25
960.289	4845.23
960.592	4819.69
960.896	4812.68
961.199	4764.55
961.502	4814.94
961.805	4754.83
962.108	4724.1
962.411	4670.99
962.714	4711.22
963.017	4685.23
963.32	4662.41
963.623	4607.94
963.926	4605.91
964.228	4552.35
964.531	4565.23
964.833	4565.69
965.136	4485.91
965.438	4504.67
965.741	4459.93
966.043	4468.96
966.345	4428.29
966.648	4390.77
966.95	4416.54
967.252	4409.08
967.554	4332.47
967.856	4362.53
968.158	4293.83
968.46	4295.86
968.761	4278.91
969.063	4309.65
969.365	4246.37
969.666	4237.11
969.968	4218.58
970.269	4185.36
970.571	4162.76
970.872	4151.01
971.174	4125.24
971.475	4117.79
971.776	4107.39
972.077	4098.8
972.378	4089.77
972.679	4032.59
972.98	4024.68
973.281	4045.02
973.582	3939.26
973.883	3994.63
974.183	3937.45
974.484	3941.29
974.785	3904.91
975.085	3882.77
975.386	3929.77
975.686	3847.06
975.986	3878.92
976.287	3818.36
976.587	3785.82
976.887	3750.34
977.187	3783.11
977.487	3737.01
977.787	3730.45
978.087	3760.06
978.387	3682.77
978.687	3682.77
978.987	3643.68
979.286	3609.55
979.586	3666.27
979.885	3607.97
980.185	3628.08
980.484	3575.2
980.784	3575.88
981.083	3565.71
981.382	3579.27
981.682	3562.77
981.981	3487.52
982.28	3474.64
982.579	3464.92
982.878	3465.83
983.177	3440.06
983.475	3411.59
983.774	3406.39
984.073	3390.57
984.372	3349.9
984.67	3336.79
984.969	3351.71
985.267	3346.06
985.566	3305.38
985.864	3308.77
986.162	3277.36
986.461	3269.45
986.759	3247.3
987.057	3253.86
987.355	3186.74
987.653	3200.3
987.951	3226.51
988.249	3205.72
988.547	3201.2
988.844	3155.33
989.142	3150.81
989.44	3137.93
989.737	3109.68
990.035	3064.71
990.332	3092.96
990.63	3068.1
990.927	3038.72
991.224	3051.15
991.521	3056.12
991.819	3019.29
992.116	2999.85
992.413	2975.67
992.71	2932.73
993.006	2966.41
993.303	2951.72
993.6	2926.41
993.897	2922.79
994.193	2887.09
994.49	2862.9
994.787	2855.45
995.083	2845.05
995.379	2830.36
995.676	2833.53
995.972	2810.25
996.268	2770.03
996.565	2756.24
996.861	2747.2
997.157	2720.76
997.453	2683.02
997.749	2748.56
998.044	2679.86
998.34	2670.59
998.636	2664.04
998.932	2652.06
999.227	2631.5
999.523	2634.44
999.818	2587.88
1000.114	2590.6
1000.409	2593.53
1000.704	2533.2
1001	2523.03
1001.295	2537.26
1001.59	2526.42
1001.885	2544.95
1002.18	2500.88
1002.475	2488.45
1002.77	2496.81
1003.065	2430.15
1003.359	2454.33
1003.654	2420.66
1003.949	2410.26
1004.243	2415.23
1004.538	2382.92
1004.832	2377.04
1005.127	2351.51
1005.421	2328.23
1005.715	2330.94
1006.009	2326.87
1006.304	2300.43
1006.598	2265.86
1006.892	2262.24
1007.186	2249.36
1007.48	2245.52
1007.773	2245.07
1008.067	2231.28
1008.361	2196.26
1008.655	2191.74
1008.948	2188.35
1009.242	2176.37
1009.535	2160.55
1009.829	2162.36
1010.122	2167.33
1010.415	2152.19
1010.708	2088.69
1011.001	2099.54
1011.295	2072.42
1011.588	2067.67
1011.881	2086.2
1012.173	2036.03
1012.466	2051.17
1012.759	2029.48
1013.052	2013.44
1013.344	2007.11
1013.637	2005.3
1013.93	1979.54
1014.222	1984.96
1014.514	1953.78
1014.807	1964.17
1015.099	1926.66
1015.391	1908.58
1015.683	1909.94
1015.976	1861.58
1016.268	1878.52
1016.56	1857.96
1016.851	1881.69
1017.143	1850.73
1017.435	1850.73
1017.727	1810.28
1018.018	1787.68
1018.31	1798.07
1018.602	1794.91
1018.893	1802.59
1019.185	1783.61
1019.476	1725.99
1019.767	1746.1
1020.058	1722.6
1020.35	1733.22
1020.641	1695.7
1020.932	1678.53
1021.223	1684.86
1021.514	1664.52
1021.804	1625.2
1022.095	1630.62
1022.386	1608.93
1022.677	1617.29
1022.967	1615.25
1023.258	1595.14
1023.548	1586.55
1023.839	1564.63
1024.129	1570.96
1024.419	1565.31
1024.709	1531.41
1025	1536.16
1025.29	1544.3
1025.58	1514.01
1025.87	1504.3
1026.16	1476.95
1026.449	1487.35
1026.739	1445.32
1027.029	1460.91
1027.319	1438.76
1027.608	1439.89
1027.898	1433.56
1028.187	1413.23
1028.477	1418.65
1028.766	1457.97
1029.055	1372.77
1029.344	1375.26
1029.634	1413.9
1029.923	1377.07
1030.212	1337.3
1030.501	1350.18
1030.79	1343.62
1031.078	1305.88
1031.367	1311.99
1031.656	1309.95
1031.945	1310.4
1032.233	1274.7
1032.522	1288.03
1032.81	1279.9
1033.099	1262.95
1033.387	1260.24
1033.675	1250.74
1033.963	1261.37
1034.251	1248.94
1034.54	1215.49
1034.828	1221.14
1035.116	1201.25
1035.403	1204.19
1035.691	1218.88
1035.979	1182.05
1036.267	1189.73
1036.554	1142.95
1036.842	1152.44
1037.129	1151.09
1037.417	1140.01
1037.704	1116.51
1037.992	1134.14
1038.279	1123.06
1038.566	1108.83
1038.853	1108.83
1039.14	1108.83
