Data from White_reflection_standard_FLMS001491_027.txt Node
Date: Tue Feb 07 10:32:00 GMT 2017
User: dcchb
Spectrometer: FLMS00149
Trigger mode: 0
Integration Time (sec): 2.000000E-2
Scans to average: 10
Electric dark correction enabled: true
Nonlinearity correction enabled: false
Boxcar width: 0
XAxis mode: Wavelengths
Number of Pixels in Spectrum: 2048
>>>>>Begin Spectral Data<<<<<
341.393	-25.44
341.776	-25.44
342.16	-25.44
342.543	-68.15
342.927	-66.79
343.31	-43.06
343.693	-84.19
344.077	-41.71
344.46	-66.57
344.843	-61.14
345.226	-24.76
345.61	-43.06
345.993	-11.88
346.376	2.58
346.759	15.47
347.142	21.57
347.525	26.54
347.908	53.43
348.291	64.5
348.674	88.01
349.057	104.28
349.44	122.81
349.823	137.95
350.206	146.99
350.588	233.09
350.971	256.36
351.354	262.46
351.737	257.27
352.119	274.44
352.502	299.75
352.884	319.41
353.267	298.17
353.65	344.95
354.032	341.56
354.414	355.12
354.797	362.12
355.179	363.93
355.562	356.02
355.944	373.65
356.326	377.72
356.709	404.38
357.091	374.55
357.473	405.06
357.855	387.21
358.238	396.47
358.62	397.83
359.002	412.52
359.384	400.31
359.766	412.29
360.148	418.17
360.53	389.92
360.912	418.62
361.294	402.8
361.676	410.94
362.057	396.25
362.439	401.67
362.821	403.48
363.203	402.12
363.584	404.61
363.966	399.86
364.348	420.88
364.729	401.9
365.111	399.86
365.493	396.25
365.874	388.34
366.256	399.41
366.637	406.42
367.019	393.08
367.4	403.93
367.781	414.55
368.163	407.55
368.544	428.11
368.925	407.09
369.306	412.97
369.688	435.12
370.069	400.99
370.45	419.97
370.831	423.59
371.212	413.65
371.593	413.42
371.974	457.04
372.355	442.35
372.736	453.42
373.117	447.32
373.498	440.09
373.879	446.19
374.26	441.44
374.641	441.44
375.021	447.54
375.402	452.06
375.783	471.72
376.163	507.88
376.544	502.01
376.925	498.16
377.305	476.02
377.686	489.35
378.066	493.65
378.447	501.33
378.827	511.72
379.208	513.08
379.588	510.59
379.968	508.11
380.349	514.21
380.729	504.04
381.109	531.16
381.489	558.28
381.87	566.19
382.25	558.5
382.63	541.33
383.01	546.75
383.39	558.05
383.77	579.97
384.15	581.55
384.53	586.75
384.91	579.97
385.29	593.08
385.67	603.47
386.049	601.89
386.429	615.45
386.809	614.55
387.189	622.91
387.568	640.31
387.948	641.89
388.328	639.4
388.707	629.23
389.087	676.24
389.466	649.8
389.846	668.56
390.225	683.02
390.605	696.13
390.984	702.91
391.363	713.07
391.743	703.13
392.122	692.51
392.501	720.31
392.881	700.19
393.26	725.28
393.639	758.05
394.018	742
394.397	763.02
394.776	808.21
395.155	777.48
395.534	780.19
395.913	810.25
396.292	793.75
396.671	811.83
397.05	842.11
397.429	824.26
397.808	854.54
398.186	847.31
398.565	869
398.944	858.38
399.323	857.7
399.701	857.03
400.08	890.92
400.458	902.45
400.837	900.64
401.215	877.82
401.594	935.22
401.972	925.72
402.351	942
402.729	956.01
403.107	950.81
403.486	969.11
403.864	988.32
404.242	1005.27
404.62	1001.43
404.999	1001.43
405.377	1042.33
405.755	1036.91
406.133	1060.41
406.511	1076.68
406.889	1085.95
407.267	1107.41
407.645	1159.16
408.023	1132.27
408.401	1156
408.779	1161.88
409.156	1190.58
409.534	1192.16
409.912	1214.53
410.29	1239.39
410.667	1222.44
411.045	1255.89
411.422	1288.2
411.8	1301.99
412.178	1337.92
412.555	1346.05
412.933	1337.92
413.31	1352.61
413.687	1406.39
414.065	1426.95
414.442	1413.4
414.819	1441.19
415.197	1440.06
415.574	1466.05
415.951	1463.56
416.328	1528.65
416.705	1505.14
417.082	1528.42
417.46	1546.5
417.837	1575.88
418.214	1581.07
418.591	1604.8
418.967	1605.71
419.344	1628.98
419.721	1673.5
420.098	1646.84
420.475	1706.72
420.852	1695.65
421.228	1704.46
421.605	1716.21
421.982	1754.18
422.358	1769.32
422.735	1791.69
423.111	1795.53
423.488	1825.36
423.864	1849.54
424.241	1898.81
424.617	1893.61
424.994	1906.94
425.37	1934.06
425.746	1948.97
426.123	1990.56
426.499	2015.87
426.875	2017.9
427.251	2072.13
427.627	2071.23
428.003	2099.25
428.379	2155.3
428.756	2169.31
429.132	2204.11
429.507	2206.59
429.883	2250.21
430.259	2334.05
430.635	2338.57
431.011	2309.42
431.387	2393.71
431.763	2447.27
432.138	2458.57
432.514	2499.02
432.89	2500.6
433.265	2560.71
433.641	2591.44
434.016	2641.39
434.392	2694.04
434.767	2698.56
435.143	2683.42
435.518	2751.66
435.894	2796.41
436.269	2821.49
436.644	2871.21
437.02	2851.32
437.395	2905.11
437.77	2950.08
438.145	3010.42
438.52	3008.83
438.895	3059.68
439.271	3055.61
439.646	3076.4
440.021	3135.38
440.395	3157.76
440.77	3163.63
441.145	3199.34
441.52	3250.41
441.895	3238.88
442.27	3315.27
442.645	3279.79
443.019	3357.98
443.394	3357.07
443.769	3426.45
444.143	3397.52
444.518	3486.11
444.892	3460.8
445.267	3481.59
445.641	3536.05
446.016	3577.41
446.39	3549.16
446.764	3621.25
447.139	3577.86
447.513	3683.84
447.887	3650.62
448.262	3703.5
448.636	3740.79
449.01	3761.13
449.384	3791.64
449.758	3873.67
450.132	3901.01
450.506	3888.36
450.88	3935.59
451.254	3951.63
451.628	4003.61
452.002	4065.53
452.376	4094
452.75	4128.8
453.123	4173.77
453.497	4230.27
453.871	4249.93
454.244	4353.2
454.618	4410.83
454.992	4432.98
455.365	4442.24
455.739	4622.12
456.112	4621.67
456.486	4628.45
456.859	4681.33
457.232	4845.17
457.606	4762.69
457.979	4896.47
458.352	5004.26
458.725	5064.15
459.099	5087.65
459.472	5183.01
459.845	5180.75
460.218	5288.1
460.591	5379.17
460.964	5371.94
461.337	5483.8
461.71	5529.45
462.083	5700.06
462.456	5637.24
462.829	5664.13
463.201	5805.82
463.574	5750.23
463.947	5901.41
464.32	6064.57
464.692	6109.54
465.065	6106.83
465.438	6204.68
465.81	6284.45
466.183	6349.08
466.555	6500.04
466.928	6589.53
467.3	6522.64
467.672	6673.82
468.045	6870.65
468.417	6832.91
468.789	6914.95
469.161	7059.57
469.534	7166.69
469.906	7318.32
470.278	7383.63
470.65	7466.57
471.022	7586.11
471.394	7741.14
471.766	7837.86
472.138	7933.68
472.51	8053.67
472.882	8232.42
473.253	8342.93
473.625	8504.51
473.997	8694.33
474.369	8650.49
474.74	8804.84
475.112	8960.54
475.484	9117.37
475.855	9226.07
476.227	9304.94
476.598	9658.15
476.97	9656.79
477.341	9932.72
477.713	10088.87
478.084	10102.88
478.455	10365.25
478.827	10581.06
479.198	10780.83
479.569	10812.24
479.94	11130.2
480.311	11293.14
480.682	11437.09
481.053	11758.21
481.424	11941.93
481.795	12004.75
482.166	12216.5
482.537	12368.59
482.908	12622.59
483.279	12735.36
483.65	13044.05
484.021	13275.91
484.391	13405.17
484.762	13554.09
485.133	13651.94
485.503	13980.07
485.874	14175.77
486.244	14335.77
486.615	14621.41
486.985	14780.05
487.356	15149.31
487.726	15236.99
488.097	15462.07
488.467	15550.88
488.837	15952.67
489.207	16010.98
489.578	16306.11
489.948	16464.07
490.318	16715.82
490.688	16793.56
491.058	17051.63
491.428	17236.03
491.798	17459.53
492.168	17723.47
492.538	17845.28
492.908	17999.17
493.278	18273.74
493.648	18355.55
494.017	18594.41
494.387	18828.3
494.757	18876.21
495.126	19162.76
495.496	19191.23
495.866	19386.93
496.235	19595.74
496.605	19760.94
496.974	19905.56
497.344	20139.68
497.713	20246.12
498.082	20321.82
498.452	20491.31
498.821	20607.92
499.19	20711.64
499.559	20971.52
499.928	21079.32
500.298	21262.36
500.667	21508.46
501.036	21439.31
501.405	21729.7
501.774	21736.25
502.143	21878.62
502.512	22166.97
502.88	22377.59
503.249	22349.34
503.618	22487.42
503.987	22665.94
504.356	22756.34
504.724	23038.14
505.093	23053.5
505.462	23187.29
505.83	23366.72
506.199	23626.82
506.567	23890.32
506.936	23878.34
507.304	24109.75
507.672	24276.52
508.041	24331.44
508.409	24685.55
508.777	24809.16
509.145	24928.71
509.514	24971.87
509.882	25303.61
510.25	25276.95
510.618	25644.17
510.986	25673.77
511.354	26031.96
511.722	26260.43
512.09	26447.09
512.458	26322.12
512.826	26741.54
513.193	26856.34
513.561	26935.89
513.929	27134.53
514.297	27481.41
514.664	27622.88
515.032	27671.46
515.4	27991.68
515.767	28054.05
516.135	28225.35
516.502	28164.1
516.869	28661.49
517.237	28873.92
517.604	28736.97
517.972	29148.48
518.339	29307.8
518.706	29483.62
519.073	29634.8
519.44	29905.75
519.808	30177.84
520.175	30248.57
520.542	30648.56
520.909	30825.96
521.276	30749.12
521.643	31351.36
522.009	31536.9
522.376	31631.13
522.743	31959.71
523.11	32300.94
523.477	32352.02
523.843	32707.26
524.21	32904.54
524.577	33246.68
524.943	33367.13
525.31	33543.85
525.676	33962.14
526.043	34189.48
526.409	34337.5
526.776	34642.58
527.142	34704.95
527.508	35023.58
527.874	35180.87
528.241	35380.19
528.607	35508.77
528.973	36013.84
529.339	36040.73
529.705	36415.64
530.071	36666.48
530.437	36821.73
530.803	36914.16
531.169	37242.96
531.535	37248.16
531.901	37427.14
532.267	37519.56
532.632	37830.97
532.998	38058.99
533.364	38188.93
533.73	38353.21
534.095	38570.84
534.461	38669.59
534.826	38938.74
535.192	39132.18
535.557	39346.18
535.923	39409.46
536.288	39539.62
536.653	39863.01
537.019	39619.17
537.384	39927.18
537.749	40139.16
538.114	40172.38
538.479	40412.82
538.845	40513.16
539.21	40531.46
539.575	40783.21
539.94	40857.1
540.305	41170.32
540.67	41019.13
541.034	41352.01
541.399	41402.63
541.764	41501.38
542.129	41759.45
542.494	42001.71
542.858	42064.53
543.223	41998.77
543.587	42370.74
543.952	42274.69
544.316	42436.95
544.681	42427.01
545.045	42716.94
545.41	43062.47
545.774	42942.02
546.138	43046.42
546.503	43223.37
546.867	43347.21
547.231	43734.09
547.595	43647.31
547.959	43835.1
548.324	43916.23
548.688	43946.74
549.052	44331.36
549.416	44292.49
549.779	44410.91
550.143	44523.22
550.507	44939.03
550.871	44910.78
551.235	44878.01
551.599	45298.34
551.962	45418.34
552.326	45473.71
552.689	45758.9
553.053	45593.02
553.417	45768.61
553.78	46226.68
554.143	46211.09
554.507	46322.72
554.87	46442.72
555.234	46872.54
555.597	46720
555.96	46905.08
556.323	47082.93
556.686	47082.7
557.05	47507.78
557.413	47471.85
557.776	47739.18
558.139	47922.91
558.502	48223.01
558.865	48206.97
559.228	48456
559.59	48473.63
559.953	48639.5
560.316	48955.87
560.679	48973.5
561.041	49179.37
561.404	49419.36
561.767	49669.53
562.129	49512.02
562.492	49911.33
562.854	49893.7
563.217	49981.61
563.579	50202.85
563.941	50319.91
564.304	50562.84
564.666	50805.54
565.028	50751.31
565.39	50946.1
565.753	51127.34
566.115	51260.22
566.477	51371.63
566.839	51512.19
567.201	51722.58
567.563	51780.88
567.925	51917.6
568.287	52000.31
568.648	51953.31
569.01	52236.47
569.372	52364.82
569.734	52328.89
570.095	52657.47
570.457	52721.42
570.819	52770.91
571.18	52840.52
571.542	52994.64
571.903	53089.55
572.265	53109.89
572.626	53257.91
572.987	53303.56
573.349	53387.4
573.71	53433.95
574.071	53604.34
574.432	53655.64
574.794	53863.54
575.155	53848.4
575.516	53832.36
575.877	53983.99
576.238	53962.07
576.599	54109.41
576.96	54047.04
577.32	54178.56
577.681	54302.63
578.042	54309.18
578.403	54332.46
578.763	54357.31
579.124	54390.31
579.485	54475.05
579.845	54545.78
580.206	54513.24
580.566	54512.56
580.927	54514.82
581.287	54687.25
581.648	54535.61
582.008	54693.8
582.368	54725.44
582.728	54748.04
583.089	54736.06
583.449	54699.45
583.809	54710.07
584.169	54746.68
584.529	54729.28
584.889	54905.32
585.249	54825.1
585.609	54691.99
585.969	54820.13
586.329	54720.47
586.688	54788.04
587.048	54819.45
587.408	54699.23
587.768	54761.82
588.127	54840.01
588.487	54699.9
588.846	54840.24
589.206	54737.42
589.565	54784.42
589.925	54937.64
590.284	54834.36
590.643	54868.49
591.003	54940.58
591.362	54958.2
591.721	54921.82
592.08	54907.58
592.44	54980.57
592.799	54929.05
593.158	54945.55
593.517	54923.4
593.876	55026.45
594.235	54903.97
594.593	54974.02
594.952	55072.55
595.311	54924.98
595.67	55067.8
596.029	55114.58
596.387	55200.91
596.746	55221.25
597.104	55183.05
597.463	55080.91
597.822	55244.75
598.18	55026.45
598.538	55139.21
598.897	55284.07
599.255	55024.41
599.613	55460.11
599.972	55306.44
600.33	55389.83
600.688	55253.56
601.046	55381.47
601.404	55481.13
601.762	55415.59
602.12	55470.05
602.478	55456.95
602.836	55508.47
603.194	55359.55
603.552	55403.84
603.91	55392.77
604.268	55584.17
604.625	55446.78
604.983	55530.84
605.341	55422.82
605.698	55616.49
606.056	55642.48
606.413	55604.74
606.771	55716.83
607.128	55783.49
607.485	55638.64
607.843	55741.01
608.2	55731.97
608.557	55896.71
608.914	55855.13
609.272	55892.19
609.629	55954.33
609.986	56039.98
610.343	55887.89
610.7	56114.78
611.057	56093.99
611.414	56022.13
611.771	56102.35
612.127	56149.81
612.484	56162.92
612.841	56230.03
613.198	56110.49
613.554	56121.11
613.911	56222.12
614.267	56286.08
614.624	56203.14
614.98	56311.61
615.337	56397.94
615.693	56318.62
616.05	56306.19
616.406	56490.59
616.762	56378.28
617.118	56400.88
617.475	56384.15
617.831	56426.86
618.187	56474.55
618.543	56470.7
618.899	56636.35
619.255	56563.81
619.611	56540.53
619.967	56567.65
620.323	56630.02
620.678	56583.02
621.034	56527.65
621.39	56496.69
621.746	56522.45
622.101	56827.98
622.457	56539.63
622.812	56680.87
623.168	56636.8
623.523	56686.07
623.879	56657.82
624.234	56567.88
624.589	56648.78
624.945	56695.11
625.3	56616.01
625.655	56627.31
626.01	56635.67
626.365	56668.44
626.72	56532.85
627.075	56600.19
627.43	56548.67
627.785	56545.28
628.14	56634.54
628.495	56698.04
628.85	56593.87
629.205	56481.1
629.559	56659.17
629.914	56461.44
630.269	56507.31
630.623	56443.81
630.978	56371.27
631.332	56491.95
631.687	56501.44
632.041	56303.25
632.396	56370.14
632.75	56303.25
633.104	56371.95
633.459	56164.05
633.813	56208.79
634.167	56164.27
634.521	56167.44
634.875	56175.8
635.229	56078.85
635.583	56002.69
635.937	55972.19
636.291	56014.9
636.645	55904.17
636.999	55887.44
637.352	55918.85
637.706	55770.61
638.06	55872.3
638.413	55698.52
638.767	55741.46
639.121	55797.73
639.474	55541.69
639.828	55642.03
640.181	55637.51
640.534	55655.58
640.888	55545.08
641.241	55423.05
641.594	55517.51
641.947	55536.72
642.301	55510.5
642.654	55493.55
643.007	55371.52
643.36	55422.37
643.713	55325.2
644.066	55387.57
644.419	55202.04
644.771	54984.87
645.124	54712.33
645.477	54621.04
645.83	54515.73
646.182	54391.44
646.535	54334.04
646.888	54350.99
647.24	54226.24
647.593	54328.39
647.945	54258.56
648.298	54096.53
648.65	53973.82
649.002	53961.62
649.355	54100.37
649.707	54014.05
650.059	54114.83
650.411	54430.08
650.763	54430.76
651.115	54807.47
651.467	54625.56
651.819	54570.42
652.171	54591.21
652.523	54534.48
652.875	54532.68
653.227	54346.69
653.578	54524.09
653.93	54421.94
654.282	54367.71
654.633	54229.63
654.985	54297.88
655.337	54317.77
655.688	54302.4
656.039	54299.46
656.391	54066.47
656.742	54164.32
657.094	54262.17
657.445	54231.67
657.796	54116.42
658.147	54045.68
658.498	54100.6
658.849	54166.81
659.2	54094.5
659.551	53960.94
659.902	53989.64
660.253	54005.91
660.604	53974.72
660.955	53807.72
661.306	53951.9
661.656	53864.22
662.007	53965.69
662.358	53843.65
662.708	53831
663.059	53746.48
663.409	53625.58
663.76	53831.45
664.11	53867.38
664.461	53776.31
664.811	53850.43
665.161	53729.76
665.511	53575.41
665.862	53671.68
666.212	53725.01
666.562	53777.67
666.912	53664
667.262	53661.29
667.612	53653.15
667.962	53646.82
668.312	53606.37
668.662	53770.44
669.011	53598.24
669.361	53470.78
669.711	53409.32
670.06	53421.07
670.41	53404.8
670.76	53333.61
671.109	53528.63
671.459	53399.15
671.808	53337.45
672.157	53433.27
672.507	53198.47
672.856	53249.32
673.205	53225.37
673.554	53317.57
673.904	53138.59
674.253	53355.08
674.602	53254.52
674.951	52736.11
675.3	52583.58
675.649	53112.15
675.998	53059.04
676.346	53036.44
676.695	53108.31
677.044	52895.66
677.393	52936.33
677.741	52993.73
678.09	52835.09
678.438	52865.15
678.787	52873.06
679.135	52872.83
679.484	52582.22
679.832	52885.26
680.181	52521.43
680.529	52756.9
680.877	52540.86
681.225	52583.12
681.573	52710.8
681.922	52551.26
682.27	52327.31
682.618	52368.89
682.966	52238.05
683.314	52324.82
683.661	52267.65
684.009	52026.08
684.357	51962.12
684.705	51876.7
685.053	52024.49
685.4	51789.92
685.748	51774.33
686.095	51770.94
686.443	51683.49
686.79	51520.1
687.138	51601.68
687.485	51509.03
687.832	51413.44
688.18	51479.88
688.527	51329.14
688.874	51327.56
689.221	51202.59
689.568	51012.32
689.915	50977.52
690.262	50958.31
690.609	50793.57
690.956	50726.45
691.303	50678.31
691.65	50600.12
691.997	50521.26
692.344	50314.48
692.69	50262.73
693.037	50233.58
693.383	50020.48
693.73	50124.66
694.077	49797.66
694.423	49940.03
694.769	49769.19
695.116	49558.34
695.462	49495.07
695.808	49451.91
696.155	49523.09
696.501	49247.84
696.847	49245.81
697.193	48929.66
697.539	49118.36
697.885	48801.08
698.231	48647.63
698.577	48757.69
698.923	48594.08
699.269	48397.7
699.614	48300.07
699.96	48187.08
700.306	48232.5
700.651	47844.72
700.997	47887.2
701.342	47863.25
701.688	47791.38
702.033	47667.32
702.379	47553.2
702.724	47476.82
703.069	47646.3
703.415	47133.55
703.76	47140.33
704.105	47095.58
704.45	46972.65
704.795	46680.23
705.14	46645.2
705.485	46662.15
705.83	46489.05
706.175	46504.86
706.52	46365.21
706.865	46137.42
707.209	46195.95
707.554	45935.16
707.899	46167.47
708.243	45864.2
708.588	45796.41
708.932	45584.66
709.277	45575.17
709.621	45480.48
709.966	45213.15
710.31	45432.35
710.654	45037.56
710.998	44906.94
711.342	45023.1
711.687	44919.14
712.031	44680.73
712.375	44494.07
712.719	44573.39
713.063	44536.1
713.407	44657.23
713.75	44437.35
714.094	44340.4
714.438	44196.68
714.782	44183.8
715.125	43994.42
715.469	44108.77
715.812	43795.78
716.156	43746.07
716.499	43682.11
716.843	43850.25
717.186	43502.01
717.53	43612.74
717.873	43620.87
718.216	43469.46
718.559	43261.79
718.902	43076.03
719.246	43101.11
719.589	42959.87
719.932	42861.8
720.275	42786.54
720.617	42836.26
720.96	42611.63
721.303	42720.11
721.646	42492.77
721.989	42393.79
722.331	42518.53
722.674	42310.85
723.016	42353.79
723.359	42163.51
723.701	42220.01
724.044	41935.49
724.386	41724.65
724.729	41965.32
725.071	41739.57
725.413	41728.72
725.755	41770.98
726.097	41572.79
726.439	41423.64
726.782	41419.35
727.124	41554.03
727.465	41282.86
727.807	41243.53
728.149	41121.28
728.491	41006.48
728.833	41222.74
729.175	40883.77
729.516	41040.6
729.858	40783.89
730.199	40828.86
730.541	40707.28
730.882	40789.53
731.224	40694.85
731.565	40476.32
731.906	40599.48
732.248	40531.01
732.589	40291.47
732.93	40193.62
733.271	40081.53
733.612	40228.87
733.953	40209.89
734.294	40075.2
734.635	40002.66
734.976	39994.08
735.317	39903.46
735.658	39753.63
735.999	39680.41
736.339	39532.39
736.68	39704.82
737.021	39513.64
737.361	39299.18
737.702	39453.98
738.042	39359.52
738.383	39073.87
738.723	39319.74
739.063	39132.86
739.404	39277.26
739.744	39129.47
740.084	38880.21
740.424	39006.76
740.764	38776.48
741.104	38976.7
741.444	38720.21
741.784	38694.45
742.124	38711.4
742.464	38788.23
742.804	38524.51
743.143	38509.59
743.483	38274.57
743.823	38161.13
744.162	38218.98
744.502	38210.85
744.841	38081.58
745.181	38176.5
745.52	38042.71
745.86	38009.49
746.199	37936.05
746.538	37773.57
746.877	37844.75
747.216	37872.32
747.556	37705.55
747.895	37654.7
748.234	37533.35
748.573	37371.32
748.911	37477.31
749.25	37457.19
749.589	37142.85
749.928	37203.19
750.267	37125.22
750.605	37125
750.944	37023.31
751.283	36916.42
751.621	36933.59
751.96	36602.75
752.298	36656.99
752.636	36712.58
752.975	36622.19
753.313	36399.59
753.651	36593.26
753.989	36253.61
754.327	36320.05
754.666	36065.82
755.004	36041.64
755.342	35963.9
755.679	35871.47
756.017	35864.01
756.355	35788.08
756.693	35614.53
757.031	35586.96
757.368	35263.8
757.706	35360.53
758.044	35266.52
758.381	35189
758.719	35084.15
759.056	35105.62
759.394	34931.16
759.731	34761.44
760.068	34713.08
760.405	34483.94
760.743	34535.69
761.08	34599.64
761.417	34138.86
761.754	34223.15
762.091	34161.23
762.428	33917.63
762.765	33859.77
763.102	33916.27
763.438	33760.79
763.775	33455.26
764.112	33599.22
764.449	33610.74
764.785	33354.02
765.122	33232.45
765.458	33064.31
765.795	33076.74
766.131	33007.59
766.467	32780.03
766.804	32675.85
767.14	32446.93
767.476	32357.21
767.812	32438.57
768.148	32447.16
768.485	32171.68
768.821	31953.61
769.157	32001.52
769.492	31889.2
769.828	31745.25
770.164	31629.78
770.5	31567.4
770.836	31467.97
771.171	31254.64
771.507	31178.94
771.842	30981.66
772.178	30861.89
772.513	30880.64
772.849	30818.05
773.184	30655.11
773.519	30644.26
773.855	30458.73
774.19	30375.57
774.525	30183.26
774.86	30276.36
775.195	30076.37
775.53	30067.1
775.865	29783.27
776.2	29626.21
776.535	29354.58
776.87	29494.24
777.205	29222.16
777.539	29193
777.874	29174.7
778.209	28949.85
778.543	28905.78
778.878	28709.85
779.212	28719.57
779.547	28499.46
779.881	28570.42
780.215	28444.32
780.55	28434.61
780.884	28257.66
781.218	28129.3
781.552	28238.9
781.886	27987.84
782.22	27920.27
782.554	27760.5
782.888	27429.21
783.222	27431.02
783.556	27207.75
783.889	27270.79
784.223	27073.74
784.557	27044.13
784.89	27058.82
785.224	26776.12
785.557	26766.85
785.891	26667.42
786.224	26573.86
786.558	26593.75
786.891	26279.41
787.224	26170.71
787.557	26207.55
787.891	26107.44
788.224	26097.27
788.557	26042.13
788.89	25939.98
789.223	25929.59
789.556	25699.31
789.888	25640.1
790.221	25628.13
790.554	25385.19
790.887	25343.39
791.219	25240.11
791.552	25123.51
791.884	25040.57
792.217	25032.89
792.549	24879.44
792.882	24751.99
793.214	24598.1
793.546	24710.86
793.879	24519.45
794.211	24327.59
794.543	24486.01
794.875	24262.51
795.207	24397.65
795.539	24196.07
795.871	24127.15
796.203	23899.58
796.535	23775.97
796.867	23725.12
797.198	23673.6
797.53	23691.45
797.862	23499.37
798.193	23704.79
798.525	23359.48
798.856	23438.35
799.188	23239.94
799.519	23092.83
799.85	23020.28
800.182	23058.93
800.513	23148.64
800.844	22784.81
801.175	22844.24
801.506	22799.5
801.837	22621.88
802.168	22615.1
802.499	22599.5
802.83	22479.51
803.161	22353.86
803.491	22258.72
803.822	22376.91
804.153	22201.55
804.483	22078.39
804.814	21998.39
805.145	21989.13
805.475	21953.65
805.805	21806.98
806.136	21849.24
806.466	21813.31
806.796	21772.86
807.126	21592.07
807.457	21455.81
807.787	21508.69
808.117	21418.97
808.447	21453.77
808.777	21405.64
809.107	21388.01
809.436	21168.58
809.766	21202.71
810.096	21086.32
810.426	20994.58
810.755	20962.94
811.085	20948.93
811.414	20863.96
811.744	20703.96
812.073	20640.01
812.403	20670.06
812.732	20623.96
813.061	20636.84
813.39	20389.17
813.719	20315.5
814.049	20484.98
814.378	20251.09
814.707	20229.4
815.036	20347.13
815.365	20142.62
815.693	20053.81
816.022	19985.79
816.351	19972
816.68	19773.36
817.008	19847.94
817.337	19761.84
817.665	19819.46
817.994	19656.08
818.322	19719.58
818.651	19549.19
818.979	19546.93
819.307	19591
819.636	19551
819.964	19450.21
820.292	19426.25
820.62	19450.43
820.948	19308.52
821.276	19398.23
821.604	19428.29
821.932	19376.76
822.259	19371.11
822.587	19395.97
822.915	19357.78
823.243	19451.79
823.57	19282.76
823.898	19286.82
824.225	19198.01
824.553	19271.68
824.88	19273.49
825.207	19307.61
825.535	19291.8
825.862	19380.15
826.189	19145.36
826.516	19280.5
826.843	19295.64
827.17	19178.58
827.497	19248.86
827.824	19275.98
828.151	19275.52
828.478	19296.99
828.805	19368.86
829.131	19175.41
829.458	19196.2
829.785	19144
830.111	19155.53
830.438	19247.95
830.764	19120.95
831.09	19198.46
831.417	19118.24
831.743	19100.16
832.069	19163.89
832.395	19014.29
832.722	19165.24
833.048	19043.44
833.374	19089.99
833.7	18973.84
834.026	18967.96
834.351	19041.41
834.677	18989.2
835.003	18993.5
835.329	18933.84
835.654	18952.37
835.98	18804.12
836.306	18899.04
836.631	18709.44
836.956	18864.24
837.282	18806.61
837.607	18671.25
837.932	18622.66
838.258	18723.45
838.583	18634.86
838.908	18552.61
839.233	18550.57
839.558	18513.74
839.883	18451.37
840.208	18328.2
840.533	18447.52
840.858	18338.15
841.182	18359.62
841.507	18323.23
841.832	18148.55
842.156	18297.02
842.481	18217.7
842.805	18166.4
843.13	18134.09
843.454	18070.81
843.778	18007.31
844.103	17946.97
844.427	17912.4
844.751	17873.53
845.075	17909.68
845.399	17766.64
845.723	17735.23
846.047	17742.68
846.371	17602.35
846.695	17568.68
847.019	17413.65
847.343	17328.23
847.666	17236.26
847.99	17182.92
848.313	17158.07
848.637	17008.69
848.96	17013.89
849.284	16912.65
849.607	16862.03
849.931	16784.74
850.254	16682.15
850.577	16653.45
850.9	16479.44
851.223	16523.28
851.546	16384.3
851.869	16238.09
852.192	16389.72
852.515	16247.36
852.838	16171.2
853.161	16215.27
853.483	16059.34
853.806	15989.28
854.129	15942.96
854.451	15985.22
854.774	15795.84
855.096	15828.38
855.419	15737.99
855.741	15724.88
856.063	15627.03
856.385	15610.31
856.708	15553.59
857.03	15523.08
857.352	15465.68
857.674	15483.53
857.996	15333.48
858.318	15444.66
858.64	15315.85
858.961	15309.75
859.283	15154.5
859.605	15086.48
859.926	15145.69
860.248	15098.68
860.57	15025.47
860.891	15053.26
861.212	14927.62
861.534	14910.22
861.855	14865.02
862.176	14903.66
862.498	14908.86
862.819	14761.52
863.14	14791.57
863.461	14688.98
863.782	14689.66
864.103	14638.58
864.424	14581.18
864.745	14667.96
865.065	14590.9
865.386	14520.4
865.707	14539.15
866.027	14560.62
866.348	14441.08
866.668	14468.42
866.989	14464.58
867.309	14335.54
867.63	14340.74
867.95	14259.16
868.27	14253.74
868.59	14268.42
868.91	14241.98
869.23	14140.52
869.55	14138.71
869.87	14175.32
870.19	14166.73
870.51	14222.1
870.83	14181.19
871.15	14021.88
871.469	14039.05
871.789	14117.02
872.109	14068.43
872.428	13984.82
872.748	14003.57
873.067	14018.49
873.386	14031.37
873.706	13957.7
874.025	13923.8
874.344	13738.95
874.663	13894.42
874.982	13811.26
875.301	13828.66
875.62	13768.55
875.939	13751.38
876.258	13692.85
876.577	13748.66
876.896	13677.93
877.214	13596.8
877.533	13624.15
877.852	13555.67
878.17	13605.62
878.489	13595.9
878.807	13664.15
879.125	13501.89
879.444	13547.09
879.762	13461.21
880.08	13457.82
880.398	13311.61
880.716	13385.96
881.034	13336.25
881.352	13282.69
881.67	13366.3
881.988	13339.18
882.306	13291.05
882.624	13230.49
882.941	13094.44
883.259	13169.47
883.577	13107.32
883.894	13094.44
884.212	13070.94
884.529	13029.36
884.846	12981.45
885.164	13031.62
885.481	12920.44
885.798	12907.56
886.115	12832.76
886.432	12781.01
886.75	12826.2
887.067	12798.41
887.383	12747.56
887.7	12713.89
888.017	12661.69
888.334	12645.42
888.651	12566.1
888.967	12624.4
889.284	12536.72
889.6	12465.31
889.917	12464.4
890.233	12483.61
890.55	12394.35
890.866	12402.26
891.182	12357.06
891.498	12333.33
891.815	12210.17
892.131	12221.47
892.447	12171.76
892.763	12202.72
893.079	12087.69
893.395	12077.07
893.71	12010.4
894.026	11987.81
894.342	12003.17
894.657	11890.41
894.973	11816.74
895.289	11883.85
895.604	11853.12
895.92	11684.76
896.235	11671.66
896.55	11722.05
896.865	11687.7
897.181	11566.35
897.496	11699
897.811	11502.62
898.126	11499.23
898.441	11436.86
898.756	11475.73
899.071	11339.69
899.386	11358.9
899.7	11317.32
900.015	11224.44
900.33	11108.96
900.644	11127.49
900.959	11118.68
901.273	11075.51
901.588	11049.75
901.902	11068.73
902.216	10937.44
902.531	10881.17
902.845	10933.37
903.159	10817.44
903.473	10810.44
903.787	10801.17
904.101	10751.23
904.415	10619.25
904.729	10561.63
905.042	10549.88
905.356	10583.55
905.67	10534.06
905.984	10535.64
906.297	10448.64
906.611	10323.9
906.924	10303.78
907.237	10358.02
907.551	10284.8
907.864	10226.5
908.177	10212.49
908.491	10178.59
908.804	10130.91
909.117	10083
909.43	10060.63
909.743	9974.07
910.056	10006.62
910.368	9955.54
910.681	9809.56
910.994	9801.88
911.307	9735.66
911.619	9711.71
911.932	9645.04
912.244	9641.65
912.557	9636.68
912.869	9513.07
913.181	9542.45
913.494	9532.28
913.806	9463.58
914.118	9471.49
914.43	9288.89
914.742	9358.27
915.054	9249.8
915.366	9290.48
915.678	9182.68
915.99	9237.82
916.302	9153.98
916.613	9120.54
916.925	9074.44
917.236	9053.87
917.548	8995.79
917.859	8969.58
918.171	8876.25
918.482	8898.85
918.794	8855.23
919.105	8817.72
919.416	8771.17
919.727	8809.58
920.038	8735.24
920.349	8627.89
920.66	8650.72
920.971	8594.9
921.282	8574.34
921.593	8532.98
921.903	8406.21
922.214	8445.07
922.525	8442.81
922.835	8372.31
923.146	8247.34
923.456	8273.78
923.767	8227.23
924.077	8218.64
924.387	8172.77
924.697	8156.04
925.008	8102.26
925.318	8088.47
925.628	8082.37
925.938	8012.09
926.248	7953.79
926.558	7929.16
926.867	7859.33
927.177	7893
927.487	7833.57
927.796	7730.52
928.106	7763.06
928.416	7697.52
928.725	7760.8
929.034	7589.28
929.344	7611.2
929.653	7562.61
929.962	7560.13
930.271	7506.12
930.581	7464.99
930.89	7485.1
931.199	7396.51
931.508	7440.81
931.817	7340.92
932.125	7302.96
932.434	7386.35
932.743	7201.27
933.051	7202.4
933.36	7198.78
933.669	7161.72
933.977	7045.34
934.286	7116.75
934.594	7071.78
934.902	7009.18
935.21	7025.22
935.519	6972.8
935.827	7009.63
936.135	6946.13
936.443	6818
936.751	6839.69
937.059	6814.38
937.367	6757.21
937.674	6753.14
937.982	6763.31
938.29	6649.87
938.597	6706.59
938.905	6622.52
939.213	6554.05
939.52	6530.32
939.827	6578.91
940.135	6445.81
940.442	6475.41
940.749	6422.53
941.056	6462.75
941.363	6413.26
941.67	6388.41
941.977	6358.8
942.284	6280.84
942.591	6271.8
942.898	6281.29
943.205	6255.3
943.511	6207.17
943.818	6141.86
944.125	6115.19
944.431	6097.57
944.738	6082.42
945.044	6073.61
945.35	6042.2
945.657	5991.81
945.963	5993.84
946.269	5968.53
946.575	5913.16
946.881	5864.8
947.187	5875.65
947.493	5841.98
947.799	5828.19
948.105	5830.91
948.41	5725.6
948.716	5753.39
949.022	5723.56
949.327	5721.76
949.633	5637.92
949.938	5608.09
950.244	5681.08
950.549	5603.12
950.854	5601.08
951.16	5586.84
951.465	5546.62
951.77	5504.36
952.075	5512.27
952.38	5436.34
952.685	5459.84
952.99	5432.5
953.294	5406.74
953.599	5338.26
953.904	5342.33
954.209	5338.26
954.513	5286.06
954.818	5264.82
955.122	5231.15
955.426	5224.37
955.731	5223.46
956.035	5156.12
956.339	5147.53
956.643	5119.96
956.948	5086.74
957.252	5055.56
957.556	5090.59
957.86	5036.35
958.163	5026.63
958.467	4996.35
958.771	4942.57
959.075	4948.9
959.378	4895.34
959.682	4907.09
959.985	4872.74
960.289	4879.29
960.592	4821.22
960.896	4885.39
961.199	4777.83
961.502	4750.71
961.805	4714.33
962.108	4725.4
962.411	4701.9
962.714	4668.68
963.017	4694.44
963.32	4670.03
963.623	4600.66
963.926	4602.92
964.228	4581
964.531	4553.2
964.833	4560.66
965.136	4502.13
965.438	4467.78
965.741	4469.36
966.043	4417.16
966.345	4424.39
966.648	4418.97
966.95	4404.5
967.252	4354.11
967.554	4295.35
967.856	4323.6
968.158	4291.29
968.46	4274.34
968.761	4294.45
969.063	4249.7
969.365	4240.21
969.666	4170.38
969.968	4150.5
970.269	4173.1
970.571	4153.21
970.872	4128.13
971.174	4144.85
971.475	4112.99
971.776	4076.83
972.077	4053.55
972.378	4049.94
972.679	3976.27
972.98	4043.61
973.281	3968.36
973.582	3991.63
973.883	3921.8
974.183	3919.54
974.484	3913.89
974.785	3894.01
975.085	3893.78
975.386	3891.52
975.686	3826.21
975.986	3811.98
976.287	3866.21
976.587	3798.42
976.887	3762.71
977.187	3765.2
977.487	3770.4
977.787	3748.25
978.087	3710.06
978.387	3669.61
978.687	3654.01
978.987	3638.42
979.286	3616.27
979.586	3626.9
979.885	3630.29
980.185	3598.87
980.484	3609.5
980.784	3560.46
981.083	3504.41
981.382	3545.77
981.682	3533.34
981.981	3491.08
982.28	3499.44
982.579	3432.1
982.878	3454.7
983.177	3436.84
983.475	3417.18
983.774	3407.92
984.073	3363.4
984.372	3349.84
984.67	3344.87
984.969	3351.65
985.267	3337.86
985.566	3305.32
985.864	3303.29
986.162	3301.03
986.461	3250.41
986.759	3234.82
987.057	3198.66
987.355	3224.42
987.653	3166.8
987.951	3188.04
988.249	3146.46
988.547	3165.21
988.844	3161.6
989.142	3131.99
989.44	3096.97
989.737	3090.19
990.035	3118.89
990.332	3035.95
990.63	3026.46
990.927	3041.6
991.224	3056.29
991.521	3035.27
991.819	2961.38
992.116	2951.43
992.413	2948.04
992.71	2948.27
993.006	2931.1
993.303	2934.71
993.6	2899.46
993.897	2912.11
994.193	2840.7
994.49	2856.97
994.787	2825.79
995.083	2807.71
995.379	2778.78
995.676	2812
995.972	2793.02
996.268	2806.58
996.565	2762.74
996.861	2807.03
997.157	2730.2
997.453	2714.83
997.749	2703.53
998.044	2698.33
998.34	2710.54
998.636	2642.06
998.932	2636.19
999.227	2647.03
999.523	2645.68
999.818	2619.69
1000.114	2604.55
1000.409	2600.48
1000.704	2539.47
1001	2535.85
1001.295	2506.02
1001.59	2548.05
1001.885	2533.59
1002.18	2461.96
1002.475	2476.87
1002.77	2475.97
1003.065	2443.2
1003.359	2449.07
1003.654	2440.03
1003.949	2415.18
1004.243	2383.54
1004.538	2371.56
1004.832	2355.29
1005.127	2373.6
1005.421	2313.71
1005.715	2320.94
1006.009	2331.56
1006.304	2297.89
1006.598	2284.56
1006.892	2302.64
1007.186	2249.98
1007.48	2253.82
1007.773	2241.17
1008.067	2253.37
1008.361	2202.75
1008.655	2142.87
1008.948	2158.23
1009.242	2167.27
1009.535	2126.6
1009.829	2154.17
1010.122	2118.01
1010.415	2142.64
1010.708	2068.97
1011.001	2083.66
1011.295	2066.49
1011.588	2072.59
1011.881	2064
1012.173	2052.7
1012.466	2027.39
1012.759	2002.98
1013.052	2023.1
1013.344	1984
1013.637	1992.14
1013.93	1925.25
1014.222	1944.23
1014.514	1946.26
1014.807	1915.75
1015.099	1897.45
1015.391	1897.9
1015.683	1907.39
1015.976	1889.54
1016.268	1876.89
1016.56	1872.82
1016.851	1839.15
1017.143	1815.64
1017.435	1825.81
1017.727	1817.9
1018.018	1781.07
1018.31	1789.43
1018.602	1787.17
1018.893	1737.23
1019.185	1746.27
1019.476	1737
1019.767	1725.93
1020.058	1690.68
1020.35	1708.98
1020.641	1717.34
1020.932	1689.55
1021.223	1673.5
1021.514	1649.32
1021.804	1642.32
1022.095	1632.6
1022.386	1645.25
1022.677	1615.88
1022.967	1590.11
1023.258	1594.18
1023.548	1572.49
1023.839	1577.23
1024.129	1565.93
1024.419	1530
1024.709	1528.65
1025	1528.42
1025.29	1527.97
1025.58	1499.72
1025.87	1513.05
1026.16	1460.17
1026.449	1480.96
1026.739	1464.69
1027.029	1457.46
1027.319	1454.52
1027.608	1440.96
1027.898	1392.15
1028.187	1419.72
1028.477	1423.34
1028.766	1368.88
1029.055	1365.03
1029.344	1375.66
1029.634	1354.87
1029.923	1330.91
1030.212	1325.26
1030.501	1360.52
1030.79	1324.13
1031.078	1313.51
1031.367	1300.18
1031.656	1293.62
1031.945	1282.1
1032.233	1270.35
1032.522	1273.96
1032.81	1254.76
1033.099	1258.6
1033.387	1252.27
1033.675	1261.53
1033.963	1219.5
1034.251	1250.69
1034.54	1195.77
1034.828	1197.13
1035.116	1207.3
1035.403	1199.39
1035.691	1183.34
1035.979	1168.66
1036.267	1155.32
1036.554	1146.28
1036.842	1132.27
1037.129	1133.85
1037.417	1134.76
1037.704	1136.34
1037.992	1128.66
1038.279	1120.52
1038.566	1109
1038.853	1109
1039.14	1109
