Data from White_paper_FLMS001491_070.txt Node
Date: Tue Feb 07 10:35:25 GMT 2017
User: dcchb
Spectrometer: FLMS00149
Trigger mode: 0
Integration Time (sec): 2.000000E-2
Scans to average: 10
Electric dark correction enabled: true
Nonlinearity correction enabled: false
Boxcar width: 0
XAxis mode: Wavelengths
Number of Pixels in Spectrum: 2048
>>>>>Begin Spectral Data<<<<<
341.393	-21.12
341.776	-21.12
342.16	-21.12
342.543	-57.95
342.927	-50.04
343.31	-74.22
343.693	-73.32
344.077	-61.57
344.46	-52.3
344.843	-37.84
345.226	-44.84
345.61	-41
345.993	-49.14
346.376	-3.49
346.759	10.97
347.142	40.58
347.525	45.32
347.908	57.3
348.291	86.9
348.674	93.01
349.057	103.63
349.44	131.65
349.823	146.11
350.206	164.19
350.588	226.79
350.971	237.41
351.354	253.91
351.737	268.82
352.119	273.79
352.502	281.25
352.884	306.11
353.267	303.85
353.65	344.3
354.032	346.56
354.414	338.88
354.797	347.69
355.179	369.16
355.562	347.24
355.944	342.94
356.326	368.03
356.709	357.18
357.091	357.63
357.473	367.12
357.855	408.03
358.238	375.26
358.62	382.72
359.002	398.31
359.384	380
359.766	362.6
360.148	375.94
360.53	382.04
360.912	383.85
361.294	392.43
361.676	389.27
362.057	391.53
362.439	379.78
362.821	355.82
363.203	355.82
363.584	371.42
363.966	380.23
364.348	358.99
364.729	373.9
365.111	357.41
365.493	360.8
365.874	368.7
366.256	380.23
366.637	372.77
367.019	343.17
367.4	373.9
367.781	368.48
368.163	368.03
368.544	373
368.925	378.42
369.306	364.64
369.688	352.66
370.069	365.54
370.45	389.04
370.831	369.61
371.212	375.94
371.593	378.2
371.974	370.29
372.355	382.72
372.736	379.1
373.117	377.52
373.498	375.26
373.879	369.61
374.26	375.26
374.641	375.26
375.021	372.09
375.402	399.21
375.783	374.13
376.163	368.93
376.544	407.57
376.925	389.04
377.305	409.83
377.686	402.38
378.066	395.82
378.447	397.4
378.827	391.3
379.208	396.05
379.588	388.14
379.968	410.74
380.349	394.24
380.729	403.96
381.109	416.61
381.489	425.2
381.87	417.29
382.25	422.49
382.63	444.18
383.01	446.9
383.39	432.21
383.77	435.6
384.15	442.6
384.53	449.15
384.91	432.66
385.29	442.38
385.67	472.43
386.049	452.09
386.429	448.7
386.809	462.49
387.189	460.23
387.568	472.43
387.948	469.72
388.328	468.59
388.707	507.91
389.087	469.95
389.466	503.39
389.846	501.81
390.225	500
390.605	492.09
390.984	513.79
391.363	507.68
391.743	536.16
392.122	535.03
392.501	530.28
392.881	542.49
393.26	518.98
393.639	560.56
394.018	555.14
394.397	560.34
394.776	539.1
395.155	576.61
395.534	572.54
395.913	555.59
396.292	588.81
396.671	603.95
397.05	565.99
397.429	593.56
397.808	578.42
398.186	598.53
398.565	608.02
398.944	633.1
399.323	632.88
399.701	635.82
400.08	632.43
400.458	635.82
400.837	665.65
401.215	688.7
401.594	660.45
401.972	660.67
402.351	678.75
402.729	697.51
403.107	707
403.486	735.02
403.864	720.79
404.242	720.11
404.62	758.75
404.999	767.56
405.377	782.71
405.755	787
406.133	792.42
406.511	843.27
406.889	837.85
407.267	875.81
407.645	868.58
408.023	895.47
408.401	925.75
408.779	922.14
409.156	955.36
409.534	985.41
409.912	1011.63
410.29	1029.48
410.667	1071.06
411.045	1086.88
411.422	1118.74
411.8	1127.33
412.178	1143.6
412.555	1170.04
412.933	1197.84
413.31	1244.84
413.687	1268.79
414.065	1285.97
414.442	1334.56
414.819	1342.69
415.197	1389.02
415.574	1420.2
415.951	1439.86
416.328	1462.24
416.705	1477.6
417.082	1497.49
417.46	1523.25
417.837	1564.15
418.214	1596.7
418.591	1599.86
418.967	1627.2
419.344	1637.6
419.721	1702.68
420.098	1714.43
420.475	1742.45
420.852	1772.28
421.228	1798.72
421.605	1808.22
421.982	1841.43
422.358	1855.67
422.735	1902
423.111	1920.53
423.488	1971.37
423.864	1955.33
424.241	2003.92
424.617	2034.65
424.994	2050.02
425.37	2059.73
425.746	2095.21
426.123	2104.48
426.499	2159.17
426.875	2181.31
427.251	2216.11
427.627	2232.84
428.003	2318.26
428.379	2305.83
428.756	2357.81
429.132	2370.91
429.507	2430.35
429.883	2433.51
430.259	2510.57
430.635	2499.27
431.011	2551.02
431.387	2646.16
431.763	2632.6
432.138	2702.65
432.514	2718.7
432.89	2763.22
433.265	2824.91
433.641	2809.09
434.016	2858.58
434.392	2910.33
434.767	2997.34
435.143	2979.94
435.518	3021.29
435.894	3093.15
436.269	3128.86
436.644	3150.33
437.02	3180.61
437.395	3198.24
437.77	3259.25
438.145	3308.06
438.52	3314.16
438.895	3394.84
439.271	3372.92
439.646	3444.78
440.021	3484.56
440.395	3544.89
440.77	3470.77
441.145	3512.58
441.52	3558
441.895	3555.51
442.27	3603.42
442.645	3655.4
443.019	3707.6
443.394	3673.25
443.769	3705.34
444.143	3682.97
444.518	3768.62
444.892	3742.85
445.267	3793.02
445.641	3831.89
446.016	3873.7
446.39	3925.22
446.764	3915.05
447.139	3916.63
447.513	4018.55
447.887	3970.87
448.262	3990.08
448.636	4005.9
449.01	4066.46
449.384	4108.72
449.758	4098.78
450.132	4190.75
450.506	4190.98
450.88	4246.8
451.254	4224.2
451.628	4269.39
452.002	4362.05
452.376	4351.65
452.75	4398.88
453.123	4483.85
453.497	4533.79
453.871	4531.31
454.244	4624.19
454.618	4676.16
454.992	4758.19
455.365	4697.63
455.739	4817.18
456.112	4926.1
456.486	4941.47
456.859	4976.49
457.232	5110.95
457.606	5107.34
457.979	5121.35
458.352	5276.15
458.725	5324.51
459.099	5313.89
459.472	5425.75
459.845	5532.19
460.218	5525.18
460.591	5658.51
460.964	5618.06
461.337	5763.59
461.71	5871.39
462.083	5926.52
462.456	5964.72
462.829	5982.12
463.201	6050.82
463.574	6117.03
463.947	6182.34
464.32	6325.84
464.692	6346.63
465.065	6430.69
465.438	6543.01
465.81	6627.07
466.183	6661.19
466.555	6848.31
466.928	6902.54
467.3	6904.13
467.672	7002.65
468.045	7190.9
468.417	7194.06
468.789	7246.26
469.161	7394.06
469.534	7494.17
469.906	7653.94
470.278	7733.26
470.65	7771
471.022	7988.84
471.394	8076.52
471.766	8158.78
472.138	8230.65
472.51	8437.87
472.882	8597.64
473.253	8630.86
473.625	8794.02
473.997	8944.07
474.369	9000.79
474.74	9113.11
475.112	9261.35
475.484	9503.61
475.855	9563.27
476.227	9694.11
476.598	9905.86
476.97	9965.29
477.341	10281.89
477.713	10460.64
478.084	10408.67
478.455	10750.58
478.827	10784.02
479.198	11099.27
479.569	11163.68
479.94	11419.71
480.311	11499.71
480.682	11831.23
481.053	12072.8
481.424	12204.1
481.795	12419.46
482.166	12598.21
482.537	12666.46
482.908	13031.42
483.279	13197.75
483.65	13406.78
484.021	13576.95
484.391	13781.01
484.762	13770.39
485.133	14026.42
485.503	14141.68
485.874	14519.52
486.244	14623.25
486.615	14887.65
486.985	15107.98
487.356	15373.06
487.726	15472.49
488.097	15849.2
488.467	15818.69
488.837	16198.8
489.207	16306.82
489.578	16461.62
489.948	16716.07
490.318	16958.33
490.688	17052.11
491.058	17268.15
491.428	17467.69
491.798	17662.26
492.168	18019.77
492.538	18082.36
492.908	18331.85
493.278	18427.21
493.648	18510.6
494.017	18735.45
494.387	18847.09
494.757	19095.67
495.126	19224.71
495.496	19377.92
495.866	19486.39
496.235	19746.73
496.605	19866.95
496.974	19972.71
497.344	20229.2
497.713	20217.45
498.082	20362.08
498.452	20716.42
498.821	20615.18
499.19	20758.9
499.559	20976.07
499.928	21176.29
500.298	21291.54
500.667	21504.42
501.036	21563.85
501.405	21623.97
501.774	21731.08
502.143	21891.75
502.512	22054.46
502.88	22268.47
503.249	22199.77
503.618	22456.94
503.987	22609.25
504.356	22714.33
504.724	22902.35
505.093	22893.76
505.462	22963.14
505.83	23145.28
506.199	23373.98
506.567	23752.95
506.936	23675.21
507.304	23895.77
507.672	23992.26
508.041	24170.34
508.409	24353.84
508.777	24519.48
509.145	24606.03
509.514	24595.64
509.882	24877.21
510.25	24870.89
510.618	25087.83
510.986	25252.57
511.354	25533.47
511.722	25607.59
512.09	26005.55
512.458	25951.54
512.826	26116.05
513.193	26171.19
513.561	26447.34
513.929	26604.17
514.297	26831.96
514.664	27008.68
515.032	27132.52
515.4	27363.48
515.767	27476.47
516.135	27605.73
516.502	27422.68
516.869	28058.6
517.237	28139.73
517.604	28030.8
517.972	28469.89
518.339	28589.88
518.706	28742.2
519.073	28779.48
519.44	29035.97
519.808	29303.54
520.175	29296.31
520.542	29638.44
520.909	29859
521.276	29918.44
521.643	30163.63
522.009	30314.58
522.376	30564.52
522.743	30855.59
523.11	31078.86
523.477	31364.5
523.843	31567.88
524.21	31738.73
524.577	31929.01
524.943	32194.31
525.31	32239.73
525.676	32668.65
526.043	32802.2
526.409	32808.08
526.776	33307.5
527.142	33325.13
527.508	33538.45
527.874	33842.18
528.241	33810.31
528.607	34140.92
528.973	34389.96
529.339	34488.71
529.705	34782.72
530.071	35063.39
530.437	35143.61
530.803	35367.56
531.169	35604.84
531.535	35657.72
531.901	35767.1
532.267	35899.07
532.632	36147.65
532.998	36299.06
533.364	36491.82
533.73	36640.97
534.095	36961.19
534.461	37136.78
534.826	37228.07
535.192	37351.24
535.557	37623.77
535.923	37547.39
536.288	37773.15
536.653	37941.5
537.019	37961.84
537.384	38220.82
537.749	38312.11
538.114	38471.21
538.479	38503.3
538.845	38822.38
539.21	38675.95
539.575	39041.81
539.94	39015.37
540.305	39297.85
540.67	39305.99
541.034	39395.02
541.399	39648.8
541.764	39701.23
542.129	39827.1
542.494	39993.88
542.858	40270.03
543.223	40213.08
543.587	40617.82
543.952	40285.62
544.316	40643.13
544.681	40680.87
545.045	40870.24
545.41	41185.03
545.774	41199.72
546.138	41439.72
546.503	41283.79
546.867	41351.13
547.231	41743.89
547.595	41742.31
547.959	42007.38
548.324	42077.44
548.688	42072.69
549.052	42248.28
549.416	42347.04
549.779	42483.08
550.143	42500.93
550.507	42902.95
550.871	43039
551.235	42975.95
551.599	43191.31
551.962	43403.73
552.326	43543.39
552.689	43677.62
553.053	43554.69
553.417	43785.87
553.78	44189.02
554.143	43937.73
554.507	44313.54
554.87	44396.47
555.234	44906.74
555.597	44701.32
555.96	44855.67
556.323	45013.86
556.686	45108.77
557.05	45395.77
557.413	45454.3
557.776	45458.14
558.139	45806.61
558.502	45871.24
558.865	46049.76
559.228	46253.6
559.59	46416.31
559.953	46294.73
560.316	46731.1
560.679	46932.45
561.041	47069.4
561.404	47211.09
561.767	47399.11
562.129	47335.83
562.492	47683.85
562.854	47700.79
563.217	47821.02
563.579	47920.45
563.941	48226.43
564.304	48281.12
564.666	48545.74
565.028	48635.91
565.39	48736.92
565.753	48990.7
566.115	49110.93
566.477	49305.95
566.839	49435.44
567.201	49591.82
567.563	49607.18
567.925	49834.97
568.287	49898.48
568.648	50001.3
569.01	50214.17
569.372	50382.76
569.734	50387.5
570.095	50519.02
570.457	50734.84
570.819	50825.01
571.18	50810.54
571.542	51042.4
571.903	51067.48
572.265	51330.98
572.626	51318.1
572.987	51370.75
573.349	51540.92
573.71	51704.08
574.071	51765.77
574.432	51885.54
574.794	52118.76
575.155	52040.11
575.516	51952.66
575.877	52064.07
576.238	52333.67
576.599	52361.91
576.96	52497.5
577.32	52464.74
577.681	52589.93
578.042	52676.71
578.403	52621.34
578.763	52667.89
579.124	52762.36
579.485	52904.5
579.845	53092.97
580.206	52950.6
580.566	53013.65
580.927	53037.6
581.287	53232.17
581.648	53110.82
582.008	53230.59
582.368	53199.63
582.728	53340.65
583.089	53290.25
583.449	53344.26
583.809	53308.33
584.169	53425.16
584.529	53360.08
584.889	53555.56
585.249	53474.65
585.609	53341.1
585.969	53554.43
586.329	53487.53
586.688	53597.81
587.048	53516.46
587.408	53502
587.768	53564.37
588.127	53556.69
588.487	53565.27
588.846	53716.23
589.206	53527.08
589.565	53630.13
589.925	53752.61
590.284	53673.52
590.643	53728.88
591.003	53820.86
591.362	53946.51
591.721	53800.29
592.08	53772.27
592.44	54014.3
592.799	53859.73
593.158	53887.98
593.517	53880.52
593.876	54020.85
594.235	53925.04
594.593	53954.19
594.952	54075.77
595.311	53974.98
595.67	53987.18
596.029	54188.31
596.387	54240.73
596.746	54243.9
597.104	54125.26
597.463	54105.37
597.822	54282.09
598.18	54157.57
598.538	54224.24
598.897	54337.91
599.255	54111.02
599.613	54458.58
599.972	54325.48
600.33	54386.72
600.688	54278.02
601.046	54446.38
601.404	54486.15
601.762	54410
602.12	54601.4
602.478	54553.04
602.836	54596.21
603.194	54419.94
603.552	54482.08
603.91	54480.73
604.268	54640.72
604.625	54555.3
604.983	54615.64
605.341	54559.14
605.698	54686.15
606.056	54767.95
606.413	54695.41
606.771	54822.64
607.128	54791.68
607.485	54649.54
607.843	54708.75
608.2	54875.75
608.557	54907.61
608.914	54897.67
609.272	55000.94
609.629	55068.28
609.986	55179.47
610.343	54976.08
610.7	55221.05
611.057	55130.88
611.414	55146.02
611.771	55207.26
612.127	55269.63
612.484	55207.94
612.841	55397.09
613.198	55222.18
613.554	55223.08
613.911	55461.04
614.267	55272.35
614.624	55319.12
614.98	55327.49
615.337	55564.77
615.693	55467.37
616.05	55427.14
616.406	55621.49
616.762	55485.9
617.118	55499.46
617.475	55465.79
617.831	55600.02
618.187	55536.07
618.543	55611.09
618.899	55739.23
619.255	55602.05
619.611	55638.89
619.967	55763.41
620.323	55785.55
620.678	55663.52
621.034	55649.51
621.39	55624.88
621.746	55667.36
622.101	55865.55
622.457	55666.91
622.812	55685.44
623.168	55800.92
623.523	55753.46
623.879	55905.1
624.234	55678.21
624.589	55783.29
624.945	55803.63
625.3	55838.21
625.655	55806.12
626.01	55751.2
626.365	55826.46
626.72	55812.67
627.075	55762.05
627.43	55799.34
627.785	55750.07
628.14	55803.18
628.495	55857.19
628.85	55816.74
629.205	55648.83
629.559	55778.55
629.914	55710.53
630.269	55795.95
630.623	55715.05
630.978	55659
631.332	55828.26
631.687	55824.87
632.041	55661.94
632.396	55703.75
632.75	55640.7
633.104	55729.96
633.459	55629.85
633.813	55695.61
634.167	55562.73
634.521	55548.95
634.875	55654.93
635.229	55550.53
635.583	55514.6
635.937	55490.87
636.291	55487.71
636.645	55469.4
636.999	55411.1
637.352	55485.45
637.706	55383.3
638.06	55474.37
638.413	55372.68
638.767	55347.15
639.121	55355.06
639.474	55221.5
639.828	55355.51
640.181	55393.92
640.534	55299.92
640.888	55229.41
641.241	55120.03
641.594	55244.78
641.947	55290.65
642.301	55177.21
642.654	55266.7
643.007	55247.26
643.36	55187.6
643.713	55188.05
644.066	55155.96
644.419	55040.26
644.771	54870.1
645.124	54588.3
645.477	54621.97
645.83	54430.56
646.182	54353.5
646.535	54236.67
646.888	54334.74
647.24	54172.26
647.593	54400.96
647.945	54289.55
648.298	54197.12
648.65	54086.16
649.002	54019.27
649.355	54173.84
649.707	54090.46
650.059	54223.79
650.411	54516.66
650.763	54600.05
651.115	54887.05
651.467	54771.79
651.819	54804.34
652.171	54731.12
652.523	54683.89
652.875	54684.11
653.227	54516.21
653.578	54835.75
653.93	54714.17
654.282	54569.09
654.633	54528.64
654.985	54544.46
655.337	54617.45
655.688	54597.34
656.039	54702.64
656.391	54415.42
656.742	54484.8
657.094	54465.59
657.445	54575.42
657.796	54550.11
658.147	54464.68
658.498	54453.84
658.849	54600.27
659.2	54421.3
659.551	54366.38
659.902	54498.81
660.253	54394.63
660.604	54467.62
660.955	54401.41
661.306	54377.23
661.656	54339.94
662.007	54304.91
662.358	54294.29
662.708	54314.18
663.059	54314.86
663.409	54153.51
663.76	54342.88
664.11	54302.65
664.461	54339.72
664.811	54347.17
665.161	54296.78
665.511	54228.31
665.862	54242.54
666.212	54258.36
666.562	54314.86
666.912	54292.71
667.262	54172.26
667.612	54154.64
667.962	54230.34
668.312	54075.77
668.662	54278.02
669.011	54106.28
669.361	54078.71
669.711	54031.25
670.06	53990.12
670.41	54014.3
670.76	53918.03
671.109	54042.1
671.459	53963.45
671.808	53847.07
672.157	53965.49
672.507	53769.56
672.856	53796
673.205	53817.92
673.554	53880.29
673.904	53744.02
674.253	53971.14
674.602	53802.33
674.951	53342.91
675.3	53240.76
675.649	53678.94
675.998	53564.82
676.346	53699.73
676.695	53718.04
677.044	53468.1
677.393	53603.92
677.741	53588.55
678.09	53543.13
678.438	53412.96
678.787	53427.65
679.135	53482.11
679.484	53222.91
679.832	53334.77
680.181	53133.42
680.529	53265.85
680.877	53064.95
681.225	53068.34
681.573	53199.86
681.922	53022.24
682.27	52923.03
682.618	52969.13
682.966	52926.42
683.314	52858.17
683.661	52771.39
684.009	52636.94
684.357	52554.68
684.705	52547.67
685.053	52540.44
685.4	52493.66
685.748	52301.8
686.095	52387.45
686.443	52231.3
686.79	52136.38
687.138	52193.11
687.485	52168.7
687.832	52024.97
688.18	52079.44
688.527	51849.39
688.874	51829.05
689.221	51873.34
689.568	51635.38
689.915	51589.73
690.262	51491.2
690.609	51433.13
690.956	51447.36
691.303	51359.23
691.65	51131.44
691.997	51184.77
692.344	50922.4
692.69	50898.68
693.037	50813.93
693.383	50595.18
693.73	50654.16
694.077	50622.52
694.423	50547.27
694.769	50404
695.116	50352.7
695.462	50337.33
695.808	50126.27
696.155	50281.74
696.501	49926.95
696.847	50004.91
697.193	49734.41
697.539	49779.61
697.885	49536
698.231	49368.32
698.577	49392.5
698.923	49432.73
699.269	49193.86
699.614	48982.57
699.96	48882.46
700.306	49063.02
700.651	48852.63
700.997	48665.29
701.342	48742.12
701.688	48662.35
702.033	48527.44
702.379	48483.37
702.724	48343.94
703.069	48339.65
703.415	47944.63
703.76	48093.55
704.105	47882.48
704.45	47733.56
704.795	47650.17
705.14	47554.81
705.485	47559.55
705.83	47332.44
706.175	47356.62
706.52	47241.37
706.865	47160.69
707.209	47099.68
707.554	46939.01
707.899	47041.6
708.243	46804.77
708.588	46719.8
708.932	46548.28
709.277	46471
709.621	46603.87
709.966	46190.1
710.31	46273.71
710.654	45918.02
710.998	46137.9
711.342	46206.14
711.687	45961.4
712.031	45827.4
712.375	45657.46
712.719	45637.12
713.063	45610.91
713.407	45688.19
713.75	45453.85
714.094	45487.97
714.438	45243.91
714.782	45424.02
715.125	44992.62
715.469	45111.71
715.812	45010.02
716.156	44741.32
716.499	44812.51
716.843	44822.9
717.186	44610.03
717.53	44927.31
717.873	44703.13
718.216	44611.38
718.559	44491.61
718.902	44215.46
719.246	44186.31
719.589	44148.34
719.932	43990.16
720.275	43814.57
720.617	43884.4
720.96	43754.68
721.303	43902.7
721.646	43773.21
721.989	43728.92
722.331	43717.17
722.674	43507.46
723.016	43501.81
723.359	43494.35
723.701	43431.53
724.044	43206.9
724.386	42970.52
724.729	43276.73
725.071	43072.21
725.413	43049.62
725.755	43003.97
726.097	42701.15
726.439	42717.42
726.782	42556.75
727.124	42918.32
727.465	42614.6
727.807	42485.79
728.149	42546.13
728.491	42458.9
728.833	42469.74
729.175	42349.97
729.516	42224.78
729.858	42092.58
730.199	42218.45
730.541	42130.09
730.882	42121.28
731.224	42207.6
731.565	41848.97
731.906	41869.08
732.248	41965.58
732.589	41675.64
732.93	41540.96
733.271	41518.13
733.612	41815.3
733.953	41841.51
734.294	41502.31
734.635	41465.7
734.976	41584.12
735.317	41196.11
735.658	41408.3
735.999	41253.28
736.339	41213.05
736.68	41208.31
737.021	41127.41
737.361	40890.35
737.702	41110.23
738.042	40923.8
738.383	40890.35
738.723	40939.84
739.063	40642.45
739.404	40805.61
739.744	40643.58
740.084	40551.38
740.424	40625.27
740.764	40489.68
741.104	40704.82
741.444	40316.58
741.784	40288.11
742.124	40325.39
742.464	40392.29
742.804	40177.6
743.143	40153.42
743.483	40214.44
743.823	39915.01
744.162	39921.79
744.502	39877.95
744.841	39850.15
745.181	39841.57
745.52	39745.07
745.86	39909.36
746.199	39609.71
746.538	39690.83
746.877	39710.72
747.216	39555.25
747.556	39456.26
747.895	39569.93
748.234	39297.62
748.573	39247.91
748.911	39193.9
749.25	39278.87
749.589	39105.09
749.928	39229.38
750.267	39042.72
750.605	38953.23
750.944	38914.36
751.283	38690.86
751.621	38771.54
751.96	38477.76
752.298	38629.17
752.636	38534.26
752.975	38457.65
753.313	38291.78
753.651	38425.56
753.989	38295.84
754.327	38139.24
754.666	38007.72
755.004	37896.31
755.342	38120.25
755.679	37897.66
756.017	37705.58
756.355	37757.55
756.693	37528.63
757.031	37610.66
757.368	37360.05
757.706	37386.71
758.044	37234.18
758.381	37268.07
758.719	36960.06
759.056	37054.29
759.394	36914.18
759.731	36777.47
760.068	36738.37
760.405	36594.87
760.743	36409.57
761.08	36437.14
761.417	36391.71
761.754	36275.33
762.091	36010.03
762.428	35992.63
762.765	35814.55
763.102	35778.62
763.438	35769.36
763.775	35721.67
764.112	35658.85
764.449	35637.83
764.785	35376.82
765.122	35258.18
765.458	35113.55
765.795	35085.76
766.131	35073.78
766.467	34869.94
766.804	34690.97
767.14	34457.75
767.476	34569.84
767.812	34357.19
768.148	34343.86
768.485	34158.78
768.821	34075.62
769.157	33963.75
769.492	33898.22
769.828	33886.02
770.164	33652.58
770.5	33529.87
770.836	33566.93
771.171	33167.62
771.507	33215.75
771.842	32984.8
772.178	33014.63
772.513	32904.12
772.849	32859.6
773.184	32659.38
773.519	32611.47
773.855	32512.94
774.19	32264.59
774.525	32152.28
774.86	32240.86
775.195	32090.58
775.53	31957.48
775.865	31835.22
776.2	31604.04
776.535	31364.05
776.87	31423.93
777.205	31344.39
777.539	31172.19
777.874	31182.81
778.209	30843.38
778.543	30832.08
778.878	30607.46
779.212	30725.42
779.547	30461.7
779.881	30627.57
780.215	30239.56
780.55	30284.3
780.884	30176.51
781.218	30102.16
781.552	30148.03
781.886	29836.4
782.22	29797.08
782.554	29730.64
782.888	29387.6
783.222	29225.57
783.556	29112.58
783.889	29103.77
784.223	28984
784.557	28848.18
784.89	28937.67
785.224	28737.45
785.557	28671.01
785.891	28566.61
786.224	28470.56
786.558	28482.32
786.891	28232.15
787.224	28120.07
787.557	28007.3
787.891	28021.09
788.224	27944.93
788.557	27864.93
788.89	27822.67
789.223	27801.88
789.556	27559.4
789.888	27501.78
790.221	27279.18
790.554	27142.01
790.887	27193.08
791.219	27021.11
791.552	27048
791.884	26895.01
792.217	26841.46
792.549	26570.28
792.882	26420
793.214	26415.93
793.546	26396.72
793.879	26175.26
794.211	26156.05
794.543	26186.56
794.875	26085.09
795.207	26083.74
795.539	26026.11
795.871	26033.11
796.203	25679.23
796.535	25614.82
796.867	25525.56
797.198	25530.53
797.53	25551.55
797.862	25372.12
798.193	25281.95
798.525	25185.23
798.856	25204.21
799.188	24859.13
799.519	24815.29
799.85	24686.71
800.182	24716.09
800.513	24791.79
800.844	24580.05
801.175	24676.54
801.506	24605.81
801.837	24381.18
802.168	24405.36
802.499	24219.38
802.83	24124.46
803.161	24022.77
803.491	24063
803.822	23987.52
804.153	23812.61
804.483	23764.25
804.814	23599.28
805.145	23527.64
805.475	23639.51
805.805	23537.14
806.136	23468.89
806.466	23350.93
806.796	23387.08
807.126	23260.31
807.457	23172.85
807.787	23189.8
808.117	23098.95
808.447	22950.03
808.777	22997.04
809.107	22921.33
809.436	22805.63
809.766	22816.02
810.096	22722.92
810.426	22675.24
810.755	22638.85
811.085	22505.52
811.414	22501
811.744	22351.86
812.073	22313.44
812.403	22369.71
812.732	22202.26
813.061	22198.87
813.39	22051.75
813.719	22028.02
814.049	22072.99
814.378	21910.51
814.707	21821.25
815.036	21799.78
815.365	21785.99
815.693	21525.21
816.022	21580.12
816.351	21568.15
816.68	21470.3
817.008	21547.58
817.337	21265.33
817.665	21157.08
817.994	21250.87
818.322	21329.06
818.651	21164.32
818.979	21113.47
819.307	21216.97
819.636	21051.33
819.964	20876.19
820.292	20997.09
820.62	21039.57
820.948	20917.54
821.276	20902.63
821.604	20953.7
821.932	20946.02
822.259	20878.22
822.587	20908.05
822.915	20851.78
823.243	20923.64
823.57	20830.99
823.898	20777.43
824.225	20700.83
824.553	20813.37
824.88	20769.98
825.207	20819.47
825.535	20771.78
825.862	20762.75
826.189	20727.04
826.516	20769.52
826.843	20746.47
827.17	20844.1
827.497	20763.42
827.824	20779.02
828.151	20860.14
828.478	20765.91
828.805	20800.26
829.131	20686.81
829.458	20729.75
829.785	20600.94
830.111	20700.15
830.438	20805.46
830.764	20707.83
831.09	20709.64
831.417	20603.65
831.743	20684.1
832.069	20683.43
832.395	20489.08
832.722	20576.99
833.048	20585.12
833.374	20574.05
833.7	20482.98
834.026	20461.28
834.351	20564.33
834.677	20483.66
835.003	20516.88
835.329	20532.47
835.654	20399.59
835.98	20386.71
836.306	20373.38
836.631	20320.27
836.956	20376.77
837.282	20299.71
837.607	20157.34
837.932	20148.75
838.258	20180.16
838.583	20105.81
838.908	20002.77
839.233	20117.34
839.558	19966.16
839.883	19958.7
840.208	19851.81
840.533	19821.3
840.858	19939.72
841.182	19967.29
841.507	19890.68
841.832	19760.51
842.156	19697.46
842.481	19729.33
842.805	19618.37
843.13	19624.7
843.454	19649.55
843.778	19578.37
844.103	19482.33
844.427	19313.74
844.751	19442.33
845.075	19380.41
845.399	19282.33
845.723	19255.44
846.047	19213.41
846.371	19128.44
846.695	18981.55
847.019	18943.36
847.343	18793.76
847.666	18784.27
847.99	18661.11
848.313	18687.09
848.637	18479.19
848.96	18441.68
849.284	18428.34
849.607	18253.88
849.931	18250.49
850.254	18156.71
850.577	18054.79
850.9	17923.27
851.223	17899.09
851.546	17804.18
851.869	17613.45
852.192	17789.94
852.515	17576.61
852.838	17548.14
853.161	17553.11
853.483	17362.38
853.806	17391.53
854.129	17262.5
854.451	17307.69
854.774	17140.02
855.096	17051.88
855.419	17097.3
855.741	17086.01
856.063	16943.86
856.385	16888.72
856.708	16860.7
857.03	16838.33
857.352	16774.6
857.674	16679.91
857.996	16596.53
858.318	16611.44
858.64	16575.96
858.961	16545.68
859.283	16426.36
859.605	16319.7
859.926	16405.12
860.248	16326.25
860.57	16281.05
860.891	16272.24
861.212	16179.36
861.534	16174.84
861.855	16083.32
862.176	16094.39
862.498	16147.5
862.819	16117.22
863.14	16050.55
863.461	15959.93
863.782	15922.87
864.103	15878.13
864.424	15889.43
864.745	15977.33
865.065	15823.67
865.386	15751.8
865.707	15776.66
866.027	15789.54
866.348	15733.5
866.668	15707.06
866.989	15670.9
867.309	15485.82
867.63	15568.53
867.95	15535.76
868.27	15390.23
868.59	15490.57
868.91	15433.62
869.23	15448.08
869.55	15391.36
869.87	15500.06
870.19	15449.44
870.51	15333.28
870.83	15373.96
871.15	15342.1
871.469	15257.35
871.789	15277.01
872.109	15287.86
872.428	15220.97
872.748	15213.51
873.067	15159.95
873.386	15175.32
873.706	15087.41
874.025	15045.61
874.344	15077.02
874.663	15024.36
874.982	14927.42
875.301	14972.39
875.62	14942.11
875.939	14871.37
876.258	14902.56
876.577	14793.41
876.896	14727.65
877.214	14763.35
877.533	14780.3
877.852	14675.22
878.17	14797.93
878.489	14846.52
878.807	14701.21
879.125	14668.44
879.444	14717.03
879.762	14523.14
880.08	14632.74
880.398	14500.31
880.716	14547.77
881.034	14483.59
881.352	14491.5
881.67	14284.95
881.988	14376.25
882.306	14367.66
882.624	14275.68
882.941	14232.3
883.259	14225.74
883.577	14113.43
883.894	14098.06
884.212	14142.35
884.529	14086.31
884.846	14155.01
885.164	14057.61
885.481	14033.2
885.798	14124.95
886.115	13934.22
886.432	13901.68
886.75	13895.13
887.067	13923.15
887.383	13865.07
887.7	13816.71
888.017	13767.22
888.334	13792.31
888.651	13703.27
888.967	13618.75
889.284	13605.87
889.6	13561.8
889.917	13548.25
890.233	13550.28
890.55	13411.53
890.866	13438.64
891.182	13327.69
891.498	13341.02
891.815	13354.58
892.131	13297.4
892.447	13197.07
892.763	13138.31
893.079	13040.91
893.395	13021.93
893.71	12968.37
894.026	13082.27
894.342	12982.61
894.657	12877.08
894.973	12834.82
895.289	12820.81
895.604	12832.56
895.92	12747.81
896.235	12684.99
896.55	12703.3
896.865	12612
897.181	12586.24
897.496	12555.28
897.811	12449.97
898.126	12509.18
898.441	12413.59
898.756	12326.81
899.071	12287.94
899.386	12336.07
899.7	12180.6
900.015	12161.16
900.33	12023.77
900.644	12040.26
900.959	12057.21
901.273	12002.75
901.588	11927.72
901.902	11956.42
902.216	11933.15
902.531	11865.58
902.845	11863.77
903.159	11784.22
903.473	11700.38
903.787	11598.92
904.101	11503.1
904.415	11588.52
904.729	11593.95
905.042	11372.03
905.356	11437.57
905.67	11375.2
905.984	11379.26
906.297	11390.56
906.611	11217.01
906.924	11206.16
907.237	11183.79
907.551	11180.85
907.864	11129.1
908.177	11056.11
908.491	11050.01
908.804	11002.55
909.117	10815.44
909.43	10938.14
909.743	10796
910.056	10760.07
910.368	10698.6
910.681	10645.04
910.994	10604.82
911.307	10555.78
911.619	10561.43
911.932	10538.83
912.244	10381.55
912.557	10426.75
912.869	10349.91
913.181	10312.4
913.494	10259.97
913.806	10196.24
914.118	10266.98
914.43	10125.74
914.742	10199.18
915.054	10075.34
915.366	10054.55
915.678	10007.32
915.99	9978.62
916.302	9903.6
916.613	9826.54
916.925	9890.04
917.236	9756.03
917.548	9723.49
917.859	9730.49
918.171	9654.79
918.482	9585.64
918.794	9581.57
919.105	9581.34
919.416	9474.45
919.727	9442.36
920.038	9398.07
920.349	9252.54
920.66	9328.47
920.971	9306.55
921.282	9250.73
921.593	9190.85
921.903	9152.65
922.214	9130.28
922.525	9071.53
922.835	9048.25
923.146	8986.78
923.456	9024.75
923.767	8927.58
924.077	8939.1
924.387	8858.43
924.697	8886
925.008	8802.38
925.318	8717.86
925.628	8712.21
925.938	8680.58
926.248	8607.13
926.558	8577.3
926.867	8508.38
927.177	8537.53
927.487	8476.51
927.796	8400.36
928.106	8452.11
928.416	8446.46
928.725	8347.48
929.034	8290.08
929.344	8249.63
929.653	8227.93
929.962	8176.64
930.271	8156.75
930.581	8126.24
930.89	8057.77
931.199	8031.78
931.508	7975.28
931.817	7970.54
932.125	7956.75
932.434	7902.29
932.743	7893.25
933.051	7808.51
933.36	7748.62
933.669	7750.21
933.977	7721.73
934.286	7668.4
934.594	7634.5
934.902	7600.15
935.21	7579.59
935.519	7560.38
935.827	7509.08
936.135	7505.92
936.443	7442.64
936.751	7361.52
937.059	7386.6
937.367	7361.52
937.674	7281.52
937.982	7340.95
938.29	7236.32
938.597	7197.45
938.905	7192.48
939.213	7143.89
939.52	7084.01
939.827	7138.7
940.135	7107.51
940.442	6980.28
940.749	7028.42
941.056	6998.81
941.363	6907.74
941.67	6881.98
941.977	6865.48
942.284	6788.88
942.591	6815.32
942.898	6746.39
943.205	6766.5
943.511	6731.25
943.818	6687.18
944.125	6644.47
944.431	6671.36
944.738	6612.61
945.044	6533.97
945.35	6553.4
945.657	6507.98
945.963	6481.31
946.269	6382.56
946.575	6465.72
946.881	6390.02
947.187	6320.41
947.493	6336.01
947.799	6306.4
948.105	6261.21
948.41	6236.57
948.716	6244.71
949.022	6232.05
949.327	6164.48
949.633	6070.48
949.938	6129.23
950.244	6147.54
950.549	6045.39
950.854	6019.18
951.16	6047.88
951.465	5951.38
951.77	5885.17
952.075	5945.96
952.38	5913.64
952.685	5901.89
952.99	5837.49
953.294	5825.96
953.599	5784.61
953.904	5791.16
954.209	5752.07
954.513	5767.43
954.818	5714.55
955.122	5646.76
955.426	5670.49
955.731	5632.97
956.035	5591.84
956.339	5578.74
956.643	5527.21
956.948	5460.77
957.252	5473.43
957.556	5427.33
957.86	5426.88
958.163	5458.29
958.467	5423.26
958.771	5414.67
959.075	5367.67
959.378	5275.24
959.682	5317.28
959.985	5284.28
960.289	5247.9
960.592	5226.66
960.896	5210.84
961.199	5177.62
961.502	5156.15
961.805	5126.09
962.108	5089.71
962.411	5070.73
962.714	5030.05
963.017	5006.32
963.32	5023.95
963.623	5000.45
963.926	5013.1
964.228	4926.78
964.531	4902.82
964.833	4907.57
965.136	4862.15
965.438	4871.64
965.741	4808.59
966.043	4818.08
966.345	4767.46
966.648	4777.85
966.95	4752.09
967.252	4688.82
967.554	4701.47
967.856	4674.35
968.158	4587.8
968.46	4631.42
968.761	4644.52
969.063	4636.16
969.365	4587.13
969.666	4548.71
969.968	4495.83
970.269	4500.35
970.571	4483.4
970.872	4490.63
971.174	4403.85
971.475	4451.54
971.776	4405.66
972.077	4367.24
972.378	4415.15
972.679	4359.79
972.98	4316.85
973.281	4276.85
973.582	4306.23
973.883	4262.84
974.183	4265.55
974.484	4242.05
974.785	4227.81
975.085	4214.03
975.386	4180.58
975.686	4204.99
975.986	4159.34
976.287	4174.25
976.587	4070.53
976.887	4110.08
977.187	4059.23
977.487	4066.91
977.787	3991.89
978.087	4047.93
978.387	3953.24
978.687	3932
978.987	3989.63
979.286	3921.83
979.586	3904.66
979.885	3893.58
980.185	3864.43
980.484	3845
980.784	3850.2
981.083	3833.47
981.382	3785.34
981.682	3772.01
981.981	3750.31
982.28	3743.76
982.579	3741.72
982.878	3724.55
983.177	3717.09
983.475	3691.1
983.774	3653.82
984.073	3645
984.372	3613.14
984.67	3602.07
984.969	3582.41
985.267	3601.84
985.566	3608.85
985.864	3530.88
986.162	3557.1
986.461	3496.98
986.759	3518
987.057	3480.49
987.355	3461.51
987.653	3419.7
987.951	3460.6
988.249	3444.33
988.547	3378.34
988.844	3386.03
989.142	3382.41
989.44	3362.07
989.737	3292.47
990.035	3311
990.332	3308.51
990.63	3294.5
990.927	3286.37
991.224	3228.52
991.521	3244.79
991.819	3208.4
992.116	3221.06
992.413	3196.2
992.71	3160.5
993.006	3175.18
993.303	3150.33
993.6	3133.6
993.897	3140.84
994.193	3065.81
994.49	3108.52
994.787	3077.33
995.083	3020.16
995.379	3036.66
995.676	3037.56
995.972	3019.03
996.268	2977.9
996.565	2988.75
996.861	2955.08
997.157	2927.96
997.453	2940.61
997.749	2874.4
998.044	2847.28
998.34	2866.49
998.636	2866.04
998.932	2867.85
999.227	2816.1
999.523	2824.01
999.818	2801.86
1000.114	2816.32
1000.409	2752.37
1000.704	2764.12
1001	2726.38
1001.295	2716.44
1001.59	2713.05
1001.885	2696.78
1002.18	2662.43
1002.475	2671.7
1002.77	2657.91
1003.065	2638.93
1003.359	2600.28
1003.654	2628.31
1003.949	2593.51
1004.243	2554.64
1004.538	2558.7
1004.832	2549.89
1005.127	2504.47
1005.421	2515.77
1005.715	2503.11
1006.009	2465.37
1006.304	2504.24
1006.598	2456.56
1006.892	2416.79
1007.186	2392.83
1007.48	2414.3
1007.773	2385.6
1008.067	2367.3
1008.361	2379.27
1008.655	2338.14
1008.948	2331.37
1009.242	2328.43
1009.535	2291.37
1009.829	2301.76
1010.122	2272.61
1010.415	2272.16
1010.708	2260.18
1011.001	2263.8
1011.295	2220.18
1011.588	2213.18
1011.881	2198.71
1012.173	2185.38
1012.466	2148.32
1012.759	2145.61
1013.052	2155.32
1013.344	2117.59
1013.637	2123.91
1013.93	2117.13
1014.222	2070.36
1014.514	2094.08
1014.807	2078.72
1015.099	2079.39
1015.391	2039.85
1015.683	2008.21
1015.976	2076.46
1016.268	1999.62
1016.56	1984.71
1016.851	2004.59
1017.143	1967.31
1017.435	1966.63
1017.727	1932.51
1018.018	1931.6
1018.31	1910.36
1018.602	1911.26
1018.893	1880.76
1019.185	1877.59
1019.476	1865.39
1019.767	1870.59
1020.058	1871.94
1020.35	1808.89
1020.641	1842.34
1020.932	1817.25
1021.223	1772.06
1021.514	1774.32
1021.804	1749.91
1022.095	1732.74
1022.386	1740.65
1022.677	1717.37
1022.967	1709.23
1023.258	1725.51
1023.548	1718.95
1023.839	1678.95
1024.129	1676.92
1024.419	1657.26
1024.709	1659.29
1025	1638.28
1025.29	1629.46
1025.58	1624.94
1025.87	1603.25
1026.16	1575.68
1026.449	1581.55
1026.739	1564.61
1027.029	1558.96
1027.319	1561.44
1027.608	1528.22
1027.898	1532.29
1028.187	1523.93
1028.477	1499.07
1028.766	1483.93
1029.055	1496.36
1029.344	1476.02
1029.634	1451.84
1029.923	1473.53
1030.212	1468.79
1030.501	1436.02
1030.79	1447.77
1031.078	1398.51
1031.367	1396.25
1031.656	1384.5
1031.945	1368.9
1032.233	1387.21
1032.522	1361.22
1032.81	1347.21
1033.099	1319.87
1033.387	1346.76
1033.675	1346.98
1033.963	1329.81
1034.251	1312.86
1034.54	1293.88
1034.828	1262.92
1035.116	1276.7
1035.403	1281.68
1035.691	1269.47
1035.979	1265.4
1036.267	1226.76
1036.554	1209.81
1036.842	1239.19
1037.129	1221.11
1037.417	1222.24
1037.704	1192.64
1037.992	1201.68
1038.279	1161.68
1038.566	1193.99
1038.853	1193.99
1039.14	1193.99
