Data from White_reflection_standard_FLMS001491_094.txt Node
Date: Tue Feb 07 10:32:14 GMT 2017
User: dcchb
Spectrometer: FLMS00149
Trigger mode: 0
Integration Time (sec): 2.000000E-2
Scans to average: 10
Electric dark correction enabled: true
Nonlinearity correction enabled: false
Boxcar width: 0
XAxis mode: Wavelengths
Number of Pixels in Spectrum: 2048
>>>>>Begin Spectral Data<<<<<
341.393	-15.2
341.776	-15.2
342.16	-15.2
342.543	-69.66
342.927	-72.6
343.31	-57.68
343.693	-64.24
344.077	-40.51
344.46	-74.63
344.843	-57
345.226	-40.28
345.61	-57
345.993	-14.75
346.376	-9.55
346.759	20.28
347.142	27.06
347.525	44.24
347.908	51.47
348.291	74.07
348.674	90.11
349.057	108.42
349.44	105.48
349.823	128.75
350.206	164.23
350.588	230.45
350.971	245.13
351.354	261.18
351.737	276.55
352.119	276.55
352.502	289.65
352.884	326.49
353.267	322.19
353.65	354.51
354.032	339.37
354.414	366.26
354.797	343.44
355.179	356.54
355.562	364.91
355.944	368.3
356.326	392.7
356.709	397.67
357.091	367.62
357.473	378.69
357.855	404.68
358.238	398.35
358.62	396.54
359.002	405.58
359.384	409.65
359.766	398.35
360.148	387.28
360.53	399.71
360.912	385.92
361.294	402.42
361.676	399.48
362.057	385.7
362.439	376.2
362.821	396.54
363.203	372.59
363.584	400.38
363.966	387.73
364.348	406.26
364.729	406.71
365.111	388.41
365.493	401.97
365.874	404
366.256	400.61
366.637	386.37
367.019	388.86
367.4	415.3
367.781	401.74
368.163	411.68
368.544	410.1
368.925	419.82
369.306	439.03
369.688	414.62
370.069	417.33
370.45	426.37
370.831	405.36
371.212	399.26
371.593	426.15
371.974	422.76
372.355	421.85
372.736	435.41
373.117	449.2
373.498	455.3
373.879	441.29
374.26	438.8
374.641	444.23
375.021	439.03
375.402	451.68
375.783	461.63
376.163	516.54
376.544	498.69
376.925	485.58
377.305	492.13
377.686	488.74
378.066	485.35
378.447	481.06
378.827	512.92
379.208	492.81
379.588	511.57
379.968	507.27
380.349	503.21
380.729	512.47
381.109	538.91
381.489	508.63
381.87	559.93
382.25	555.41
382.63	564.9
383.01	555.18
383.39	559.48
383.77	560.15
384.15	559.25
384.53	577.78
384.91	573.49
385.29	597.89
385.67	583.88
386.049	581.62
386.429	609.87
386.809	617.1
387.189	640.6
387.568	625.24
387.948	633.37
388.328	641.96
388.707	647.61
389.087	654.84
389.466	651.23
389.846	646.25
390.225	697.78
390.605	687.16
390.984	693.03
391.363	711.11
391.743	702.3
392.122	715.63
392.501	735.29
392.881	721.05
393.26	745.01
393.639	742.75
394.018	756.76
394.397	747.49
394.776	777.1
395.155	751.34
395.534	771.22
395.913	789.08
396.292	799.47
396.671	824.33
397.05	839.02
397.429	806.02
397.808	819.13
398.186	857.77
398.565	826.14
398.944	871.11
399.323	874.27
399.701	878.79
400.08	890.54
400.458	909.3
400.837	907.72
401.215	917.66
401.594	917.89
401.972	938.45
402.351	955.85
402.729	930.31
403.107	954.95
403.486	957.21
403.864	989.07
404.242	1000.37
404.62	996.3
404.999	1014.38
405.377	1039.69
405.755	1069.07
406.133	1079.01
406.511	1059.12
406.889	1116.07
407.267	1103.19
407.645	1109.29
408.023	1169.4
408.401	1144.32
408.779	1151.33
409.156	1199.91
409.534	1176.41
409.912	1216.63
410.29	1241.94
410.667	1264.77
411.045	1299.57
411.422	1295.5
411.8	1277.2
412.178	1324.2
412.555	1339.8
412.933	1346.57
413.31	1383.86
413.687	1416.4
414.065	1415.05
414.442	1443.97
414.819	1457.53
415.197	1431.77
415.574	1482.62
415.951	1507.25
416.328	1490.98
416.705	1524.88
417.082	1512.67
417.46	1538.66
417.837	1570.98
418.214	1605.1
418.591	1582.27
418.967	1580.69
419.344	1632.67
419.721	1651.65
420.098	1640.8
420.475	1681.93
420.852	1698.88
421.228	1737.52
421.605	1723.29
421.982	1787.24
422.358	1808.94
422.735	1831.31
423.111	1800.12
423.488	1855.71
423.864	1869.5
424.241	1847.58
424.617	1905.88
424.994	1909.27
425.37	1939.78
425.746	1950.4
426.123	1977.29
426.499	2005.99
426.875	2001.02
427.251	2059.78
427.627	2093.9
428.003	2113.11
428.379	2124.63
428.756	2177.97
429.132	2197.17
429.507	2205.54
429.883	2246.89
430.259	2280.79
430.635	2332.99
431.011	2344.29
431.387	2434.91
431.763	2434
432.138	2455.7
432.514	2493.89
432.89	2527.79
433.265	2575.69
433.641	2572.98
434.016	2612.08
434.392	2690.27
434.767	2728.69
435.143	2703.6
435.518	2750.38
435.894	2814.56
436.269	2855.46
436.644	2859.76
437.02	2897.95
437.395	2891.17
437.77	2933.2
438.145	2987.66
438.52	3012.75
438.895	3083.7
439.271	3076.25
439.646	3174.1
440.021	3120.09
440.395	3163.93
440.77	3122.8
441.145	3195.57
441.52	3263.81
441.895	3261.78
442.27	3276.47
442.645	3337.03
443.019	3362.34
443.394	3371.38
443.769	3402.34
444.143	3368.44
444.518	3443.02
444.892	3451.6
445.267	3496.57
445.641	3500.42
446.016	3529.12
446.39	3586.06
446.764	3611.6
447.139	3576.8
447.513	3690.69
447.887	3679.39
448.262	3658.83
448.636	3704.7
449.01	3777.7
449.384	3778.83
449.758	3837.13
450.132	3895.21
450.506	3932.5
450.88	3932.95
451.254	3950.35
451.628	4037.8
452.002	4109.89
452.376	4098.14
452.75	4173.17
453.123	4158.93
453.497	4246.84
453.871	4247.06
454.244	4319.6
454.618	4350.11
454.992	4441.41
455.365	4491.8
455.739	4560.5
456.112	4606.83
456.486	4660.84
456.859	4735.19
457.232	4798.24
457.606	4758.46
457.979	4868.52
458.352	4957.55
458.725	4998.68
459.099	5124.78
459.472	5107.61
459.845	5202.07
460.218	5280.48
460.591	5304.21
460.964	5352.35
461.337	5452.68
461.71	5560.02
462.083	5648.83
462.456	5633.02
462.829	5709.4
463.201	5769.28
463.574	5841.15
463.947	5902.84
464.32	6072.55
464.692	6065.77
465.065	6096.73
465.438	6188.03
465.81	6332.88
466.183	6362.71
466.555	6516.61
466.928	6575.82
467.3	6582.82
467.672	6689.49
468.045	6917.73
468.417	6929.25
468.789	6924.51
469.161	7035.46
469.534	7194.78
469.906	7305.06
470.278	7348
470.65	7424.83
471.022	7617.6
471.394	7805.61
471.766	7813.3
472.138	7874.99
472.51	8064.82
472.882	8270.46
473.253	8259.16
473.625	8436.56
473.997	8577.8
474.369	8694.18
474.74	8813.27
475.112	8922.42
475.484	9122.87
475.855	9244.22
476.227	9331.45
476.598	9608.05
476.97	9684.66
477.341	9948.38
477.713	10007.59
478.084	10110.86
478.455	10452.32
478.827	10485.09
479.198	10768.7
479.569	10851.41
479.94	11151.51
480.311	11225.64
480.682	11420.89
481.053	11686.64
481.424	11959.86
481.795	12040.53
482.166	12301.54
482.537	12326.63
482.908	12706.73
483.279	12747.4
483.65	13025.82
484.021	13336.32
484.391	13335.19
484.762	13578.12
485.133	13668.96
485.503	13804.78
485.874	14197.99
486.244	14330.41
486.615	14570.86
486.985	14834.13
487.356	15116.61
487.726	15203.16
488.097	15508.01
488.467	15521.34
488.837	15869.36
489.207	16131.5
489.578	16225.28
489.948	16501.66
490.318	16601.77
490.688	16687.19
491.058	17147.52
491.428	17291.92
491.798	17465.25
492.168	17773.04
492.538	17834.28
492.908	18044.67
493.278	18313.59
493.648	18404.43
494.017	18613.47
494.387	18731.88
494.757	18922.38
495.126	19132.32
495.496	19294.58
495.866	19357.63
496.235	19592.2
496.605	19789.48
496.974	19895.92
497.344	20022.69
497.713	20167.32
498.082	20351.95
498.452	20648.67
498.821	20638.5
499.19	20765.05
499.559	20992.84
499.928	21106.96
500.298	21295.2
500.667	21439.83
501.036	21433.05
501.405	21701.52
501.774	21688.64
502.143	22020.38
502.512	22088.18
502.88	22313.93
503.249	22394.38
503.618	22566.13
503.987	22618.11
504.356	22852.9
504.724	23033.91
505.093	23038.89
505.462	23144.87
505.83	23370.63
506.199	23688.81
506.567	23872.76
506.936	23793.89
507.304	24199.99
507.672	24176.26
508.041	24385.52
508.409	24662.8
508.777	24788.9
509.145	25021.43
509.514	25030.25
509.882	25293.52
510.25	25277.7
510.618	25577.8
510.986	25737.8
511.354	25992.71
511.722	26108.41
512.09	26386.59
512.458	26293.26
512.826	26636.98
513.193	26835.85
513.561	26811.89
513.929	27105.67
514.297	27283.75
514.664	27594.02
515.032	27748.59
515.4	27919.21
515.767	28069.04
516.135	28265.87
516.502	28075.14
516.869	28558.97
517.237	28830.82
517.604	28826.3
517.972	29262.22
518.339	29386.74
518.706	29408.66
519.073	29597.81
519.44	29891.59
519.808	30221.97
520.175	30174.74
520.542	30541.51
520.909	30893.37
521.276	30931.11
521.643	31276.64
522.009	31431.43
522.376	31544.42
522.743	31890.4
523.11	32251.52
523.477	32627.79
523.843	32636.83
524.21	32974.22
524.577	33201.33
524.943	33411.49
525.31	33653.75
525.676	33933.06
526.043	34121.08
526.409	34409.43
526.776	34598.58
527.142	34749.09
527.508	34947.73
527.874	35244.89
528.241	35557.2
528.607	35621.15
528.973	36062.5
529.339	36018.21
529.705	36360.8
530.071	36552.43
530.437	36883.95
530.803	36871.74
531.169	37259.3
531.535	37246.42
531.901	37425.17
532.267	37556.02
532.632	37885.05
532.998	37805.5
533.364	38137.92
533.73	38322.55
534.095	38642.09
534.461	38747.4
534.826	38887.73
535.192	39119.14
535.557	39396.42
535.923	39378.8
536.288	39405.46
536.653	39810.87
537.019	39772.01
537.384	39993.02
537.749	40077.76
538.114	40152.11
538.479	40344.42
538.845	40651.3
539.21	40494.7
539.575	40689.95
539.94	40926.1
540.305	41091.97
540.67	41056.94
541.034	41247.45
541.399	41406.54
541.764	41531.51
542.129	41711.84
542.494	41788
542.858	41974.66
543.223	42030.7
543.587	42360.86
543.952	42405.83
544.316	42601.08
544.681	42446.29
545.045	42838.14
545.41	42988.19
545.774	42979.38
546.138	43147.74
546.503	43303.89
546.867	43253.95
547.231	43736.65
547.595	43760.37
547.959	43912.46
548.324	43965.57
548.688	44115.85
549.052	44227.93
549.416	44304.32
549.779	44448.49
550.143	44607.81
550.507	44787.47
550.871	44971.19
551.235	44930.06
551.599	45422.7
551.962	45398.98
552.326	45573.89
552.689	45770.04
553.053	45654.11
553.417	45660.44
553.78	46273.76
554.143	46125.74
554.507	46399.4
554.87	46483.47
555.234	47023.34
555.597	46677.13
555.96	46867.86
556.323	47100.4
556.686	47169.55
557.05	47472.59
557.413	47638.24
557.776	47697.67
558.139	48024.22
558.502	48128.4
558.865	48060.37
559.228	48407.26
559.59	48453.13
559.953	48593.24
560.316	49064.64
560.679	49010.41
561.041	49262.15
561.404	49414.46
561.767	49738.07
562.129	49510.28
562.492	49832.31
562.854	49891.96
563.217	49933.09
563.579	50212.18
563.941	50405.62
564.304	50529.91
564.666	50742.34
565.028	50804.48
565.39	50900.3
565.753	51160.86
566.115	51239.5
566.477	51414.41
566.839	51503
567.201	51684.23
567.563	51777.79
567.925	51909.99
568.287	51974.85
568.648	52069.53
569.01	52203.32
569.372	52436.98
569.734	52336.19
570.095	52598.33
570.457	52688.95
570.819	52789.29
571.18	52800.14
571.542	52997.65
571.903	53025.22
572.265	53183.86
572.626	53220.69
572.987	53289.16
573.349	53352.89
573.71	53449.84
574.071	53505.66
574.432	53654.8
574.794	53852.99
575.155	53851.18
575.516	53782.03
575.877	53910.16
576.238	53994
576.599	54067.9
576.96	54074.91
577.32	54211.17
577.681	54374.56
578.042	54271.96
578.403	54310.61
578.763	54320.55
579.124	54401.9
579.485	54469.02
579.845	54537.27
580.206	54527.32
580.566	54583.14
580.927	54452.75
581.287	54663.82
581.648	54573.42
582.008	54719.41
582.368	54699.52
582.728	54793.53
583.089	54661.78
583.449	54668.11
583.809	54682.12
584.169	54857.26
584.529	54735.91
584.889	54870.59
585.249	54827.2
585.609	54711.95
585.969	54849.12
586.329	54721.22
586.688	54771.61
587.048	54777.03
587.408	54740.88
587.768	54776.58
588.127	54762.12
588.487	54682.12
588.846	54986.52
589.206	54716.7
589.565	54781.55
589.925	54817.94
590.284	54831.95
590.643	54876.24
591.003	54950.59
591.362	54918.95
591.721	54871.04
592.08	54883.7
592.44	54983.81
592.799	54976.58
593.158	54912.17
593.517	54939.06
593.876	54985.39
594.235	54923.47
594.593	55030.36
594.952	55082.11
595.311	54889.12
595.67	55038.04
596.029	55259.06
596.387	55202.56
596.746	55191.03
597.104	55074.88
597.463	55110.81
597.822	55155.56
598.18	55110.36
598.538	55069
598.897	55317.59
599.255	55005.28
599.613	55471.71
599.972	55226.06
600.33	55374.98
600.688	55229
601.046	55318.26
601.404	55447.98
601.762	55325.27
602.12	55421.31
602.478	55477.35
602.836	55428.99
603.194	55374.31
603.552	55417.7
603.91	55380.41
604.268	55525.04
604.625	55461.76
604.983	55581.53
605.341	55500.86
605.698	55633.51
606.056	55610.91
606.413	55610.01
606.771	55702.66
607.128	55735.65
607.485	55555.54
607.843	55671.02
608.2	55803.67
608.557	55937.46
608.914	55765.26
609.272	55936.78
609.629	55965.48
609.986	56026.49
610.343	55931.58
610.7	56089.54
611.057	56067.17
611.414	56043.22
611.771	56082.31
612.127	56177.68
612.484	56102.65
612.841	56245.7
613.198	56134.29
613.554	56216.77
613.911	56259.26
614.267	56220.61
614.624	56220.84
614.98	56289.08
615.337	56371.57
615.693	56327.5
616.05	56307.39
616.406	56461.74
616.762	56323.21
617.118	56391.91
617.475	56392.13
617.831	56447.27
618.187	56489.98
618.543	56549.64
618.899	56612.24
619.255	56491.11
619.611	56521.85
619.967	56606.59
620.323	56612.01
620.678	56546.93
621.034	56504.67
621.39	56449.31
621.746	56496.99
622.101	56822.4
622.457	56496.54
622.812	56578.34
623.168	56661.96
623.523	56621.73
623.879	56692.01
624.234	56581.73
624.589	56622.41
624.945	56662.41
625.3	56621.28
625.655	56607.04
626.01	56624.9
626.365	56663.09
626.72	56614.95
627.075	56617.89
627.43	56570.43
627.785	56485.01
628.14	56636.87
628.495	56621.96
628.85	56574.5
629.205	56549.87
629.559	56654.05
629.914	56443.66
630.269	56560.94
630.623	56507.38
630.978	56310.33
631.332	56461.74
631.687	56490.89
632.041	56334.51
632.396	56411.79
632.75	56299.25
633.104	56304.23
633.459	56250.22
633.813	56227.62
634.167	56171.8
634.521	56138.35
634.875	56199.37
635.229	56028.75
635.583	56008.19
635.937	55944.24
636.291	55977.68
636.645	55930.68
636.999	55941.3
637.352	56000.28
637.706	55788.08
638.06	55870.34
638.413	55852.71
638.767	55780.62
639.121	55794.86
639.474	55539.5
639.828	55680.97
640.181	55701.76
640.534	55620.18
640.888	55560.52
641.241	55451.37
641.594	55435.55
641.947	55559.61
642.301	55446.85
642.654	55425.15
643.007	55449.56
643.36	55414.08
643.713	55294.99
644.066	55384.25
644.419	55144.48
644.771	55026.52
645.124	54793.08
645.477	54676.7
645.83	54469.92
646.182	54397.84
646.535	54290.72
646.888	54309.02
647.24	54128.69
647.593	54300.21
647.945	54229.48
648.298	54132.08
648.65	54132.08
649.002	54007.56
649.355	54071.06
649.707	54124.17
650.059	54140.44
650.411	54530.49
650.763	54472.86
651.115	54744.49
651.467	54716.7
651.819	54593.08
652.171	54614.33
652.523	54437.38
652.875	54472.64
653.227	54366.42
653.578	54518.96
653.93	54490.04
654.282	54357.84
654.633	54234.9
654.985	54336.82
655.337	54238.52
655.688	54303.15
656.039	54310.61
656.391	54085.75
656.742	54131.4
657.094	54111.97
657.445	54250.95
657.796	54148.12
658.147	54078.3
658.498	54071.06
658.849	54185.86
659.2	54039.2
659.551	53905.87
659.902	54096.15
660.253	53940.22
660.604	53959.43
660.955	53877.62
661.306	54061.12
661.656	53912.88
662.007	53897.28
662.358	53865.87
662.708	53883.72
663.059	53830.39
663.409	53617.06
663.76	53889.15
664.11	53769.83
664.461	53793.33
664.811	53813.9
665.161	53769.15
665.511	53698.42
665.862	53744.29
666.212	53796.04
666.562	53783.61
666.912	53619.55
667.262	53640.34
667.612	53633.56
667.962	53645.09
668.312	53515.6
668.662	53662.49
669.011	53613.22
669.361	53522.6
669.711	53460.01
670.06	53391.99
670.41	53400.35
670.76	53321.93
671.109	53428.82
671.459	53408.26
671.808	53411.87
672.157	53356.73
672.507	53235.38
672.856	53266.11
673.205	53264.53
673.554	53267.24
673.904	53159
674.253	53343.4
674.602	53125.33
674.951	52806.46
675.3	52600.14
675.649	53077.19
675.998	53055.27
676.346	53131.65
676.695	53237.19
677.044	52851.21
677.393	53007.82
677.741	52994.93
678.09	52938.89
678.438	52804.2
678.787	52876.52
679.135	52857.54
679.484	52631.78
679.832	52735.96
680.181	52641.95
680.529	52754.49
680.877	52629.07
681.225	52594.04
681.573	52651.67
681.922	52503.65
682.27	52379.58
682.618	52369.19
682.966	52258.23
683.314	52344.56
683.661	52199.02
684.009	51988.63
684.357	52013.49
684.705	51905.7
685.053	52040.16
685.4	51909.09
685.748	51815.98
686.095	51738.02
686.443	51679.04
686.79	51574.18
687.138	51538.25
687.485	51529.89
687.832	51345.03
688.18	51492.6
688.527	51236.34
688.874	51237.92
689.221	51204.25
689.568	51090.35
689.915	50858.95
690.262	50983.91
690.609	50839.28
690.956	50689.46
691.303	50822.79
691.65	50562.46
691.997	50498.28
692.344	50279.75
692.69	50338.05
693.037	50204.73
693.383	50007.44
693.73	50096.93
694.077	49905.98
694.423	49922.7
694.769	49665.53
695.116	49581.92
695.462	49622.14
695.808	49534.01
696.155	49518.42
696.501	49250.63
696.847	49200.46
697.193	48959.56
697.539	49131.08
697.885	48831.88
698.231	48705.78
698.577	48652.22
698.923	48656.07
699.269	48298.11
699.614	48292.46
699.96	48208.17
700.306	48239.35
700.651	48082.52
700.997	47854.73
701.342	47968.17
701.688	47839.14
702.033	47814.51
702.379	47609.31
702.724	47433.72
703.069	47527.73
703.415	47079.38
703.76	47095.88
704.105	47111.93
704.45	47035.54
704.795	46731.6
705.14	46520.98
705.485	46695.44
705.83	46593.75
706.175	46572.05
706.52	46358.5
706.865	46241.44
707.209	46179.97
707.554	45948.57
707.899	46150.14
708.243	45875.57
708.588	45773.66
708.932	45394
709.277	45590.84
709.621	45502.02
709.966	45214.12
710.31	45313.1
710.654	45040.79
710.998	45145.2
711.342	45157.85
711.687	44917.18
712.031	44688.49
712.375	44610.75
712.719	44784.98
713.063	44544.53
713.407	44721.48
713.75	44383.41
714.094	44306.35
714.438	44083.98
714.782	44211.44
715.125	43970.76
715.469	44159.69
715.812	43824.55
716.156	43733.03
716.499	43430.21
716.843	43710.43
717.186	43411.68
717.53	43616.42
717.873	43579.59
718.216	43424.11
718.559	43163.33
718.902	42929.66
719.246	43062.09
719.589	42872.26
719.932	42720.4
720.275	42747.07
720.617	42747.52
720.96	42760.4
721.303	42752.49
721.646	42669.56
721.989	42370.13
722.331	42476.34
722.674	42297.81
723.016	42410.35
723.359	42211.71
723.701	42367.64
724.044	41870.93
724.386	41896.02
724.729	42002.45
725.071	41747.55
725.413	41797.94
725.755	41744.16
726.097	41524.95
726.439	41522.47
726.782	41288.8
727.124	41552.3
727.465	41353.88
727.807	41294.22
728.149	41109.37
728.491	40980.79
728.833	41122.93
729.175	40933.78
729.516	40905.76
729.858	40799.77
730.199	40794.58
730.541	40745.09
730.882	40733.56
731.224	40761.13
731.565	40487.69
731.906	40596.16
732.248	40585.99
732.589	40229.85
732.93	40227.13
733.271	40167.7
733.612	40242.28
733.953	40387.36
734.294	40020.81
734.635	39837.31
734.976	40001.6
735.317	39823.98
735.658	39729.07
735.999	39826.01
736.339	39691.1
736.68	39778.56
737.021	39477.32
737.361	39346.25
737.702	39621.05
738.042	39365.01
738.383	39369.53
738.723	39278.46
739.063	39166.6
739.404	39353.94
739.744	39064.91
740.084	38920.73
740.424	39040.05
740.764	38852.48
741.104	38997.56
741.444	38786.95
741.784	38548.53
742.124	38755.08
742.464	38621.53
742.804	38453.4
743.143	38462.89
743.483	38428.09
743.823	38253.4
744.162	38244.59
744.502	38134.31
744.841	38070.35
745.181	38221.54
745.52	37986.52
745.86	38096.79
746.199	37979.06
746.538	37819.97
746.877	37954.43
747.216	37876.24
747.556	37623.81
747.895	37723.47
748.234	37595.79
748.573	37561.89
748.911	37520.76
749.25	37320.32
749.589	37213.2
749.928	37187.67
750.267	37178.4
750.605	37176.14
750.944	36988.35
751.283	36864.74
751.621	36965.75
751.96	36833.33
752.298	36636.27
752.636	36696.83
752.975	36596.5
753.313	36353.56
753.651	36442.15
753.989	36321.93
754.327	36245.32
754.666	36033.57
755.004	36064.53
755.342	36075.38
755.679	35909.73
756.017	35814.6
756.355	35784.54
756.693	35519.69
757.031	35641.27
757.368	35455.28
757.706	35273.14
758.044	35212.58
758.381	35268.62
758.719	35066.14
759.056	35167.61
759.394	34946.37
759.731	34804.68
760.068	34724.91
760.405	34540.96
760.743	34325.14
761.08	34398.81
761.417	34334.63
761.754	34199.5
762.091	34145.49
762.428	33954.08
762.765	33815.1
763.102	33905.49
763.438	33697.14
763.775	33580.76
764.112	33613.52
764.449	33599.29
764.785	33303.7
765.122	33120.65
765.458	33086.31
765.795	32969.02
766.131	32966.76
766.467	32782.58
766.804	32698.74
767.14	32468.92
767.476	32427.34
767.812	32471.86
768.148	32327.68
768.485	32068.48
768.821	32075.26
769.157	31850.41
769.492	31814.47
769.828	31863.96
770.164	31597.98
770.5	31462.62
770.836	31475.05
771.171	31221.5
771.507	31177.88
771.842	30939.02
772.178	31006.59
772.513	30974.27
772.849	30779.7
773.184	30600.49
773.519	30689.53
773.855	30492.7
774.19	30356.21
774.525	30293.16
774.86	30304.68
775.195	30097.68
775.53	29977.23
775.865	29802.1
776.2	29543.8
776.535	29566.62
776.87	29412.05
777.205	29276.24
777.539	29248.67
777.874	29165.96
778.209	29025.85
778.543	29009.35
778.878	28760.32
779.212	28546.09
779.547	28621.34
779.881	28630.83
780.215	28427.9
780.55	28433.32
780.884	28174.57
781.218	28199.43
781.552	28095.25
781.886	28035.36
782.22	27836.05
782.554	27678.76
782.888	27467.24
783.222	27458.2
783.556	27239.23
783.889	27343.18
784.223	27083.98
784.557	26987.71
784.89	27047.14
785.224	26805.79
785.557	26763.08
785.891	26742.97
786.224	26528.29
786.558	26478.57
786.891	26312.25
787.224	26163.1
787.557	26174.85
787.891	26081.52
788.224	26034.74
788.557	26074.06
788.89	25947.74
789.223	25802.65
789.556	25634.07
789.888	25600.85
790.221	25429.33
790.554	25233.63
790.887	25277.7
791.219	25223.01
791.552	25191.15
791.884	24929.23
792.217	24924.03
792.549	24817.6
792.882	24529.47
793.214	24526.76
793.546	24608.56
793.879	24562.24
794.211	24342.81
794.543	24424.61
794.875	24336.93
795.207	24376.48
795.539	24032.76
795.871	24031.4
796.203	23896.26
796.535	23877.06
796.867	23787.57
797.198	23736.04
797.53	23552.77
797.862	23516.61
798.193	23452.89
798.525	23369.5
798.856	23437.07
799.188	23119.79
799.519	23090.64
799.85	23061.71
800.182	23058.09
800.513	22951.66
800.844	22819.46
801.175	22848.38
801.506	22810.64
801.837	22684.09
802.168	22649.97
802.499	22507.15
802.83	22438.68
803.161	22454.95
803.491	22410.43
803.822	22395.96
804.153	22380.15
804.483	22031.23
804.814	21921.85
805.145	21910.55
805.475	22023.09
805.805	21851.35
806.136	21832.59
806.466	21798.24
806.796	21828.07
807.126	21508.3
807.457	21401.19
807.787	21548.08
808.117	21416.78
808.447	21328.65
808.777	21347.63
809.107	21208.2
809.436	21245.94
809.766	21145.83
810.096	21079.16
810.426	20919.85
810.755	21026.28
811.085	20945.61
811.414	20786.06
811.744	20787.19
812.073	20619.51
812.403	20743.35
812.732	20586.07
813.061	20548.1
813.39	20443.02
813.719	20356.7
814.049	20426.3
814.378	20380.65
814.707	20287.09
815.036	20298.84
815.365	20123.93
815.693	19963.03
816.022	20010.94
816.351	19917.84
816.68	19824.51
817.008	19883.49
817.337	19666.55
817.665	19718.97
817.994	19759.2
818.322	19695.02
818.651	19655.47
818.979	19486.89
819.307	19653.89
819.636	19566.21
819.964	19406.89
820.292	19500.45
820.62	19409.38
820.948	19404.86
821.276	19374.12
821.604	19332.32
821.932	19365.31
822.259	19420.45
822.587	19362.15
822.915	19270.85
823.243	19451.64
823.57	19232.43
823.898	19317.63
824.225	19211.19
824.553	19248.25
824.88	19341.58
825.207	19288.48
825.535	19227.01
825.862	19301.36
826.189	19225.43
826.516	19279.89
826.843	19369.15
827.17	19344.52
827.497	19248.93
827.824	19199.89
828.151	19345.2
828.478	19230.4
828.805	19284.63
829.131	19277.4
829.458	19168.48
829.785	19062.04
830.111	19148.82
830.438	19264.07
830.764	19225.2
831.09	19179.78
831.417	19091.42
831.743	19170.06
832.069	19135.26
832.395	18955.38
832.722	19213.9
833.048	19001.48
833.374	19055.04
833.7	18984.76
834.026	19130.74
834.351	18993.57
834.677	18960.57
835.003	18981.37
835.329	19020.69
835.654	18976.17
835.98	18773.01
836.306	18850.07
836.631	18681.03
836.956	18834.93
837.282	18742.28
837.607	18633.8
837.932	18683.29
838.258	18625.67
838.583	18562.17
838.908	18533.69
839.233	18592.67
839.558	18567.14
839.883	18453.24
840.208	18310.87
840.533	18415.5
840.858	18350.2
841.182	18312.23
841.507	18274.72
841.832	18185
842.156	18191.33
842.481	18158.11
842.805	18090.99
843.13	18109.3
843.454	18072.01
843.778	18003.54
844.103	17897.78
844.427	17990.2
844.751	17942.75
845.075	17697.78
845.399	17747.27
845.723	17697.33
846.047	17778.46
846.371	17600.38
846.695	17595.87
847.019	17480.16
847.343	17385.02
847.666	17305.93
847.99	17075.65
848.313	17165.14
848.637	17119.27
848.96	17061.87
849.284	17034.3
849.607	16870.91
849.931	16838.82
850.254	16645.61
850.577	16645.16
850.9	16458.95
851.223	16523.35
851.546	16456.01
851.869	16318.38
852.192	16406.52
852.515	16281.32
852.838	16179.86
853.161	16091.95
853.483	16088.11
853.806	15999.75
854.129	15973.31
854.451	16000.65
854.774	15849.24
855.096	15801.56
855.419	15809.02
855.741	15779.42
856.063	15665.29
856.385	15581.68
856.708	15523.38
857.03	15502.13
857.352	15504.62
857.674	15444.74
857.996	15332.2
858.318	15282.93
858.64	15325.42
858.961	15267.34
859.283	15237.28
859.605	15171.3
859.926	15121.58
860.248	15098.76
860.57	15041.13
860.891	15031.19
861.212	14927.69
861.534	14949.83
861.855	14869.16
862.176	14816.73
862.498	14931.53
862.819	14855.82
863.14	14786.67
863.461	14804.98
863.782	14684.53
864.103	14732.66
864.424	14592.78
864.745	14659.45
865.065	14596.62
865.386	14514.14
865.707	14556.4
866.027	14528.6
866.348	14482.73
866.668	14414.03
866.989	14398.43
867.309	14315.73
867.63	14348.94
867.95	14353.01
868.27	14252.45
868.59	14354.37
868.91	14306.23
869.23	14225.33
869.55	14262.85
869.87	14305.33
870.19	14107.82
870.51	14107.6
870.83	14135.62
871.15	14037.77
871.469	14153.02
871.789	14124.09
872.109	14038.44
872.428	14004.1
872.748	14000.93
873.067	14045.9
873.386	14036.41
873.706	13911.89
874.025	13924.1
874.344	13809.07
874.663	13884.32
874.982	13794.16
875.301	13744.67
875.62	13805.68
875.939	13754.38
876.258	13730.66
876.577	13652.69
876.896	13709.41
877.214	13596.42
877.533	13615.63
877.852	13601.62
878.17	13600.04
878.489	13545.12
878.807	13578.57
879.125	13468.74
879.444	13509.42
879.762	13432.58
880.08	13427.16
880.398	13410.89
880.716	13361.85
881.034	13348.07
881.352	13393.04
881.67	13244.34
881.988	13317.79
882.306	13180.39
882.624	13212.7
882.941	13235.75
883.259	13156.21
883.577	13127.51
883.894	13076.44
884.212	13086.15
884.529	13018.81
884.846	12935.42
885.164	12940.17
885.481	12965.03
885.798	13000.73
886.115	12874.86
886.432	12837.57
886.75	12778.36
887.067	12838.48
887.383	12734.07
887.7	12752.83
888.017	12725.48
888.334	12663.34
888.651	12667.18
888.967	12610.69
889.284	12583.34
889.6	12457.02
889.917	12369.11
890.233	12411.59
890.55	12353.74
890.866	12419.73
891.182	12379.28
891.498	12323.46
891.815	12218.83
892.131	12231.94
892.447	12121.66
892.763	12133.18
893.079	12155.78
893.395	12045.73
893.71	12006.41
894.026	11954.21
894.342	11906.98
894.657	11967.31
894.973	11970.25
895.289	11909.91
895.604	11860.2
895.92	11704.95
896.235	11719.41
896.55	11663.37
896.865	11651.84
897.181	11657.04
897.496	11620.65
897.811	11573.88
898.126	11437.16
898.441	11433.77
898.756	11509.02
899.071	11350.61
899.386	11384.28
899.7	11300.21
900.015	11210.72
900.33	11164.4
900.644	11195.36
900.959	11132.31
901.273	11097.5
901.588	11052.53
901.902	10999.65
902.216	10935.02
902.531	10962.37
902.845	10895.93
903.159	10818.87
903.473	10713.56
903.787	10742.49
904.101	10652.32
904.415	10611.87
904.729	10597.4
905.042	10531.42
905.356	10590.63
905.67	10483.51
905.984	10470.85
906.297	10490.74
906.611	10409.61
906.924	10414.81
907.237	10344.76
907.551	10385.66
907.864	10311.76
908.177	10161.03
908.491	10198.09
908.804	10126
909.117	10004.88
909.43	10069.06
909.743	10011.66
910.056	9980.25
910.368	9970.53
910.681	9904.09
910.994	9844.88
911.307	9821.61
911.619	9716.75
911.932	9724.21
912.244	9673.36
912.557	9648.5
912.869	9519.24
913.181	9542.74
913.494	9540.71
913.806	9452.35
914.118	9440.15
914.43	9302.3
914.742	9388.17
915.054	9289.87
915.366	9271.56
915.678	9247.16
915.99	9201.28
916.302	9145.69
916.613	9119.7
916.925	9073.83
917.236	9037.9
917.548	8945.7
917.859	9030.44
918.171	8931.91
918.482	8901.18
918.794	8839.94
919.105	8858.47
919.416	8754.06
919.727	8728.08
920.038	8761.3
920.349	8618.7
920.66	8589.55
920.971	8620.73
921.282	8562.66
921.593	8495.99
921.903	8479.49
922.214	8450.79
922.525	8415.09
922.835	8317.92
923.146	8283.34
923.456	8243.79
923.767	8278.6
924.077	8263.91
924.387	8208.54
924.697	8099.62
925.008	8111.14
925.318	8143.68
925.628	8061.88
925.938	8029.34
926.248	7975.55
926.558	7929
926.867	7975.78
927.177	7894.65
927.487	7811.04
927.796	7740.3
928.106	7774.2
928.416	7730.81
928.725	7739.63
929.034	7648.78
929.344	7643.13
929.653	7608.11
929.962	7590.03
930.271	7491.72
930.581	7542.8
930.89	7403.59
931.199	7426.19
931.508	7384.16
931.817	7388.22
932.125	7292.63
932.434	7326.98
932.743	7258.06
933.051	7232.3
933.36	7202.47
933.669	7153.88
933.977	7116.14
934.286	7095.8
934.594	7081.79
934.902	7018.29
935.21	6990.72
935.519	6975.35
935.827	7022.36
936.135	6877.95
936.443	6855.36
936.751	6809.71
937.059	6854
937.367	6769.71
937.674	6784.17
937.982	6696.72
938.29	6715.25
938.597	6671.41
938.905	6628.24
939.213	6595.25
939.52	6573.33
939.827	6542.37
940.135	6530.62
940.442	6489.49
940.749	6430.06
941.056	6457.17
941.363	6362.94
941.67	6395.93
941.977	6333.11
942.284	6312.77
942.591	6224.86
942.898	6281.59
943.205	6249.04
943.511	6225.54
943.818	6206.33
944.125	6103.51
944.431	6139.22
944.738	6096.51
945.044	6103.51
945.35	6024.87
945.657	6024.87
945.963	6011.76
946.269	5949.17
946.575	5942.84
946.881	5915.72
947.187	5881.14
947.493	5830.98
947.799	5860.35
948.105	5776.51
948.41	5809.73
948.716	5717.53
949.022	5711.43
949.327	5717.99
949.633	5654.48
949.938	5643.64
950.244	5700.81
950.549	5588.27
950.854	5597.54
951.16	5556.86
951.465	5523.87
951.77	5556.41
952.075	5430.76
952.38	5450.42
952.685	5432.57
952.99	5373.59
953.294	5383.98
953.599	5392.57
953.904	5314.38
954.209	5318.45
954.513	5301.27
954.818	5265.57
955.122	5238.22
955.426	5190.32
955.731	5172.69
956.035	5165.46
956.339	5168.85
956.643	5145.57
956.948	5055.18
957.252	5129.53
957.556	5051.11
957.86	5052.24
958.163	5049.08
958.467	5011.79
958.771	4992.35
959.075	4930.66
959.378	4911
959.682	4954.16
959.985	4900.61
960.289	4811.79
960.592	4807.95
960.896	4869.87
961.199	4802.53
961.502	4749.65
961.805	4704.68
962.108	4678.46
962.411	4695.19
962.714	4642.53
963.017	4658.58
963.32	4670.56
963.623	4640.27
963.926	4613.16
964.228	4561.63
964.531	4577.68
964.833	4532.25
965.136	4501.97
965.438	4490.45
965.741	4454.97
966.043	4472.59
966.345	4439.37
966.648	4387.4
966.95	4408.19
967.252	4371.58
967.554	4308.53
967.856	4325.48
968.158	4321.19
968.46	4259.49
968.761	4261.3
969.063	4293.84
969.365	4227.4
969.666	4219.49
969.968	4181.75
970.269	4180.62
970.571	4174.97
970.872	4148.53
971.174	4113.96
971.475	4041.87
971.776	4090.68
972.077	4062.21
972.378	4040.97
972.679	4034.19
972.98	4027.41
973.281	3958.48
973.582	3943.12
973.883	3960.97
974.183	3956.22
974.484	3966.84
974.785	3915.09
975.085	3925.04
975.386	3868.32
975.686	3855.44
975.986	3850.24
976.287	3765.49
976.587	3746.74
976.887	3798.94
977.187	3735.66
977.487	3752.39
977.787	3732.5
978.087	3706.29
978.387	3679.85
978.687	3707.19
978.987	3687.08
979.286	3617.02
979.586	3628.32
979.885	3575.67
980.185	3573.86
980.484	3627.87
980.784	3541.09
981.083	3566.63
981.382	3506.97
981.682	3520.75
981.981	3500.87
982.28	3479.17
982.579	3422.9
982.878	3450.02
983.177	3436.01
983.475	3419.29
983.774	3389.68
984.073	3354.21
984.372	3350.82
984.67	3314.21
984.969	3342.45
985.267	3321.89
985.566	3316.69
985.864	3285.28
986.162	3291.83
986.461	3263.81
986.759	3273.76
987.057	3226.98
987.355	3229.46
987.653	3161.89
987.951	3181.1
988.249	3173.19
988.547	3150.37
988.844	3147.21
989.142	3131.84
989.44	3086.64
989.737	3102.91
990.035	3079.64
990.332	3081.22
990.63	3048
990.927	3034.21
991.224	3045.29
991.521	3050.26
991.819	2984.72
992.116	2987.66
992.413	2963.26
992.71	2984.5
993.006	2970.26
993.303	2926.19
993.6	2911.73
993.897	2898.85
994.193	2896.82
994.49	2862.47
994.787	2844.39
995.083	2836.71
995.379	2808.01
995.676	2822.24
995.972	2778.63
996.268	2762.36
996.565	2764.84
996.861	2770.04
997.157	2751.28
997.453	2699.76
997.749	2717.39
998.044	2693.66
998.34	2691.62
998.636	2686.65
998.932	2624.73
999.227	2657.27
999.523	2594.45
999.818	2635.35
1000.114	2572.08
1000.409	2586.99
1000.704	2562.14
1001	2569.37
1001.295	2508.13
1001.59	2522.36
1001.885	2531.18
1002.18	2496.6
1002.475	2465.19
1002.77	2420.22
1003.065	2413.44
1003.359	2407.11
1003.654	2436.72
1003.949	2438.75
1004.243	2407.34
1004.538	2383.84
1004.832	2375.47
1005.127	2342.93
1005.421	2344.97
1005.715	2309.94
1006.009	2334.35
1006.304	2307.91
1006.598	2261.35
1006.892	2242.37
1007.186	2290.05
1007.48	2257.96
1007.773	2217.96
1008.067	2221.81
1008.361	2213.9
1008.655	2179.55
1008.948	2179.55
1009.242	2125.76
1009.535	2177.51
1009.829	2151.53
1010.122	2138.42
1010.415	2102.49
1010.708	2094.13
1011.001	2103.39
1011.295	2096.61
1011.588	2073.34
1011.881	2047.35
1012.173	2034.24
1012.466	2042.83
1012.759	2061.36
1013.052	2033.56
1013.344	1989.72
1013.637	1996.95
1013.93	1964.86
1014.222	1941.14
1014.514	1960.12
1014.807	1918.76
1015.099	1911.76
1015.391	1900.68
1015.683	1930.29
1015.976	1917.86
1016.268	1873.34
1016.56	1881.02
1016.851	1854.81
1017.143	1829.5
1017.435	1846.9
1017.727	1805.55
1018.018	1787.47
1018.31	1782.95
1018.602	1792.89
1018.893	1781.82
1019.185	1731.42
1019.476	1723.97
1019.767	1739.33
1020.058	1686.9
1020.35	1684.87
1020.641	1680.13
1020.932	1680.13
1021.223	1667.24
1021.514	1646.91
1021.804	1649.39
1022.095	1612.78
1022.386	1620.01
1022.677	1599.68
1022.967	1604.87
1023.258	1560.35
1023.548	1589.05
1023.839	1557.64
1024.129	1543.41
1024.419	1547.93
1024.709	1556.29
1025	1499.11
1025.29	1510.19
1025.58	1507.25
1025.87	1487.14
1026.16	1490.07
1026.449	1455.95
1026.739	1481.26
1027.029	1453.46
1027.319	1413.24
1027.608	1448.49
1027.898	1427.93
1028.187	1413.69
1028.477	1399.91
1028.766	1391.32
1029.055	1392.45
1029.344	1393.13
1029.634	1349.51
1029.923	1363.75
1030.212	1336.18
1030.501	1339.34
1030.79	1316.52
1031.078	1329.63
1031.367	1313.81
1031.656	1301.83
1031.945	1273.36
1032.233	1267.93
1032.522	1261.15
1032.81	1272.9
1033.099	1254.6
1033.387	1244.2
1033.675	1239.01
1033.963	1208.73
1034.251	1239.46
1034.54	1208.5
1034.828	1204.66
1035.116	1209.4
1035.403	1182.74
1035.691	1178.67
1035.979	1188.84
1036.267	1177.54
1036.554	1155.17
1036.842	1159.01
1037.129	1148.16
1037.417	1120.59
1037.704	1149.07
1037.992	1139.12
1038.279	1127.37
1038.566	1108.84
1038.853	1108.84
1039.14	1108.84
