Data from White_paper_FLMS001491_090.txt Node
Date: Tue Feb 07 10:35:41 GMT 2017
User: dcchb
Spectrometer: FLMS00149
Trigger mode: 0
Integration Time (sec): 2.000000E-2
Scans to average: 10
Electric dark correction enabled: true
Nonlinearity correction enabled: false
Boxcar width: 0
XAxis mode: Wavelengths
Number of Pixels in Spectrum: 2048
>>>>>Begin Spectral Data<<<<<
341.393	-21.85
341.776	-21.85
342.16	-21.85
342.543	-62.98
342.927	-58.68
343.31	-69.76
343.693	-55.75
344.077	-58.46
344.46	-62.07
344.843	-61.62
345.226	-33.15
345.61	-25.69
345.993	-16.2
346.376	-24.34
346.759	1.2
347.142	14.76
347.525	38.49
347.908	78.49
348.291	72.84
348.674	79.16
349.057	122.1
349.44	115.77
349.823	129.78
350.206	159.61
350.588	200.74
350.971	238.48
351.354	245.94
351.737	277.13
352.119	305.37
352.502	276.67
352.884	296.33
353.267	308.99
353.65	323.45
354.032	316.45
354.414	356.67
354.797	354.86
355.179	360.29
355.562	360.29
355.944	342.89
356.326	345.6
356.709	353.06
357.091	361.42
357.473	358.93
357.855	367.29
358.238	379.04
358.62	367.29
359.002	361.42
359.384	385.6
359.766	379.04
360.148	379.95
360.53	383.56
360.912	355.09
361.294	370.23
361.676	371.81
362.057	361.64
362.439	363
362.821	363.45
363.203	382.43
363.584	361.42
363.966	365.94
364.348	358.03
364.729	339.95
365.111	347.41
365.493	363.22
365.874	348.99
366.256	373.85
366.637	355.09
367.019	364.35
367.4	375.43
367.781	367.52
368.163	375.43
368.544	343.79
368.925	375.65
369.306	365.48
369.688	369.33
370.069	360.06
370.45	352.15
370.831	357.8
371.212	372.94
371.593	374.52
371.974	375.2
372.355	358.93
372.736	390.34
373.117	363.9
373.498	377.69
373.879	364.81
374.26	380.85
374.641	371.13
375.021	375.88
375.402	357.35
375.783	396.44
376.163	407.29
376.544	397.35
376.925	382.66
377.305	385.82
377.686	384.02
378.066	389.21
378.447	412.72
378.827	402.77
379.208	407.29
379.588	405.94
379.968	404.13
380.349	421.3
380.729	417.91
381.109	418.82
381.489	410.68
381.87	420.4
382.25	423.56
382.63	434.41
383.01	409.55
383.39	416.78
383.77	454.97
384.15	418.82
384.53	444.35
384.91	446.16
385.29	453.39
385.67	461.53
386.049	442.09
386.429	446.16
386.809	475.99
387.189	487.74
387.568	443.67
387.948	475.31
388.328	486.61
388.707	488.42
389.087	469.66
389.466	482.32
389.846	495.42
390.225	504.01
390.605	488.19
390.984	514.41
391.363	501.07
391.743	524.58
392.122	522.99
392.501	534.29
392.881	542.2
393.26	555.54
393.639	547.85
394.018	539.94
394.397	534.52
394.776	561.64
395.155	545.37
395.534	561.64
395.913	574.07
396.292	580.85
396.671	575.87
397.05	564.8
397.429	595.76
397.808	600.28
398.186	616.1
398.565	591.92
398.944	635.31
399.323	602.31
399.701	645.03
400.08	628.3
400.458	645.7
400.837	666.27
401.215	664.69
401.594	691.8
401.972	688.19
402.351	702.2
402.729	692.93
403.107	701.52
403.486	721.18
403.864	736.1
404.242	722.31
404.62	751.69
404.999	742.65
405.377	771.12
405.755	784.46
406.133	791.24
406.511	824.91
406.889	814.06
407.267	838.01
407.645	878.24
408.023	895.41
408.401	913.04
408.779	937.67
409.156	960.72
409.534	969.08
409.912	982.42
410.29	1026.94
410.667	1052.02
411.045	1075.75
411.422	1092.02
411.8	1115.3
412.178	1124.11
412.555	1180.38
412.933	1202.75
413.31	1228.96
413.687	1276.2
414.065	1261.05
414.442	1324.33
414.819	1332.69
415.197	1359.13
415.574	1400.71
415.951	1419.02
416.328	1430.77
416.705	1453.37
417.082	1484.33
417.46	1523.65
417.837	1565.91
418.214	1535.17
418.591	1585.11
418.967	1605.9
419.344	1659.24
419.721	1685.22
420.098	1711.89
420.475	1720.48
420.852	1779.01
421.228	1804.77
421.605	1798.67
421.982	1809.06
422.358	1851.1
422.735	1857.87
423.111	1895.84
423.488	1929.29
423.864	1943.3
424.241	1993.46
424.617	2014.93
424.994	2045.21
425.37	2065.1
425.746	2058.32
426.123	2126.34
426.499	2126.12
426.875	2172.89
427.251	2205.21
427.627	2252.21
428.003	2257.19
428.379	2327.24
428.756	2339.9
429.132	2353.91
429.507	2439.33
429.883	2449.95
430.259	2495.37
430.635	2536.95
431.011	2549.83
431.387	2607.23
431.763	2636.16
432.138	2709.38
432.514	2678.64
432.89	2734.01
433.265	2770.17
433.641	2834.8
434.016	2853.1
434.392	2935.13
434.767	2985.53
435.143	2990.27
435.518	2992.08
435.894	3080.89
436.269	3116.82
436.644	3178.07
437.02	3184.85
437.395	3193.43
437.77	3275.69
438.145	3294.45
438.52	3346.2
438.895	3413.54
439.271	3399.08
439.646	3425.97
440.021	3505.52
440.395	3474.56
440.77	3468.68
441.145	3499.64
441.52	3574.67
441.895	3551.62
442.27	3628
442.645	3626.42
443.019	3678.17
443.394	3691.72
443.769	3734.44
444.143	3705.51
444.518	3780.99
444.892	3758.62
445.267	3773.3
445.641	3853.53
446.016	3882.23
446.39	3885.62
446.764	3933.75
447.139	3887.65
447.513	3986.41
447.887	3966.07
448.262	3989.12
448.636	4021.89
449.01	4088.55
449.384	4093.3
449.758	4084.03
450.132	4177.59
450.506	4175.1
450.88	4245.38
451.254	4235.67
451.628	4302.56
452.002	4373.97
452.376	4396.34
452.75	4421.2
453.123	4522.89
453.497	4524.02
453.871	4549.56
454.244	4620.97
454.618	4688.76
454.992	4733.51
455.365	4717.01
455.739	4828.19
456.112	4936.89
456.486	4994.74
456.859	5037.68
457.232	5128.75
457.606	5073.84
457.979	5150.67
458.352	5260.72
458.725	5324.45
459.099	5359.7
459.472	5467.95
459.845	5488.97
460.218	5565.12
460.591	5645.57
460.964	5623.43
461.337	5752.69
461.71	5866.58
462.083	5931.89
462.456	5932.34
462.829	5930.31
463.201	6123.53
463.574	6146.8
463.947	6219.57
464.32	6321.49
464.692	6397.19
465.065	6431.54
465.438	6550.86
465.81	6621.59
466.183	6690.29
466.555	6827.24
466.928	6855.03
467.3	6878.08
467.672	7011.86
468.045	7154.46
468.417	7185.87
468.789	7229.94
469.161	7349.48
469.534	7525.07
469.906	7684.61
470.278	7725.52
470.65	7808.68
471.022	7961.67
471.394	8111.72
471.766	8151.27
472.138	8197.14
472.51	8410.47
472.882	8567.75
473.253	8655.89
473.625	8833.74
473.997	8919.61
474.369	9047.06
474.74	9157.8
475.112	9275.31
475.484	9452.93
475.855	9590.33
476.227	9682.53
476.598	10012.69
476.97	10045.91
477.341	10306.24
477.713	10422.85
478.084	10429.4
478.455	10765.66
478.827	10902.83
479.198	11166.1
479.569	11213.34
479.94	11532.65
480.311	11620.78
480.682	11872.98
481.053	12044.5
481.424	12250.82
481.795	12439.52
482.166	12571.49
482.537	12770.81
482.908	12987.53
483.279	13149.78
483.65	13443.56
484.021	13583.67
484.391	13779.82
484.762	13957.22
485.133	13972.36
485.503	14243.54
485.874	14550.2
486.244	14677.2
486.615	14933.92
486.985	15061.6
487.356	15474.69
487.726	15456.84
488.097	15832.87
488.467	15873.78
488.837	16208.01
489.207	16401.9
489.578	16629.46
489.948	16738.16
490.318	17081.88
490.688	17067.19
491.058	17314.42
491.428	17561.19
491.798	17653.39
492.168	18020.61
492.538	18135.41
492.908	18349.42
493.278	18600.49
493.648	18596.42
494.017	18862.17
494.387	18924.32
494.757	19130.42
495.126	19356.4
495.496	19535.83
495.866	19516.62
496.235	19740.12
496.605	19936.04
496.974	19996.61
497.344	20218.52
497.713	20370.38
498.082	20435.47
498.452	20757.49
498.821	20707.32
499.19	20889.24
499.559	21056.24
499.928	21209.68
500.298	21339.62
500.667	21491.48
501.036	21435.21
501.405	21786.84
501.774	21871.81
502.143	22000.85
502.512	22162.65
502.88	22333.04
503.249	22358.35
503.618	22488.74
503.987	22712.24
504.356	22834.05
504.724	22906.59
505.093	23002.63
505.462	23105.45
505.83	23293.7
506.199	23464.99
506.567	23708.83
506.936	23700.69
507.304	24033.56
507.672	24051.19
508.041	24233.11
508.409	24438.75
508.777	24541.12
509.145	24781.11
509.514	24843.71
509.882	25087.77
510.25	25090.03
510.618	25196.24
510.986	25400.08
511.354	25597.36
511.722	25964.59
512.09	26042.55
512.458	26036
512.826	26271.47
513.193	26444.12
513.561	26568.86
513.929	26824.68
514.297	26960.49
514.664	27203.2
515.032	27223.76
515.4	27405.68
515.767	27612
516.135	27746.91
516.502	27746.69
516.869	28240.01
517.237	28228.03
517.604	28153.23
517.972	28641.58
518.339	28736.94
518.706	28852.87
519.073	28991.62
519.44	29139.19
519.808	29473.87
520.175	29432.07
520.542	29823.92
520.909	30060.07
521.276	30159.28
521.643	30353.4
522.009	30507.07
522.376	30754.06
522.743	30889.65
523.11	31185.47
523.477	31408.28
523.843	31610.54
524.21	31999.23
524.577	32255.49
524.943	32249.62
525.31	32568.71
525.676	32843.05
526.043	32992.65
526.409	33115.36
526.776	33411.85
527.142	33469.93
527.508	33741.78
527.874	34003.47
528.241	34166.4
528.607	34185.61
528.973	34586.05
529.339	34582.44
529.705	34979.94
530.071	35185.81
530.437	35444.34
530.803	35548.97
531.169	35765.23
531.535	35775.4
531.901	35812.69
532.267	36098.56
532.632	36431.66
532.998	36385.78
533.364	36690.86
533.73	36610.86
534.095	37061.92
534.461	37163.39
534.826	37399.77
535.192	37476.83
535.557	37758.4
535.923	37783.71
536.288	38011.95
536.653	38192.74
537.019	38230.7
537.384	38307.76
537.749	38569.9
538.114	38590.02
538.479	38665.04
538.845	38936.67
539.21	38954.3
539.575	39084.69
539.94	39237.91
540.305	39472.93
540.67	39399.94
541.034	39530.1
541.399	39747.27
541.764	39893.71
542.129	40073.37
542.494	40080.37
542.858	40176.19
543.223	40502.28
543.587	40582.51
543.952	40609.62
544.316	40855.72
544.681	40789.73
545.045	41038.31
545.41	41228.82
545.774	41331.87
546.138	41270.62
546.503	41418.64
546.867	41544.29
547.231	41991.96
547.595	41923.49
547.959	42027.89
548.324	42082.58
548.688	42250.26
549.052	42507.88
549.416	42573.19
549.779	42678.72
550.143	42701.55
550.507	43028.77
550.871	43114.19
551.235	43035.1
551.599	43426.95
551.962	43471.24
552.326	43664.69
552.689	43870.1
553.053	43799.14
553.417	43905.81
553.78	44315.74
554.143	44263.99
554.507	44428.05
554.87	44456.98
555.234	44947.36
555.597	44669.86
555.96	44814.94
556.323	45081.37
556.686	45136.74
557.05	45558.42
557.413	45540.57
557.776	45768.58
558.139	45835.7
558.502	45900.11
558.865	45902.59
559.228	46415.8
559.59	46407.66
559.953	46496.25
560.316	46920.64
560.679	46902.34
561.041	47175.33
561.404	47330.35
561.767	47524.02
562.129	47485.38
562.492	47806.27
562.854	47930.11
563.217	47916.32
563.579	48184.79
563.941	48377.33
564.304	48392.47
564.666	48646.7
565.028	48836.07
565.39	48840.14
565.753	49029.52
566.115	49185.22
566.477	49357.87
566.839	49444.19
567.201	49827.46
567.563	49701.14
567.925	50066.55
568.287	49959.21
568.648	50087.79
569.01	50282.59
569.372	50643.26
569.734	50441.68
570.095	50639.42
570.457	50824.72
570.819	50864.72
571.18	50893.65
571.542	51211.83
571.903	51139.97
572.265	51375.89
572.626	51455.67
572.987	51478.72
573.349	51710.8
573.71	51759.39
574.071	51869.44
574.432	51979.27
574.794	52185.82
575.155	52092.49
575.516	52124.35
575.877	52221.75
576.238	52315.08
576.599	52500.39
576.96	52569.76
577.32	52602.53
577.681	52735.18
578.042	52722.75
578.403	52773.37
578.763	52823.77
579.124	52872.35
579.485	53015.63
579.845	53135.17
580.206	53048.85
580.566	53073.48
580.927	53126.36
581.287	53286.58
581.648	53227.82
582.008	53440.47
582.368	53289.29
582.728	53415.62
583.089	53341.04
583.449	53298.33
583.809	53431.89
584.169	53512.34
584.529	53581.71
584.889	53615.16
585.249	53571.32
585.609	53511.88
585.969	53700.35
586.329	53547.36
586.688	53649.51
587.048	53673.01
587.408	53663.52
587.768	53650.41
588.127	53688.15
588.487	53663.97
588.846	53819.67
589.206	53706.46
589.565	53761.82
589.925	53960.01
590.284	53821.71
590.643	53882.5
591.003	53945.54
591.362	53959.56
591.721	53942.83
592.08	53919.33
592.44	54051.3
592.799	54023.06
593.158	53953.45
593.517	54021.7
593.876	54026.67
594.235	54018.76
594.593	54014.02
594.952	54173.11
595.311	54067.58
595.67	54163.39
596.029	54251.3
596.387	54345.08
596.746	54352.09
597.104	54262.15
597.463	54264.86
597.822	54398.19
598.18	54287.68
598.538	54231.19
598.897	54479.77
599.255	54125.88
599.613	54638.18
599.972	54398.41
600.33	54609.03
600.688	54398.64
601.046	54501.24
601.404	54668.92
601.762	54576.04
602.12	54686.54
602.478	54589.14
602.836	54639.31
603.194	54467.57
603.552	54706.43
603.91	54509.15
604.268	54744.17
604.625	54585.3
604.983	54759.08
605.341	54701.91
605.698	54770.38
606.056	54802.25
606.413	54811.28
606.771	54889.02
607.128	54897.84
607.485	54867.78
607.843	54875.69
608.2	55029.36
608.557	54972.86
608.914	54970.83
609.272	55136.7
609.629	55144.84
609.986	55272.97
610.343	55087.44
610.7	55258.5
611.057	55228
611.414	55254.21
611.771	55371.5
612.127	55326.3
612.484	55359.74
612.841	55335.79
613.198	55310.71
613.554	55355.45
613.911	55484.26
614.267	55531.94
614.624	55387.09
614.98	55514.09
615.337	55657.59
615.693	55558.84
616.05	55529.23
616.406	55676.8
616.762	55587.76
617.118	55554.77
617.475	55572.85
617.831	55729.23
618.187	55672.05
618.543	55679.06
618.899	55854.87
619.255	55774.65
619.611	55788.21
619.967	55787.98
620.323	55900.07
620.678	55788.66
621.034	55706.18
621.39	55797.93
621.746	55730.13
622.101	56016.68
622.457	55756.12
622.812	55833.86
623.168	55910.24
623.523	55887.64
623.879	55919.96
624.234	55729.23
624.589	55910.24
624.945	55924.48
625.3	55895.32
625.655	55954.08
626.01	55925.38
626.365	55869.11
626.72	55931.03
627.075	55957.7
627.43	55905.49
627.785	55891.26
628.14	55951.14
628.495	55989.78
628.85	55933.74
629.205	55825.27
629.559	56064.13
629.914	55816.68
630.269	55949.79
630.623	55863.91
630.978	55830.47
631.332	55951.37
631.687	55924.02
632.041	55800.19
632.396	55927.41
632.75	55826.63
633.104	55830.02
633.459	55757.93
633.813	55752.5
634.167	55681.54
634.521	55713.18
634.875	55818.72
635.229	55732.84
635.583	55622.34
635.937	55641.09
636.291	55553.86
636.645	55543.69
636.999	55554.77
637.352	55661.43
637.706	55483.58
638.06	55612.62
638.413	55504.37
638.767	55533.07
639.121	55544.37
639.474	55334.89
639.828	55392.74
640.181	55468.22
640.534	55435.45
640.888	55319.52
641.241	55275.68
641.594	55375.56
641.947	55423.25
642.301	55377.82
642.654	55342.8
643.007	55340.99
643.36	55380.08
643.713	55223.7
644.066	55306.86
644.419	55203.36
644.771	54901.45
645.124	54776.71
645.477	54727.9
645.83	54602.7
646.182	54483.16
646.535	54470.5
646.888	54552.08
647.24	54289.94
647.593	54467.79
647.945	54423.05
648.298	54308.25
648.65	54301.24
649.002	54176.05
649.355	54297.4
649.707	54200.68
650.059	54374.01
650.411	54785.52
650.763	54796.6
651.115	55038.4
651.467	54994.78
651.819	54918.85
652.171	54864.84
652.523	54832.75
652.875	54802.47
653.227	54705.3
653.578	54889.7
653.93	54784.17
654.282	54731.29
654.633	54576.49
654.985	54814.45
655.337	54755.47
655.688	54814.45
656.039	54758.4
656.391	54531.97
656.742	54615.58
657.094	54654.68
657.445	54716.82
657.796	54596.83
658.147	54591.86
658.498	54599.76
658.849	54648.8
659.2	54492.42
659.551	54503.95
659.902	54631.18
660.253	54511.63
660.604	54555.02
660.955	54469.82
661.306	54624.85
661.656	54470.95
662.007	54436.61
662.358	54453.55
662.708	54538.98
663.059	54394.12
663.409	54262.6
663.76	54465.31
664.11	54418.53
664.461	54516.83
664.811	54553.66
665.161	54391.18
665.511	54325.87
665.862	54404.74
666.212	54366.78
666.562	54458.07
666.912	54391.18
667.262	54318.42
667.612	54265.08
667.962	54367
668.312	54291.75
668.662	54464.85
669.011	54261.24
669.361	54265.08
669.711	54236.38
670.06	54260.56
670.41	54123.39
670.76	54157.06
671.109	54274.8
671.459	54143.96
671.808	54101.02
672.157	54150.06
672.507	53909.16
672.856	53896.51
673.205	54065.54
673.554	54009.95
673.904	53876.39
674.253	54108.48
674.602	53894.02
674.951	53448.83
675.3	53358.44
675.649	53785.78
675.998	53817.64
676.346	53814.02
676.695	53881.37
677.044	53587.14
677.393	53703.07
677.741	53739.67
678.09	53649.73
678.438	53631.2
678.787	53692.22
679.135	53609.51
679.484	53335.84
679.832	53501.26
680.181	53329.74
680.529	53426.91
680.877	53282.96
681.225	53329.97
681.573	53399.34
681.922	53232.8
682.27	53065.79
682.618	53149.63
682.966	53011.11
683.314	53096.08
683.661	52914.16
684.009	52855.4
684.357	52806.82
684.705	52736.54
685.053	52741.73
685.4	52664.45
685.748	52522.98
686.095	52541.74
686.443	52425.13
686.79	52359.15
687.138	52325.47
687.485	52220.17
687.832	52165.7
688.18	52198.92
688.527	51994.86
688.874	52050.68
689.221	52021.08
689.568	51833.51
689.915	51700.41
690.262	51648.43
690.609	51641.65
690.956	51502.67
691.303	51438.49
691.65	51344.71
691.997	51192.17
692.344	51093.19
692.69	50989.01
693.037	51066.52
693.383	50787.89
693.73	51008.9
694.077	50733.65
694.423	50609.81
694.769	50513.09
695.116	50565.07
695.462	50373.21
695.808	50436.94
696.155	50268.13
696.501	50020
696.847	50161.01
697.193	49802.83
697.539	49989.49
697.885	49663.4
698.231	49611.42
698.577	49553.12
698.923	49497.53
699.269	49278.1
699.614	49187.7
699.96	49081.94
700.306	49109.51
700.651	48995.17
700.997	48894.6
701.342	48826.13
701.688	48752.24
702.033	48636.76
702.379	48576.65
702.724	48507.5
703.069	48590.43
703.415	48089.65
703.76	48170.78
704.105	48161.52
704.45	48079.71
704.795	47743
705.14	47737.57
705.485	47698.48
705.83	47516.11
706.175	47443.79
706.52	47337.36
706.865	47233.63
707.209	47268.43
707.554	47026.63
707.899	47117.7
708.243	46903.47
708.588	46999.96
708.932	46645.85
709.277	46696.7
709.621	46616.25
709.966	46377.83
710.31	46643.36
710.654	46197.27
710.998	46225.3
711.342	46298.74
711.687	46177.16
712.031	46001.8
712.375	45912.99
712.719	45975.58
713.063	45790.05
713.407	45851.75
713.75	45734.69
714.094	45694.46
714.438	45392.1
714.782	45469.84
715.125	45273.91
715.469	45354.36
715.812	45080.92
716.156	44999.79
716.499	44937.87
716.843	44950.75
717.186	44743.98
717.53	44947.36
717.873	44941.04
718.216	44732.23
718.559	44684.09
718.902	44376.76
719.246	44410.2
719.589	44243.43
719.932	44177.44
720.275	44132.92
720.617	44132.24
720.96	44103.32
721.303	43991.46
721.646	43993.49
721.989	43697.23
722.331	43814.29
722.674	43698.81
723.016	43771.12
723.359	43520.28
723.701	43829.88
724.044	43475.54
724.386	43293.62
724.729	43410.68
725.071	43312.15
725.413	43323.68
725.755	43296.33
726.097	43147.41
726.439	42883.46
726.782	43026.28
727.124	43096.56
727.465	42847.98
727.807	42752.39
728.149	42658.16
728.491	42638.72
728.833	42791.04
729.175	42561.44
729.516	42438.28
729.858	42282.12
730.199	42403.7
730.541	42370.48
730.882	42285.96
731.224	42458.84
731.565	42031.73
731.906	41965.97
732.248	42041.9
732.589	41889.14
732.93	41854.79
733.271	41750.61
733.612	41778.86
733.953	41868.57
734.294	41697.05
734.635	41653.21
734.976	41659.09
735.317	41430.62
735.658	41532.76
735.999	41497.51
736.339	41347.23
736.68	41340.23
737.021	41219.78
737.361	41069.5
737.702	41295.93
738.042	41168.93
738.383	41039.44
738.723	41023.4
739.063	40883.52
739.404	41041.93
739.744	40820.69
740.084	40665.67
740.424	40837.64
740.764	40577.53
741.104	40670.41
741.444	40581.15
741.784	40357.88
742.124	40374.38
742.464	40361.95
742.804	40371.44
743.143	40310.88
743.483	40229.97
743.823	40198.79
744.162	40075.18
744.502	40061.84
744.841	39974.16
745.181	40138.45
745.52	39916.31
745.86	39987.27
746.199	39820.27
746.538	39723.77
746.877	39823.66
747.216	39747.27
747.556	39533.27
747.895	39703.21
748.234	39384.12
748.573	39268.64
748.911	39357.68
749.25	39331.69
749.589	39154.52
749.928	39179.83
750.267	39243.11
750.605	39088.76
750.944	39004.02
751.283	38857.13
751.621	38904.81
751.96	38678.15
752.298	38704.82
752.636	38596.34
752.975	38508.21
753.313	38496.46
753.651	38585.95
753.989	38341.44
754.327	38270.48
754.666	38140.99
755.004	38065.51
755.342	38159.07
755.679	38156.36
756.017	37895.57
756.355	37850.83
756.693	37660.78
757.031	37823.71
757.368	37566.09
757.706	37485.41
758.044	37285.42
758.381	37408.58
758.719	37181.24
759.056	37270.73
759.394	37190.73
759.731	36975.6
760.068	36824.41
760.405	36606.79
760.743	36638.88
761.08	36656.06
761.417	36437.76
761.754	36377.19
762.091	36309.17
762.428	36240.02
762.765	35954.83
763.102	36018.78
763.438	35846.13
763.775	35720.04
764.112	35747.83
764.449	35769.75
764.785	35515.75
765.122	35264.45
765.458	35231.46
765.795	35239.37
766.131	35189.88
766.467	34891.36
766.804	34758.7
767.14	34635.77
767.476	34679.84
767.812	34464.48
768.148	34534.53
768.485	34226.06
768.821	34130.02
769.157	34164.82
769.492	34024.49
769.828	33913.76
770.164	33687.77
770.5	33633.08
770.836	33604.61
771.171	33454.11
771.507	33345.63
771.842	32967.57
772.178	33142.48
772.513	32959.66
772.849	32791.75
773.184	32825.87
773.519	32781.36
773.855	32498.65
774.19	32465.66
774.525	32389.5
774.86	32281.48
775.195	32315.83
775.53	32017.08
775.865	31995.84
776.2	31674.49
776.535	31446.7
776.87	31559.24
777.205	31403.54
777.539	31286.03
777.874	31323.77
778.209	31125.35
778.543	31041.74
778.878	30774.18
779.212	30766.72
779.547	30586.84
779.881	30672.03
780.215	30464.58
780.55	30435.88
780.884	30217.13
781.218	30169.22
781.552	30222.78
781.886	30127.87
782.22	29907.98
782.554	29719.52
782.888	29557.94
783.222	29392.97
783.556	29206.76
783.889	29100.55
784.223	29069.36
784.557	29085.86
784.89	28901.91
785.224	28870.5
785.557	28696.72
785.891	28697.62
786.224	28526.1
786.558	28573.33
786.891	28336.95
787.224	28150.52
787.557	28121.37
787.891	27962.5
788.224	28025.55
788.557	27889.05
788.89	27828.49
789.223	27842.95
789.556	27592.34
789.888	27501.72
790.221	27475.28
790.554	27262.63
790.887	27343.98
791.219	27121.39
791.552	27054.05
791.884	26855.86
792.217	26795.3
792.549	26824
792.882	26568.64
793.214	26508.53
793.546	26522.09
793.879	26397.34
794.211	26314.63
794.543	26269.44
794.875	26197.12
795.207	26191.92
795.539	25983.57
795.871	26110.34
796.203	25836.23
796.535	25637.14
796.867	25567.31
797.198	25594.65
797.53	25589.45
797.862	25346.3
798.193	25450.93
798.525	25154.44
798.856	25282.57
799.188	24937.04
799.519	24991.96
799.85	24738.18
800.182	24741.57
800.513	24802.58
800.844	24598.07
801.175	24712.42
801.506	24555.13
801.837	24551.97
802.168	24493.66
802.499	24354.23
802.83	24162.15
803.161	24194.46
803.491	24182.71
803.822	24163.05
804.153	23941.59
804.483	23804.19
804.814	23778.43
805.145	23681.48
805.475	23761.48
805.805	23634.7
806.136	23620.47
806.466	23568.94
806.796	23494.59
807.126	23311.1
807.457	23286.69
807.787	23276.52
808.117	23148.16
808.447	22926.02
808.777	23090.54
809.107	23018.45
809.436	22923.08
809.766	22886.25
810.096	22778.23
810.426	22637.89
810.755	22745.24
811.085	22649.19
811.414	22559.03
811.744	22426.6
812.073	22363.55
812.403	22423.44
812.732	22247.17
813.061	22208.07
813.39	22152.48
813.719	22061.64
814.049	22156.55
814.378	21942.09
814.707	21975.99
815.036	21886.5
815.365	21787.07
815.693	21645.38
816.022	21669.11
816.351	21670.24
816.68	21460.3
817.008	21608.32
817.337	21360.86
817.665	21354.31
817.994	21377.81
818.322	21365.38
818.651	21257.36
818.979	21106.18
819.307	21221.43
819.636	21180.76
819.964	20891.5
820.292	21082.23
820.62	21035.9
820.948	21012.85
821.276	20989.12
821.604	20915.68
821.932	21037.26
822.259	20990.71
822.587	20937.6
822.915	20876.36
823.243	20980.99
823.57	20874.1
823.898	20911.61
824.225	20804.04
824.553	20766.53
824.88	20785.51
825.207	20957.94
825.535	20849.01
825.862	20903.93
826.189	20748.23
826.516	20855.12
826.843	20934.21
827.17	20894.21
827.497	20882.01
827.824	20844.72
828.151	20931.5
828.478	20810.6
828.805	20949.35
829.131	20795.68
829.458	20801.78
829.785	20657.61
830.111	20696.25
830.438	20804.5
830.764	20799.07
831.09	20825.51
831.417	20685.18
831.743	20733.31
832.069	20705.74
832.395	20593.88
832.722	20673.43
833.048	20592.3
833.374	20604.95
833.7	20583.94
834.026	20601.79
834.351	20558.4
834.677	20558.63
835.003	20567.44
835.329	20543.26
835.654	20558.85
835.98	20425.3
836.306	20450.15
836.631	20320.89
836.956	20426.2
837.282	20463.49
837.607	20228.47
837.932	20204.96
838.258	20259.2
838.583	20209.48
838.908	20134.23
839.233	20205.87
839.558	20159.31
839.883	20084.06
840.208	20011.07
840.533	19968.81
840.858	20016.04
841.182	19900.34
841.507	19898.08
841.832	19795.93
842.156	19868.25
842.481	19742.83
842.805	19671.87
843.13	19703.96
843.454	19678.88
843.778	19539.44
844.103	19540.12
844.427	19502.83
844.751	19416.51
845.075	19424.64
845.399	19357.98
845.723	19329.51
846.047	19250.19
846.371	19108.49
846.695	19100.81
847.019	18928.61
847.343	18874.38
847.666	18769.75
847.99	18680.26
848.313	18685.46
848.637	18579.47
848.96	18492.92
849.284	18415.18
849.607	18339.02
849.931	18264.9
850.254	18129.76
850.577	18047.96
850.9	17931.58
851.223	17980.61
851.546	17939.94
851.869	17717.8
852.192	17785.82
852.515	17608.2
852.838	17563
853.161	17542.89
853.483	17475.09
853.806	17363.91
854.129	17368.65
854.451	17290.24
854.774	17212.73
855.096	17191.48
855.419	17058.83
855.741	17117.13
856.063	16925.73
856.385	16937.25
856.708	16902.45
857.03	16796.47
857.352	16838.05
857.674	16723.47
857.996	16692.97
858.318	16650.71
858.64	16577.94
858.961	16572.52
859.283	16505.63
859.605	16389.92
859.926	16469.24
860.248	16407.77
860.57	16266.31
860.891	16362.58
861.212	16212.53
861.534	16224.05
861.855	16203.94
862.176	16248.91
862.498	16205.52
862.819	16173.2
863.14	15964.62
863.461	15965.98
863.782	15984.51
864.103	15986.32
864.424	15936.37
864.745	15876.94
865.065	15864.29
865.386	15774.12
865.707	15825.42
866.027	15846.89
866.348	15792.88
866.668	15785.64
866.989	15664.29
867.309	15603.73
867.63	15606.44
867.95	15652.77
868.27	15442.6
868.59	15551.3
868.91	15485.99
869.23	15532.32
869.55	15421.81
869.87	15482.38
870.19	15375.26
870.51	15417.29
870.83	15295.49
871.15	15337.75
871.469	15288.26
871.789	15382.94
872.109	15290.74
872.428	15093.69
872.748	15236.05
873.067	15259.33
873.386	15208.26
873.706	15098.66
874.025	15022.73
874.344	15026.57
874.663	15089.84
874.982	15011.65
875.301	14954.71
875.62	14969.39
875.939	14949.96
876.258	14961.49
876.577	14836.74
876.896	14797.65
877.214	14815.5
877.533	14893.01
877.852	14697.09
878.17	14761.04
878.489	14840.81
878.807	14718.33
879.125	14743.41
879.444	14652.79
879.762	14560.37
880.08	14560.59
880.398	14546.13
880.716	14631.32
881.034	14479.69
881.352	14523.3
881.67	14445.34
881.988	14484.21
882.306	14384.1
882.624	14369.86
882.941	14309.3
883.259	14303.65
883.577	14201.28
883.894	14216.87
884.212	14235.4
884.529	14190.88
884.846	14113.15
885.164	14087.84
885.481	14059.36
885.798	14082.19
886.115	14041.51
886.432	14009.42
886.75	13931.91
887.067	13852.36
887.383	13914.06
887.7	13881.97
888.017	13820.05
888.334	13874.51
888.651	13775.98
888.967	13745.02
889.284	13708.86
889.6	13616.66
889.917	13513.16
890.233	13616.66
890.55	13493.28
890.866	13517.91
891.182	13394.75
891.498	13413.28
891.815	13354.3
892.131	13251.7
892.447	13180.52
892.763	13163.11
893.079	13137.35
893.395	13117.47
893.71	13157.24
894.026	13121.08
894.342	13093.29
894.657	12962.44
894.973	12949.79
895.289	12910.92
895.604	12801.99
895.92	12788.66
896.235	12797.02
896.55	12761.77
896.865	12653.07
897.181	12674.77
897.496	12665.73
897.811	12550.25
898.126	12507.09
898.441	12448.33
898.756	12431.61
899.071	12206.3
899.386	12347.54
899.7	12227.77
900.015	12244.49
900.33	12152.07
900.644	12137.83
900.959	12129.24
901.273	12072.97
901.588	12028.45
901.902	11964.28
902.216	11883.15
902.531	11889.25
902.845	11814
903.159	11726.54
903.473	11793.43
903.787	11699.88
904.101	11565.87
904.415	11623.27
904.729	11495.36
905.042	11435.93
905.356	11474.35
905.67	11352.09
905.984	11400
906.297	11364.97
906.611	11228.02
906.924	11311.41
907.237	11278.87
907.551	11166.56
907.864	11100.12
908.177	11135.82
908.491	11003.4
908.804	10968.6
909.117	10874.59
909.43	10891.76
909.743	10866.68
910.056	10858.09
910.368	10793.69
910.681	10727.92
910.994	10637.53
911.307	10586.91
911.619	10506.46
911.932	10553.92
912.244	10494.71
912.557	10409.51
912.869	10382.17
913.181	10325.45
913.494	10330.19
913.806	10227.37
914.118	10228.5
914.43	10214.72
914.742	10144.89
915.054	10118.67
915.366	10047.49
915.678	10012.69
915.99	10020.82
916.302	9919.58
916.613	9871
916.925	9877.78
917.236	9875.74
917.548	9795.75
917.859	9700.38
918.171	9684.79
918.482	9636.2
918.794	9612.7
919.105	9606.37
919.416	9418.58
919.727	9449.99
920.038	9472.82
920.349	9391.01
920.66	9297.45
920.971	9327.28
921.282	9280.28
921.593	9186.27
921.903	9183.78
922.214	9148.53
922.525	9104.46
922.835	9064.24
923.146	9009.33
923.456	8997.35
923.767	8909.21
924.077	8974.07
924.387	8915.09
924.697	8790.35
925.008	8782.21
925.318	8814.98
925.628	8683.46
925.938	8755.09
926.248	8614.08
926.558	8563.24
926.867	8605.04
927.177	8602.56
927.487	8495.67
927.796	8378.83
928.106	8432.17
928.416	8387.42
928.725	8418.38
929.034	8295.9
929.344	8282.11
929.653	8198.27
929.962	8142.46
930.271	8118.95
930.581	8152.85
930.89	8035.34
931.199	8025.4
931.508	8074.21
931.817	8004.83
932.125	7920.77
932.434	7880.09
932.743	7853.2
933.051	7813.65
933.36	7827.44
933.669	7790.37
933.977	7715.12
934.286	7721.9
934.594	7673.54
934.902	7644.84
935.21	7579.08
935.519	7588.57
935.827	7519.42
936.135	7585.63
936.443	7446.43
936.751	7439.42
937.059	7401.68
937.367	7364.85
937.674	7378.18
937.982	7256.6
938.29	7265.19
938.597	7250.95
938.905	7173.67
939.213	7126.66
939.52	7136.61
939.827	7177.06
940.135	7072.88
940.442	7033.78
940.749	6931.64
941.056	7029.94
941.363	6925.99
941.67	6921.92
941.977	6868.82
942.284	6839.89
942.591	6798.54
942.898	6726.22
943.205	6782.72
943.511	6733.23
943.818	6766.22
944.125	6675.6
944.431	6614.59
944.738	6634.7
945.044	6630.86
945.35	6515.15
945.657	6511.09
945.963	6481.26
946.269	6434.03
946.575	6528.26
946.881	6400.58
947.187	6419.79
947.493	6355.84
947.799	6320.13
948.105	6243.07
948.41	6237.19
948.716	6240.81
949.022	6175.73
949.327	6189.51
949.633	6106.12
949.938	6084.88
950.244	6111.55
950.549	6071.78
950.854	6047.14
951.16	6014.38
951.465	5961.27
951.77	5935.96
952.075	5901.61
952.38	5921.27
952.685	5874.04
952.99	5847.6
953.294	5775.96
953.599	5800.14
953.904	5772.57
954.209	5695.74
954.513	5718.11
954.818	5701.84
955.122	5683.54
955.426	5627.49
955.731	5611.45
956.035	5597.21
956.339	5559.47
956.643	5518.8
956.948	5501.85
957.252	5501.62
957.556	5466.59
957.86	5432.02
958.163	5421.4
958.467	5401.28
958.771	5392.92
959.075	5338.69
959.378	5332.59
959.682	5333.72
959.985	5312.47
960.289	5214.4
960.592	5220.95
960.896	5224.79
961.199	5201.29
961.502	5114.06
961.805	5109.77
962.108	5102.76
962.411	5077.68
962.714	5033.38
963.017	5048.53
963.32	5001.3
963.623	5030.22
963.926	5022.09
964.228	4910.68
964.531	4893.05
964.833	4918.36
965.136	4879.49
965.438	4862.32
965.741	4813.73
966.043	4857.12
966.345	4791.13
966.648	4822.77
966.95	4724.92
967.252	4687.86
967.554	4737.8
967.856	4712.94
968.158	4668.42
968.46	4632.27
968.761	4608.09
969.063	4554.98
969.365	4576.45
969.666	4565.6
969.968	4540.74
970.269	4476.56
970.571	4554.08
970.872	4505.71
971.174	4445.15
971.475	4465.04
971.776	4447.19
972.077	4387.07
972.378	4385.04
972.679	4393.63
972.98	4348.88
973.281	4322.44
973.582	4314.53
973.883	4245.38
974.183	4255.1
974.484	4260.75
974.785	4205.84
975.085	4229.56
975.386	4194.08
975.686	4176.01
975.986	4105.27
976.287	4143.46
976.587	4088.1
976.887	4066.63
977.187	4057.82
977.487	4035.22
977.787	3987.31
978.087	3974.43
978.387	4003.13
978.687	3950.7
978.987	3971.27
979.286	3925.84
979.586	3943.92
979.885	3888.33
980.185	3867.77
980.484	3840.65
980.784	3862.79
981.083	3823.47
981.382	3810.14
981.682	3837.71
981.981	3770.37
982.28	3793.19
982.579	3731.72
982.878	3722.23
983.177	3728.33
983.475	3700.31
983.774	3661.44
984.073	3645.85
984.372	3616.7
984.67	3626.19
984.969	3597.49
985.267	3573.99
985.566	3589.81
985.864	3561.78
986.162	3550.03
986.461	3511.39
986.759	3479.3
987.057	3482.46
987.355	3461.67
987.653	3416.7
987.951	3443.14
988.249	3444.05
988.547	3424.61
988.844	3392.07
989.142	3358.63
989.44	3368.57
989.737	3312.53
990.035	3356.37
990.332	3300.77
990.63	3265.97
990.927	3290.61
991.224	3268.46
991.521	3234.56
991.819	3207.22
992.116	3266.43
992.413	3207.44
992.71	3158.63
993.006	3164.28
993.303	3150.72
993.6	3123.6
993.897	3150.04
994.193	3103.72
994.49	3088.58
994.787	3070.05
995.083	3076.15
995.379	3027.11
995.676	3044.28
995.972	3008.58
996.268	2971.97
996.565	2969.71
996.861	2944.85
997.157	2931.74
997.453	2930.62
997.749	2894.01
998.044	2890.39
998.34	2877.28
998.636	2865.53
998.932	2830.96
999.227	2856.94
999.523	2827.79
999.818	2803.16
1000.114	2793.22
1000.409	2815.82
1000.704	2754.57
1001	2756.16
1001.295	2712.09
1001.59	2712.09
1001.885	2680.45
1002.18	2683.16
1002.475	2691.53
1002.77	2665.99
1003.065	2617.18
1003.359	2615.37
1003.654	2605.43
1003.949	2596.61
1004.243	2548.25
1004.538	2532.43
1004.832	2540.34
1005.127	2529.5
1005.421	2495.37
1005.715	2519.1
1006.009	2509.84
1006.304	2462.38
1006.598	2455.83
1006.892	2445.66
1007.186	2430.74
1007.48	2404.3
1007.773	2387.35
1008.067	2407.46
1008.361	2331.76
1008.655	2346.9
1008.948	2354.81
1009.242	2342.83
1009.535	2337.86
1009.829	2303.74
1010.122	2318.88
1010.415	2257.19
1010.708	2279.78
1011.001	2230.07
1011.295	2220.13
1011.588	2226
1011.881	2201.82
1012.173	2189.17
1012.466	2164.53
1012.759	2146.68
1013.052	2201.82
1013.344	2111.43
1013.637	2136.74
1013.93	2104.2
1014.222	2105.55
1014.514	2100.81
1014.807	2099.9
1015.099	2044.31
1015.391	2087.7
1015.683	2051.99
1015.976	2021.03
1016.268	2012.45
1016.56	1980.81
1016.851	1945.78
1017.143	1950.98
1017.435	1957.99
1017.727	1938.78
1018.018	1924.31
1018.31	1921.83
1018.602	1872.11
1018.893	1897.65
1019.185	1886.8
1019.476	1904.88
1019.767	1865.33
1020.058	1838.44
1020.35	1824.88
1020.641	1813.58
1020.932	1801.61
1021.223	1775.39
1021.514	1774.94
1021.804	1758.44
1022.095	1761.15
1022.386	1735.17
1022.677	1727.48
1022.967	1727.93
1023.258	1723.42
1023.548	1681.16
1023.839	1685.9
1024.129	1666.92
1024.419	1676.18
1024.709	1627.37
1025	1639.8
1025.29	1622.85
1025.58	1615.85
1025.87	1599.12
1026.16	1601.38
1026.449	1590.76
1026.739	1530.65
1027.029	1571.1
1027.319	1520.48
1027.608	1525.45
1027.898	1548.05
1028.187	1550.76
1028.477	1489.75
1028.766	1501.73
1029.055	1511.44
1029.344	1473.48
1029.634	1465.12
1029.923	1446.36
1030.212	1436.19
1030.501	1427.15
1030.79	1435.74
1031.078	1400.71
1031.367	1390.99
1031.656	1384.22
1031.945	1356.87
1032.233	1365.68
1032.522	1355.06
1032.81	1364.55
1033.099	1347.83
1033.387	1348.51
1033.675	1353.71
1033.963	1322.52
1034.251	1306.48
1034.54	1328.17
1034.828	1291.56
1035.116	1270.55
1035.403	1273.48
1035.691	1275.74
1035.979	1265.35
1036.267	1265.35
1036.554	1238.91
1036.842	1215.18
1037.129	1202.3
1037.417	1206.82
1037.704	1237.78
1037.992	1194.39
1038.279	1183.09
1038.566	1185.8
1038.853	1185.8
1039.14	1185.8
