Data from White_paper_FLMS001491_018.txt Node
Date: Tue Feb 07 10:34:44 GMT 2017
User: dcchb
Spectrometer: FLMS00149
Trigger mode: 0
Integration Time (sec): 2.000000E-2
Scans to average: 10
Electric dark correction enabled: true
Nonlinearity correction enabled: false
Boxcar width: 0
XAxis mode: Wavelengths
Number of Pixels in Spectrum: 2048
>>>>>Begin Spectral Data<<<<<
341.393	-13.19
341.776	-13.19
342.16	-13.19
342.543	-46.86
342.927	-65.85
343.31	-71.04
343.693	-65.39
344.077	-79.4
344.46	-66.52
344.843	-30.82
345.226	-31.27
345.61	-40.31
345.993	-15.45
346.376	-12.51
346.759	-1.44
347.142	40.37
347.525	35.62
347.908	61.83
348.291	88.5
348.674	87.37
349.057	100.48
349.44	120.59
349.823	149.06
350.206	171.44
350.588	229.74
350.971	230.42
351.354	235.39
351.737	246.69
352.119	262.28
352.502	304.77
352.884	301.15
353.267	314.48
353.65	304.54
354.032	325.1
354.414	355.39
354.797	334.37
355.179	330.98
355.562	333.01
355.944	364.2
356.326	367.14
356.709	370.98
357.091	351.54
357.473	362.39
357.855	386.57
358.238	380.47
358.62	364.88
359.002	368.72
359.384	362.62
359.766	365.1
360.148	364.2
360.53	370.98
360.912	346.12
361.294	375.05
361.676	382.73
362.057	361.94
362.439	355.84
362.821	333.01
363.203	364.88
363.584	380.24
363.966	374.59
364.348	386.57
364.729	349.51
365.111	326.46
365.493	358.55
365.874	350.64
366.256	344.76
366.637	345.89
367.019	371.88
367.4	346.12
367.781	357.42
368.163	359.68
368.544	357.65
368.925	366.01
369.306	363.97
369.688	350.41
370.069	367.59
370.45	351.32
370.831	358.78
371.212	369.85
371.593	366.46
371.974	340.92
372.355	367.14
372.736	359
373.117	374.37
373.498	371.88
373.879	355.84
374.26	363.75
374.641	363.3
375.021	387.48
375.402	385.22
375.783	376.63
376.163	397.19
376.544	383.86
376.925	370.53
377.305	383.41
377.686	383.18
378.066	390.64
378.447	397.19
378.827	412.79
379.208	399.9
379.588	398.32
379.968	393.13
380.349	416.18
380.729	395.61
381.109	404.88
381.489	406.01
381.87	407.14
382.25	403.75
382.63	434.25
383.01	414.14
383.39	411.43
383.77	417.53
384.15	409.85
384.53	428.83
384.91	433.58
385.29	426.57
385.67	424.76
386.049	436.97
386.429	454.14
386.809	459.11
387.189	465.44
387.568	486.68
387.948	453.69
388.328	464.54
388.707	478.32
389.087	467.93
389.466	485.55
389.846	476.29
390.225	495.72
390.605	499.34
390.984	494.37
391.363	508.38
391.743	491.88
392.122	512.22
392.501	507.47
392.881	520.13
393.26	514.7
393.639	518.09
394.018	517.19
394.397	535.04
394.776	549.73
395.155	548.38
395.534	536.17
395.913	552.9
396.292	552.9
396.671	565.55
397.05	554.02
397.429	576.62
397.808	567.58
398.186	591.09
398.565	588.83
398.944	612.33
399.323	585.44
399.701	619.79
400.08	623.63
400.458	642.61
400.837	632.89
401.215	670.18
401.594	639.9
401.972	673.34
402.351	657.53
402.729	667.24
403.107	686.22
403.486	680.8
403.864	713.12
404.242	722.83
404.62	726.45
404.999	754.47
405.377	744.75
405.755	771.42
406.133	774.58
406.511	802.83
406.889	814.58
407.267	829.5
407.645	830.18
408.023	874.02
408.401	865.2
408.779	908.82
409.156	913.56
409.534	948.82
409.912	954.24
410.29	989.27
410.667	1030.17
411.045	1064.29
411.422	1048.93
411.8	1083.28
412.178	1110.85
412.555	1161.69
412.933	1154.01
413.31	1215.25
413.687	1204.86
414.065	1245.08
414.442	1301.12
414.819	1319.2
415.197	1349.94
415.574	1401.46
415.951	1406.88
416.328	1430.39
416.705	1471.29
417.082	1462.7
417.46	1494.57
417.837	1553.09
418.214	1574.11
418.591	1586.31
418.967	1643.04
419.344	1640.55
419.721	1661.57
420.098	1639.19
420.475	1702.7
420.852	1765.74
421.228	1772.98
421.605	1787.66
421.982	1838.06
422.358	1851.17
422.735	1859.08
423.111	1901.56
423.488	1909.24
423.864	1955.8
424.241	1981.56
424.617	1989.69
424.994	2010.26
425.37	2036.92
425.746	2076.47
426.123	2109.01
426.499	2121.89
426.875	2152.4
427.251	2200.76
427.627	2255.9
428.003	2258.39
428.379	2320.31
428.756	2332.06
429.132	2364.15
429.507	2398.72
429.883	2454.77
430.259	2501.32
430.635	2519.85
431.011	2531.15
431.387	2568.44
431.763	2638.04
432.138	2633.74
432.514	2682.1
432.89	2694.76
433.265	2771.82
433.641	2809.78
434.016	2811.37
434.392	2890.23
434.767	2955.09
435.143	2949.67
435.518	2998.93
435.894	3065.6
436.269	3064.24
436.644	3118.93
437.02	3203.9
437.395	3195.54
437.77	3226.5
438.145	3319.6
438.52	3347.62
438.895	3332.48
439.271	3374.97
439.646	3424.01
440.021	3469.65
440.395	3440.95
440.77	3452.93
441.145	3515.3
441.52	3529.77
441.895	3596.2
442.27	3625.81
442.645	3624.9
443.019	3657.22
443.394	3670.1
443.769	3676.2
444.143	3678.01
444.518	3778.8
444.892	3740.38
445.267	3795.75
445.641	3809.53
446.016	3833.26
446.39	3889.3
446.764	3904.9
447.139	3881.4
447.513	3932.92
447.887	3941.28
448.262	3938.79
448.636	3998.68
449.01	4070.54
449.384	4087.27
449.758	4132.24
450.132	4152.35
450.506	4161.16
450.88	4249.75
451.254	4210.2
451.628	4269.41
452.002	4291.78
452.376	4324.1
452.75	4447.26
453.123	4442.51
453.497	4491.1
453.871	4524.32
454.244	4605.9
454.618	4630.53
454.992	4687.02
455.365	4751.43
455.739	4795.72
456.112	4825.1
456.486	4900.35
456.859	4964.76
457.232	5044.08
457.606	5018.99
457.979	5108.03
458.352	5185.99
458.725	5303.28
459.099	5309.38
459.472	5418.3
459.845	5435.25
460.218	5492.88
460.591	5550.73
460.964	5589.82
461.337	5754.34
461.71	5798.18
462.083	5918.86
462.456	5943.71
462.829	5970.38
463.201	6004.05
463.574	6013.99
463.947	6129.92
464.32	6330.6
464.692	6319.3
465.065	6370.14
465.438	6457.15
465.81	6542.12
466.183	6604.26
466.555	6742.56
466.928	6818.04
467.3	6823.24
467.672	6936.46
468.045	7087.41
468.417	7083.34
468.789	7224.81
469.161	7289.44
469.534	7465.93
469.906	7539.15
470.278	7643.33
470.65	7727.85
471.022	7824.57
471.394	7962.64
471.766	8054.39
472.138	8155.86
472.51	8330.54
472.882	8416.87
473.253	8588.62
473.625	8637.65
473.997	8852.79
474.369	8887.59
474.74	9067.7
475.112	9173.46
475.484	9300.01
475.855	9459.33
476.227	9546.56
476.598	9850.5
476.97	9874.68
477.341	10139.99
477.713	10231.06
478.084	10354.9
478.455	10667.43
478.827	10727.77
479.198	11017.03
479.569	10985.39
479.94	11338.37
480.311	11452.95
480.682	11664.92
481.053	11965.48
481.424	12118.92
481.795	12190.78
482.166	12454.73
482.537	12551.45
482.908	12812.23
483.279	12945.11
483.65	13241.15
484.021	13360.47
484.391	13510.07
484.762	13750.29
485.133	13793.68
485.503	13950.06
485.874	14304.4
486.244	14335.81
486.615	14759.53
486.985	14832.29
487.356	15175.34
487.726	15240.64
488.097	15498.49
488.467	15576.45
488.837	15876.56
489.207	16045.6
489.578	16342.08
489.948	16444.68
490.318	16679.7
490.688	16748.18
491.058	17035.17
491.428	17273.81
491.798	17458.21
492.168	17752.44
492.538	17753.35
492.908	18083.06
493.278	18143.62
493.648	18247.57
494.017	18516.72
494.387	18638.52
494.757	18763.94
495.126	18996.7
495.496	19020.43
495.866	19179.07
496.235	19446.41
496.605	19578.61
496.974	19630.81
497.344	19830.81
497.713	19988.32
498.082	20141.08
498.452	20287.07
498.821	20453.61
499.19	20454.52
499.559	20612.25
499.928	20833.94
500.298	20890.44
500.667	21264.67
501.036	21198.91
501.405	21340.82
501.774	21369.3
502.143	21580.36
502.512	21721.15
502.88	21890.41
503.249	21946.68
503.618	22149.62
503.987	22206.79
504.356	22392.77
504.724	22489.95
505.093	22647.91
505.462	22657.4
505.83	22797.96
506.199	23111.4
506.567	23280.66
506.936	23257.16
507.304	23472.29
507.672	23641.33
508.041	23724.94
508.409	23887.2
508.777	24133.07
509.145	24349.11
509.514	24378.03
509.882	24544.35
510.25	24504.36
510.618	24710.23
510.986	24917.45
511.354	25141.85
511.722	25234.73
512.09	25529.41
512.458	25510.43
512.826	25739.13
513.193	25967.82
513.561	25908.84
513.929	26156.52
514.297	26395.61
514.664	26640.8
515.032	26663.39
515.4	26955.59
515.767	27013.67
516.135	27099.09
516.502	26979.77
516.869	27589.92
517.237	27644.16
517.604	27682.58
517.972	28004.38
518.339	28203.47
518.706	28295.44
519.073	28383.8
519.44	28477.81
519.808	28942.88
520.175	28805.26
520.542	29266.49
520.909	29424.45
521.276	29384.23
521.643	29644.33
522.009	29886.14
522.376	30052.91
522.743	30284.77
523.11	30671.65
523.477	30847.24
523.843	30976.95
524.21	31296.49
524.577	31491.52
524.943	31669.82
525.31	31860.55
525.676	32060.32
526.043	32132.63
526.409	32425.73
526.776	32674.54
527.142	32880.41
527.508	33020.29
527.874	33256.89
528.241	33511.8
528.607	33492.14
528.973	33815.07
529.339	33885.35
529.705	34288.51
530.071	34506.13
530.437	34662.51
530.803	34846.23
531.169	35000.8
531.535	35024.98
531.901	35153.79
532.267	35324.18
532.632	35592.2
532.998	35710.39
533.364	35930.04
533.73	35997.61
534.095	36374.78
534.461	36323.03
534.826	36407.77
535.192	36720.31
535.557	36963.92
535.923	36922.33
536.288	37117.36
536.653	37298.14
537.019	37334.75
537.384	37581.75
537.749	37622.2
538.114	37708.98
538.479	37723.67
538.845	38038.92
539.21	38083.89
539.575	38175.86
539.94	38275.52
540.305	38537.21
540.67	38475.06
541.034	38783.98
541.399	38942.17
541.764	38940.59
542.129	39243.4
542.494	39297.41
542.858	39568.14
543.223	39382.83
543.587	39700.34
543.952	39656.73
544.316	39978.07
544.681	39937.4
545.045	40205.86
545.41	40383.94
545.774	40433.43
546.138	40560.88
546.503	40784.15
546.867	40667.09
547.231	41031.15
547.595	41012.62
547.959	41247.19
548.324	41270.92
548.688	41374.87
549.052	41492.38
549.416	41681.31
549.779	41706.62
550.143	41877.68
550.507	42145.47
550.871	42211.23
551.235	42253.72
551.599	42561.06
551.962	42611.9
552.326	42721.73
552.689	43017.54
553.053	42798.11
553.417	42930.09
553.78	43454.14
554.143	43255.73
554.507	43537.75
554.87	43611.65
555.234	44029.04
555.597	43890.29
555.96	44083.73
556.323	44203.95
556.686	44412.76
557.05	44523.04
557.413	44556.71
557.776	44665.18
558.139	45116.92
558.502	45079.18
558.865	45244.38
559.228	45464.71
559.59	45523.24
559.953	45623.12
560.316	46074.64
560.679	46054.52
561.041	46340.62
561.404	46421.52
561.767	46650.67
562.129	46563.21
562.492	46990.32
562.854	47017.44
563.217	46994.16
563.579	47331.78
563.941	47391.66
564.304	47734.48
564.666	47798.66
565.028	47964.53
565.39	48001.36
565.753	48236.39
566.115	48437.74
566.477	48546.21
566.839	48656.26
567.201	48911.17
567.563	48957.72
567.925	49165.85
568.287	49140.32
568.648	49293.99
569.01	49471.16
569.372	49656.46
569.734	49671.15
570.095	49913.18
570.457	50054.19
570.819	50122.89
571.18	50079.95
571.542	50395.88
571.903	50352.72
572.265	50627.06
572.626	50711.58
572.987	50782.31
573.349	50890.78
573.71	51005.58
574.071	51153.6
574.432	51277.21
574.794	51483.99
575.155	51361.73
575.516	51312.46
575.877	51602.63
576.238	51749.29
576.599	51837.42
576.96	51854.82
577.32	51893.47
577.681	51943.41
578.042	52041.26
578.403	52070.18
578.763	52081.26
579.124	52167.36
579.485	52337.75
579.845	52421.59
580.206	52474.47
580.566	52337.97
580.927	52452.77
581.287	52580.68
581.648	52518.31
582.008	52697.74
582.368	52569.15
582.728	52727.57
583.089	52789.94
583.449	52744.52
583.809	52810.73
584.169	52796.72
584.529	52801.24
584.889	53027
585.249	52931.18
585.609	52768.25
585.969	52934.57
586.329	52860.67
586.688	53056.83
587.048	52986.32
587.408	52948.81
587.768	53030.61
588.127	53037.16
588.487	52986.09
588.846	53292.3
589.206	52946.09
589.565	53027.45
589.925	53205.07
590.284	53031.29
590.643	53158.07
591.003	53294.56
591.362	53287.78
591.721	53262.92
592.08	53332.98
592.44	53493.2
592.799	53346.76
593.158	53366.2
593.517	53351.05
593.876	53461.11
594.235	53420.66
594.593	53444.84
594.952	53546.53
595.311	53387.21
595.67	53515.57
596.029	53744.94
596.387	53678.96
596.746	53776.35
597.104	53603.93
597.463	53568.68
597.822	53723.47
598.18	53550.15
598.538	53573.42
598.897	53764.15
599.255	53518.96
599.613	54009.12
599.972	53807.54
600.33	53844.38
600.688	53791.5
601.046	53899.97
601.404	54019.29
601.762	54028.1
602.12	54093.86
602.478	54099.74
602.836	53969.34
603.194	53857.26
603.552	53947.88
603.91	53908.78
604.268	54094.76
604.625	54121.2
604.983	54125.72
605.341	54093.18
605.698	54206.17
606.056	54283.01
606.413	54210.92
606.771	54261.77
607.128	54292.5
607.485	54170.92
607.843	54305.15
608.2	54417.69
608.557	54439.61
608.914	54331.59
609.272	54535.2
609.629	54621.76
609.986	54686.61
610.343	54479.61
610.7	54704.24
611.057	54673.73
611.414	54602.1
611.771	54735.43
612.127	54737.01
612.484	54716.67
612.841	54843.9
613.198	54712.6
613.554	54802.32
613.911	54917.12
614.267	54848.64
614.624	54827.63
614.98	54838.47
615.337	55015.87
615.693	54849.32
616.05	54875.08
616.406	55139.71
616.762	54930.9
617.118	55017.45
617.475	54989.43
617.831	55058.81
618.187	55112.36
618.543	55082.31
618.899	55199.82
619.255	55185.13
619.611	55115.53
619.967	55211.8
620.323	55325.47
620.678	55219.03
621.034	55191.46
621.39	55148.3
621.746	55114.17
622.101	55411.11
622.457	55192.81
622.812	55192.36
623.168	55303.09
623.523	55327.5
623.879	55409.31
624.234	55193.72
624.589	55331.79
624.945	55320.72
625.3	55380.61
625.655	55311.23
626.01	55316.2
626.365	55370.66
626.72	55304.45
627.075	55297.22
627.43	55262.64
627.785	55256.77
628.14	55264
628.495	55282.3
628.85	55265.58
629.205	55220.38
629.559	55459.02
629.914	55224
630.269	55303.77
630.623	55213.15
630.978	55194.62
631.332	55370.89
631.687	55297.67
632.041	55229.42
632.396	55343.09
632.75	55194.62
633.104	55229.2
633.459	55049.32
633.813	55012.93
634.167	55024.23
634.521	55047.73
634.875	55159.37
635.229	55101.52
635.583	55008.19
635.937	54996.89
636.291	54984.23
636.645	55028.07
636.999	54917.79
637.352	54950.56
637.706	54848.42
638.06	54915.53
638.413	54908.53
638.767	54898.58
639.121	54922.76
639.474	54748.53
639.828	54835.76
640.181	54866.27
640.534	54848.87
640.888	54723.9
641.241	54671.7
641.594	54744.01
641.947	54790.79
642.301	54743.79
642.654	54738.59
643.007	54720.51
643.36	54721.19
643.713	54680.06
644.066	54733.39
644.419	54630.57
644.771	54324.14
645.124	54063.58
645.477	54062.67
645.83	53889.35
646.182	53746.98
646.535	53722.57
646.888	53864.49
647.24	53653.87
647.593	53806.18
647.945	53760.54
648.298	53665.62
648.65	53615.23
649.002	53534.33
649.355	53693.64
649.707	53556.25
650.059	53690.25
650.411	54118.94
650.763	54095.67
651.115	54382.44
651.467	54318.04
651.819	54290.47
652.171	54222.22
652.523	54237.13
652.875	54193.07
653.227	54139.51
653.578	54292.5
653.93	54244.36
654.282	54146.74
654.633	53963.47
654.985	54093.18
655.337	54146.97
655.688	54056.12
656.039	54153.29
656.391	53955.11
656.742	53978.61
657.094	54015.44
657.445	54119.17
657.796	54038.49
658.147	53976.12
658.498	53895
658.849	54063.58
659.2	53979.51
659.551	53819.74
659.902	53974.99
660.253	53930.93
660.604	53915.79
660.955	53739.75
661.306	53990.81
661.656	53824.94
662.007	53865.39
662.358	53784.04
662.708	53881.44
663.059	53764.83
663.409	53630.37
663.76	53836.92
664.11	53775.22
664.461	53838.95
664.811	53828.33
665.161	53719.86
665.511	53689.35
665.862	53756.92
666.212	53731.61
666.562	53803.7
666.912	53687.54
667.262	53685.74
667.612	53572.07
667.962	53662.23
668.312	53569.13
668.662	53773.42
669.011	53598.51
669.361	53615.91
669.711	53523.25
670.06	53495.91
670.41	53395.8
670.76	53381.56
671.109	53578.39
671.459	53512.18
671.808	53370.49
672.157	53537.94
672.507	53260.66
672.856	53232.41
673.205	53262.02
673.554	53371.39
673.904	53242.13
674.253	53398.06
674.602	53276.71
674.951	52812.99
675.3	52704.52
675.649	53083.49
675.998	53051.85
676.346	53183.15
676.695	53275.58
677.044	53003.72
677.393	53114.9
677.741	53096.15
678.09	52989.48
678.438	52821.58
678.787	52967.56
679.135	52902.93
679.484	52614.58
679.832	52819.32
680.181	52685.54
680.529	52658.87
680.877	52679.66
681.225	52564.63
681.573	52742.03
681.922	52481.47
682.27	52359.67
682.618	52405.77
682.966	52291.87
683.314	52300.91
683.661	52289.61
684.009	52145.21
684.357	52016.85
684.705	51951.09
685.053	51959.45
685.4	51934.14
685.748	51752.68
686.095	51828.38
686.443	51712
686.79	51540.25
687.138	51638.56
687.485	51606.47
687.832	51420.71
688.18	51554.49
688.527	51256.65
688.874	51353.14
689.221	51194.73
689.568	50950.44
689.915	50964.9
690.262	51016.2
690.609	50844.68
690.956	50700.73
691.303	50785.25
691.65	50513.84
691.997	50566.27
692.344	50367.63
692.69	50338.25
693.037	50326.5
693.383	50040.41
693.73	50245.15
694.077	49907.3
694.423	49928.77
694.769	49878.6
695.116	49697.14
695.462	49619.4
695.808	49572.17
696.155	49559.52
696.501	49155.23
696.847	49320.88
697.193	49066.65
697.539	49150.49
697.885	48844.51
698.231	48694
698.577	48781.01
698.923	48788.46
699.269	48496.04
699.614	48247.69
699.96	48184.19
700.306	48306.89
700.651	48089.5
700.997	47928.82
701.342	47970.41
701.688	47941.71
702.033	47625.1
702.379	47689.73
702.724	47537.87
703.069	47681.83
703.415	47212.91
703.76	47237.09
704.105	47240.48
704.45	47205.68
704.795	46867.38
705.14	46863.32
705.485	46752.36
705.83	46595.75
706.175	46716.88
706.52	46492.93
706.865	46449.99
707.209	46448.19
707.554	46166.61
707.899	46418.13
708.243	46154.86
708.588	46118.7
708.932	45762.33
709.277	45885.04
709.621	45799.16
709.966	45403.24
710.31	45522.33
710.654	45300.87
710.998	45437.59
711.342	45380.42
711.687	45133.19
712.031	45114.44
712.375	44825.63
712.719	45036.02
713.063	44915.57
713.407	44926.42
713.75	44749.25
714.094	44888
714.438	44661.79
714.782	44568.69
715.125	44298.64
715.469	44490.5
715.812	44248.92
716.156	44060
716.499	44064.52
716.843	44083.5
717.186	43881.47
717.53	43981.13
717.873	43836.5
718.216	43776.84
718.559	43648.26
718.902	43463.41
719.246	43668.6
719.589	43316.97
719.932	43259.79
720.275	43322.39
720.617	43161.04
720.96	43225.67
721.303	43266.12
721.646	43129.85
721.989	42864.78
722.331	42982.29
722.674	42837.88
723.016	42851.44
723.359	42755.85
723.701	42790.88
724.044	42587.27
724.386	42281.97
724.729	42572.13
725.071	42445.8
725.413	42394.73
725.755	42290.78
726.097	42112.71
726.439	42006.49
726.782	41994.74
727.124	42218.69
727.465	41902.54
727.807	41914.52
728.149	41823.22
728.491	41707.29
728.833	41759.27
729.175	41623.45
729.516	41500.29
729.858	41552.49
730.199	41467.53
730.541	41510.69
730.882	41314.31
731.224	41400.63
731.565	41194.76
731.906	41255.33
732.248	41317.47
732.589	41036.8
732.93	40824.6
733.271	40979.63
733.612	41025.5
733.953	40984.83
734.294	40790.93
734.635	40808.33
734.976	40790.03
735.317	40523.6
735.658	40521.11
735.999	40468.23
736.339	40511.39
736.68	40456.93
737.021	40461.9
737.361	40219.87
737.702	40506.19
738.042	40214.23
738.383	40087.67
738.723	40235.92
739.063	39952.99
739.404	40076.6
739.744	40121.57
740.084	39829.83
740.424	39949.83
740.764	39776.95
741.104	39868.47
741.444	39568.59
741.784	39631.42
742.124	39772.43
742.464	39616.27
742.804	39493.11
743.143	39562.72
743.483	39458.54
743.823	39362.27
744.162	39200.47
744.502	39286.34
744.841	39237.08
745.181	39309.39
745.52	38995.73
745.86	39274.81
746.199	38977.65
746.538	38858.33
746.877	39005.9
747.216	38971.32
747.556	38830.98
747.895	38839.12
748.234	38638.45
748.573	38662.85
748.911	38737.43
749.25	38493.14
749.589	38402.97
749.928	38542.63
750.267	38496.3
750.605	38323.2
750.944	38134.28
751.283	38172.92
751.621	38095.64
751.96	37873.5
752.298	37981.52
752.636	38016.77
752.975	37750.56
753.313	37692.48
753.651	37841.86
753.989	37540.4
754.327	37543.56
754.666	37360.06
755.004	37444.81
755.342	37303.12
755.679	37284.81
756.017	37184.7
756.355	37205.49
756.693	36909.68
757.031	37023.8
757.368	36828.1
757.706	36776.58
758.044	36571.61
758.381	36785.39
758.719	36511.05
759.056	36454.1
759.394	36327.77
759.731	36116.93
760.068	36183.82
760.405	35924.17
760.743	35763.49
761.08	35955.81
761.417	35662.93
761.754	35716.04
762.091	35524.18
762.428	35354.92
762.765	35295.94
763.102	35337.74
763.438	35098.2
763.775	35034.25
764.112	35149.95
764.449	35004.87
764.785	34989.5
765.122	34634.48
765.458	34523.3
765.795	34494.83
766.131	34401.27
766.467	34289.86
766.804	34147.27
767.14	33913.37
767.476	33927.38
767.812	33758.8
768.148	33898.01
768.485	33667.28
768.821	33593.83
769.157	33371.47
769.492	33400.84
769.828	33250.57
770.164	32891.25
770.5	33029.1
770.836	32927.64
771.171	32707.08
771.507	32751.14
771.842	32416.69
772.178	32426.41
772.513	32324.49
772.849	32207.43
773.184	32079.07
773.519	32105.51
773.855	31925.4
774.19	31762.47
774.525	31546.66
774.86	31736.71
775.195	31714.79
775.53	31394.57
775.865	31306.66
776.2	31094.46
776.535	30943.96
776.87	30938.76
777.205	30767.92
777.539	30636.85
777.874	30608.38
778.209	30330.87
778.543	30407.7
778.878	30128.16
779.212	30051.55
779.547	29946.02
779.881	30195.05
780.215	29782.41
780.55	29916.42
780.884	29713.48
781.218	29522.53
781.552	29489.76
781.886	29426.03
782.22	29348.3
782.554	29048.64
782.888	28906.73
783.222	28894.52
783.556	28639.61
783.889	28565.27
784.223	28412.05
784.557	28402.33
784.89	28577.24
785.224	28300.87
785.557	28141.32
785.891	28031.95
786.224	28058.84
786.558	27946.07
786.891	27739.75
787.224	27577.27
787.557	27565.74
787.891	27549.02
788.224	27432.41
788.557	27485.07
788.89	27330.5
789.223	27229.71
789.556	27091.18
789.888	26904.29
790.221	26817.97
790.554	26716.73
790.887	26648.03
791.219	26608.93
791.552	26598.09
791.884	26458.2
792.217	26359
792.549	26220.92
792.882	26059.34
793.214	25959.46
793.546	25908.84
793.879	25843.53
794.211	25683.31
794.543	25769.18
794.875	25647.15
795.207	25658.68
795.539	25538.23
795.871	25575.29
796.203	25343.88
796.535	25201.06
796.867	25117.9
797.198	24992.48
797.53	25087.39
797.862	24841.3
798.193	24912.93
798.525	24743.22
798.856	24658.25
799.188	24421.19
799.519	24366.51
799.85	24237.92
800.182	24374.87
800.513	24310.46
800.844	24108.66
801.175	24222.56
801.506	24220.52
801.837	23977.82
802.168	23983.47
802.499	23831.15
802.83	23706.64
803.161	23664.6
803.491	23632.74
803.822	23662.8
804.153	23573.76
804.483	23345.29
804.814	23293.77
805.145	23232.07
805.475	23218.97
805.805	23070.5
806.136	23160.21
806.466	23049.93
806.796	23014.45
807.126	22826.66
807.457	22809.26
807.787	22821.69
808.117	22629.15
808.447	22558.19
808.777	22670.73
809.107	22485.65
809.436	22437.52
809.766	22510.06
810.096	22316.84
810.426	22256.05
810.755	22159.11
811.085	22168.15
811.414	22136.51
811.744	21949.39
812.073	21966.34
812.403	21845.89
812.732	21755.73
813.061	21898.32
813.39	21628.95
813.719	21597.31
814.049	21667.82
814.378	21594.6
814.707	21508.95
815.036	21411.78
815.365	21294.04
815.693	21167.72
816.022	21256.53
816.351	21160.04
816.68	21049.08
817.008	21107.61
817.337	20911.91
817.665	20873.94
817.994	21025.8
818.322	20848.86
818.651	20800.27
818.979	20709.2
819.307	20764.57
819.636	20579.49
819.964	20519.6
820.292	20729.31
820.62	20608.41
820.948	20589.2
821.276	20656.32
821.604	20427.63
821.932	20579.71
822.259	20565.25
822.587	20490.45
822.915	20502.65
823.243	20507.85
823.57	20506.95
823.898	20497.91
824.225	20405.71
824.553	20343.56
824.88	20486.61
825.207	20440.28
825.535	20439.6
825.862	20454.29
826.189	20323
826.516	20428.76
826.843	20498.36
827.17	20393.96
827.497	20463.78
827.824	20422.66
828.151	20443.45
828.478	20398.02
828.805	20557.79
829.131	20482.77
829.458	20330.23
829.785	20297.91
830.111	20425.59
830.438	20499.04
830.764	20365.48
831.09	20364.13
831.417	20278.03
831.743	20379.04
832.069	20331.36
832.395	20169.33
832.722	20362.32
833.048	20252.49
833.374	20268.76
833.7	20243.22
834.026	20091.59
834.351	20177.24
834.677	20172.49
835.003	20222.21
835.329	20252.04
835.654	20116.9
835.98	19941.31
836.306	20100.86
836.631	19952.16
836.956	20099.05
837.282	19940.63
837.607	19927.07
837.932	19788.77
838.258	19899.73
838.583	19924.14
838.908	19797.13
839.233	19795.1
839.558	19695.22
839.883	19670.58
840.208	19542
840.533	19563.47
840.858	19501.78
841.182	19563.02
841.507	19549.23
841.832	19343.59
842.156	19389.91
842.481	19433.53
842.805	19346.53
843.13	19226.98
843.454	19247.32
843.778	19290.71
844.103	19139.98
844.427	19076.93
844.751	19065.63
845.075	19086.42
845.399	18904.28
845.723	18886.65
846.047	18925.07
846.371	18653.89
846.695	18698.63
847.019	18594.45
847.343	18474.68
847.666	18368.25
847.99	18305.87
848.313	18311.75
848.637	18219.55
848.96	18092.77
849.284	18095.48
849.607	17944.08
849.931	17885.09
850.254	17830.86
850.577	17690.52
850.9	17578.66
851.223	17484.2
851.546	17475.84
851.869	17385.45
852.192	17506.8
852.515	17227.26
852.838	17192.91
853.161	17187.49
853.483	17166.7
853.806	17036.08
854.129	17002.86
854.451	16938.68
854.774	16813.71
855.096	16856.87
855.419	16812.58
855.741	16742.75
856.063	16644
856.385	16545.02
856.708	16525.58
857.03	16490.33
857.352	16514.74
857.674	16424.57
857.996	16340.95
858.318	16291.24
858.64	16349.09
858.961	16239.04
859.283	16162.88
859.605	16106.38
859.926	16174.18
860.248	16093.96
860.57	15948.2
860.891	16004.24
861.212	15975.54
861.534	15926.73
861.855	15858.71
862.176	15912.04
862.498	15886.73
862.819	15860.06
863.14	15783.23
863.461	15687.86
863.782	15672.72
864.103	15634.98
864.424	15592.05
864.745	15635.21
865.065	15631.59
865.386	15499.17
865.707	15515.21
866.027	15561.99
866.348	15432.96
866.668	15464.14
866.989	15349.57
867.309	15292.62
867.63	15348.89
867.95	15246.75
868.27	15225.5
868.59	15158.84
868.91	15191.61
869.23	15147.09
869.55	15057.6
869.87	15246.75
870.19	15177.14
870.51	15140.53
870.83	15174.21
871.15	14984.15
871.469	14994.1
871.789	15057.82
872.109	14951.39
872.428	14982.57
872.748	14991.61
873.067	14973.76
873.386	14924.72
873.706	14926.75
874.025	14803.82
874.344	14716.82
874.663	14797.04
874.982	14697.38
875.301	14710.94
875.62	14701
875.939	14651.96
876.258	14634.11
876.577	14616.71
876.896	14524.51
877.214	14479.08
877.533	14529.7
877.852	14482.25
878.17	14511.85
878.489	14530.83
878.807	14451.06
879.125	14398.18
879.444	14341.23
879.762	14334.91
880.08	14345.3
880.398	14292.65
880.716	14283.83
881.034	14216.72
881.352	14259.65
881.67	14096.95
881.988	14201.58
882.306	14143.95
882.624	14132.88
882.941	14058.3
883.259	14049.04
883.577	13943.5
883.894	13971.75
884.212	14001.13
884.529	13924.07
884.846	13819.66
885.164	13858.53
885.481	13822.38
885.798	13705.54
886.115	13745.09
886.432	13723.4
886.75	13625.09
887.067	13738.54
887.383	13600.46
887.7	13661.7
888.017	13567.47
888.334	13504.42
888.651	13556.17
888.967	13401.14
889.284	13296.51
889.6	13291.77
889.917	13275.72
890.233	13213.81
890.55	13150.98
890.866	13198.21
891.182	13170.87
891.498	13102.62
891.815	13043.64
892.131	13022.4
892.447	13009.06
892.763	12923.87
893.079	12934.04
893.395	12850.88
893.71	12880.71
894.026	12819.01
894.342	12793.03
894.657	12642.97
894.973	12607.04
895.289	12631.45
895.604	12725.91
895.92	12554.84
896.235	12540.38
896.55	12515.52
896.865	12406.82
897.181	12410.21
897.496	12419.02
897.811	12313.26
898.126	12230.33
898.441	12244.34
898.756	12276.88
899.071	12092.7
899.386	12125.92
899.7	12020.16
900.015	11930.45
900.33	11935.19
900.644	11869.43
900.959	11852.26
901.273	11824.92
901.588	11804.58
901.902	11800.51
902.216	11593.28
902.531	11655.65
902.845	11537.24
903.159	11518.71
903.473	11471.7
903.787	11437.81
904.101	11375.66
904.415	11341.99
904.729	11287.53
905.042	11257.7
905.356	11206.85
905.67	11172.95
905.984	11232.61
906.297	11131.6
906.611	11033.98
906.924	11059.29
907.237	10991.49
907.551	10936.58
907.864	10930.02
908.177	10871.27
908.491	10857.03
908.804	10822.23
909.117	10744.94
909.43	10649.13
909.743	10618.85
910.056	10605.96
910.368	10564.84
910.681	10526.42
910.994	10453.43
911.307	10378.63
911.619	10325.07
911.932	10323.94
912.244	10280.55
912.557	10268.12
912.869	10165.98
913.181	10140.21
913.494	10095.92
913.806	10043.94
914.118	10017.5
914.43	9987.9
914.742	9971.86
915.054	9903.16
915.366	9900.9
915.678	9814.35
915.99	9784.06
916.302	9677.17
916.613	9610.74
916.925	9710.39
917.236	9575.71
917.548	9519.21
917.859	9627.23
918.171	9473.79
918.482	9483.06
918.794	9443.28
919.105	9396.96
919.416	9265.43
919.727	9346.56
920.038	9295.49
920.349	9206.23
920.66	9202.16
920.971	9178.43
921.282	9111.77
921.593	9088.04
921.903	8936.86
922.214	8902.73
922.525	8991.77
922.835	8849.85
923.146	8811.21
923.456	8819.57
923.767	8758.78
924.077	8754.94
924.387	8742.74
924.697	8599.24
925.008	8623.42
925.318	8630.87
925.628	8602.4
925.938	8534.61
926.248	8393.82
926.558	8433.82
926.867	8389.75
927.177	8377.77
927.487	8351.33
927.796	8292.8
928.106	8208.29
928.416	8189.53
928.725	8182.75
929.034	8145.24
929.344	8140.04
929.653	8057.56
929.962	8001.96
930.271	8013.94
930.581	7957.22
930.89	7901.63
931.199	7884.68
931.508	7847.62
931.817	7874.28
932.125	7836.55
932.434	7783.44
932.743	7746.15
933.051	7698.7
933.36	7665.02
933.669	7560.39
933.977	7531.02
934.286	7577.12
934.594	7487.63
934.902	7551.13
935.21	7443.56
935.519	7417.57
935.827	7404.01
936.135	7340.29
936.443	7244.24
936.751	7255.54
937.059	7245.15
937.367	7196.79
937.674	7195.43
937.982	7135.32
938.29	7101.65
938.597	7104.36
938.905	7015.78
939.213	6969.45
939.52	6945.72
939.827	7083.34
940.135	6925.16
940.442	6820.3
940.749	6866.4
941.056	6867.53
941.363	6771.94
941.67	6757.25
941.977	6734.65
942.284	6644.94
942.591	6636.12
942.898	6634.32
943.205	6637.48
943.511	6555.68
943.818	6524.49
944.125	6524.72
944.431	6503.47
944.738	6527.43
945.044	6462.12
945.35	6402.46
945.657	6344.61
945.963	6389.35
946.269	6366.53
946.575	6303.48
946.881	6276.13
947.187	6253.31
947.493	6206.08
947.799	6196.36
948.105	6196.14
948.41	6115.91
948.716	6114.78
949.022	6071.39
949.327	6084.95
949.633	5980.55
949.938	6019.19
950.244	5980.1
950.549	5950.72
950.854	5872.3
951.16	5923.38
951.465	5867.33
951.77	5889.03
952.075	5776.49
952.38	5783.72
952.685	5783.49
952.99	5707.34
953.294	5736.94
953.599	5614.68
953.904	5646.77
954.209	5621.91
954.513	5626.43
954.818	5603.84
955.122	5582.59
955.426	5552.31
955.731	5527.23
956.035	5420.34
956.339	5435.93
956.643	5437.96
956.948	5458.53
957.252	5376.27
957.556	5371.75
957.86	5326.78
958.163	5310.06
958.467	5233.45
958.771	5262.83
959.075	5260.57
959.378	5268.48
959.682	5219.89
959.985	5193.9
960.289	5158.2
960.592	5120.91
960.896	5060.57
961.199	5083.85
961.502	5026
961.805	5061.25
962.108	4994.81
962.411	5013.57
962.714	4913.01
963.017	4932.67
963.32	4952.1
963.623	4851.77
963.926	4858.32
964.228	4849.96
964.531	4840.47
964.833	4827.36
965.136	4773.8
965.438	4772.22
965.741	4735.16
966.043	4717.53
966.345	4713.24
966.648	4719.79
966.95	4666.23
967.252	4659
967.554	4672.11
967.856	4613.13
968.158	4554.6
968.46	4586.91
968.761	4538.33
969.063	4539.46
969.365	4530.19
969.666	4501.04
969.968	4472.34
970.269	4440.02
970.571	4405.22
970.872	4410.87
971.174	4348.95
971.475	4310.31
971.776	4322.97
972.077	4302.4
972.378	4277.54
972.679	4274.61
972.98	4227.6
973.281	4282.97
973.582	4207.71
973.883	4174.49
974.183	4180.6
974.484	4112.35
974.785	4118
975.085	4124.1
975.386	4108.28
975.686	4049.53
975.986	4075.74
976.287	4036.42
976.587	3979.47
976.887	4009.3
977.187	3973.82
977.487	3958.91
977.787	3970.88
978.087	3951.68
978.387	3895.86
978.687	3914.16
978.987	3840.72
979.286	3878.01
979.586	3798.69
979.885	3847.72
980.185	3778.57
980.484	3776.09
980.784	3754.39
981.083	3746.94
981.382	3696.32
981.682	3739.7
981.981	3740.61
982.28	3673.04
982.579	3634.4
982.878	3643.44
983.177	3611.35
983.475	3641.63
983.774	3600.72
984.073	3565.47
984.372	3550.78
984.67	3543.1
984.969	3527.05
985.267	3500.39
985.566	3522.08
985.864	3478.24
986.162	3472.82
986.461	3388.75
986.759	3455.87
987.057	3398.02
987.355	3414.97
987.653	3364.57
987.951	3389.2
988.249	3388.75
988.547	3320.28
988.844	3315.08
989.142	3292.71
989.44	3298.59
989.737	3268.53
990.035	3260.17
990.332	3242.32
990.63	3224.24
990.927	3203.22
991.224	3187.18
991.521	3149.44
991.819	3159.15
992.116	3178.59
992.413	3135.43
992.71	3137.69
993.006	3086.61
993.303	3115.77
993.6	3059.27
993.897	3076.22
994.193	3082.55
994.49	3053.85
994.787	3019.72
995.083	3021.08
995.379	2982.21
995.676	2983.34
995.972	2951.93
996.268	2938.82
996.565	2910.35
996.861	2919.16
997.157	2880.97
997.453	2829.45
997.749	2850.69
998.044	2823.8
998.34	2815.21
998.636	2791.03
998.932	2781.99
999.227	2784.47
999.523	2780.86
999.818	2753.29
1000.114	2703.12
1000.409	2683.01
1000.704	2716.68
1001	2687.98
1001.295	2663.12
1001.59	2689.79
1001.885	2660.64
1002.18	2633.52
1002.475	2623.35
1002.77	2652.27
1003.065	2550.36
1003.359	2568.44
1003.654	2556.01
1003.949	2556.46
1004.243	2501.09
1004.538	2501.09
1004.832	2496.57
1005.127	2462
1005.421	2443.24
1005.715	2452.05
1006.009	2431.04
1006.304	2425.16
1006.598	2440.3
1006.892	2380.87
1007.186	2373.41
1007.48	2355.11
1007.773	2341.77
1008.067	2355.56
1008.361	2305.39
1008.655	2304.49
1008.948	2289.8
1009.242	2297.26
1009.535	2283.92
1009.829	2243.47
1010.122	2236.01
1010.415	2237.14
1010.708	2210.25
1011.001	2205.96
1011.295	2179.74
1011.588	2168.9
1011.881	2145.17
1012.173	2141.78
1012.466	2110.59
1012.759	2114.44
1013.052	2147.88
1013.344	2118.05
1013.637	2064.49
1013.93	2051.39
1014.222	2051.39
1014.514	2047.77
1014.807	2048.45
1015.099	2019.3
1015.391	2003.48
1015.683	1996.02
1015.976	1960.99
1016.268	1966.42
1016.56	1918.96
1016.851	1927.1
1017.143	1928.45
1017.435	1911.73
1017.727	1895.23
1018.018	1925.74
1018.31	1860.66
1018.602	1897.94
1018.893	1855.46
1019.185	1839.19
1019.476	1805.52
1019.767	1809.13
1020.058	1803.26
1020.35	1833.54
1020.641	1772.07
1020.932	1742.02
1021.223	1761.22
1021.514	1770.94
1021.804	1749.25
1022.095	1693.2
1022.386	1700.89
1022.677	1722.58
1022.967	1675.35
1023.258	1657.95
1023.548	1652.08
1023.839	1668.35
1024.129	1628.35
1024.419	1626.31
1024.709	1614.11
1025	1619.53
1025.29	1603.04
1025.58	1585.41
1025.87	1559.65
1026.16	1561.91
1026.449	1556.94
1026.739	1519.65
1027.029	1505.19
1027.319	1532.08
1027.608	1515.13
1027.898	1508.58
1028.187	1484.85
1028.477	1486.88
1028.766	1473.55
1029.055	1449.14
1029.344	1460.67
1029.634	1428.35
1029.923	1420.22
1030.212	1397.84
1030.501	1411.4
1030.79	1384.06
1031.078	1405.3
1031.367	1386.55
1031.656	1382.48
1031.945	1339.54
1032.233	1341.8
1032.522	1317.17
1032.81	1328.47
1033.099	1335.93
1033.387	1295.25
1033.675	1324.4
1033.963	1280.56
1034.251	1305.19
1034.54	1246.89
1034.828	1293.89
1035.116	1233.33
1035.403	1262.48
1035.691	1234.91
1035.979	1212.76
1036.267	1241.24
1036.554	1220.45
1036.842	1194.01
1037.129	1191.07
1037.417	1171.41
1037.704	1176.61
1037.992	1147.91
1038.279	1174.12
1038.566	1161.69
1038.853	1161.69
1039.14	1161.69
