Data from White_paper_FLMS001491_017.txt Node
Date: Tue Feb 07 10:34:44 GMT 2017
User: dcchb
Spectrometer: FLMS00149
Trigger mode: 0
Integration Time (sec): 2.000000E-2
Scans to average: 10
Electric dark correction enabled: true
Nonlinearity correction enabled: false
Boxcar width: 0
XAxis mode: Wavelengths
Number of Pixels in Spectrum: 2048
>>>>>Begin Spectral Data<<<<<
341.393	-20.56
341.776	-20.56
342.16	-20.56
342.543	-48.36
342.927	-59.66
343.31	-68.92
343.693	-44.74
344.077	-61.69
344.46	-58.98
344.843	-54.01
345.226	-42.94
345.61	-29.6
345.993	-21.02
346.376	-3.16
346.759	-0.68
347.142	35.25
347.525	42.48
347.908	47.23
348.291	79.32
348.674	80.9
349.057	100.56
349.44	127
349.823	152.76
350.206	185.08
350.588	221.92
350.971	225.98
351.354	250.84
351.737	269.6
352.119	263.72
352.502	275.25
352.884	300.78
353.267	314.12
353.65	321.35
354.032	322.93
354.414	338.75
354.797	325.64
355.179	350.95
355.562	341.23
355.944	369.48
356.326	373.1
356.709	381.01
357.091	364.06
357.473	381.23
357.855	362.48
358.238	365.87
358.62	386.66
359.002	350.95
359.384	373.55
359.766	398.63
360.148	366.09
360.53	371.97
360.912	377.17
361.294	356.37
361.676	336.71
362.057	349.6
362.439	382.59
362.821	373.32
363.203	345.75
363.584	360.44
363.966	351.63
364.348	359.54
364.729	365.87
365.111	345.98
365.493	376.71
365.874	363.61
366.256	363.61
366.637	357.28
367.019	351.4
367.4	349.37
367.781	363.15
368.163	365.64
368.544	350.73
368.925	358.86
369.306	373.32
369.688	390.5
370.069	369.93
370.45	359.09
370.831	365.87
371.212	342.82
371.593	359.76
371.974	365.41
372.355	350.5
372.736	373.78
373.117	391.63
373.498	367
373.879	382.59
374.26	359.99
374.641	355.47
375.021	383.94
375.402	387.11
375.783	366.54
376.163	363.15
376.544	403.15
376.925	390.72
377.305	377.84
377.686	401.12
378.066	382.14
378.447	390.95
378.827	396.83
379.208	393.66
379.588	407.9
379.968	418.97
380.349	404.74
380.729	417.84
381.109	392.08
381.489	394.79
381.87	414.45
382.25	414
382.63	420.1
383.01	407.22
383.39	425.07
383.77	431.85
384.15	433.89
384.53	439.99
384.91	415.36
385.29	442.02
385.67	438.41
386.049	442.93
386.429	482.93
386.809	458.97
387.189	460.1
387.568	463.26
387.948	457.39
388.328	455.36
388.707	475.02
389.087	463.94
389.466	489.03
389.846	471.17
390.225	483.15
390.605	498.97
390.984	463.49
391.363	510.95
391.743	509.37
392.122	491.06
392.501	509.59
392.881	510.04
393.26	503.49
393.639	540.78
394.018	527.9
394.397	557.05
394.776	565.86
395.155	535.13
395.534	538.97
395.913	561.79
396.292	549.14
396.671	561.79
397.05	574.67
397.429	592.53
397.808	596.59
398.186	583.94
398.565	603.37
398.944	594.56
399.323	602.24
399.701	634.11
400.08	605.41
400.458	608.12
400.837	638.85
401.215	653.09
401.594	659.87
401.972	639.31
402.351	663.49
402.729	662.58
403.107	722.69
403.486	697.16
403.864	709.36
404.242	707.55
404.62	723.37
404.999	750.26
405.377	749.36
405.755	763.6
406.133	789.36
406.511	793.2
406.889	796.14
407.267	826.19
407.645	860.54
408.023	841.79
408.401	872.52
408.779	906.42
409.156	931.95
409.534	936.47
409.912	972.63
410.29	971.95
410.667	1022.12
411.045	1050.14
411.422	1051.72
411.8	1091.95
412.178	1140.31
412.555	1186.86
412.933	1163.59
413.31	1192.29
413.687	1232.96
414.065	1275.67
414.442	1317.03
414.819	1331.72
415.197	1323.58
415.574	1354.99
415.951	1363.81
416.328	1426.63
416.705	1439.96
417.082	1465.72
417.46	1501.43
417.837	1557.02
418.214	1543.01
418.591	1596.34
418.967	1605.38
419.344	1646.51
419.721	1655.1
420.098	1655.55
420.475	1722.89
420.852	1744.81
421.228	1750.46
421.605	1800.4
421.982	1801.76
422.358	1853.28
422.735	1910.23
423.111	1902.77
423.488	1939.16
423.864	1926.05
424.241	1995.2
424.617	2001.98
424.994	2032.71
425.37	2056.44
425.746	2102.09
426.123	2084.24
426.499	2128.53
426.875	2118.14
427.251	2206.27
427.627	2215.76
428.003	2268.19
428.379	2288.53
428.756	2372.59
429.132	2376.43
429.507	2401.07
429.883	2423.89
430.259	2468.86
430.635	2514.74
431.011	2511.35
431.387	2607.84
431.763	2650.1
432.138	2669.99
432.514	2708.63
432.89	2716.99
433.265	2805.12
433.641	2832.47
434.016	2876.76
434.392	2886.93
434.767	2992.46
435.143	2959.47
435.518	3026.14
435.894	3014.84
436.269	3095.74
436.644	3131.9
437.02	3162.63
437.395	3199.92
437.77	3207.37
438.145	3280.37
438.52	3330.99
438.895	3354.94
439.271	3380.7
439.646	3448.95
440.021	3457.99
440.395	3475.84
440.77	3434.71
441.145	3494.82
441.52	3586.57
441.895	3578.89
442.27	3622.5
442.645	3614.14
443.019	3703.18
443.394	3677.42
443.769	3705.44
444.143	3682.16
444.518	3764.42
444.892	3785.89
445.267	3789.96
445.641	3835.38
446.016	3812.1
446.39	3861.14
446.764	3915.6
447.139	3882.38
447.513	3923.29
447.887	3947.24
448.262	4035.37
448.636	4002.15
449.01	4025.2
449.384	4092.55
449.758	4100.01
450.132	4145.2
450.506	4204.18
450.88	4150.63
451.254	4220.23
451.628	4252.09
452.002	4341.35
452.376	4332.54
452.75	4377.29
453.123	4408.7
453.497	4515.59
453.871	4536.15
454.244	4601.23
454.618	4575.25
454.992	4671.97
455.365	4662.48
455.739	4822.02
456.112	4869.7
456.486	4908.8
456.859	4930.04
457.232	5025.86
457.606	5052.97
457.979	5097.27
458.352	5130.71
458.725	5235.79
459.099	5284.61
459.472	5377.26
459.845	5451.38
460.218	5546.29
460.591	5589.01
460.964	5578.38
461.337	5696.35
461.71	5774.09
462.083	5847.08
462.456	5947.19
462.829	5943.57
463.201	6061.76
463.574	6073.51
463.947	6129.33
464.32	6313.05
464.692	6285.26
465.065	6334.07
465.438	6456.33
465.81	6556.89
466.183	6667.17
466.555	6769.77
466.928	6804.79
467.3	6809.31
467.672	6943.55
468.045	7090.21
468.417	7139.47
468.789	7188.96
469.161	7322.97
469.534	7451.33
469.906	7567.71
470.278	7628.27
470.65	7740.14
471.022	7896.06
471.394	7993.24
471.766	8089.28
472.138	8223.29
472.51	8333.57
472.882	8443.17
473.253	8525.2
473.625	8708.25
473.997	8859.65
474.369	8874.12
474.74	9043.83
475.112	9193.88
475.484	9293.31
475.855	9472.75
476.227	9541.44
476.598	9824.37
476.97	9885.62
477.341	10138.72
477.713	10300.52
478.084	10395.43
478.455	10588.65
478.827	10702.77
479.198	10992.25
479.569	10965.59
479.94	11323.54
480.311	11332.36
480.682	11687.6
481.053	11873.81
481.424	12023.86
481.795	12181.15
482.166	12406.45
482.537	12527.35
482.908	12817.74
483.279	12969.15
483.65	13173.89
484.021	13442.58
484.391	13584.95
484.762	13685.74
485.133	13834.21
485.503	14043.92
485.874	14308.78
486.244	14424.25
486.615	14692.95
486.985	14808.88
487.356	15056.33
487.726	15262.2
488.097	15520.5
488.467	15544
488.837	15917.77
489.207	16108.5
489.578	16380.81
489.948	16463.97
490.318	16719.56
490.688	16760.46
491.058	17063.05
491.428	17221.02
491.798	17474.79
492.168	17708.01
492.538	17777.61
492.908	17830.04
493.278	18240.42
493.648	18228.67
494.017	18484.03
494.387	18636.8
494.757	18771.26
495.126	18917.02
495.496	18979.39
495.866	19269.55
496.235	19362.2
496.605	19589.77
496.974	19659.6
497.344	19835.18
497.713	20024.33
498.082	20142.3
498.452	20319.69
498.821	20397.43
499.19	20451.44
499.559	20754.71
499.928	20753.8
500.298	20860.69
500.667	21125.32
501.036	21060.92
501.405	21349.27
501.774	21314.47
502.143	21612.31
502.512	21684.63
502.88	21889.14
503.249	21878.97
503.618	22059.76
503.987	22203.71
504.356	22336.81
504.724	22445.06
505.093	22546.07
505.462	22675.56
505.83	22885.73
506.199	22991.71
506.567	23416.56
506.936	23233.29
507.304	23535.88
507.672	23699.72
508.041	23854.74
508.409	23956.43
508.777	24101.29
509.145	24285.46
509.514	24263.09
509.882	24455.85
510.25	24575.4
510.618	24745.79
510.986	24802.51
511.354	25142.62
511.722	25337.86
512.09	25485.66
512.458	25549.84
512.826	25777.4
513.193	25839.32
513.561	25982.59
513.929	26223.27
514.297	26401.79
514.664	26577.38
515.032	26697.38
515.4	26900.31
515.767	27036.13
516.135	27198.15
516.502	27004.94
516.869	27620.06
517.237	27610.8
517.604	27733.96
517.972	27955.88
518.339	28141.18
518.706	28265.7
519.073	28353.38
519.44	28561.73
519.808	28850.54
520.175	28898.68
520.542	29200.36
520.909	29337.08
521.276	29496.63
521.643	29781.82
522.009	29927.35
522.376	30138.42
522.743	30177.51
523.11	30561.68
523.477	30764.61
523.843	31011.84
524.21	31245.05
524.577	31475.78
524.943	31607.08
525.31	31912.61
525.676	31972.72
526.043	32241.64
526.409	32445.25
526.776	32748.07
527.142	32851.11
527.508	33012.01
527.874	33193.03
528.241	33438.67
528.607	33482.28
528.973	33918.66
529.339	33992.1
529.705	34389.6
530.071	34452.65
530.437	34519.54
530.803	34904.84
531.169	34975.8
531.535	34946.43
531.901	35072.3
532.267	35338.05
532.632	35705.28
532.998	35756.12
533.364	35838.83
533.73	35958.83
534.095	36340.51
534.461	36342.55
534.826	36591.58
535.192	36665.7
535.557	36958.35
535.923	37007.39
536.288	37134.62
536.653	37444.89
537.019	37316.08
537.384	37437.66
537.749	37609.41
538.114	37855.28
538.479	37820.7
538.845	38013.69
539.21	38021.6
539.575	38175.72
539.94	38357.41
540.305	38553.56
540.67	38513.11
541.034	38629.27
541.399	38878.75
541.764	39032.87
542.129	39030.16
542.494	39358.97
542.858	39444.61
543.223	39532.97
543.587	39623.36
543.952	39677.37
544.316	39886.86
544.681	39909.46
545.045	40118.49
545.41	40503.34
545.774	40432.61
546.138	40515.32
546.503	40607.75
546.867	40731.13
547.231	41084.34
547.595	40961.18
547.959	41331.79
548.324	41280.95
548.688	41421.74
549.052	41555.52
549.416	41635.06
549.779	41693.14
550.143	41892.91
550.507	42128.61
550.871	42295.61
551.235	42298.55
551.599	42596.62
551.962	42630.97
552.326	42678.43
552.689	43013.33
553.053	42777.86
553.417	42962.26
553.78	43506.65
554.143	43338.3
554.507	43423.27
554.87	43698.74
555.234	44117.48
555.597	43751.39
555.96	44209.69
556.323	44237.25
556.686	44242.68
557.05	44634.53
557.413	44665.94
557.776	44786.62
558.139	45110.68
558.502	45012.83
558.865	45256.89
559.228	45371.01
559.59	45491.69
559.953	45612.59
560.316	45935.06
560.679	46054.61
561.041	46161.72
561.404	46463.19
561.767	46655.04
562.129	46469.51
562.492	46953.12
562.854	46924.19
563.217	47061.59
563.579	47226.55
563.941	47525.08
564.304	47470.16
564.666	47906.31
565.028	47945.63
565.39	48012.75
565.753	48281.22
566.115	48448.44
566.477	48602.56
566.839	48587.2
567.201	48981.99
567.563	48975.89
567.925	49138.82
568.287	49295.65
568.648	49252.94
569.01	49547.4
569.372	49781.29
569.734	49584.68
570.095	49860.16
570.457	50070.32
570.819	50159.59
571.18	50201.84
571.542	50289.53
571.903	50428.96
572.265	50661.94
572.626	50637.54
572.987	50708.27
573.349	50823.07
573.71	51037.75
574.071	51146.23
574.432	51264.87
574.794	51509.83
575.155	51366.78
575.516	51359.78
575.877	51561.13
576.238	51599.77
576.599	51797.73
576.96	51842.93
577.32	51800.22
577.681	52016.49
578.042	52083.38
578.403	52081.79
578.763	52124.96
579.124	52158.4
579.485	52414.67
579.845	52478.39
580.206	52338.74
580.566	52412.41
580.927	52449.92
581.287	52586.64
581.648	52404.95
582.008	52657.37
582.368	52669.35
582.728	52648.11
583.089	52628.45
583.449	52770.82
583.809	52747.99
584.169	52876.8
584.529	52829.57
584.889	53043.13
585.249	52909.34
585.609	52815.11
585.969	52985.5
586.329	52954.31
586.688	53018.49
587.048	52932.17
587.408	52961.32
587.768	53049.23
588.127	53026.63
588.487	53034.31
588.846	53211.93
589.206	53074.76
589.565	53115.44
589.925	53248.54
590.284	53089.45
590.643	53274.76
591.003	53256.23
591.362	53391.14
591.721	53215.55
592.08	53364.02
592.44	53384.59
592.799	53389.56
593.158	53328.09
593.517	53361.99
593.876	53439.95
594.235	53383.46
594.593	53402.21
594.952	53509.33
595.311	53415.09
595.67	53503.9
596.029	53644.01
596.387	53646.05
596.746	53658.93
597.104	53624.8
597.463	53556.11
597.822	53741.19
598.18	53600.4
598.538	53615.31
598.897	53846.49
599.255	53537.12
599.613	53996.09
599.972	53825.93
600.33	53858.47
600.688	53788.19
601.046	53894.63
601.404	54015.08
601.762	53948.86
602.12	54075.41
602.478	54085.58
602.836	53974.17
603.194	53904.35
603.552	54029.99
603.91	53853.27
604.268	54165.58
604.625	54007.85
604.983	54109.31
605.341	54123.1
605.698	54227.05
606.056	54246.48
606.413	54086.94
606.771	54221.17
607.128	54233.38
607.485	54167.62
607.843	54269.76
608.2	54395.18
608.557	54406.93
608.914	54367.16
609.272	54472.24
609.629	54479.47
609.986	54741.84
610.343	54505.46
610.7	54653.7
611.057	54635.4
611.414	54631.56
611.771	54710.88
612.127	54787.49
612.484	54767.15
612.841	54859.57
613.198	54710.2
613.554	54709.75
613.911	55012.79
614.267	54890.53
614.624	54886.92
614.98	54858.44
615.337	54997.88
615.693	54991.1
616.05	54895.96
616.406	55055.28
616.762	54969.4
617.118	54984.77
617.475	54913.81
617.831	55083.98
618.187	55109.06
618.543	55080.13
618.899	55179.11
619.255	55159
619.611	55115.39
619.967	55229.28
620.323	55249.39
620.678	55257.98
621.034	55223.18
621.39	55180.24
621.746	55111.09
622.101	55425.66
622.457	55183.86
622.812	55293.46
623.168	55272.22
623.523	55294.82
623.879	55310.41
624.234	55177.53
624.589	55295.5
624.945	55412.78
625.3	55292.33
625.655	55304.31
626.01	55342.05
626.365	55332.1
626.72	55302.5
627.075	55253.69
627.43	55200.58
627.785	55256.17
628.14	55279.68
628.495	55349.05
628.85	55306.57
629.205	55192.45
629.559	55301.82
629.914	55327.13
630.269	55366.91
630.623	55192.22
630.978	55138.89
631.332	55338.66
631.687	55370.3
632.041	55169.17
632.396	55254.14
632.75	55192.67
633.104	55174.82
633.459	55108.61
633.813	55130.75
634.167	55063.18
634.521	55152.67
634.875	55170.53
635.229	55083.07
635.583	54964.43
635.937	54991.55
636.291	54984.32
636.645	54977.99
636.999	54930.31
637.352	54999.23
637.706	54832.46
638.06	55048.27
638.413	54927.37
638.767	54858.22
639.121	54948.61
639.474	54818.22
639.828	54797.43
640.181	54850.31
640.534	54798.79
640.888	54690.54
641.241	54657.77
641.594	54725.57
641.947	54787.03
642.301	54753.81
642.654	54726.92
643.007	54773.48
643.36	54725.79
643.713	54672.69
644.066	54730.31
644.419	54564.67
644.771	54311.79
645.124	54008.75
645.477	54087.84
645.83	53917
646.182	53828.42
646.535	53853.73
646.888	53846.72
647.24	53647.85
647.593	53853.05
647.945	53762.2
648.298	53618.7
648.65	53608.08
649.002	53533.28
649.355	53652.6
649.707	53494.19
650.059	53722.43
650.411	54059.82
650.763	54105.02
651.115	54376.65
651.467	54305.24
651.819	54314.96
652.171	54195.19
652.523	54182.08
652.875	54219.59
653.227	54038.13
653.578	54276.54
653.93	54157.45
654.282	54119.48
654.633	54038.35
654.985	54075.41
655.337	54119.25
655.688	54115.41
656.039	54268.4
656.391	53921.97
656.742	53979.6
657.094	53911.58
657.445	54102.31
657.796	54003.55
658.147	53930.11
658.498	53974.63
658.849	53974.63
659.2	53868.64
659.551	53893.27
659.902	54004.91
660.253	53926.72
660.604	53966.26
660.955	53751.81
661.306	53972.14
661.656	53854.4
662.007	53894.85
662.358	53863.22
662.708	53723.33
663.059	53826.38
663.409	53653.73
663.76	53846.95
664.11	53773.5
664.461	53898.7
664.811	53868.41
665.161	53816.21
665.511	53697.35
665.862	53710.45
666.212	53690.34
666.562	53751.13
666.912	53647.18
667.262	53683.33
667.612	53587.07
667.962	53608.53
668.312	53604.47
668.662	53832.03
669.011	53615.31
669.361	53566.5
669.711	53627.52
670.06	53488.09
670.41	53454.64
670.76	53441.31
671.109	53485.15
671.459	53458.03
671.808	53373.74
672.157	53452.83
672.507	53261.42
672.856	53346.39
673.205	53372.16
673.554	53363.57
673.904	53276.79
674.253	53409.44
674.602	53299.62
674.951	52820.31
675.3	52684.49
675.649	53161.99
675.998	53105.04
676.346	53140.52
676.695	53263.01
677.044	52984.14
677.393	53032.28
677.741	53041.32
678.09	52973.52
678.438	52905.5
678.787	52909.34
679.135	52955.9
679.484	52677.94
679.832	52781.89
680.181	52626.64
680.529	52726.3
680.877	52620.09
681.225	52566.53
681.573	52653.76
681.922	52551.84
682.27	52459.19
682.618	52427.77
682.966	52353.2
683.314	52396.81
683.661	52235.24
684.009	52139.87
684.357	52016.71
684.705	52038.41
685.053	51964.28
685.4	51917.73
685.748	51824.17
686.095	51704.86
686.443	51645.87
686.79	51585.76
687.138	51607.23
687.485	51654.01
687.832	51434.13
688.18	51508.48
688.527	51344.41
688.874	51287.01
689.221	51202.27
689.568	51064.19
689.915	50990.3
690.262	50970.19
690.609	50870.53
690.956	50783.98
691.303	50732.9
691.65	50476.19
691.997	50524.1
692.344	50347.6
692.69	50287.94
693.037	50330.2
693.383	50003.88
693.73	50074.39
694.077	49996.88
694.423	50006.82
694.769	49816.77
695.116	49618.81
695.462	49695.42
695.808	49501.07
696.155	49600.73
696.501	49281.87
696.847	49296.78
697.193	48973.85
697.539	49169.78
697.885	48965.04
698.231	48866.51
698.577	48798.72
698.923	48801.2
699.269	48584.94
699.614	48290.48
699.96	48271.73
700.306	48276.24
700.651	48046.87
700.997	47922.36
701.342	47986.99
701.688	47925.97
702.033	47718.97
702.379	47688.46
702.724	47596.94
703.069	47830.83
703.415	47273.79
703.76	47347.68
704.105	47309.26
704.45	47156.5
704.795	46909.28
705.14	46808.94
705.485	46756.06
705.83	46543.86
706.175	46666.57
706.52	46591.32
706.865	46362.4
707.209	46455.28
707.554	46181.84
707.899	46313.58
708.243	46016.19
708.588	45872.47
708.932	45967.83
709.277	45753.83
709.621	45721.96
709.966	45519.71
710.31	45447.17
710.654	45241.75
710.998	45361.52
711.342	45372.37
711.687	45221.64
712.031	45013.05
712.375	44844.24
712.719	45021.42
713.063	45026.39
713.407	44901.42
713.75	44845.6
714.094	44829.56
714.438	44575.1
714.782	44576
715.125	44381.88
715.469	44401.32
715.812	44233.41
716.156	44005.62
716.499	44016.7
716.843	44202.23
717.186	43752.75
717.53	44129.01
717.873	44054.43
718.216	43883.59
718.559	43817.38
718.902	43367.9
719.246	43617.84
719.589	43400.67
719.932	43238.64
720.275	43220.78
720.617	43215.59
720.96	43217.85
721.303	43180.11
721.646	43118.41
721.989	42779.67
722.331	43080
722.674	42815.6
723.016	42994.12
723.359	42746.22
723.701	42813.79
724.044	42533.8
724.386	42334.03
724.729	42515.04
725.071	42152.56
725.413	42376.51
725.755	42291.77
726.097	42115.95
726.439	41956.18
726.782	42107.14
727.124	42231.88
727.465	41853.59
727.807	41969.97
728.149	41909.41
728.491	41706.25
728.833	41712.12
729.175	41646.59
729.516	41476.42
729.858	41522.07
730.199	41448.63
730.541	41378.8
730.882	41320.5
731.224	41446.82
731.565	41249.54
731.906	41252.93
732.248	41193.72
732.589	41064.68
732.93	40941.52
733.271	40847.51
733.612	41040.5
733.953	40880.06
734.294	40698.14
734.635	40656.11
734.976	40775.65
735.317	40463.12
735.658	40478.03
735.999	40470.57
736.339	40352.39
736.68	40460.86
737.021	40337.47
737.361	40123.24
737.702	40468.31
738.042	40268.55
738.383	40191.71
738.723	40217.47
739.063	40102.22
739.404	40099.74
739.744	39911.49
740.084	39879.86
740.424	39931.38
740.764	39742.46
741.104	39859.74
741.444	39804.38
741.784	39602.57
742.124	39664.49
742.464	39562.12
742.804	39491.62
743.143	39537.27
743.483	39412.52
743.823	39186.09
744.162	39241.23
744.502	39365.74
744.841	39154.9
745.181	39172.76
745.52	39029.48
745.86	39121.68
746.199	38972.76
746.538	38964.63
746.877	38994.68
747.216	39069.48
747.556	38707.91
747.895	38859.09
748.234	38744.52
748.573	38719.43
748.911	38625.2
749.25	38493.45
749.589	38423.17
749.928	38344.98
750.267	38604.18
750.605	38283.29
750.944	38125.33
751.283	38176.85
751.621	38197.19
751.96	38003.52
752.298	38008.27
752.636	38022.5
752.975	37808.5
753.313	37622.97
753.651	37805.56
753.989	37463.87
754.327	37536.41
754.666	37239.92
755.004	37296.42
755.342	37387.27
755.679	37203.77
756.017	37115.86
756.355	37210.77
756.693	37050.33
757.031	37041.74
757.368	36724.23
757.706	36684.91
758.044	36612.82
758.381	36704.8
758.719	36418.48
759.056	36598.81
759.394	36182.55
759.731	36189.56
760.068	36094.87
760.405	35933.07
760.743	35797.48
761.08	35944.59
761.417	35657.82
761.754	35560.65
762.091	35593.64
762.428	35552.06
762.765	35216.48
763.102	35228.68
763.438	35146.19
763.775	34879.08
764.112	34968.57
764.449	35029.81
764.785	34823.94
765.122	34717.73
765.458	34404.75
765.795	34403.84
766.131	34393.67
766.467	34276.39
766.804	34150.06
767.14	34107.13
767.476	34003.85
767.812	33802.73
768.148	33917.3
768.485	33783.07
768.821	33505.33
769.157	33452
769.492	33352.34
769.828	33253.14
770.164	33066.25
770.5	33018.79
770.836	32912.81
771.171	32814.05
771.507	32697.9
771.842	32510.78
772.178	32402.54
772.513	32417.45
772.849	32234.41
773.184	32103.11
773.519	32054.07
773.855	32083
774.19	31764.59
774.525	31674.87
774.86	31627.87
775.195	31614.54
775.53	31500.41
775.865	31197.37
776.2	31185.85
776.535	30901.33
776.87	30853.2
777.205	30784.95
777.539	30575.47
777.874	30662.92
778.209	30456.83
778.543	30327.11
778.878	30250.28
779.212	30146.1
779.547	30078.31
779.881	29954.01
780.215	29870.85
780.55	30044.86
780.884	29715.6
781.218	29554.7
781.552	29650.52
781.886	29350.87
782.22	29285.33
782.554	29155.17
782.888	28879.01
783.222	28849.41
783.556	28640.15
783.889	28602.19
784.223	28485.13
784.557	28452.81
784.89	28531.91
785.224	28272.02
785.557	28098.92
785.891	27966.72
786.224	28063.22
786.558	28023.22
786.891	27821.19
787.224	27607.86
787.557	27628.43
787.891	27536.23
788.224	27507.98
788.557	27482.22
788.89	27244.03
789.223	27281.32
789.556	27089.23
789.888	26957.26
790.221	26867.77
790.554	26709.35
790.887	26646.08
791.219	26608.11
791.552	26591.17
791.884	26444.05
792.217	26328.8
792.549	26215.36
792.882	26209.25
793.214	26099.65
793.546	26009.49
793.879	25739.89
794.211	25729.72
794.543	25748.93
794.875	25594.36
795.207	25673.45
795.539	25461.25
795.871	25453.34
796.203	25332.67
796.535	25161.37
796.867	25117.53
797.198	25085.44
797.53	25101.49
797.862	24835.96
798.193	24810.2
798.525	24684.55
798.856	24779.46
799.188	24516.64
799.519	24455.63
799.85	24288.17
800.182	24309.42
800.513	24440.71
800.844	24104.68
801.175	24212.7
801.506	24196.43
801.837	24060.38
802.168	23964.79
802.499	23809.54
802.83	23765.25
803.161	23698.13
803.491	23622.2
803.822	23690.68
804.153	23437.8
804.483	23318.93
804.814	23234.19
805.145	23238.49
805.475	23162.55
805.805	23114.87
806.136	23145.83
806.466	23126.62
806.796	23057.47
807.126	22893.64
807.457	22859.06
807.787	22800.53
808.117	22659.97
808.447	22575.45
808.777	22649.8
809.107	22571.84
809.436	22386.76
809.766	22434.89
810.096	22383.82
810.426	22204.84
810.755	22230.83
811.085	22204.39
811.414	22192.64
811.744	21907.45
812.073	21886.66
812.403	21747
812.732	21798.52
813.061	21901.12
813.39	21634.91
813.719	21590.39
814.049	21643.5
814.378	21547.23
814.707	21550.85
815.036	21527.12
815.365	21455.93
815.693	21205.77
816.022	21176.84
816.351	21175.71
816.68	21050.29
817.008	21111.76
817.337	20904.08
817.665	20823.86
817.994	20962.61
818.322	20894.14
818.651	20794.71
818.979	20742.51
819.307	20934.82
819.636	20649.17
819.964	20595.39
820.292	20641.49
820.62	20601.27
820.948	20470.42
821.276	20632
821.604	20569.18
821.932	20582.96
822.259	20667.48
822.587	20468.39
822.915	20498.9
823.243	20517.2
823.57	20453.02
823.898	20584.54
824.225	20418.67
824.553	20474.26
824.88	20506.81
825.207	20529.86
825.535	20352.69
825.862	20483.53
826.189	20470.2
826.516	20554.71
826.843	20465.22
827.17	20464.09
827.497	20492.79
827.824	20442.17
828.151	20559.01
828.478	20330.09
828.805	20480.14
829.131	20387.94
829.458	20332.12
829.785	20316.53
830.111	20401.5
830.438	20436.52
830.764	20429.97
831.09	20333.93
831.417	20362.18
831.743	20332.35
832.069	20250.09
832.395	20186.36
832.722	20292.12
833.048	20252.57
833.374	20256.42
833.7	20118.57
834.026	20195.18
834.351	20215.51
834.677	20128.51
835.003	20191.33
835.329	20200.37
835.654	20120.37
835.98	19950.44
836.306	20076.76
836.631	19956.99
836.956	19970.32
837.282	19928.29
837.607	19869.53
837.932	19776.43
838.258	19825.92
838.583	19875.18
838.908	19720.39
839.233	19648.75
839.558	19754.28
839.883	19580.28
840.208	19742.31
840.533	19679.71
840.858	19464.57
841.182	19505.7
841.507	19533.95
841.832	19415.76
842.156	19465.25
842.481	19369.89
842.805	19355.2
843.13	19322.66
843.454	19253.73
843.778	19092.83
844.103	19107.52
844.427	19028.65
844.751	19144.36
845.075	18979.16
845.399	19028.65
845.723	18922.44
846.047	18753.63
846.371	18679.96
846.695	18672.05
847.019	18464.83
847.343	18486.97
847.666	18326.07
847.99	18351.83
848.313	18269.35
848.637	18170.82
848.96	18189.13
849.284	18059.19
849.607	17911.17
849.931	17908
850.254	17778.97
850.577	17694.68
850.9	17584.62
851.223	17590.72
851.546	17430.73
851.869	17413.1
852.192	17463.27
852.515	17268.02
852.838	17183.5
853.161	17183.5
853.483	17143.05
853.806	17025.77
854.129	17136.5
854.451	16953.45
854.774	16987.58
855.096	16785.77
855.419	16762.95
855.741	16815.83
856.063	16567.02
856.385	16612.22
856.708	16552.33
857.03	16388.04
857.352	16572.9
857.674	16432.79
857.996	16353.92
858.318	16287.48
858.64	16302.62
858.961	16286.58
859.283	16167.03
859.605	16139.46
859.926	16206.81
860.248	16043.65
860.57	16068.28
860.891	15955.51
861.212	15913.93
861.534	15983.76
861.855	15876.19
862.176	15813.6
862.498	15865.35
862.819	15867.83
863.14	15826.7
863.461	15765.46
863.782	15633.26
864.103	15755.29
864.424	15518.46
864.745	15609.99
865.065	15554.85
865.386	15521.4
865.707	15513.94
866.027	15497.67
866.348	15449.54
866.668	15402.31
866.989	15391.69
867.309	15265.36
867.63	15317.11
867.95	15286.6
868.27	15161.41
868.59	15227.4
868.91	15172.48
869.23	15197.57
869.55	15042.54
869.87	15228.53
870.19	15198.47
870.51	15132.48
870.83	15097.23
871.15	14967.52
871.469	14991.7
871.789	15023.79
872.109	14990.34
872.428	14987.18
872.748	14969.1
873.067	15002.54
873.386	14928.65
873.706	14872.15
874.025	14767.97
874.344	14777.92
874.663	14772.94
874.982	14661.76
875.301	14743.79
875.62	14631.48
875.939	14567.3
876.258	14699.05
876.577	14555.78
876.896	14608.2
877.214	14444.59
877.533	14608.2
877.852	14480.07
878.17	14482.56
878.489	14508.09
878.807	14403.69
879.125	14470.13
879.444	14411.6
879.762	14299.96
880.08	14336.12
880.398	14301.54
880.716	14278.49
881.034	14208.67
881.352	14217.03
881.67	14213.86
881.988	14192.85
882.306	14133.87
882.624	14067.2
882.941	14003.02
883.259	14028.33
883.577	13939.97
883.894	13991.04
884.212	13914.44
884.529	13909.01
884.846	13812.07
885.164	13912.18
885.481	13791.73
885.798	13825.85
886.115	13663.37
886.432	13765.97
886.75	13675.12
887.067	13624.5
887.383	13612.3
887.7	13541.79
888.017	13554.22
888.334	13529.36
888.651	13462.92
888.967	13480.55
889.284	13350.84
889.6	13311.29
889.917	13254.11
890.233	13252.53
890.55	13166.21
890.866	13193.33
891.182	13107.23
891.498	13111.52
891.815	12954.91
892.131	13062.48
892.447	12935.71
892.763	12896.38
893.079	12934.8
893.395	12806.67
893.71	12782.94
894.026	12746.56
894.342	12773.22
894.657	12610.97
894.973	12592.21
895.289	12615.26
895.604	12676.28
895.92	12568.94
896.235	12493.46
896.55	12502.27
896.865	12491.2
897.181	12432.22
897.496	12387.24
897.811	12264.08
898.126	12309.73
898.441	12215.5
898.756	12237.87
899.071	12071.32
899.386	12180.7
899.7	12074.26
900.015	12038.1
900.33	11808.05
900.644	11872.91
900.959	11879.91
901.273	11814.15
901.588	11764.21
901.902	11713.14
902.216	11643.99
902.531	11640.82
902.845	11540.49
903.159	11527.38
903.473	11473.82
903.787	11464.33
904.101	11415.75
904.415	11432.92
904.729	11336.2
905.042	11295.3
905.356	11265.01
905.67	11213.49
905.984	11117.9
906.297	11122.65
906.611	11088.3
906.924	10963.78
907.237	10957.45
907.551	10990.45
907.864	10934.63
908.177	10890.11
908.491	10848.98
908.804	10741.64
909.117	10719.72
909.43	10671.13
909.743	10614.18
910.056	10651.25
910.368	10509.1
910.681	10477.01
910.994	10502.1
911.307	10332.84
911.619	10324.25
911.932	10357.24
912.244	10316.56
912.557	10288.09
912.869	10202.67
913.181	10156.8
913.494	10148.66
913.806	10024.37
914.118	10015.56
914.43	9912.06
914.742	9907.54
915.054	9818.27
915.366	9829.12
915.678	9824.6
915.99	9813.75
916.302	9675.23
916.613	9645.62
916.925	9674.32
917.236	9656.24
917.548	9532.4
917.859	9551.16
918.171	9470.71
918.482	9488.34
918.794	9341.68
919.105	9385.29
919.416	9336.48
919.727	9303.94
920.038	9272.07
920.349	9168.12
920.66	9188.01
920.971	9195.24
921.282	9056.49
921.593	9082.7
921.903	8959.76
922.214	8928.13
922.525	8962.48
922.835	8935.13
923.146	8834.12
923.456	8829.82
923.767	8806.1
924.077	8819.43
924.387	8777.17
924.697	8632.54
925.008	8671.86
925.318	8600.45
925.628	8618.08
925.938	8513.9
926.248	8431.64
926.558	8451.3
926.867	8440.46
927.177	8407.01
927.487	8334.7
927.796	8178.99
928.106	8224.19
928.416	8166.79
928.725	8171.31
929.034	8113.01
929.344	8118.88
929.653	8128.15
929.962	8058.77
930.271	7992.11
930.581	7927.02
930.89	7939.68
931.199	7936.51
931.508	7859.45
931.817	7840.7
932.125	7829.62
932.434	7794.82
932.743	7693.81
933.051	7689.74
933.36	7666.01
933.669	7621.04
933.977	7601.16
934.286	7615.39
934.594	7597.09
934.902	7529.75
935.21	7489.97
935.519	7506.02
935.827	7425.57
936.135	7348.73
936.443	7283.42
936.751	7289.07
937.059	7263.09
937.367	7213.6
937.674	7225.12
937.982	7168.4
938.29	7149.19
938.597	7120.94
938.905	7039.81
939.213	7040.04
939.52	6976.31
939.827	7057.44
940.135	6943.77
940.442	6903.1
940.749	6845.24
941.056	6886.82
941.363	6788.75
941.67	6742.2
941.977	6715.76
942.284	6648.86
942.591	6690.9
942.898	6627.17
943.205	6642.54
943.511	6605.7
943.818	6557.12
944.125	6562.09
944.431	6492.48
944.738	6473.95
945.044	6442.32
945.35	6408.87
945.657	6366.39
945.963	6377.23
946.269	6312.83
946.575	6310.12
946.881	6283.9
947.187	6237.35
947.493	6221.76
947.799	6156.45
948.105	6144.25
948.41	6096.79
948.716	6084.36
949.022	6068.99
949.327	6054.08
949.633	5986.51
949.938	6009.56
950.244	5951.48
950.549	5960.75
950.854	5922.78
951.16	5868.77
951.465	5867.64
951.77	5846.85
952.075	5816.57
952.38	5760.98
952.685	5782.67
952.99	5730.92
953.294	5703.35
953.599	5619.29
953.904	5646.63
954.209	5615.67
954.513	5619.06
954.818	5570.7
955.122	5540.19
955.426	5504.04
955.731	5508.1
956.035	5486.41
956.339	5483.7
956.643	5447.09
956.948	5428.33
957.252	5406.64
957.556	5367.32
957.86	5312.18
958.163	5323.93
958.467	5265.62
958.771	5246.42
959.075	5275.12
959.378	5212.74
959.682	5192.63
959.985	5149.7
960.289	5170.49
960.592	5138.85
960.896	5128.23
961.199	5041.68
961.502	5079.41
961.805	5044.16
962.108	5020.43
962.411	4925.97
962.714	4935.24
963.017	4936.59
963.32	4934.79
963.623	4872.64
963.926	4857.27
964.228	4872.64
964.531	4817.27
964.833	4788.35
965.136	4788.8
965.438	4741.12
965.741	4718.29
966.043	4730.05
966.345	4689.82
966.648	4725.75
966.95	4676.04
967.252	4641.01
967.554	4628.13
967.856	4598.07
968.158	4558.07
968.46	4556.49
968.761	4550.16
969.063	4481.24
969.365	4506.77
969.666	4492.54
969.968	4434.69
970.269	4415.25
970.571	4402.6
970.872	4392.2
971.174	4367.34
971.475	4360.56
971.776	4323.05
972.077	4332.54
972.378	4298.87
972.679	4289.83
972.98	4236.72
973.281	4253.9
973.582	4197.86
973.883	4204.86
974.183	4159.66
974.484	4170.29
974.785	4162.6
975.085	4127.8
975.386	4146.11
975.686	4067.46
975.986	4049.84
976.287	4037.86
976.587	4008.26
976.887	4028.82
977.187	3972.1
977.487	3930.52
977.787	3977.52
978.087	3968.03
978.387	3940.01
978.687	3927.81
978.987	3906.34
979.286	3837.19
979.586	3830.18
979.885	3805.1
980.185	3822.72
980.484	3802.39
980.784	3775.72
981.083	3738.88
981.382	3749.96
981.682	3689.39
981.981	3715.61
982.28	3682.16
982.579	3655.95
982.878	3641.03
983.177	3617.76
983.475	3602.17
983.774	3588.15
984.073	3578.89
984.372	3552.45
984.67	3565.78
984.969	3521.94
985.267	3522.85
985.566	3437.65
985.864	3521.72
986.162	3460.93
986.461	3465.9
986.759	3436.07
987.057	3417.31
987.355	3390.42
987.653	3406.46
987.951	3352.91
988.249	3335.73
988.547	3353.58
988.844	3277.88
989.142	3301.38
989.44	3277.88
989.737	3260.03
990.035	3251.67
990.332	3269.74
990.63	3218.67
990.927	3211.44
991.224	3194.94
991.521	3200.59
991.819	3199.01
992.116	3152.01
992.413	3154.27
992.71	3099.81
993.006	3123.53
993.303	3094.16
993.6	3069.3
993.897	3095.29
994.193	3059.35
994.49	3027.27
994.787	3038.79
995.083	2995.4
995.379	2944.33
995.676	2959.7
995.972	2918.79
996.268	2936.42
996.565	2903.65
996.861	2900.94
997.157	2865.91
997.453	2863.88
997.749	2865.46
998.044	2812.81
998.34	2830.21
998.636	2781.62
998.932	2799.47
999.227	2827.95
999.523	2789.76
999.818	2752.24
1000.114	2734.84
1000.409	2735.3
1000.704	2721.51
1001	2687.61
1001.295	2672.7
1001.59	2659.82
1001.885	2682.87
1002.18	2611.23
1002.475	2608.29
1002.77	2611.46
1003.065	2568.29
1003.359	2555.41
1003.654	2516.32
1003.949	2582.76
1004.243	2541.85
1004.538	2503.89
1004.832	2489.88
1005.127	2531.01
1005.421	2454.62
1005.715	2420.5
1006.009	2425.47
1006.304	2435.19
1006.598	2396.1
1006.892	2377.34
1007.186	2377.56
1007.48	2353.38
1007.773	2343.44
1008.067	2357.45
1008.361	2314.06
1008.655	2303.89
1008.948	2288.53
1009.242	2279.04
1009.535	2291.69
1009.829	2251.47
1010.122	2244.46
1010.415	2252.82
1010.708	2207.63
1011.001	2169.43
1011.295	2186.61
1011.588	2184.58
1011.881	2132.6
1012.173	2137.34
1012.466	2148.64
1012.759	2087.4
1013.052	2108.19
1013.344	2072.71
1013.637	2092.15
1013.93	2065.48
1014.222	2052.15
1014.514	2074.52
1014.807	2034.97
1015.099	2003.56
1015.391	2044.24
1015.683	2017.57
1015.976	2003.34
1016.268	1970.34
1016.56	1961.98
1016.851	1944.58
1017.143	1934.19
1017.435	1906.62
1017.727	1919.5
1018.018	1883.57
1018.31	1878.82
1018.602	1865.49
1018.893	1824.58
1019.185	1841.53
1019.476	1811.93
1019.767	1840.63
1020.058	1793.85
1020.35	1806.05
1020.641	1747.75
1020.932	1775.55
1021.223	1740.52
1021.514	1724.7
1021.804	1737.13
1022.095	1709.33
1022.386	1666.85
1022.677	1722.89
1022.967	1709.11
1023.258	1663.46
1023.548	1656.23
1023.839	1656.45
1024.129	1653.74
1024.419	1629.11
1024.709	1630.24
1025	1606.29
1025.29	1585.95
1025.58	1582.33
1025.87	1564.25
1026.16	1575.55
1026.449	1580.07
1026.739	1561.31
1027.029	1517.7
1027.319	1505.95
1027.608	1505.72
1027.898	1515.21
1028.187	1525.61
1028.477	1482.22
1028.766	1474.54
1029.055	1449.45
1029.344	1460.3
1029.634	1422.79
1029.923	1450.81
1030.212	1411.94
1030.501	1401.09
1030.79	1400.87
1031.078	1369.68
1031.367	1362.45
1031.656	1364.94
1031.945	1347.08
1032.233	1349.34
1032.522	1346.18
1032.81	1325.39
1033.099	1319.29
1033.387	1338.5
1033.675	1305.05
1033.963	1279.74
1034.251	1295.33
1034.54	1270.93
1034.828	1246.75
1035.116	1242.23
1035.403	1238.84
1035.691	1269.57
1035.979	1232.51
1036.267	1213.3
1036.554	1224.6
1036.842	1215.56
1037.129	1210.36
1037.417	1217.14
1037.704	1186.86
1037.992	1180.99
1038.279	1192.51
1038.566	1175.34
1038.853	1175.34
1039.14	1175.34
