Data from White_paper_FLMS001491_047.txt Node
Date: Tue Feb 07 10:35:09 GMT 2017
User: dcchb
Spectrometer: FLMS00149
Trigger mode: 0
Integration Time (sec): 2.000000E-2
Scans to average: 10
Electric dark correction enabled: true
Nonlinearity correction enabled: false
Boxcar width: 0
XAxis mode: Wavelengths
Number of Pixels in Spectrum: 2048
>>>>>Begin Spectral Data<<<<<
341.393	-25.45
341.776	-25.45
342.16	-25.45
342.543	-51.44
342.927	-71.1
343.31	-50.99
343.693	-73.36
344.077	-67.71
344.46	-52.8
344.843	-46.24
345.226	-38.56
345.61	-42.4
345.993	-8.5
346.376	-6.02
346.759	13.19
347.142	22.23
347.525	31.72
347.908	63.81
348.291	63.36
348.674	82.57
349.057	109.69
349.44	119.63
349.823	146.97
350.206	176.8
350.588	223.58
350.971	232.17
351.354	250.93
351.737	254.09
352.119	276.91
352.502	279.63
352.884	297.03
353.267	297.93
353.65	327.99
354.032	323.24
354.414	298.61
354.797	325.95
355.179	339.96
355.562	370.24
355.944	349.23
356.326	361.21
356.709	366.63
357.091	357.36
357.473	367.76
357.855	377.25
358.238	372.28
358.62	358.72
359.002	372.5
359.384	375.89
359.766	375.22
360.148	373.18
360.53	353.52
360.912	373.18
361.294	371.6
361.676	384.48
362.057	386.97
362.439	358.49
362.821	362.34
363.203	375.44
363.584	358.95
363.966	364.14
364.348	368.21
364.729	350.36
365.111	363.92
365.493	361.66
365.874	368.21
366.256	369.57
366.637	363.01
367.019	365.27
367.4	354.65
367.781	351.71
368.163	361.43
368.544	348.32
368.925	357.82
369.306	351.04
369.688	344.71
370.069	348.78
370.45	358.72
370.831	359.85
371.212	373.86
371.593	352.39
371.974	357.14
372.355	355.33
372.736	363.01
373.117	377.02
373.498	373.63
373.879	355.1
374.26	377.7
374.641	355.1
375.021	372.5
375.402	353.75
375.783	376.12
376.163	370.7
376.544	384.48
376.925	395.1
377.305	386.29
377.686	372.5
378.066	378.38
378.447	402.79
378.827	402.33
379.208	398.04
379.588	401.2
379.968	381.54
380.349	390.13
380.729	410.92
381.109	412.96
381.489	412.73
381.87	428.32
382.25	406.18
382.63	417.93
383.01	411.37
383.39	451.82
383.77	408.66
384.15	431.49
384.53	408.21
384.91	435.78
385.29	447.53
385.67	475.33
386.049	459.96
386.429	458.83
386.809	457.7
387.189	463.35
387.568	455.89
387.948	459.06
388.328	471.94
388.707	479.39
389.087	472.16
389.466	484.37
389.846	485.04
390.225	484.82
390.605	502.22
390.984	503.35
391.363	487.08
391.743	514.42
392.122	530.47
392.501	515.1
392.881	530.01
393.26	513.07
393.639	533.63
394.018	529.11
394.397	538.15
394.776	564.14
395.155	574.98
395.534	581.99
395.913	582.44
396.292	559.17
396.671	565.95
397.05	604.81
397.429	591.26
397.808	601.42
398.186	613.18
398.565	615.21
398.944	603.23
399.323	622.67
399.701	611.14
400.08	614.76
400.458	618.37
400.837	635.55
401.215	666.06
401.594	660.18
401.972	670.8
402.351	683.91
402.729	668.77
403.107	677.81
403.486	689.56
403.864	724.13
404.242	729.33
404.62	716
404.999	746.96
405.377	755.09
405.755	785.6
406.133	798.48
406.511	789.44
406.889	832.15
407.267	843
407.645	844.81
408.023	867.41
408.401	887.97
408.779	908.76
409.156	952.38
409.534	958.48
409.912	1000.51
410.29	1044.58
410.667	1038.93
411.045	1064.46
411.422	1082.77
411.8	1090
412.178	1127.96
412.555	1167.51
412.933	1173.61
413.31	1214.74
413.687	1243.89
414.065	1253.84
414.442	1271.46
414.819	1318.47
415.197	1360.95
415.574	1386.04
415.951	1414.51
416.328	1450.89
416.705	1442.08
417.082	1476.88
417.46	1474.85
417.837	1526.82
418.214	1529.99
418.591	1554.85
418.967	1586.03
419.344	1659.02
419.721	1667.61
420.098	1681.85
420.475	1674.84
420.852	1733.6
421.228	1743.32
421.605	1754.61
421.982	1801.17
422.358	1836.19
422.735	1834.84
423.111	1868.96
423.488	1925.91
423.864	1946.93
424.241	1964.1
424.617	2011.33
424.994	2030.77
425.37	2033.93
425.746	2035.29
426.123	2084.78
426.499	2103.76
426.875	2128.39
427.251	2173.59
427.627	2210.87
428.003	2273.7
428.379	2301.04
428.756	2301.49
429.132	2348.5
429.507	2404.54
429.883	2441.83
430.259	2467.59
430.635	2426.46
431.011	2519.11
431.387	2566.8
431.763	2599.56
432.138	2611.99
432.514	2650.64
432.89	2690.64
433.265	2731.99
433.641	2814.7
434.016	2839.78
434.392	2868.94
434.767	2960.23
435.143	2950.97
435.518	2958.43
435.894	3003.85
436.269	3076.39
436.644	3110.96
437.02	3177.63
437.395	3197.97
437.77	3190.06
438.145	3242.26
438.52	3289.72
438.895	3324.97
439.271	3351.41
439.646	3435.25
440.021	3478.41
440.395	3458.75
440.77	3401.8
441.145	3493.55
441.52	3542.36
441.895	3528.58
442.27	3578.3
442.645	3594.57
443.019	3645.19
443.394	3660.55
443.769	3690.84
444.143	3686.09
444.518	3758.86
444.892	3705.07
445.267	3788.69
445.641	3785.75
446.016	3788.01
446.39	3835.01
446.764	3867.1
447.139	3878.17
447.513	3932.86
447.887	3928.12
448.262	3943.26
448.636	3937.83
449.01	4019.87
449.384	4025.97
449.758	4060.09
450.132	4146.19
450.506	4100.09
450.88	4176.02
451.254	4185.29
451.628	4248.56
452.002	4277.03
452.376	4326.52
452.75	4339.63
453.123	4424.15
453.497	4436.58
453.871	4491.49
454.244	4612.17
454.618	4609.91
454.992	4710.92
455.365	4679.06
455.739	4810.58
456.112	4856.91
456.486	4856
456.859	4887.19
457.232	4987.07
457.606	4994.76
457.979	5084.92
458.352	5165.82
458.725	5213.96
459.099	5257.57
459.472	5378.25
459.845	5404.46
460.218	5507.96
460.591	5544.12
460.964	5553.16
461.337	5746.15
461.71	5747.96
462.083	5833.15
462.456	5846.71
462.829	5862.3
463.201	6012.36
463.574	5994.96
463.947	6058.68
464.32	6232.24
464.692	6299.81
465.065	6335.96
465.438	6403.98
465.81	6591.1
466.183	6606.24
466.555	6661.83
466.928	6754.26
467.3	6711.77
467.672	6907.47
468.045	7098.43
468.417	7116.28
468.789	7087.81
469.161	7279.89
469.534	7355.82
469.906	7488.7
470.278	7575.7
470.65	7686.89
471.022	7861.57
471.394	7954.9
471.766	8008.91
472.138	8139.76
472.51	8288.91
472.882	8424.04
473.253	8480.09
473.625	8680.08
473.997	8818.16
474.369	8845.95
474.74	8974.99
475.112	9150.13
475.484	9311.25
475.855	9495.2
476.227	9601.41
476.598	9841.63
476.97	9895.87
477.341	10084.11
477.713	10240.72
478.084	10294.96
478.455	10616.08
478.827	10672.57
479.198	10985.11
479.569	10972
479.94	11298.54
480.311	11363.63
480.682	11672.55
481.053	11989.6
481.424	12091.07
481.795	12216.03
482.166	12397.05
482.537	12498.51
482.908	12771.95
483.279	12944.6
483.65	13173.3
484.021	13460.07
484.391	13547.07
484.762	13678.14
485.133	13799.72
485.503	13982.99
485.874	14279.48
486.244	14420.95
486.615	14647.84
486.985	14804.44
487.356	15113.36
487.726	15290.76
488.097	15464.08
488.467	15560.13
488.837	15940
489.207	16071.07
489.578	16228.58
489.948	16555.81
490.318	16635.81
490.688	16793.99
491.058	17000.32
491.428	17310.59
491.798	17378.61
492.168	17709.68
492.538	17793.52
492.908	18000.97
493.278	18227.18
493.648	18174.75
494.017	18496.55
494.387	18619.93
494.757	18752.13
495.126	19053.82
495.496	19021.51
495.866	19191.67
496.235	19320.48
496.605	19612.45
496.974	19656.74
497.344	19806.57
497.713	19927.7
498.082	20125.88
498.452	20364.07
498.821	20459.66
499.19	20415.14
499.559	20660.33
499.928	20793.89
500.298	20929.48
500.667	21152.3
501.036	21076.59
501.405	21363.59
501.774	21392.29
502.143	21565.39
502.512	21720.19
502.88	21846.97
503.249	21942.11
503.618	22105.49
503.987	22232.49
504.356	22363.34
504.724	22599.94
505.093	22643.56
505.462	22616.67
505.83	22933.95
506.199	23128.06
506.567	23375.06
506.936	23203.09
507.304	23641.95
507.672	23774.15
508.041	23731.21
508.409	23978.66
508.777	24132.56
509.145	24365.77
509.514	24320.58
509.882	24574.81
510.25	24719.21
510.618	24836.95
510.986	24841.92
511.354	25168.01
511.722	25309.02
512.09	25598.96
512.458	25576.81
512.826	25808.67
513.193	25904.26
513.561	25951.27
513.929	26224.48
514.297	26503.34
514.664	26665.15
515.032	26716.9
515.4	26931.35
515.767	26995.08
516.135	27301.29
516.502	27164.57
516.869	27606.14
517.237	27684.78
517.604	27632.58
517.972	28032.57
518.339	28128.16
518.706	28208.38
519.073	28382.16
519.44	28626.68
519.808	28976.72
520.175	28877.07
520.542	29278.18
520.909	29453.55
521.276	29548.91
521.643	29760.88
522.009	30025.96
522.376	30121.55
522.743	30432.96
523.11	30533.75
523.477	30861.19
523.843	31097.57
524.21	31401.74
524.577	31586.15
524.943	31625.02
525.31	31843.09
525.676	32182.06
526.043	32388.61
526.409	32539.34
526.776	32918.09
527.142	32960.8
527.508	33048.71
527.874	33380.45
528.241	33582.48
528.607	33569.15
528.973	34063.37
529.339	33929.36
529.705	34274.44
530.071	34506.97
530.437	34620.19
530.803	34929.34
531.169	35135.66
531.535	35121.65
531.901	35290.68
532.267	35537.91
532.632	35696.77
532.998	35826.94
533.364	36063.09
533.73	36047.27
534.095	36388.51
534.461	36459.92
534.826	36666.47
535.192	36805.9
535.557	37002.5
535.923	37057.19
536.288	37268.03
536.653	37422.6
537.019	37351.42
537.384	37600.23
537.749	37827.11
538.114	37954.12
538.479	37976.71
538.845	38167.67
539.21	38306.87
539.575	38288.12
539.94	38559.75
540.305	38754.32
540.67	38804.26
541.034	38904.15
541.399	39133.52
541.764	39163.12
542.129	39214.65
542.494	39354.98
542.858	39654.64
543.223	39697.8
543.587	39997
543.952	39906.15
544.316	40069.77
544.681	40146.6
545.045	40355.18
545.41	40581.16
545.774	40671.56
546.138	40632.46
546.503	40840.59
546.867	40842.17
547.231	41164.88
547.595	41191.32
547.959	41384.08
548.324	41557.86
548.688	41570.97
549.052	41662.72
549.416	41731.87
549.779	41994.91
550.143	41993.56
550.507	42295.92
550.871	42276.26
551.235	42417.05
551.599	42654.1
551.962	42830.82
552.326	42925.06
552.689	43157.82
553.053	42985.4
553.417	42975.45
553.78	43607.75
554.143	43430.13
554.507	43692.95
554.87	43985.59
555.234	44334.74
555.597	43903.11
555.96	44253.38
556.323	44365.25
556.686	44324.79
557.05	44737.67
557.413	44752.35
557.776	44841.84
558.139	45203.87
558.502	45219.23
558.865	45320.7
559.228	45618.32
559.59	45780.8
559.953	45846.56
560.316	46200.9
560.679	46207.91
561.041	46482.03
561.404	46611.51
561.767	46862.81
562.129	46729.7
562.492	47166.98
562.854	47206.08
563.217	47194.55
563.579	47380.99
563.941	47541.66
564.304	47862.56
564.666	48031.82
565.028	48053.28
565.39	48288.76
565.753	48373.95
566.115	48586.15
566.477	48805.58
566.839	48742.98
567.201	49123.76
567.563	49067.95
567.925	49430.42
568.287	49339.35
568.648	49538.22
569.01	49662.51
569.372	49882.84
569.734	49728.49
570.095	50064.31
570.457	50208.03
570.819	50383.17
571.18	50309.95
571.542	50605.99
571.903	50405.77
572.265	50660.9
572.626	50877.39
572.987	50869.26
573.349	50927.11
573.71	51163.49
574.071	51299.98
574.432	51395.57
574.794	51533.87
575.155	51579.97
575.516	51434.44
575.877	51672.4
576.238	51844.15
576.599	51840.3
576.96	51882.79
577.32	51962.33
577.681	52113.06
578.042	52160.97
578.403	52247.52
578.763	52302.66
579.124	52320.29
579.485	52450.46
579.845	52528.87
580.206	52441.42
580.566	52520.96
580.927	52467.63
581.287	52714.63
581.648	52520.29
582.008	52767.96
582.368	52739.26
582.728	52920.05
583.089	52797.11
583.449	52792.82
583.809	52881.63
584.169	53003.21
584.529	52902.2
584.889	53136.99
585.249	52972.48
585.609	52944.91
585.969	53032.59
586.329	53000.73
586.688	53136.99
587.048	53062.42
587.408	53040.95
587.768	53136.99
588.127	53178.35
588.487	53067.62
588.846	53297.89
589.206	53068.29
589.565	53100.38
589.925	53291.11
590.284	53207.5
590.643	53227.84
591.003	53336.76
591.362	53408.62
591.721	53385.35
592.08	53366.37
592.44	53407.04
592.799	53449.07
593.158	53482.52
593.517	53461.5
593.876	53487.94
594.235	53479.13
594.593	53389.42
594.952	53507.83
595.311	53472.58
595.67	53604.1
596.029	53710.99
596.387	53669.63
596.746	53807.03
597.104	53675.74
597.463	53560.03
597.822	53779.91
598.18	53670.99
598.538	53685
598.897	53816.07
599.255	53650.2
599.613	54062.62
599.972	53887.71
600.33	53947.37
600.688	53805.68
601.046	54018.1
601.404	54056.74
601.762	53920.93
602.12	54201.37
602.478	54113.69
602.836	54143.29
603.194	53950.08
603.552	54105.78
603.91	54032.79
604.268	54192.56
604.625	54075.05
604.983	54344.87
605.341	54047.25
605.698	54244.99
606.056	54295.83
606.413	54276.85
606.771	54376.96
607.128	54401.82
607.485	54287.24
607.843	54368.15
608.2	54520.01
608.557	54507.8
608.914	54478.43
609.272	54591.64
609.629	54626.45
609.986	54707.57
610.343	54572.21
610.7	54745.31
611.057	54668.93
611.414	54699.89
611.771	54788.47
612.127	54822.37
612.484	54828.02
612.841	54924.97
613.198	54738.31
613.554	54839.32
613.911	54992.76
614.267	54977.17
614.624	54894.01
614.98	54909.6
615.337	55112.76
615.693	54976.04
616.05	54933.1
616.406	55110.5
616.762	54969.94
617.118	55105.3
617.475	55026.66
617.831	55207.67
618.187	55106.43
618.543	55160.67
618.899	55283.38
619.255	55261.23
619.611	55206.54
619.967	55407.67
620.323	55396.37
620.678	55293.09
621.034	55287.22
621.39	55156.6
621.746	55277.73
622.101	55514.78
622.457	55249.71
622.812	55341
623.168	55388.01
623.523	55415.8
623.879	55410.15
624.234	55248.35
624.589	55351.62
624.945	55415.12
625.3	55467.78
625.655	55381.23
626.01	55449.7
626.365	55437.05
626.72	55399.98
627.075	55405.41
627.43	55339.42
627.785	55262.81
628.14	55408.8
628.495	55428.01
628.85	55448.8
629.205	55289.25
629.559	55429.59
629.914	55358.4
630.269	55376.26
630.623	55347.33
630.978	55274.79
631.332	55380.1
631.687	55420.55
632.041	55320.21
632.396	55314.34
632.75	55270.5
633.104	55299.2
633.459	55133.32
633.813	55203.38
634.167	55181.01
634.521	55177.62
634.875	55195.92
635.229	55178.75
635.583	55087.68
635.937	55154.11
636.291	55026.89
636.645	55122.03
636.999	55063.72
637.352	55161.35
637.706	54957.74
638.06	55018.53
638.413	54977.17
638.767	54868.7
639.121	54914.57
639.474	54798.19
639.828	54872.54
640.181	54829.15
640.534	54925.19
640.888	54776.27
641.241	54673.22
641.594	54793.9
641.947	54850.85
642.301	54757.06
642.654	54776.72
643.007	54912.99
643.36	54739.89
643.713	54729.72
644.066	54852.88
644.419	54559.1
644.771	54476.84
645.124	54135.38
645.477	54133.12
645.83	53963.41
646.182	53863.75
646.535	53858.1
646.888	53854.04
647.24	53660.14
647.593	53896.75
647.945	53848.16
648.298	53780.37
648.65	53707.6
649.002	53631.67
649.355	53722.74
649.707	53654.27
650.059	53849.29
650.411	54143.75
650.763	54204.54
651.115	54438.88
651.467	54418.09
651.819	54362.05
652.171	54228.26
652.523	54243.86
652.875	54254.7
653.227	54092.9
653.578	54363.4
653.93	54317.75
654.282	54161.6
654.633	54108.49
654.985	54160.69
655.337	54141.26
655.688	54136.97
656.039	54254.93
656.391	54010.64
656.742	54015.39
657.094	54064.43
657.445	54093.58
657.796	54146.68
658.147	53997.99
658.498	54060.36
658.849	54050.87
659.2	53960.7
659.551	53947.82
659.902	54047.03
660.253	53938.33
660.604	54049.96
660.955	53953.69
661.306	53915.28
661.656	53899.01
662.007	53925.45
662.358	53872.57
662.708	53817.65
663.059	53923.64
663.409	53618.56
663.76	53941.49
664.11	53779.01
664.461	53882.96
664.811	53930.19
665.161	53829.4
665.511	53694.72
665.862	53778.56
666.212	53791.44
666.562	53872.11
666.912	53795.05
667.262	53674.15
667.612	53798.22
667.962	53721.84
668.312	53700.82
668.662	53781.04
669.011	53645.23
669.361	53647.49
669.711	53593.93
670.06	53492.69
670.41	53513.71
670.76	53539.47
671.109	53557.55
671.459	53421.05
671.808	53433.71
672.157	53556.19
672.507	53260.15
672.856	53331.34
673.205	53350.32
673.554	53463.76
673.904	53242.07
674.253	53478.68
674.602	53336.31
674.951	52887.06
675.3	52686.38
675.649	53195.97
675.998	53210.44
676.346	53211.34
676.695	53268.97
677.044	53090.67
677.393	53172.02
677.741	53085.92
678.09	52952.36
678.438	52915.08
678.787	52892.03
679.135	52957.79
679.484	52722.77
679.832	52854.29
680.181	52720.05
680.529	52778.58
680.877	52584.24
681.225	52632.15
681.573	52858.13
681.922	52548.31
682.27	52499.5
682.618	52456.78
682.966	52416.79
683.314	52501.53
683.661	52343.79
684.009	52210.01
684.357	52047.3
684.705	52110.8
685.053	52070.13
685.4	52024.03
685.748	51858.61
686.095	51848.89
686.443	51727.54
686.79	51672.4
687.138	51738.61
687.485	51673.53
687.832	51570.25
688.18	51428.11
688.527	51257.72
688.874	51321.45
689.221	51271.96
689.568	51263.6
689.915	51001
690.262	51000.33
690.609	50888.69
690.956	50844.17
691.303	50791.07
691.65	50492.54
691.997	50526.67
692.344	50393.56
692.69	50328.48
693.037	50358.31
693.383	50032.67
693.73	50248.03
694.077	50072.44
694.423	49900.69
694.769	49935.95
695.116	49773.01
695.462	49575.73
695.808	49550.87
696.155	49699.57
696.501	49324.21
696.847	49368.96
697.193	49142.75
697.539	49252.58
697.885	48806.49
698.231	48811.23
698.577	48792.02
698.923	48835.86
699.269	48597.45
699.614	48433.84
699.96	48343.45
700.306	48352.26
700.651	48164.92
700.997	48051.93
701.342	48084.24
701.688	47919.05
702.033	47857.36
702.379	47743.69
702.724	47699.4
703.069	47734.87
703.415	47179.86
703.76	47382.57
704.105	47320.2
704.45	47186.87
704.795	46968.79
705.14	46944.61
705.485	46885.41
705.83	46668.46
706.175	46765.41
706.52	46711.17
706.865	46563.83
707.209	46517.05
707.554	46402.71
707.899	46468.69
708.243	46130.4
708.588	46115.48
708.932	45786
709.277	45811.31
709.621	45939.44
709.966	45588.72
710.31	45758.88
710.654	45390.98
710.998	45432.34
711.342	45497.19
711.687	45333.81
712.031	45094.72
712.375	45054.49
712.719	45063.76
713.063	44989.18
713.407	45165.22
713.75	44763.88
714.094	44768.4
714.438	44597.1
714.782	44662.64
715.125	44483.21
715.469	44569.99
715.812	44334.96
716.156	44095.42
716.499	44137
716.843	44182.88
717.186	43890.23
717.53	44146.95
717.873	44038.25
718.216	43996.89
718.559	43772.95
718.902	43626.96
719.246	43521.43
719.589	43479.17
719.932	43429.23
720.275	43214.09
720.617	43195.11
720.96	43218.84
721.303	43226.74
721.646	43158.5
721.989	42870.82
722.331	43047.54
722.674	42867.21
723.016	42875.34
723.359	42870.82
723.701	42728.9
724.044	42373.21
724.386	42399.65
724.729	42603.71
725.071	42369.14
725.413	42413.43
725.755	42517.38
726.097	42260.44
726.439	42027.45
726.782	42224.96
727.124	42272.87
727.465	42036.27
727.807	41894.58
728.149	41747.46
728.491	41725.77
728.833	41918.08
729.175	41657.29
729.516	41756.27
729.858	41601.48
730.199	41650.74
730.541	41438.09
730.882	41283.52
731.224	41440.8
731.565	41241.94
731.906	41233.58
732.248	41323.74
732.589	41048.04
732.93	41032
733.271	40928.73
733.612	41079.46
733.953	40972.11
734.294	40799.46
734.635	40803.31
734.976	40807.83
735.317	40610.54
735.658	40509.53
735.999	40548.62
736.339	40432.92
736.68	40474.73
737.021	40409.19
737.361	40262.3
737.702	40439.47
738.042	40267.95
738.383	40222.53
738.723	40176.43
739.063	40132.81
739.404	40109.09
739.744	40052.82
740.084	39770.34
740.424	39925.36
740.764	39757.68
741.104	39866.83
741.444	39661.64
741.784	39605.82
742.124	39611.25
742.464	39664.35
742.804	39312.95
743.143	39485.6
743.483	39525.15
743.823	39179.17
744.162	39354.53
744.502	39432.95
744.841	39081.32
745.181	39237.92
745.52	38972.39
745.86	39153.86
746.199	38970.36
746.538	39052.17
746.877	39167.87
747.216	38970.59
747.556	38828.89
747.895	38863.02
748.234	38639.52
748.573	38661.44
748.911	38547.55
749.25	38587.09
749.589	38389.81
749.928	38506.19
750.267	38427.1
750.605	38400.88
750.944	38197.5
751.283	38131.06
751.621	38223.71
751.96	38031.63
752.298	38004.74
752.636	37931.29
752.975	37785.76
753.313	37722.71
753.651	37793.89
753.989	37492.21
754.327	37530.4
754.666	37319.56
755.004	37343.74
755.342	37311.42
755.679	37235.04
756.017	37070.97
756.355	37178.32
756.693	36861.49
757.031	37117.3
757.368	36811.09
757.706	36796.41
758.044	36648.84
758.381	36657.2
758.719	36508.5
759.056	36527.49
759.394	36395.06
759.731	36168.85
760.068	36250.88
760.405	35930.44
760.743	35791.23
761.08	35974.73
761.417	35651.8
761.754	35664.46
762.091	35631.92
762.428	35429.44
762.765	35272.15
763.102	35316.67
763.438	35212.94
763.775	34947.19
764.112	35047.98
764.449	35010.92
764.785	34806.63
765.122	34627.87
765.458	34368.67
765.795	34526.86
766.131	34432.17
766.467	34325.28
766.804	34132.97
767.14	33920.32
767.476	34008.23
767.812	33761.91
768.148	33836.71
768.485	33618.18
768.821	33476.04
769.157	33412.77
769.492	33228.36
769.828	33290.06
770.164	33069.05
770.5	32977.97
770.836	32819.11
771.171	32783.86
771.507	32707.25
771.842	32279.91
772.178	32429.97
772.513	32376.41
772.849	32268.61
773.184	32122.18
773.519	32038.11
773.855	31995.63
774.19	31795.63
774.525	31766.71
774.86	31681.29
775.195	31595.64
775.53	31484
775.865	31297.79
776.2	30990.68
776.535	30862.1
776.87	30861.42
777.205	30733.06
777.539	30630.92
777.874	30648.32
778.209	30393.41
778.543	30444.48
778.878	30247.43
779.212	30170.59
779.547	30036.81
779.881	29973.53
780.215	29951.84
780.55	29729.02
780.884	29585.52
781.218	29628.68
781.552	29581
781.886	29353.21
782.22	29214.46
782.554	29275.93
782.888	28972.66
783.222	28791.42
783.556	28747.13
783.889	28691.31
784.223	28518.88
784.557	28446.34
784.89	28444.76
785.224	28351.66
785.557	28209.74
785.891	28077.31
786.224	28059.01
786.558	28075.73
786.891	27727.27
787.224	27643.65
787.557	27732.69
787.891	27632.8
788.224	27531.34
788.557	27541.51
788.89	27285.47
789.223	27283.44
789.556	26988.53
789.888	27038.47
790.221	27021.75
790.554	26650.23
790.887	26716.22
791.219	26580.85
791.552	26527.3
791.884	26515.77
792.217	26368.88
792.549	26127.76
792.882	26072.39
793.214	26066.29
793.546	25964.37
793.879	25807.09
794.211	25758.28
794.543	25713.76
794.875	25687.09
795.207	25663.59
795.539	25563.03
795.871	25576.81
796.203	25290.04
796.535	25140.44
796.867	25133.21
797.198	24998.07
797.53	24963.5
797.862	24900.9
798.193	24941.8
798.525	24751.75
798.856	24754.69
799.188	24477.86
799.519	24338.88
799.85	24239
800.182	24407.58
800.513	24230.63
800.844	24118.55
801.175	24327.58
801.506	24169.17
801.837	23974.82
802.168	23912.45
802.499	23870.42
802.83	23782.74
803.161	23649.18
803.491	23697.31
803.822	23610.31
804.153	23445.57
804.483	23392.46
804.814	23163.09
805.145	23359.47
805.475	23262.98
805.805	23087.61
806.136	23136.88
806.466	23079.48
806.796	23015.3
807.126	22952.25
807.457	22770.33
807.787	22786.15
808.117	22697.57
808.447	22578.47
808.777	22633.16
809.107	22605.59
809.436	22364.47
809.766	22334.41
810.096	22372.83
810.426	22323.34
810.755	22255.77
811.085	22178.71
811.414	22077.47
811.744	21919.28
812.073	21929.68
812.403	21973.07
812.732	21736.24
813.061	21782.56
813.39	21653.07
813.719	21646.97
814.049	21689.91
814.378	21559.07
814.707	21412.86
815.036	21515.9
815.365	21423.48
815.693	21234.1
816.022	21195.23
816.351	21136.48
816.68	21093.09
817.008	21204.95
817.337	20936.03
817.665	20893.55
817.994	20914.34
818.322	20933.09
818.651	20765.19
818.979	20755.02
819.307	20874.56
819.636	20572.65
819.964	20608.81
820.292	20583.72
820.62	20641.8
820.948	20554.8
821.276	20596.61
821.604	20604.74
821.932	20499.88
822.259	20613.78
822.587	20431.64
822.915	20487.91
823.243	20546.66
823.57	20391.41
823.898	20535.59
824.225	20343.28
824.553	20448.59
824.88	20483.39
825.207	20457.4
825.535	20413.33
825.862	20482.71
826.189	20369.94
826.516	20438.19
826.843	20528.36
827.17	20517.29
827.497	20366.33
827.824	20554.12
828.151	20519.55
828.478	20397.06
828.805	20476.83
829.131	20496.95
829.458	20320.45
829.785	20258.54
830.111	20345.54
830.438	20477.06
830.764	20405.88
831.09	20348.25
831.417	20262.6
831.743	20383.05
832.069	20364.52
832.395	20254.24
832.722	20245.43
833.048	20256.05
833.374	20175.15
833.7	20186.67
834.026	20215.6
834.351	20179.44
834.677	20182.15
835.003	20064.64
835.329	20084.08
835.654	20073.68
835.98	19927.7
836.306	20012.67
836.631	19921.59
836.956	19928.15
837.282	19900.58
837.607	19827.13
837.932	19791.65
838.258	19753.69
838.583	19844.31
838.908	19623.75
839.233	19808.83
839.558	19679.34
839.883	19596.18
840.208	19566.12
840.533	19502.4
840.858	19638.89
841.182	19563.64
841.507	19494.94
841.832	19388.5
842.156	19419.69
842.481	19356.86
842.805	19223.08
843.13	19177.89
843.454	19238.45
843.778	19121.62
844.103	19036.42
844.427	19028.74
844.751	19080.71
845.075	19011.56
845.399	18889.53
845.723	18767.05
846.047	18801.62
846.371	18637.33
846.695	18698.35
847.019	18494.97
847.343	18426.27
847.666	18389.43
847.99	18307.63
848.313	18313.05
848.637	18168.87
848.96	18111.25
849.284	18069.89
849.607	17908.09
849.931	17868.99
850.254	17771.82
850.577	17606.4
850.9	17523.47
851.223	17516.46
851.546	17547.19
851.869	17356.24
852.192	17500.19
852.515	17331.61
852.838	17130.48
853.161	17214.32
853.483	17102.01
853.806	17035.12
854.129	16982.46
854.451	16994.44
854.774	16864.05
855.096	16760.1
855.419	16805.29
855.741	16781.56
856.063	16660.21
856.385	16624.28
856.708	16550.61
857.03	16473.78
857.352	16429.71
857.674	16391.29
857.996	16337.06
858.318	16242.82
858.64	16302.03
858.961	16288.47
859.283	16266.78
859.605	16087.35
859.926	16105.2
860.248	16057.29
860.57	15979.33
860.891	16053
861.212	15866.33
861.534	15889.38
861.855	15828.14
862.176	15869.5
862.498	15816.84
862.819	15868.37
863.14	15758.31
863.461	15722.38
863.782	15617.75
864.103	15649.16
864.424	15619.34
864.745	15627.92
865.065	15592.67
865.386	15514.03
865.707	15519.45
866.027	15469.73
866.348	15408.95
866.668	15386.8
866.989	15398.78
867.309	15280.36
867.63	15294.15
867.95	15253.69
868.27	15209.85
868.59	15308.16
868.91	15163.3
869.23	15190.19
869.55	15120.37
869.87	15163.53
870.19	15052.8
870.51	15125.11
870.83	15151.55
871.15	14954.95
871.469	15022.97
871.789	15053.02
872.109	15026.13
872.428	14949.3
872.748	15017.09
873.067	14981.84
873.386	14830.66
873.706	14863.2
874.025	14797.44
874.344	14832.01
874.663	14749.08
874.982	14757.66
875.301	14702.97
875.62	14674.5
875.939	14601.28
876.258	14607.38
876.577	14514.73
876.896	14520.15
877.214	14499.14
877.533	14564
877.852	14482.64
878.17	14463.66
878.489	14502.3
878.807	14464.34
879.125	14367.39
879.444	14376.2
879.762	14338.01
880.08	14365.36
880.398	14278.35
880.716	14287.39
881.034	14199.03
881.352	14255.98
881.67	14154.97
881.988	14199.94
882.306	14078.13
882.624	14173.72
882.941	13992.49
883.259	13941.19
883.577	14013.5
883.894	13975.99
884.212	13906.84
884.529	13872.26
884.846	13797.24
885.164	13811.92
885.481	13705.71
885.798	13742.32
886.115	13681.08
886.432	13666.62
886.75	13656.45
887.067	13642.44
887.383	13479.73
887.7	13606.51
888.017	13528.32
888.334	13431.82
888.651	13443.35
888.967	13442.44
889.284	13336.01
889.6	13388.43
889.917	13259.4
890.233	13293.75
890.55	13147.54
890.866	13186.4
891.182	13109.34
891.498	13047.2
891.815	13042.68
892.131	12935.34
892.447	13042.68
892.763	12926.52
893.079	12953.19
893.395	12844.72
893.71	12789.35
894.026	12820.76
894.342	12798.62
894.657	12691.05
894.973	12729.92
895.289	12646.53
895.604	12622.13
895.92	12534.9
896.235	12506.42
896.55	12531.05
896.865	12425.52
897.181	12334
897.496	12390.27
897.811	12212.87
898.126	12281.34
898.441	12231.18
898.756	12147.11
899.071	12138.52
899.386	12117.73
899.7	11977.62
900.015	11988.24
900.33	11941.92
900.644	11858.08
900.959	11845.2
901.273	11868.7
901.588	11733.34
901.902	11672.09
902.216	11599.55
902.531	11635.26
902.845	11562.49
903.159	11474.59
903.473	11475.26
903.787	11433.91
904.101	11365.89
904.415	11282.27
904.729	11337.41
905.042	11212.22
905.356	11241.82
905.67	11184.2
905.984	11212.45
906.297	11127.93
906.611	11042.05
906.924	10977.2
907.237	11004.54
907.551	10916.63
907.864	10879.12
908.177	10887.48
908.491	10777.2
908.804	10774.94
909.117	10646.81
909.43	10611.78
909.743	10629.18
910.056	10682.06
910.368	10512.35
910.681	10512.58
910.994	10473.71
911.307	10407.49
911.619	10325.01
911.932	10289.98
912.244	10277.1
912.557	10247.5
912.869	10136.99
913.181	10181.96
913.494	10106.26
913.806	10107.16
914.118	10073.49
914.43	9991.01
914.742	9942.87
915.054	9881.86
915.366	9882.08
915.678	9763.22
915.99	9830.56
916.302	9735.87
916.613	9649.32
916.925	9594.41
917.236	9631.02
917.548	9527.52
917.859	9542.43
918.171	9489.55
918.482	9456.56
918.794	9377.24
919.105	9359.16
919.416	9315.77
919.727	9249.33
920.038	9282.33
920.349	9205.49
920.66	9215.21
920.971	9123.46
921.282	9124.36
921.593	9112.39
921.903	8988.32
922.214	8926.86
922.525	8847.54
922.835	8856.12
923.146	8844.37
923.456	8826.52
923.767	8748.56
924.077	8742.45
924.387	8720.99
924.697	8631.72
925.008	8632.63
925.318	8625.85
925.628	8584.94
925.938	8515.34
926.248	8510.82
926.558	8435.12
926.867	8339.3
927.177	8356.48
927.487	8306.08
927.796	8325.06
928.106	8244.16
928.416	8213.43
928.725	8196.48
929.034	8136.37
929.344	8168.01
929.653	8129.81
929.962	8067.9
930.271	8039.42
930.581	7981.34
930.89	7896.15
931.199	7890.27
931.508	7831.07
931.817	7855.7
932.125	7765.53
932.434	7744.29
932.743	7776.83
933.051	7617.29
933.36	7660.22
933.669	7628.13
933.977	7563.5
934.286	7540.9
934.594	7507.01
934.902	7481.24
935.21	7423.17
935.519	7449.15
935.827	7407.57
936.135	7356.5
936.443	7295.03
936.751	7239.89
937.059	7290.51
937.367	7173.46
937.674	7116.73
937.982	7142.04
938.29	7103.85
938.597	7078.99
938.905	7006.91
939.213	7021.82
939.52	6976.85
939.827	6979.79
940.135	6968.94
940.442	6892.11
940.749	6847.36
941.056	6883.52
941.363	6783.64
941.67	6780.92
941.977	6721.49
942.284	6703.19
942.591	6615.5
942.898	6646.46
943.205	6618.67
943.511	6639.91
943.818	6518.33
944.125	6566.69
944.431	6468.39
944.738	6480.59
945.044	6436.53
945.35	6424.55
945.657	6460.93
945.963	6377.09
946.269	6316.75
946.575	6318.56
946.881	6245.34
947.187	6246.47
947.493	6201.05
947.799	6196.08
948.105	6152.69
948.41	6181.62
948.716	6098.68
949.022	6087.16
949.327	6043.77
949.633	5964.67
949.938	5977.78
950.244	6002.64
950.549	5907.05
950.854	5956.99
951.16	5935.52
951.465	5852.36
951.77	5832.25
952.075	5831.34
952.38	5780.95
952.685	5771.46
952.99	5691.46
953.294	5732.36
953.599	5680.16
953.904	5676.55
954.209	5594.51
954.513	5592.71
954.818	5573.95
955.122	5564.23
955.426	5605.14
955.731	5497.79
956.035	5481.52
956.339	5437
956.643	5458.02
956.948	5401.98
957.252	5386.84
957.556	5391.58
957.86	5332.6
958.163	5333.73
958.467	5346.84
958.771	5284.69
959.075	5289.44
959.378	5211.47
959.682	5147.29
959.985	5147.75
960.289	5175.99
960.592	5111.36
960.896	5096.45
961.199	5026.62
961.502	5027.75
961.805	5014.19
962.108	5013.51
962.411	4998.15
962.714	4902.55
963.017	4906.62
963.32	4955.89
963.623	4934.19
963.926	4824.36
964.228	4892.61
964.531	4871.6
964.833	4827.3
965.136	4791.37
965.438	4751.6
965.741	4695.1
966.043	4719.28
966.345	4675.67
966.648	4679.06
966.95	4661.43
967.252	4632.51
967.554	4636.12
967.856	4639.28
968.158	4550.02
968.46	4563.13
968.761	4547.31
969.063	4503.7
969.365	4514.77
969.666	4477.48
969.968	4452.17
970.269	4404.94
970.571	4389.12
970.872	4375.11
971.174	4403.36
971.475	4344.6
971.776	4347.99
972.077	4295.34
972.378	4304.83
972.679	4289.92
972.98	4274.32
973.281	4246.53
973.582	4202.91
973.883	4202.69
974.183	4220.54
974.484	4149.13
974.785	4106.87
975.085	4119.07
975.386	4135.34
975.686	4086.98
975.986	4055.57
976.287	4035.46
976.587	3994.56
976.887	4008.11
977.187	3995.23
977.487	3988.45
977.787	3978.96
978.087	3954.56
978.387	3893.77
978.687	3901.45
978.987	3876.59
979.286	3837.5
979.586	3875.01
979.885	3806.09
980.185	3809.48
980.484	3807.67
980.784	3739.42
981.083	3731.51
981.382	3743.72
981.682	3722.25
981.981	3702.81
982.28	3689.93
982.579	3672.53
982.878	3682.25
983.177	3626.43
983.475	3605.41
983.774	3590.5
984.073	3572.19
984.372	3541.46
984.67	3538.07
984.969	3574
985.267	3540.56
985.566	3510.27
985.864	3512.53
986.162	3470.5
986.461	3479.32
986.759	3431.41
987.057	3385.31
987.355	3437.06
987.653	3342.14
987.951	3380.11
988.249	3315.25
988.547	3343.95
988.844	3309.38
989.142	3330.62
989.44	3318.64
989.737	3296.5
990.035	3249.94
990.332	3232.99
990.63	3195.03
990.927	3211.07
991.224	3176.05
991.521	3190.06
991.819	3137.18
992.116	3164.52
992.413	3130.4
992.71	3134.92
993.006	3117.97
993.303	3086.78
993.6	3058.76
993.897	3053.79
994.193	3046.11
994.49	2987.35
994.787	3027.58
995.083	3017.41
995.379	2967.92
995.676	2950.97
995.972	2965.88
996.268	2924.53
996.565	2935.37
996.861	2920.01
997.157	2887.47
997.453	2898.99
997.749	2832.55
998.044	2868.26
998.34	2854.02
998.636	2824.64
998.932	2795.49
999.227	2757.53
999.523	2750.29
999.818	2753.68
1000.114	2764.53
1000.409	2744.87
1000.704	2730.41
1001	2708.71
1001.295	2668.49
1001.59	2682.27
1001.885	2643.18
1002.18	2603.18
1002.475	2621.94
1002.77	2590.3
1003.065	2584.2
1003.359	2565.67
1003.654	2541.03
1003.949	2507.82
1004.243	2534.93
1004.538	2506.91
1004.832	2530.41
1005.127	2462.62
1005.421	2494.48
1005.715	2458.1
1006.009	2443.18
1006.304	2435.5
1006.598	2398.44
1006.892	2427.14
1007.186	2367.71
1007.48	2344.2
1007.773	2325.45
1008.067	2355.5
1008.361	2335.39
1008.655	2323.41
1008.948	2344.2
1009.242	2279.35
1009.535	2295.17
1009.829	2270.99
1010.122	2213.81
1010.415	2243.19
1010.708	2226.47
1011.001	2221.27
1011.295	2199.35
1011.588	2156.41
1011.881	2154.38
1012.173	2129.75
1012.466	2166.36
1012.759	2139.01
1013.052	2120.25
1013.344	2102.4
1013.637	2089.97
1013.93	2085.45
1014.222	2068.28
1014.514	2059.24
1014.807	2027.38
1015.099	2046.36
1015.391	1996.87
1015.683	1986.93
1015.976	1989.41
1016.268	2002.74
1016.56	1971.11
1016.851	1965.68
1017.143	1944.67
1017.435	1915.29
1017.727	1882.52
1018.018	1868.51
1018.31	1918.23
1018.602	1878.45
1018.893	1863.09
1019.185	1860.37
1019.476	1846.82
1019.767	1819.47
1020.058	1789.19
1020.35	1796.65
1020.641	1791.45
1020.932	1756.87
1021.223	1782.41
1021.514	1708.74
1021.804	1723.43
1022.095	1696.99
1022.386	1695.86
1022.677	1731.11
1022.967	1708.51
1023.258	1648.63
1023.548	1681.17
1023.839	1653.15
1024.129	1648.85
1024.419	1614.73
1024.709	1633.71
1025	1582.87
1025.29	1595.52
1025.58	1572.92
1025.87	1580.16
1026.16	1581.74
1026.449	1551
1026.739	1572.47
1027.029	1526.82
1027.319	1513.04
1027.608	1506.26
1027.898	1486.6
1028.187	1473.94
1028.477	1457.67
1028.766	1465.13
1029.055	1447.28
1029.344	1441.18
1029.634	1453.38
1029.923	1431.23
1030.212	1421.29
1030.501	1405.92
1030.79	1390.78
1031.078	1385.81
1031.367	1358.24
1031.656	1356.21
1031.945	1365.7
1032.233	1361.86
1032.522	1337.22
1032.81	1326.83
1033.099	1322.54
1033.387	1304.68
1033.675	1297.23
1033.963	1298.81
1034.251	1306.27
1034.54	1272.59
1034.828	1258.58
1035.116	1263.1
1035.403	1265.59
1035.691	1222.88
1035.979	1224.91
1036.267	1204.35
1036.554	1192.37
1036.842	1215.42
1037.129	1176.78
1037.417	1188.53
1037.704	1181.3
1037.992	1168.19
1038.279	1164.12
1038.566	1147.17
1038.853	1147.17
1039.14	1147.17
