Data from white_steel_sheet_FLMS001491_015.txt Node
Date: Tue Feb 07 10:57:28 GMT 2017
User: dcchb
Spectrometer: FLMS00149
Trigger mode: 0
Integration Time (sec): 2.000000E-2
Scans to average: 10
Electric dark correction enabled: true
Nonlinearity correction enabled: false
Boxcar width: 0
XAxis mode: Wavelengths
Number of Pixels in Spectrum: 2048
>>>>>Begin Spectral Data<<<<<
341.393	-24.63
341.776	-24.63
342.16	-24.63
342.543	-71.86
342.927	-79.55
343.31	-46.55
343.693	-76.38
344.077	-63.73
344.46	-44.29
344.843	-53.11
345.226	-47
345.61	-34.12
345.993	-31.64
346.376	-0.45
346.759	12.66
347.142	46.1
347.525	22.6
347.908	63.95
348.291	72.54
348.674	89.72
349.057	89.72
349.44	113.22
349.823	125.42
350.206	164.29
350.588	193.22
350.971	202.25
351.354	213.1
351.737	233.89
352.119	249.94
352.502	249.48
352.884	268.92
353.267	284.06
353.65	296.94
354.032	289.48
354.414	299.88
354.797	306.43
355.179	322.93
355.562	331.29
355.944	299.65
356.326	323.83
356.709	334.68
357.091	312.08
357.473	328.13
357.855	346.66
358.238	329.93
358.62	342.14
359.002	342.14
359.384	324.51
359.766	329.03
360.148	337.17
360.53	340.1
360.912	314.79
361.294	337.84
361.676	329.26
362.057	337.17
362.439	317.96
362.821	325.42
363.203	290.61
363.584	316.38
363.966	308.01
364.348	304.62
364.729	309.6
365.111	308.01
365.493	319.77
365.874	293.1
366.256	331.97
366.637	299.88
367.019	335.36
367.4	295.59
367.781	309.14
368.163	315.47
368.544	319.99
368.925	325.64
369.306	324.29
369.688	307.11
370.069	307.34
370.45	317.96
370.831	319.09
371.212	315.25
371.593	302.36
371.974	321.12
372.355	320.22
372.736	294.68
373.117	310.95
373.498	323.16
373.879	319.31
374.26	322.48
374.641	340.33
375.021	315.02
375.402	321.12
375.783	312.08
376.163	341.01
376.544	315.47
376.925	341.23
377.305	336.49
377.686	338.3
378.066	321.57
378.447	341.46
378.827	329.93
379.208	327.45
379.588	333.32
379.968	335.58
380.349	345.53
380.729	346.21
381.109	328.58
381.489	355.92
381.87	347.79
382.25	343.27
382.63	349.14
383.01	351.63
383.39	357.28
383.77	357.96
384.15	359.99
384.53	359.09
384.91	365.41
385.29	362.7
385.67	357.5
386.049	365.87
386.429	352.76
386.809	382.81
387.189	366.77
387.568	404.96
387.948	390.05
388.328	399.76
388.707	388.69
389.087	407.45
389.466	389.82
389.846	419.88
390.225	435.92
390.605	397.96
390.984	400.89
391.363	392.98
391.743	419.42
392.122	416.49
392.501	427.33
392.881	422.59
393.26	441.8
393.639	426.2
394.018	439.08
394.397	447.45
394.776	437.5
395.155	434.79
395.534	461.91
395.913	459.42
396.292	468.24
396.671	470.04
397.05	492.64
397.429	483.38
397.808	498.52
398.186	489.03
398.565	487.22
398.944	503.49
399.323	501.68
399.701	514.34
400.08	506.88
400.458	538.06
400.837	530.61
401.215	530.16
401.594	560.89
401.972	553.43
402.351	541.68
402.729	572.41
403.107	601.57
403.486	588.69
403.864	583.04
404.242	616.25
404.62	591.62
404.999	635.92
405.377	618.51
405.755	627.1
406.133	627.33
406.511	649.93
406.889	664.62
407.267	673.88
407.645	676.59
408.023	683.37
408.401	679.08
408.779	716.59
409.156	715.46
409.534	730.6
409.912	738.29
410.29	752.3
410.667	757.72
411.045	780.32
411.422	781.22
411.8	818.51
412.178	802.01
412.555	818.28
412.933	840.88
413.31	859.19
413.687	872.29
414.065	850.37
414.442	889.47
414.819	882.46
415.197	907.09
415.574	912.52
415.951	935.12
416.328	928.11
416.705	923.59
417.082	952.07
417.46	959.97
417.837	957.71
418.214	957.26
418.591	986.41
418.967	993.87
419.344	989.8
419.721	1013.76
420.098	1003.59
420.475	1045.85
420.852	1037.71
421.228	1074.1
421.605	1077.71
421.982	1083.59
422.358	1107.32
422.735	1076.58
423.111	1105.28
423.488	1144.15
423.864	1106.41
424.241	1149.57
424.617	1179.86
424.994	1180.76
425.37	1173.08
425.746	1157.26
426.123	1183.92
426.499	1215.11
426.875	1216.01
427.251	1242.45
427.627	1271.38
428.003	1262.11
428.379	1293.3
428.756	1303.92
429.132	1311.6
429.507	1343.69
429.883	1371.49
430.259	1374.2
430.635	1367.87
431.011	1411.71
431.387	1439.51
431.763	1428.44
432.138	1459.85
432.514	1479.28
432.89	1530.36
433.265	1503.92
433.641	1546.63
434.016	1541.2
434.392	1583.24
434.767	1615.32
435.143	1591.82
435.518	1639.05
435.894	1648.09
436.269	1646.51
436.644	1722.21
437.02	1725.15
437.395	1702.78
437.77	1719.5
438.145	1764.25
438.52	1787.3
438.895	1810.8
439.271	1780.29
439.646	1888.09
440.021	1883.79
440.395	1892.61
440.77	1890.12
441.145	1904.36
441.52	1938.71
441.895	1938.48
442.27	1958.82
442.645	1973.06
443.019	1993.17
443.394	1988.2
443.769	2013.28
444.143	1994.75
444.518	2027.52
444.892	2061.41
445.267	2077.91
445.641	2077.46
446.016	2123.33
446.39	2113.16
446.764	2117.91
447.139	2130.57
447.513	2171.47
447.887	2225.48
448.262	2208.53
448.636	2213.5
449.01	2247.4
449.384	2266.83
449.758	2283.33
450.132	2291.92
450.506	2333.72
450.88	2318.58
451.254	2287.4
451.628	2386.38
452.002	2375.98
452.376	2416.89
452.75	2433.38
453.123	2480.16
453.497	2521.97
453.871	2527.17
454.244	2596.09
454.618	2568.07
454.992	2591.8
455.365	2606.94
455.739	2696.43
456.112	2691.91
456.486	2715.63
456.859	2722.64
457.232	2799.25
457.606	2846.93
457.979	2848.06
458.352	2877.44
458.725	2909.75
459.099	2945.91
459.472	2985.23
459.845	3011.22
460.218	3069.3
460.591	3075.4
460.964	3096.87
461.337	3144.55
461.71	3208.73
462.083	3243.98
462.456	3224.1
462.829	3252.8
463.201	3299.8
463.574	3295.73
463.947	3403.3
464.32	3455.95
464.692	3487.14
465.065	3483.75
465.438	3546.35
465.81	3634.93
466.183	3648.94
466.555	3763.52
466.928	3782.95
467.3	3742.05
467.672	3808.94
468.045	3940.91
468.417	3925.32
468.789	3955.83
469.161	4011.87
469.534	4096.39
469.906	4135.48
470.278	4169.61
470.65	4239.44
471.022	4324.18
471.394	4400.56
471.766	4441.69
472.138	4503.84
472.51	4589.94
472.882	4618.86
473.253	4725.3
473.625	4788.57
473.997	4855.01
474.369	4865.18
474.74	4935.69
475.112	5043.71
475.484	5105.85
475.855	5210.94
476.227	5252.52
476.598	5404.83
476.97	5495.45
477.341	5576.8
477.713	5652.51
478.084	5631.26
478.455	5807.76
478.827	5883.01
479.198	6009.11
479.569	6068.54
479.94	6169.1
480.311	6292.94
480.682	6450
481.053	6534.07
481.424	6622.65
481.795	6654.06
482.166	6809.54
482.537	6914.85
482.908	7018.35
483.279	7104.22
483.65	7202.3
484.021	7357.55
484.391	7460.59
484.762	7547.6
485.133	7632.12
485.503	7771.32
485.874	7948.27
486.244	8014.03
486.615	8146.68
486.985	8173.34
487.356	8418.31
487.726	8427.35
488.097	8635.25
488.467	8672.77
488.837	8873.44
489.207	8883.16
489.578	9126.77
489.948	9133.09
490.318	9279.53
490.688	9360.43
491.058	9440.66
491.428	9552.74
491.798	9762
492.168	9901.89
492.538	9897.82
492.908	10067.98
493.278	10124.25
493.648	10152.73
494.017	10348.88
494.387	10391.14
494.757	10575.32
495.126	10655.99
495.496	10749.32
495.866	10778.02
496.235	10889.21
496.605	11049.65
496.974	11053.72
497.344	11163.32
497.713	11244.68
498.082	11318.8
498.452	11468.62
498.821	11521.5
499.19	11599.92
499.559	11712.46
499.928	11702.07
500.298	11891.44
500.667	11997.65
501.036	11972.57
501.405	12119.91
501.774	12114.94
502.143	12228.15
502.512	12378.66
502.88	12460.24
503.249	12503.4
503.618	12622.72
503.987	12674.24
504.356	12859.32
504.724	12864.07
505.093	12968.25
505.462	13064.29
505.83	13118.98
506.199	13291.18
506.567	13374.34
506.936	13358.97
507.304	13596.03
507.672	13718.74
508.041	13655.91
508.409	13752.41
508.777	13922.8
509.145	13997.15
509.514	14102.45
509.882	14217.25
510.25	14235.33
510.618	14360.98
510.986	14451.6
511.354	14561.43
511.722	14703.34
512.09	14883
512.458	14837.8
512.826	14987.18
513.193	15137.91
513.561	15182.65
513.929	15293.61
514.297	15419.48
514.664	15569.76
515.032	15628.52
515.4	15781.51
515.767	15900.6
516.135	16007.26
516.502	15915.06
516.869	16159.8
517.237	16322.28
517.604	16210.42
517.972	16478.44
518.339	16523.41
518.706	16613.8
519.073	16812.89
519.44	16891.53
519.808	17102.15
520.175	17090.4
520.542	17310.96
520.909	17388.92
521.276	17477.51
521.643	17762.24
522.009	17787.55
522.376	17988.23
522.743	18078.39
523.11	18316.81
523.477	18433.87
523.843	18611.04
524.21	18641.77
524.577	18939.84
524.943	19014.42
525.31	19101.42
525.676	19370.56
526.043	19421.86
526.409	19486.49
526.776	19814.85
527.142	19747.28
527.508	19846.48
527.874	20194.5
528.241	20256.64
528.607	20249.41
528.973	20481.04
529.339	20498.22
529.705	20820.92
530.071	20907.02
530.437	21029.05
530.803	21091.2
531.169	21254.13
531.535	21274.47
531.901	21392.21
532.267	21454.35
532.632	21595.59
532.998	21707.68
533.364	21883.72
533.73	21938.41
534.095	22179.53
534.461	22205.97
534.826	22281
535.192	22455.45
535.557	22648.67
535.923	22536.36
536.288	22640.31
536.653	22783.36
537.019	22750.14
537.384	22866.97
537.749	23054.08
538.114	23140.86
538.479	23228.54
538.845	23295.66
539.21	23278.94
539.575	23424.02
539.94	23554.18
540.305	23653.16
540.67	23694.52
541.034	23785.14
541.399	23846.6
541.764	23922.76
542.129	23875.53
542.494	24128.18
542.858	24008.86
543.223	24230.1
543.587	24419.02
543.952	24470.32
544.316	24478.45
544.681	24493.37
545.045	24766.81
545.41	24748.5
545.774	24860.36
546.138	24940.59
546.503	24951.66
546.867	25051.32
547.231	25246.57
547.595	25250.18
547.959	25284.31
548.324	25448.37
548.688	25558.42
549.052	25693.34
549.416	25658.99
549.779	25711.41
550.143	25682.04
550.507	26009.26
550.871	25966.1
551.235	25987.79
551.599	26254
551.962	26328.35
552.326	26310.95
552.689	26470.94
553.053	26470.72
553.417	26495.35
553.78	26870.25
554.143	26797.26
554.507	26966.3
554.87	27064.37
555.234	27273.41
555.597	27166.07
555.96	27312.5
556.323	27453.06
556.686	27531.03
557.05	27681.08
557.413	27636.34
557.776	27796.11
558.139	28014.18
558.502	28091.92
558.865	28169.43
559.228	28317.67
559.59	28403.55
559.953	28441.51
560.316	28743.2
560.679	28786.59
561.041	28943.42
561.404	28991.78
561.767	29232
562.129	29253.69
562.492	29541.82
562.854	29634.7
563.217	29550.64
563.579	29678.32
563.941	29802.61
564.304	29950.17
564.666	30185.2
565.028	30266.55
565.39	30298.19
565.753	30408.47
566.115	30642.81
566.477	30794.22
566.839	30850.71
567.201	31009.58
567.563	31046.64
567.925	31328.89
568.287	31333.19
568.648	31222
569.01	31521.66
569.372	31627.19
569.734	31631.94
570.095	31797.36
570.457	31883.46
570.819	32156.44
571.18	32198.02
571.542	32234.63
571.903	32319.83
572.265	32539.71
572.626	32511.01
572.987	32504.68
573.349	32697.45
573.71	32895.86
574.071	32751.91
574.432	32929.53
574.794	33217.43
575.155	33038.91
575.516	33067.38
575.877	33266.02
576.238	33168.39
576.599	33345.56
576.96	33334.49
577.32	33459.23
577.681	33528.16
578.042	33642.05
578.403	33604.54
578.763	33614.26
579.124	33706.01
579.485	33898.32
579.845	33884.53
580.206	33840.92
580.566	33892.67
580.927	33859
581.287	33913.23
581.648	33673.01
582.008	34069.61
582.368	33924.31
582.728	34016.96
583.089	33963.85
583.449	33943.06
583.809	34081.59
584.169	34053.12
584.529	33997.98
584.889	34287.69
585.249	34137.18
585.609	34006.79
585.969	34150.74
586.329	34058.09
586.688	34106.9
587.048	34060.8
587.408	34030.74
587.768	34180.8
588.127	34082.04
588.487	34006.11
588.846	34320.23
589.206	33982.38
589.565	33972.89
589.925	34341.7
590.284	34151.64
590.643	34250.85
591.003	34223.28
591.362	34316.16
591.721	34295.6
592.08	34124.07
592.44	34297.63
592.799	34242.26
593.158	34133.79
593.517	34171.53
593.876	34377.4
594.235	34094.02
594.593	34184.19
594.952	34226.9
595.311	34166.11
595.67	34329.72
596.029	34447.46
596.387	34404.75
596.746	34367.68
597.104	34309.83
597.463	34163.85
597.822	34478.87
598.18	34199.55
598.538	34227.35
598.897	34371.07
599.255	34155.03
599.613	34627.34
599.972	34325.2
600.33	34472.31
600.688	34387.34
601.046	34439.09
601.404	34627.79
601.762	34488.13
602.12	34569.94
602.478	34497.62
602.836	34582.59
603.194	34431.41
603.552	34390.06
603.91	34342.15
604.268	34762.02
604.625	34388.25
604.983	34585.08
605.341	34512.09
605.698	34662.59
606.056	34721.8
606.413	34661.01
606.771	34895.13
607.128	34847.67
607.485	34663.04
607.843	34629.37
608.2	34854.68
608.557	34970.38
608.914	34684.74
609.272	34983.03
609.629	34910.72
609.986	35089.02
610.343	34881.79
610.7	35256.02
611.057	35112.98
611.414	35116.36
611.771	35089.25
612.127	35228.68
612.484	35158.85
612.841	35333.99
613.198	35355
613.554	35351.39
613.911	35508.44
614.267	35463.25
614.624	35377.83
614.98	35656.24
615.337	35697.37
615.693	35587.76
616.05	35642.23
616.406	35869.79
616.762	35728.1
617.118	35741.43
617.475	35725.61
617.831	35696.46
618.187	35861.66
618.543	35795.22
618.899	36030.69
619.255	35911.37
619.611	35899.17
619.967	36040.63
620.323	36190.23
620.678	36106.4
621.034	36038.15
621.39	35884.71
621.746	35976.91
622.101	36281.31
622.457	36086.96
622.812	35988.21
623.168	36291.48
623.523	36280.4
623.879	36440.62
624.234	35916.12
624.589	36151.59
624.945	36176
625.3	36250.35
625.655	36093.51
626.01	36157.24
626.365	36234.98
626.72	36263.68
627.075	36033.4
627.43	36051.03
627.785	36009.9
628.14	36248.99
628.495	36213.51
628.85	36086.51
629.205	36028.43
629.559	36238.82
629.914	36004.03
630.269	36086.96
630.623	35955.66
630.978	35884.48
631.332	36090.8
631.687	36083.57
632.041	35862.33
632.396	35953.86
632.75	35764.26
633.104	35752.51
633.459	35625.96
633.813	35592.51
634.167	35602.23
634.521	35701.43
634.875	35610.36
635.229	35547.54
635.583	35277.94
635.937	35403.36
636.291	35285.17
636.645	35377.83
636.999	35318.39
637.352	35318.39
637.706	35115.23
638.06	35253.54
638.413	35184.84
638.767	35074.11
639.121	35130.6
639.474	34925.18
639.828	34877.73
640.181	34874.56
640.534	34926.77
640.888	34807.22
641.241	34743.27
641.594	34664.4
641.947	34751.4
642.301	34603.38
642.654	34668.24
643.007	34636.38
643.36	34419.89
643.713	34503.95
644.066	34504.18
644.419	34295.6
644.771	34118.88
645.124	33774.71
645.477	33668.72
645.83	33409.52
646.182	33344.89
646.535	33283.19
646.888	33365.9
647.24	33231.89
647.593	33372
647.945	33328.16
648.298	33163.2
648.65	33004.33
649.002	32971.11
649.355	33123.42
649.707	32958.91
650.059	33062.41
650.411	33398.22
650.763	33703.75
651.115	33828.72
651.467	33772.9
651.819	33784.2
652.171	33681.83
652.523	33598.21
652.875	33628.49
653.227	33595.95
653.578	33719.57
653.93	33604.99
654.282	33490.19
654.633	33433.02
654.985	33438.22
655.337	33338.56
655.688	33518.44
656.039	33490.64
656.391	33114.38
656.742	33232.12
657.094	33298.11
657.445	33354.38
657.796	33331.1
658.147	33254.27
658.498	33181.05
658.849	33129.3
659.2	33029.64
659.551	32979.47
659.902	33120.03
660.253	33019.02
660.604	32932.24
660.955	32808.63
661.306	33062.86
661.656	32960.94
662.007	32816.76
662.358	32878.68
662.708	32743.09
663.059	32625.81
663.409	32438.92
663.76	32720.5
664.11	32562.76
664.461	32699.93
664.811	32500.84
665.161	32485.47
665.511	32296.55
665.862	32477.34
666.212	32429.2
666.562	32456.32
666.912	32186.27
667.262	32113.05
667.612	32148.99
667.962	32113.73
668.312	31951.48
668.662	32013.62
669.011	31823.8
669.361	31800.07
669.711	31764.59
670.06	31626.06
670.41	31475.78
670.76	31439.4
671.109	31593.75
671.459	31415.22
671.808	31277.14
672.157	31263.58
672.507	31068.56
672.856	31034.66
673.205	31011.39
673.554	31069.47
673.904	30914.67
674.253	31063.36
674.602	30952.41
674.951	30477.62
675.3	30226.1
675.649	30831.05
675.998	30744.28
676.346	30645.75
676.695	30798.06
677.044	30628.8
677.393	30594.45
677.741	30572.08
678.09	30459.99
678.438	30420.22
678.787	30601
679.135	30589.48
679.484	30374.79
679.832	30395.81
680.181	30428.13
680.529	30271.52
680.877	30329.15
681.225	30260
681.573	30373.21
681.922	30214.8
682.27	30299.77
682.618	30377.96
682.966	30195.59
683.314	30380.9
683.661	30339.54
684.009	30049.15
684.357	30266.77
684.705	30092.09
685.053	30204.63
685.4	30193.1
685.748	30089.83
686.095	30158.08
686.443	30055.25
686.79	30073.56
687.138	30096.61
687.485	30116.72
687.832	30108.59
688.18	30268.81
688.527	29935.71
688.874	30041.7
689.221	30017.74
689.568	30018.19
689.915	30002.83
690.262	29805.09
690.609	29909.5
690.956	29905.88
691.303	29882.15
691.65	29629.96
691.997	29796.5
692.344	29631.09
692.69	29750.63
693.037	29736.62
693.383	29423.41
693.73	29620.92
694.077	29480.35
694.423	29384.99
694.769	29509.28
695.116	29403.97
695.462	29383.41
695.808	29314.48
696.155	29344.54
696.501	29101.16
696.847	29167.82
697.193	29050.31
697.539	29092.12
697.885	28909.75
698.231	28715.4
698.577	28870.88
698.923	28753.82
699.269	28615.52
699.614	28524.9
699.96	28502.08
700.306	28618.46
700.651	28338.92
700.997	28231.8
701.342	28282.65
701.688	28260.95
702.033	28153.38
702.379	28010.56
702.724	28025.93
703.069	27996.78
703.415	27811.25
703.76	27855.31
704.105	27716.56
704.45	27606.28
704.795	27534.64
705.14	27469.56
705.485	27489.9
705.83	27348.43
706.175	27433.18
706.52	27220.53
706.865	27190.7
707.209	27177.82
707.554	27037.03
707.899	27030.02
708.243	26939.18
708.588	26985.96
708.932	26724.72
709.277	26644.05
709.621	26616.93
709.966	26596.36
710.31	26614.89
710.654	26442.47
710.998	26494.22
711.342	26515.24
711.687	26476.14
712.031	26334.45
712.375	26281.57
712.719	26358.85
713.063	26102.59
713.407	26200.44
713.75	26011.75
714.094	26135.81
714.438	25943.72
714.782	26033.21
715.125	25810.39
715.469	25954.35
715.812	25743.5
716.156	25663.05
716.499	25598.65
716.843	25560.01
717.186	25578.31
717.53	25621.93
717.873	25695.82
718.216	25586.22
718.559	25352.1
718.902	25245.66
719.246	25295.38
719.589	25255.61
719.932	25153.69
720.275	25143.52
720.617	25058.32
720.96	24927.03
721.303	25094.93
721.646	25171.54
721.989	24825.11
722.331	24847.48
722.674	24868.5
723.016	24873.24
723.359	24799.35
723.701	24756.41
724.044	24615.4
724.386	24519.13
724.729	24616.08
725.071	24555.96
725.413	24569.98
725.755	24517.1
726.097	24356.42
726.439	24275.52
726.782	24450.66
727.124	24455.63
727.465	24220.61
727.807	24266.93
728.149	24178.12
728.491	24206.14
728.833	24229.19
729.175	24099.93
729.516	24174.51
729.858	24040.72
730.199	23989.2
730.541	23951.23
730.882	23958.92
731.224	24028.75
731.565	23820.62
731.906	23848.41
732.248	23751.01
732.589	23707.17
732.93	23708.08
733.271	23612.49
733.612	23598.25
733.953	23528.19
734.294	23450.23
734.635	23348.31
734.976	23397.12
735.317	23402.1
735.658	23295.66
735.999	23372.04
736.339	23271.48
736.68	23408.65
737.021	23270.35
737.361	23069.68
737.702	23165.49
738.042	23104.93
738.383	23041.65
738.723	23136.34
739.063	22861.32
739.404	23039.17
739.744	22960.98
740.084	22882.56
740.424	22991.26
740.764	22865.16
741.104	22952.62
741.444	22828.78
741.784	22774.09
742.124	22745.16
742.464	22750.59
742.804	22697.03
743.143	22549.24
743.483	22655.9
743.823	22547.66
744.162	22486.19
744.502	22509.24
744.841	22393.76
745.181	22317.61
745.52	22323.93
745.86	22356.02
746.199	22309.7
746.538	22239.87
746.877	22273.09
747.216	22294.56
747.556	22122.36
747.895	22077.16
748.234	22037.39
748.573	22017.05
748.911	22015.47
749.25	21973.89
749.589	21840.78
749.928	21902.7
750.267	21854.11
750.605	21813.89
750.944	21711.75
751.283	21651.18
751.621	21752.42
751.96	21622.71
752.298	21595.14
752.636	21526.21
752.975	21486.44
753.313	21465.42
753.651	21476.27
753.989	21296.62
754.327	21399.89
754.666	21178.88
755.004	21199.44
755.342	21253
755.679	21176.39
756.017	21049.39
756.355	21068.6
756.693	20914.48
757.031	20990.18
757.368	20768.04
757.706	20857.3
758.044	20728.72
758.381	20784.31
758.719	20638.1
759.056	20591.1
759.394	20520.59
759.731	20331.67
760.068	20360.37
760.405	20277.66
760.743	20109.75
761.08	20306.58
761.417	20086.7
761.754	20053.71
762.091	20107.95
762.428	19909.98
762.765	19856.2
763.102	19900.27
763.438	19742.31
763.775	19734.17
764.112	19698.69
764.449	19594.06
764.785	19502.76
765.122	19390.45
765.458	19347.97
765.795	19312.49
766.131	19336.44
766.467	19203.34
766.804	19112.04
767.14	19119.5
767.476	18949.33
767.812	18992.72
768.148	18990.24
768.485	18883.12
768.821	18729.68
769.157	18748.43
769.492	18709.79
769.828	18619.62
770.164	18529.23
770.5	18417.82
770.836	18526.52
771.171	18369.23
771.507	18372.85
771.842	18145.06
772.178	18070.94
772.513	18123.82
772.849	17934.22
773.184	18010.83
773.519	17995.23
773.855	17961.56
774.19	17771.51
774.525	17792.98
774.86	17665.07
775.195	17609.93
775.53	17562.93
775.865	17458.3
776.2	17334.23
776.535	17223.5
776.87	17221.47
777.205	17145.09
777.539	17154.8
777.874	17130.85
778.209	17011.98
778.543	16988.93
778.878	16898.31
779.212	16860.12
779.547	16708.26
779.881	16832.55
780.215	16648.38
780.55	16709.17
780.884	16574.71
781.218	16561.6
781.552	16436.4
781.886	16422.39
782.22	16314.6
782.554	16245.22
782.888	16121.61
783.222	16064.44
783.556	15984.21
783.889	16018.11
784.223	15863.99
784.557	15784.67
784.89	15835.52
785.224	15764.33
785.557	15685.24
785.891	15658.35
786.224	15592.58
786.558	15584.67
786.891	15503.77
787.224	15396.43
787.557	15324.12
787.891	15335.19
788.224	15287.06
788.557	15318.92
788.89	15172.26
789.223	15272.37
789.556	15065.59
789.888	15065.82
790.221	14931.81
790.554	14863.11
790.887	14822.89
791.219	14701.53
791.552	14724.81
791.884	14612.27
792.217	14698.82
792.549	14646.17
792.882	14462.44
793.214	14503.12
793.546	14502.22
793.879	14336.57
794.211	14280.3
794.543	14335.44
794.875	14306.74
795.207	14290.7
795.539	14193.53
795.871	14167.54
796.203	14070.82
796.535	13961.44
796.867	13902.23
797.198	13838.51
797.53	13943.36
797.862	13736.14
798.193	13794.21
798.525	13632.41
798.856	13706.76
799.188	13579.3
799.519	13483.04
799.85	13435.13
800.182	13495.01
800.513	13420.66
800.844	13372.53
801.175	13437.16
801.506	13309.48
801.837	13259.31
802.168	13241.69
802.499	13141.35
802.83	13191.97
803.161	13086.21
803.491	13104.51
803.822	13082.37
804.153	12941.13
804.483	12871.98
804.814	12845.31
805.145	12866.78
805.475	12838.53
805.805	12780.23
806.136	12777.97
806.466	12771.87
806.796	12780
807.126	12606.22
807.457	12596.96
807.787	12608.93
808.117	12519.67
808.447	12533
808.777	12495.94
809.107	12474.47
809.436	12411.65
809.766	12375.72
810.096	12377.53
810.426	12312.9
810.755	12282.84
811.085	12249.85
811.414	12218.89
811.744	12103.86
812.073	12118.33
812.403	12123.75
812.732	12091.43
813.061	12102.28
813.39	11962.85
813.719	11905
814.049	12021.6
814.378	11885.34
814.707	11916.97
815.036	11889.18
815.365	11822.74
815.693	11702.52
816.022	11704.55
816.351	11603.76
816.68	11592.24
817.008	11597.44
817.337	11530.77
817.665	11552.46
817.994	11550.66
818.322	11585.01
818.651	11486.25
818.979	11468.62
819.307	11451.9
819.636	11443.09
819.964	11363.09
820.292	11390.21
820.62	11350.21
820.948	11324.67
821.276	11390.66
821.604	11319.7
821.932	11337.33
822.259	11341.17
822.587	11298.46
822.915	11260.04
823.243	11378.01
823.57	11225.24
823.898	11293.26
824.225	11273.38
824.553	11224.79
824.88	11215.98
825.207	11294.84
825.535	11277.44
825.862	11289.42
826.189	11238.8
826.516	11354.05
826.843	11426.82
827.17	11301.62
827.497	11290.32
827.824	11337.78
828.151	11306.82
828.478	11324
828.805	11283.55
829.131	11263.43
829.458	11274.05
829.785	11122.42
830.111	11235.86
830.438	11222.08
830.764	11252.59
831.09	11212.13
831.417	11200.84
831.743	11179.37
832.069	11226.82
832.395	11182.3
832.722	11181.85
833.048	11120.39
833.374	11139.14
833.7	11147.5
834.026	11116.54
834.351	11165.81
834.677	11148.18
835.003	11131.46
835.329	11104.11
835.654	11154.28
835.98	11055.98
836.306	11042.87
836.631	11011.01
836.956	11017.34
837.282	11018.92
837.607	10895.53
837.932	10920.39
838.258	10934.63
838.583	10937.57
838.908	10802.88
839.233	10828.42
839.558	10895.98
839.883	10822.99
840.208	10782.77
840.533	10849.66
840.858	10754.52
841.182	10815.31
841.507	10800.62
841.832	10679.27
842.156	10640.17
842.481	10711.81
842.805	10665.71
843.13	10599.95
843.454	10615.99
843.778	10535.32
844.103	10466.84
844.427	10480.18
844.751	10449.67
845.075	10434.3
845.399	10413.06
845.723	10382.55
846.047	10392.95
846.371	10278.15
846.695	10283.12
847.019	10154.08
847.343	10178.26
847.666	10203.8
847.99	10075.89
848.313	10077.93
848.637	10033.41
848.96	9978.27
849.284	9979.62
849.607	9905.05
849.931	9945.05
850.254	9876.8
850.577	9706.86
850.9	9746.86
851.223	9748.67
851.546	9593.19
851.869	9529.47
852.192	9665.28
852.515	9548.45
852.838	9504.61
853.161	9515.46
853.483	9463.03
853.806	9417.15
854.129	9400.2
854.451	9329.02
854.774	9357.72
855.096	9249.47
855.419	9185.3
855.741	9253.54
856.063	9189.81
856.385	9127.67
856.708	9136.48
857.03	9126.77
857.352	9060.78
857.674	9056.26
857.996	9024.62
858.318	8992.08
858.64	9011.97
858.961	9019.42
859.283	8946.43
859.605	8937.17
859.926	8903.27
860.248	8868.69
860.57	8802.48
860.891	8843.84
861.212	8836.83
861.534	8804.51
861.855	8845.19
862.176	8779.2
862.498	8724.74
862.819	8753.44
863.14	8709.38
863.461	8678.42
863.782	8595.93
864.103	8664.4
864.424	8676.83
864.745	8595.25
865.065	8604.07
865.386	8547.12
865.707	8559.77
866.027	8536.05
866.348	8542.15
866.668	8559.1
866.989	8473.45
867.309	8417.86
867.63	8494.69
867.95	8486.33
868.27	8357.07
868.59	8451.53
868.91	8401.59
869.23	8394.58
869.55	8308.71
869.87	8393.45
870.19	8324.98
870.51	8381.47
870.83	8381.47
871.15	8287.92
871.469	8311.42
871.789	8291.53
872.109	8232.33
872.428	8272.78
872.748	8210.18
873.067	8267.58
873.386	8294.47
873.706	8245.88
874.025	8155.04
874.344	8116.85
874.663	8166.79
874.982	8102.16
875.301	8133.35
875.62	8109.84
875.939	8140.12
876.258	8047.25
876.577	8010.64
876.896	8047.7
877.214	8035.49
877.533	8035.95
877.852	8028.04
878.17	7992.11
878.489	8002.95
878.807	7999.34
879.125	7985.33
879.444	7976.97
879.762	7969.06
880.08	7922.05
880.398	7868.27
880.716	7939.68
881.034	7868.27
881.352	7873.24
881.67	7830.75
881.988	7827.59
882.306	7837.31
882.624	7789.63
882.941	7768.38
883.259	7764.54
883.577	7750.53
883.894	7687.71
884.212	7701.94
884.529	7683.87
884.846	7648.84
885.164	7672.11
885.481	7598.9
885.798	7648.84
886.115	7545.11
886.432	7568.39
886.75	7511.21
887.067	7502.63
887.383	7465.34
887.7	7444.78
888.017	7455.17
888.334	7423.99
888.651	7446.13
888.967	7378.79
889.284	7356.87
889.6	7306.93
889.917	7305.57
890.233	7342.18
890.55	7224.44
890.866	7285.91
891.182	7277.77
891.498	7204.56
891.815	7268.96
892.131	7159.13
892.447	7171.79
892.763	7143.77
893.079	7085.46
893.395	7099.7
893.71	7087.95
894.026	7022.19
894.342	7073.26
894.657	7019.93
894.973	6980.16
895.289	7020.15
895.604	7011.34
895.92	6909.65
896.235	6884.56
896.55	6863.55
896.865	6835.98
897.181	6891.8
897.496	6893.6
897.811	6758.92
898.126	6776.54
898.441	6692.25
898.756	6751.23
899.071	6656.77
899.386	6651.35
899.7	6637.11
900.015	6595.08
900.33	6603.44
900.644	6631.46
900.959	6560.73
901.273	6544.23
901.588	6541.07
901.902	6470.79
902.216	6428.98
902.531	6431.02
902.845	6453.16
903.159	6397.12
903.473	6323.9
903.787	6370.91
904.101	6313.96
904.415	6277.58
904.729	6325.03
905.042	6214.98
905.356	6262.21
905.67	6172.49
905.984	6202.77
906.297	6161.42
906.611	6137.47
906.924	6084.13
907.237	6067.19
907.551	6039.39
907.864	6019.73
908.177	6035.1
908.491	6005.72
908.804	6002.55
909.117	5972.72
909.43	5942.22
909.743	5925.72
910.056	5920.97
910.368	5848.89
910.681	5814.54
910.994	5829.45
911.307	5817.02
911.619	5720.3
911.932	5771.6
912.244	5741.77
912.557	5661.55
912.869	5620.64
913.181	5631.04
913.494	5645.73
913.806	5613.19
914.118	5577.03
914.43	5560.53
914.742	5554.43
915.054	5539.74
915.366	5508.78
915.678	5455.22
915.99	5470.59
916.302	5391.72
916.613	5372.51
916.925	5387.2
917.236	5405.73
917.548	5340.42
917.859	5324.83
918.171	5335.23
918.482	5278.28
918.794	5295.23
919.105	5206.87
919.416	5180.88
919.727	5173.2
920.038	5192.18
920.349	5174.55
920.66	5078.51
920.971	5082.58
921.282	5093.43
921.593	5093.2
921.903	5017.95
922.214	5038.74
922.525	5014.33
922.835	4969.36
923.146	4975.24
923.456	4902.02
923.767	4925.29
924.077	4902.02
924.387	4860.89
924.697	4892.07
925.008	4832.42
925.318	4899.08
925.628	4812.75
925.938	4787.22
926.248	4690.72
926.558	4736.6
926.867	4741.8
927.177	4687.33
927.487	4686.66
927.796	4658.18
928.106	4624.74
928.416	4643.72
928.725	4624.51
929.034	4551.29
929.344	4557.85
929.653	4522.59
929.962	4534.8
930.271	4491.41
930.581	4451.63
930.89	4456.83
931.199	4404.86
931.508	4440.79
931.817	4418.87
932.125	4390.17
932.434	4357.63
932.743	4314.46
933.051	4297.74
933.36	4306.55
933.669	4297.06
933.977	4220.68
934.286	4274.01
934.594	4254.35
934.902	4204.86
935.21	4209.15
935.519	4215.26
935.827	4140.68
936.135	4187.01
936.443	4118.54
936.751	4079.21
937.059	4056.39
937.367	4039.67
937.674	4064.75
937.982	4088.25
938.29	4027.46
938.597	4010.74
938.905	3969.84
939.213	3982.72
939.52	3957.86
939.827	3961.25
940.135	3928.94
940.442	3926.45
940.749	3890.75
941.056	3907.69
941.363	3887.58
941.67	3837.19
941.977	3824.76
942.284	3797.19
942.591	3806
942.898	3809.62
943.205	3795.61
943.511	3765.32
943.818	3740.01
944.125	3688.72
944.431	3702.95
944.738	3689.17
945.044	3637.42
945.35	3642.62
945.657	3622.05
945.963	3625.22
946.269	3636.97
946.575	3611.66
946.881	3566.91
947.187	3544.54
947.493	3532.56
947.799	3528.49
948.105	3535.27
948.41	3521.94
948.716	3482.17
949.022	3473.81
949.327	3430.87
949.633	3435.16
949.938	3420.25
950.244	3408.72
950.549	3421.83
950.854	3392.68
951.16	3372.57
951.465	3375.96
951.77	3314.04
952.075	3292.79
952.38	3300.93
952.685	3288.05
952.99	3222.74
953.294	3250.08
953.599	3253.25
953.904	3220.93
954.209	3206.24
954.513	3219.8
954.818	3173.02
955.122	3183.42
955.426	3137.77
955.731	3146.58
956.035	3137.32
956.339	3135.28
956.643	3133.25
956.948	3095.06
957.252	3054.61
957.556	3099.58
957.86	3069.3
958.163	3071.78
958.467	3055.74
958.771	3056.87
959.075	3039.47
959.378	3003.54
959.682	3012.35
959.985	2991.33
960.289	2970.32
960.592	2949.53
960.896	2954.5
961.199	2922.41
961.502	2881.73
961.805	2895.97
962.108	2876.53
962.411	2849.87
962.714	2854.16
963.017	2815.52
963.32	2862.52
963.623	2839.47
963.926	2854.39
964.228	2808.74
964.531	2779.14
964.833	2771.9
965.136	2755.18
965.438	2754.5
965.741	2758.57
966.043	2719.25
966.345	2709.31
966.648	2712.47
966.95	2704.79
967.252	2704.11
967.554	2647.84
967.856	2670.21
968.158	2638.12
968.46	2659.59
968.761	2653.72
969.063	2618.46
969.365	2595.41
969.666	2596.99
969.968	2576.2
970.269	2561.06
970.571	2569.42
970.872	2552.25
971.174	2528.97
971.475	2537.11
971.776	2527.62
972.077	2481.06
972.378	2491.46
972.679	2491.01
972.98	2498.01
973.281	2442.42
973.582	2447.85
973.883	2452.59
974.183	2421.18
974.484	2392.03
974.785	2361.07
975.085	2403.55
975.386	2386.6
975.686	2405.59
975.986	2394.51
976.287	2350.9
976.587	2359.49
976.887	2342.54
977.187	2339.83
977.487	2358.36
977.787	2277.45
978.087	2312.93
978.387	2288.53
978.687	2312.71
978.987	2272.03
979.286	2251.24
979.586	2213.5
979.885	2234.74
980.185	2234.29
980.484	2195.87
980.784	2213.28
981.083	2192.71
981.382	2205.37
981.682	2170.79
981.981	2173.5
982.28	2173.28
982.579	2152.71
982.878	2150.9
983.177	2136.44
983.475	2128.76
983.774	2118.59
984.073	2100.51
984.372	2092.6
984.67	2081.98
984.969	2095.09
985.267	2080.4
985.566	2055.31
985.864	2070.68
986.162	2046.27
986.461	2017.35
986.759	2022.32
987.057	2013.05
987.355	2010.12
987.653	2032.04
987.951	1995.43
988.249	1995.88
988.547	1964.92
988.844	1976.9
989.142	1971.47
989.44	1949.33
989.737	1946.39
990.035	1920.4
990.332	1918.37
990.63	1936.45
990.927	1910.46
991.224	1899.61
991.521	1910.46
991.819	1891.48
992.116	1876.11
992.413	1839.05
992.71	1865.49
993.006	1831.36
993.303	1832.72
993.6	1844.7
993.897	1833.62
994.193	1829.33
994.49	1789.78
994.787	1785.04
995.083	1784.59
995.379	1795.66
995.676	1787.98
995.972	1729.9
996.268	1742.1
996.565	1745.49
996.861	1714.53
997.157	1730.58
997.453	1713.4
997.749	1729.9
998.044	1737.13
998.34	1688.09
998.636	1696.23
998.932	1684.93
999.227	1671.14
999.523	1685.38
999.818	1674.53
1000.114	1652.39
1000.409	1637.92
1000.704	1619.17
1001	1639.05
1001.295	1589.79
1001.59	1621.65
1001.885	1624.82
1002.18	1623.23
1002.475	1599.05
1002.77	1562.22
1003.065	1576.91
1003.359	1550.69
1003.654	1525.16
1003.949	1535.33
1004.243	1545.72
1004.538	1515.67
1004.832	1514.99
1005.127	1509.34
1005.421	1515.67
1005.715	1475.44
1006.009	1495.55
1006.304	1466.63
1006.598	1468.66
1006.892	1467.98
1007.186	1432.5
1007.48	1444.71
1007.773	1416.69
1008.067	1427.08
1008.361	1422.11
1008.655	1413.75
1008.948	1401.55
1009.242	1394.99
1009.535	1412.62
1009.829	1370.36
1010.122	1358.16
1010.415	1376.24
1010.708	1349.12
1011.001	1350.92
1011.295	1362.68
1011.588	1330.36
1011.881	1341.43
1012.173	1322.23
1012.466	1346.63
1012.759	1310.02
1013.052	1312.96
1013.344	1289.01
1013.637	1302.79
1013.93	1274.99
1014.222	1277.03
1014.514	1249.68
1014.807	1268.22
1015.099	1266.18
1015.391	1242.68
1015.683	1249.68
1015.976	1221.44
1016.268	1215.79
1016.56	1221.89
1016.851	1174.43
1017.143	1207.2
1017.435	1172.4
1017.727	1188.22
1018.018	1175.79
1018.31	1176.47
1018.602	1184.83
1018.893	1133.08
1019.185	1163.13
1019.476	1150.03
1019.767	1138.28
1020.058	1143.92
1020.35	1153.87
1020.641	1137.37
1020.932	1106.64
1021.223	1122.68
1021.514	1087.43
1021.804	1075
1022.095	1083.81
1022.386	1080.2
1022.677	1086.3
1022.967	1077.26
1023.258	1071.61
1023.548	1094.66
1023.839	1067.77
1024.129	1030.71
1024.419	1031.16
1024.709	1043.14
1025	1008.56
1025.29	1015.34
1025.58	1019.41
1025.87	1005.62
1026.16	1000.88
1026.449	1012.18
1026.739	998.62
1027.029	985.74
1027.319	955.23
1027.608	945.51
1027.898	957.49
1028.187	936.92
1028.477	966.75
1028.766	959.07
1029.055	939.64
1029.344	936.7
1029.634	924.27
1029.923	911.84
1030.212	912.97
1030.501	927.66
1030.79	928.11
1031.078	919.52
1031.367	889.02
1031.656	903.03
1031.945	894.21
1032.233	884.27
1032.522	871.84
1032.81	874.55
1033.099	834.55
1033.387	836.81
1033.675	855.57
1033.963	836.36
1034.251	830.94
1034.54	848.57
1034.828	851.5
1035.116	831.84
1035.403	813.54
1035.691	827.32
1035.979	810.37
1036.267	829.58
1036.554	803.82
1036.842	801.11
1037.129	781.9
1037.417	800.2
1037.704	800.66
1037.992	791.62
1038.279	776.02
1038.566	737.38
1038.853	737.38
1039.14	737.38
