Data from whiteboard_FLMS001491_00044.txt Node
Date: Wed Feb 08 11:26:39 GMT 2017
User: dcchb
Spectrometer: FLMS00149
Trigger mode: 0
Integration Time (sec): 2.000000E-2
Scans to average: 10
Electric dark correction enabled: true
Nonlinearity correction enabled: false
Boxcar width: 0
XAxis mode: Wavelengths
Number of Pixels in Spectrum: 2048
>>>>>Begin Spectral Data<<<<<
341.393	5.42
341.776	5.42
342.16	5.42
342.543	-61.69
342.927	-61.02
343.31	-79.55
343.693	-68.47
344.077	-54.69
344.46	-43.84
344.843	-63.5
345.226	-53.78
345.61	-18.76
345.993	-27.57
346.376	-12.43
346.759	17.4
347.142	41.58
347.525	59.21
347.908	44.97
348.291	84.97
348.674	76.61
349.057	97.85
349.44	119.54
349.823	129.49
350.206	182.82
350.588	193.89
350.971	213.55
351.354	256.49
351.737	262.82
352.119	276.15
352.502	269.82
352.884	304.17
353.267	310.5
353.65	322.7
354.032	318.41
354.414	341.01
354.797	332.87
355.179	348.92
355.562	359.31
355.944	362.7
356.326	364.74
356.709	365.19
357.091	368.13
357.473	368.35
357.855	371.74
358.238	367.9
358.62	347.56
359.002	368.58
359.384	390.05
359.766	383.72
360.148	388.01
360.53	352.76
360.912	391.18
361.294	387.11
361.676	375.13
362.057	362.48
362.439	347.34
362.821	356.83
363.203	370.39
363.584	378.97
363.966	372.65
364.348	389.14
364.729	386.43
365.111	360.67
365.493	357.5
365.874	382.81
366.256	381.23
366.637	365.87
367.019	377.39
367.4	376.49
367.781	381.46
368.163	341.23
368.544	353.89
368.925	364.06
369.306	379.88
369.688	379.65
370.069	360.89
370.45	378.52
370.831	360.67
371.212	376.71
371.593	367.67
371.974	364.74
372.355	366.54
372.736	385.75
373.117	390.72
373.498	375.81
373.879	372.87
374.26	395.92
374.641	388.92
375.021	379.43
375.402	375.58
375.783	420.55
376.163	408.8
376.544	415.81
376.925	406.77
377.305	414.68
377.686	417.39
378.066	393.21
378.447	430.27
378.827	404.96
379.208	433.89
379.588	422.59
379.968	414
380.349	437.5
380.729	444.06
381.109	435.24
381.489	437.73
381.87	424.62
382.25	411.97
382.63	439.99
383.01	438.41
383.39	455.81
383.77	465.52
384.15	469.14
384.53	469.14
384.91	457.84
385.29	475.24
385.67	475.02
386.049	473.89
386.429	489.48
386.809	507.33
387.189	477.05
387.568	489.48
387.948	494.45
388.328	490.38
388.707	528.35
389.087	519.08
389.466	521.57
389.846	524.51
390.225	543.26
390.605	529.03
390.984	554.56
391.363	562.92
391.743	570.83
392.122	583.71
392.501	598.85
392.881	582.36
393.26	602.92
393.639	607.67
394.018	592.07
394.397	628.46
394.776	619.87
395.155	646.99
395.534	639.98
395.913	658.06
396.292	673.65
396.671	676.82
397.05	686.99
397.429	694.45
397.808	704.61
398.186	716.59
398.565	722.92
398.944	725.63
399.323	745.97
399.701	755.46
400.08	764.95
400.458	783.93
400.837	769.02
401.215	816.48
401.594	817.83
401.972	819.64
402.351	835.46
402.729	852.18
403.107	861.9
403.486	872.07
403.864	899.64
404.242	886.98
404.62	915.68
404.999	944.83
405.377	946.42
405.755	938.28
406.133	987.32
406.511	990.48
406.889	1008.79
407.267	1056.92
407.645	1053.08
408.023	1080.65
408.401	1096.47
408.779	1131.27
409.156	1155.22
409.534	1134.43
409.912	1198.61
410.29	1228.44
410.667	1264.6
411.045	1241.1
411.422	1299.17
411.8	1301.66
412.178	1313.86
412.555	1363.81
412.933	1396.35
413.31	1411.04
413.687	1420.3
414.065	1459.4
414.442	1484.25
414.819	1477.25
415.197	1535.33
415.574	1557.47
415.951	1564.03
416.328	1617.58
416.705	1585.72
417.082	1617.13
417.46	1637.47
417.837	1624.82
418.214	1721.54
418.591	1699.84
418.967	1722.44
419.344	1754.08
419.721	1773.74
420.098	1801.08
420.475	1839.5
420.852	1871.59
421.228	1891.7
421.605	1851.7
421.982	1907.29
422.358	1935.09
422.735	1947.97
423.111	1973.28
423.488	2034.75
423.864	2023
424.241	2076.33
424.617	2096.22
424.994	2096.44
425.37	2136.67
425.746	2154.07
426.123	2211.69
426.499	2228.19
426.875	2242.65
427.251	2289.21
427.627	2324.46
428.003	2352.71
428.379	2424.34
428.756	2394.97
429.132	2478.35
429.507	2477
429.883	2549.99
430.259	2539.14
430.635	2583.89
431.011	2616.88
431.387	2695.97
431.763	2726.48
432.138	2719.48
432.514	2778.23
432.89	2792.69
433.265	2875.18
433.641	2918.12
434.016	2945.91
434.392	3025.01
434.767	3033.37
435.143	3081.95
435.518	3101.61
435.894	3150.2
436.269	3172.12
436.644	3202.18
437.02	3293.47
437.395	3239.24
437.77	3385.45
438.145	3403.75
438.52	3417.99
438.895	3478.1
439.271	3553.35
439.646	3558.32
440.021	3608.72
440.395	3622.05
440.77	3592.22
441.145	3640.81
441.52	3763.29
441.895	3783.18
442.27	3769.84
442.645	3801.71
443.019	3862.5
443.394	3835.38
443.769	3948.14
444.143	3902.95
444.518	3953.57
444.892	3952.21
445.267	3997.18
445.641	4032.21
446.016	4081.02
446.39	4047.35
446.764	4141.59
447.139	4070.85
447.513	4173.9
447.887	4178.65
448.262	4191.53
448.636	4280.57
449.01	4292.77
449.384	4332.09
449.758	4364.86
450.132	4395.59
450.506	4490.5
450.88	4502.48
451.254	4514.01
451.628	4591.07
452.002	4663.83
452.376	4717.39
452.75	4768.46
453.123	4789.93
453.497	4930.27
453.871	4975.24
454.244	5064.73
454.618	5076.48
454.992	5161.9
455.365	5168.45
455.739	5318.28
456.112	5352.63
456.486	5400.08
456.859	5514.88
457.232	5582.45
457.606	5611.6
457.979	5701.32
458.352	5761.43
458.725	5874.42
459.099	5859.05
459.472	6065.38
459.845	6095.43
460.218	6165.26
460.591	6234.86
460.964	6270.8
461.337	6403.45
461.71	6499.72
462.083	6557.34
462.456	6579.26
462.829	6624.68
463.201	6755.98
463.574	6800.05
463.947	6878.01
464.32	7006.37
464.692	7093.82
465.065	7125.24
465.438	7225.8
465.81	7295.63
466.183	7466.7
466.555	7608.84
466.928	7641.16
467.3	7679.35
467.672	7785.33
468.045	8040.01
468.417	8033.91
468.789	8114.14
469.161	8254.25
469.534	8427.8
469.906	8649.26
470.278	8673.22
470.65	8763.61
471.022	9010.16
471.394	9150.27
471.766	9239.31
472.138	9393.43
472.51	9565.85
472.882	9792.74
473.253	9870.93
473.625	9988.21
473.997	10229.11
474.369	10259.39
474.74	10461.42
475.112	10618.7
475.484	10815.31
475.855	10985.7
476.227	11020.95
476.598	11413.26
476.97	11475.18
477.341	11728.96
477.713	11901.83
478.084	11937.77
478.455	12371.65
478.827	12378.88
479.198	12810.28
479.569	12768.7
479.94	13123.95
480.311	13198.75
480.682	13554.22
481.053	13808.22
481.424	14071.27
481.795	14130.48
482.166	14409.79
482.537	14600.97
482.908	14921.64
483.279	15087.06
483.65	15263.78
484.021	15638.46
484.391	15927.26
484.762	16006.81
485.133	16213.36
485.503	16362.73
485.874	16860.12
486.244	17009.5
486.615	17449.03
486.985	17544.17
487.356	17921.56
487.726	18114.55
488.097	18485.62
488.467	18553.41
488.837	18971.7
489.207	19176.44
489.578	19491.69
489.948	19685.81
490.318	20000.38
490.688	20035.63
491.058	20448.05
491.428	20801.49
491.798	21044.64
492.168	21399.21
492.538	21585.87
492.908	21773.89
493.278	21952.87
493.648	22133.43
494.017	22353.76
494.387	22516.24
494.757	22764.83
495.126	23032.39
495.496	23077.81
495.866	23211.82
496.235	23433.96
496.605	23664.01
496.974	23821.52
497.344	23985.58
497.713	24043.66
498.082	24229.87
498.452	24353.26
498.821	24656.75
499.19	24681.16
499.559	24842.51
499.928	25051.32
500.298	25158.43
500.667	25381.71
501.036	25388.03
501.405	25652.66
501.774	25708.93
502.143	26001.12
502.512	26139.65
502.88	26464.84
503.249	26395.46
503.618	26574.44
503.987	26812.85
504.356	27020.98
504.724	27211.49
505.093	27366.06
505.462	27627.07
505.83	27803.11
506.199	28087.17
506.567	28551.34
506.936	28450.55
507.304	28811.22
507.672	29020.93
508.041	29273.81
508.409	29531.88
508.777	29814.36
509.145	29932.32
509.514	29981.36
509.882	30259.09
510.25	30461.35
510.618	30609.14
510.986	30819.3
511.354	31071.05
511.722	31406.63
512.09	31754.19
512.458	31567.53
512.826	32069.89
513.193	32212.94
513.561	32410.45
513.929	32696.09
514.297	32892.92
514.664	33081.62
515.032	33139.69
515.4	33600.02
515.767	33391.21
516.135	33635.95
516.502	33719.57
516.869	34227.12
517.237	34361.13
517.604	34214.92
517.972	34711.4
518.339	34712.99
518.706	34912.08
519.073	35053.32
519.44	35273.2
519.808	35592.96
520.175	35704.6
520.542	36053.06
520.909	36192.72
521.276	36166.28
521.643	36704.57
522.009	37010.33
522.376	37142.3
522.743	37477.88
523.11	37840.59
523.477	38110.86
523.843	38533.68
524.21	38801.24
524.577	39026.09
524.943	39166.2
525.31	39424.27
525.676	39927.54
526.043	39994.2
526.409	40513.06
526.776	40751.24
527.142	40971.35
527.508	41247.05
527.874	41565.23
528.241	41875.51
528.607	42042.06
528.973	42555.72
529.339	42454.7
529.705	42989.83
530.071	43141.01
530.437	43477.5
530.803	43535.13
531.169	43845.63
531.535	43884.5
531.901	44114.55
532.267	44401.32
532.632	44704.36
532.998	44875.88
533.364	45173.28
533.73	45311.12
534.095	45600.16
534.461	45733.03
534.826	45905.46
535.192	46079.69
535.557	46375.28
535.923	46307.48
536.288	46463.64
536.653	46742.27
537.019	46589.74
537.384	46920.12
537.749	46969.61
538.114	47073.11
538.479	47173.45
538.845	47244.18
539.21	47272.43
539.575	47433.1
539.94	47532.31
540.305	47628.35
540.67	47619.54
541.034	47743.15
541.399	47842.36
541.764	47903.15
542.129	48135.01
542.494	48153.54
542.858	48369.35
543.223	48253.65
543.587	48629.68
543.952	48580.19
544.316	48736.57
544.681	48772.5
545.045	48901.54
545.41	49172.94
545.774	49323.9
546.138	49233.73
546.503	49458.81
546.867	49457
547.231	49878.46
547.595	49868.75
547.959	50024.67
548.324	50152.13
548.688	50143.09
549.052	50368.17
549.416	50478.45
549.779	50621.27
550.143	50641.38
550.507	50930.41
550.871	51096.28
551.235	51136.51
551.599	51448.36
551.962	51471.41
552.326	51643.16
552.689	51811.52
553.053	51800.22
553.417	51837.06
553.78	52264.39
554.143	52194.79
554.507	52361.79
554.87	52437.72
555.234	52890.59
555.597	52717.71
555.96	52828.44
556.323	53050.13
556.686	53029.57
557.05	53297.13
557.413	53335.09
557.776	53397.92
558.139	53662.09
558.502	53601.3
558.865	53848.08
559.228	53902.09
559.59	53956.1
559.953	54065.02
560.316	54334.39
560.679	54267.73
561.041	54388.85
561.404	54543.65
561.767	54696.87
562.129	54660.26
562.492	54865.9
562.854	54849.41
563.217	54865.68
563.579	54987.25
563.941	55108.83
564.304	55205.78
564.666	55321.94
565.028	55302.95
565.39	55462.72
565.753	55575.94
566.115	55728.03
566.477	55721.02
566.839	55807.35
567.201	55970.05
567.563	55942.03
567.925	56092.99
568.287	56090.5
568.648	56233.32
569.01	56393.32
569.372	56525.52
569.734	56439.42
570.095	56610.26
570.457	56615.01
570.819	56733.65
571.18	56773.42
571.542	56998.5
571.903	57004.6
572.265	57075.34
572.626	57145.39
572.987	57248.44
573.349	57308.55
573.71	57402.78
574.071	57560.75
574.432	57525.49
574.794	57752.61
575.155	57728.43
575.516	57758.03
575.877	57843.9
576.238	57889.33
576.599	58004.12
576.96	58069.66
577.32	58122.99
577.681	58214.06
578.042	58277.34
578.403	58343.78
578.763	58395.3
579.124	58426.03
579.485	58499.48
579.845	58584.45
580.206	58661.96
580.566	58615.86
580.927	58615.63
581.287	58731.11
581.648	58670.77
582.008	58772.24
582.368	58783.54
582.728	58893.82
583.089	58876.19
583.449	58803.65
583.809	58854.05
584.169	58868.51
584.529	58841.16
584.889	58983.53
585.249	58835.97
585.609	58795.06
585.969	58947.83
586.329	58871.9
586.688	58845.46
587.048	58855.4
587.408	58759.36
587.768	58748.96
588.127	58736.08
588.487	58658.57
588.846	58836.42
589.206	58661.96
589.565	58642.75
589.925	58737.66
590.284	58677.78
590.643	58787.83
591.003	58791.67
591.362	58758.46
591.721	58634.84
592.08	58645.69
592.44	58658.34
592.799	58683.43
593.158	58656.99
593.517	58647.95
593.876	58665.12
594.235	58590.32
594.593	58624.22
594.952	58635.07
595.311	58619.48
595.67	58650.89
596.029	58755.52
596.387	58736.08
596.746	58834.84
597.104	58685.46
597.463	58703.99
597.822	58821.28
598.18	58670.55
598.538	58638.91
598.897	58837.1
599.255	58662.19
599.613	58995.28
599.972	58887.49
600.33	58927.49
600.688	58902.18
601.046	58961.16
601.404	59069.18
601.762	59003.42
602.12	59100.14
602.478	59148.95
602.836	59278.22
603.194	59029.18
603.552	59224.66
603.91	59162.06
604.268	59264.88
604.625	59182.62
604.983	59343.98
605.341	59235.05
605.698	59394.14
606.056	59432.11
606.413	59417.19
606.771	59519.34
607.128	59556.63
607.485	59436.4
607.843	59520.47
608.2	59643.63
608.557	59736.73
608.914	59664.42
609.272	59773.12
609.629	59839.78
609.986	59940.34
610.343	59797.98
610.7	59968.59
611.057	59902.61
611.414	59961.14
611.771	59950.97
612.127	60041.59
612.484	59943.28
612.841	60039.33
613.198	60014.24
613.554	60017.86
613.911	60144.41
614.267	60105.99
614.624	60039.55
614.98	60084.97
615.337	60189.38
615.693	60118.42
616.05	60076.39
616.406	60176.72
616.762	60080.91
617.118	60091.3
617.475	59984.41
617.831	60094.01
618.187	60089.72
618.543	60100.57
618.899	60214.24
619.255	60208.59
619.611	60073
619.967	60204.74
620.323	60188.47
620.678	60107.57
621.034	60102.6
621.39	60036.84
621.746	59929.95
622.101	60206.33
622.457	60002.94
622.812	59995.48
623.168	59999.55
623.523	59995.48
623.879	60102.37
624.234	59850.63
624.589	59962.27
624.945	59983.96
625.3	59968.37
625.655	59898.09
626.01	59963.85
626.365	59942.38
626.72	59947.8
627.075	59950.51
627.43	59903.51
627.785	59819.9
628.14	59875.26
628.495	59815.6
628.85	59796.85
629.205	59762.27
629.559	59822.16
629.914	59761.37
630.269	59786.9
630.623	59734.47
630.978	59725.66
631.332	59792.1
631.687	59846.79
632.041	59761.37
632.396	59804.76
632.75	59667.58
633.104	59715.27
633.459	59682.5
633.813	59646.12
634.167	59627.13
634.521	59651.31
634.875	59724.31
635.229	59741.25
635.583	59662.61
635.937	59694.93
636.291	59667.81
636.645	59625.55
636.999	59588.94
637.352	59753.23
637.706	59557.98
638.06	59679.56
638.413	59655.38
638.767	59582.16
639.121	59615.38
639.474	59462.17
639.828	59517.53
640.181	59490.87
640.534	59459
640.888	59454.71
641.241	59386.24
641.594	59463.97
641.947	59512.11
642.301	59403.64
642.654	59471.88
643.007	59391.66
643.36	59315.95
643.713	59240.93
644.066	59370.87
644.419	59213.81
644.771	59059.46
645.124	58908.28
645.477	58837.55
645.83	58596.2
646.182	58455.64
646.535	58354.85
646.888	58326.15
647.24	58184.46
647.593	58285.02
647.945	58241.41
648.298	58041.86
648.65	57992.6
649.002	57947.63
649.355	58022.88
649.707	57988.08
650.059	58056.1
650.411	58335.42
650.763	58317.34
651.115	58487.95
651.467	58357.34
651.819	58374.51
652.171	58294.96
652.523	58212.03
652.875	58125.25
653.227	58059.26
653.578	58148.98
653.93	58162.76
654.282	58068.53
654.633	57944.01
654.985	57974.97
655.337	58001.86
655.688	57950.34
656.039	57958.48
656.391	57753.51
656.742	57792.83
657.094	57805.49
657.445	57808.65
657.796	57706.05
658.147	57649.78
658.498	57677.35
658.849	57714.87
659.2	57654.76
659.551	57580.63
659.902	57733.62
660.253	57614.53
660.604	57708.54
660.955	57556.23
661.306	57571.59
661.656	57560.97
662.007	57559.39
662.358	57612.27
662.708	57564.81
663.059	57542.22
663.409	57375.67
663.76	57589.67
664.11	57539.05
664.461	57624.47
664.811	57541.31
665.161	57518.49
665.511	57455.66
665.862	57429.68
666.212	57625.38
666.562	57624.93
666.912	57528.88
667.262	57475.55
667.612	57427.42
667.962	57562.33
668.312	57442.56
668.662	57613.63
669.011	57444.37
669.361	57491.6
669.711	57439.39
670.06	57449.34
670.41	57352.84
670.76	57378.83
671.109	57445.04
671.459	57410.47
671.808	57360.75
672.157	57388.1
672.507	57306.97
672.856	57236.69
673.205	57345.61
673.554	57349.9
673.904	57247.99
674.253	57382.22
674.602	57289.12
674.951	56970.03
675.3	56777.72
675.649	57253.18
675.998	57111.27
676.346	57132.51
676.695	57281.21
677.044	57051.83
677.393	57175.22
677.741	57165.95
678.09	57193.98
678.438	57134.77
678.787	57104.71
679.135	57135.9
679.484	56921.89
679.832	56950.37
680.181	56866.3
680.529	56936.58
680.877	56835.12
681.225	56811.61
681.573	56876.24
681.922	56714.44
682.27	56566.42
682.618	56692.75
682.966	56533.88
683.314	56590.83
683.661	56452.07
684.009	56277.84
684.357	56195.13
684.705	56165.98
685.053	56198.07
685.4	56120.56
685.748	56020
686.095	55978.87
686.443	55829.72
686.79	55728.03
687.138	55758.99
687.485	55771.87
687.832	55637.63
688.18	55656.62
688.527	55549.27
688.874	55434.47
689.221	55428.37
689.568	55324.65
689.915	55196.97
690.262	55146.12
690.609	55012.56
690.956	54960.36
691.303	54857.09
691.65	54745
691.997	54808.73
692.344	54492.58
692.69	54508.62
693.037	54571.67
693.383	54225.01
693.73	54311.34
694.077	54189.99
694.423	54141.85
694.769	54023.66
695.116	53975.08
695.462	53858.47
695.808	53790.9
696.155	53679.27
696.501	53500.74
696.847	53593.62
697.193	53198.15
697.539	53431.59
697.885	53190.24
698.231	53091.71
698.577	53012.62
698.923	53041.09
699.269	52993.41
699.614	52715.22
699.96	52639.29
700.306	52670.25
700.651	52475.23
700.997	52453.31
701.342	52399.3
701.688	52346.42
702.033	52230.04
702.379	52199.98
702.724	52198.63
703.069	52150.95
703.415	51792.08
703.76	51880.9
704.105	51912.99
704.45	51744.85
704.795	51567.23
705.14	51557.97
705.485	51496.27
705.83	51298.76
706.175	51546.22
706.52	51372.21
706.865	51316.39
707.209	51304.87
707.554	51134.93
707.899	51282.27
708.243	51037.3
708.588	51054.7
708.932	50885.22
709.277	50792.79
709.621	50873.69
709.966	50688.84
710.31	50803.64
710.654	50368.39
710.998	50497.88
711.342	50532.91
711.687	50444.1
712.031	50283.2
712.375	50181.73
712.719	50188.74
713.063	50278.45
713.407	50235.97
713.75	50058.8
714.094	49913.04
714.438	49759.14
714.782	49862.19
715.125	49692.25
715.469	49722.76
715.812	49572.03
716.156	49494.97
716.499	49490.9
716.843	49473.95
717.186	49283
717.53	49405.48
717.873	49304.01
718.216	49299.95
718.559	49113.96
718.902	48716.91
719.246	48907.41
719.589	48671.71
719.932	48629.23
720.275	48652.73
720.617	48422
720.96	48469.23
721.303	48361.89
721.646	48340.2
721.989	48210.26
722.331	48345.4
722.674	48035.57
723.016	47890.04
723.359	47712.19
723.701	47808.69
724.044	47616.83
724.386	47445.53
724.729	47632.19
725.071	47312.65
725.413	47243.96
725.755	47198.53
726.097	47087.12
726.439	46819.11
726.782	46819.33
727.124	46874.02
727.465	46661.37
727.807	46722.61
728.149	46442.39
728.491	46456.18
728.833	46402.17
729.175	46104.1
729.516	45983.88
729.858	45999.47
730.199	46009.64
730.541	45857.55
730.882	45763.32
731.224	45902.97
731.565	45457.11
731.906	45629.53
732.248	45651
732.589	45323.1
732.93	45179.38
733.271	45185.48
733.612	45177.12
733.953	45116.1
734.294	44822.32
734.635	44731.25
734.976	44842.21
735.317	44661.42
735.658	44627.08
735.999	44499.62
736.339	44262.79
736.68	44493.07
737.021	44426.4
737.361	44173.3
737.702	44318.83
738.042	44008.11
738.383	44084.49
738.723	44159.29
739.063	43913.42
739.404	43957.71
739.744	43834.55
740.084	43642.02
740.424	43607.89
740.764	43635.46
741.104	43688.79
741.444	43405.41
741.784	43285.87
742.124	43360.89
742.464	43369.26
742.804	43272.99
743.143	43170.62
743.483	43317.73
743.823	43023.05
744.162	42919.32
744.502	43107.12
744.841	42828.25
745.181	43095.59
745.52	42829.83
745.86	42903.05
746.199	42669.16
746.538	42725.88
746.877	42653.57
747.216	42641.82
747.556	42630.07
747.895	42636.62
748.234	42479.56
748.573	42510.75
748.911	42444.53
749.25	42477.3
749.589	42301.49
749.928	42219.45
750.267	42291.09
750.605	42302.16
750.944	42030.08
751.283	41831.22
751.621	41853.36
751.96	41708.73
752.298	41831.67
752.636	41739.47
752.975	41540.38
753.313	41322.08
753.651	41547.16
753.989	41416.31
754.327	41200.72
754.666	41084.34
755.004	41171.35
755.342	41220.39
755.679	40908.75
756.017	40875.31
756.355	40932.26
756.693	40784.46
757.031	40927.74
757.368	40539.5
757.706	40564.81
758.044	40386.96
758.381	40396.23
758.719	40306.96
759.056	40350.13
759.394	40000.76
759.731	39934.32
760.068	39909.01
760.405	39765.96
760.743	39674.66
761.08	39650.71
761.417	39427.89
761.754	39295.46
762.091	39175.02
762.428	39070.61
762.765	38814.57
763.102	38959.2
763.438	38752.88
763.775	38529.38
764.112	38395.83
764.449	38505.2
764.785	38362.38
765.122	38001.71
765.458	37939.12
765.795	37650.08
766.131	37806.69
766.467	37536.87
766.804	37392.46
767.14	37338
767.476	37229.3
767.812	37061.85
768.148	36935.3
768.485	36801.52
768.821	36592.48
769.157	36507.97
769.492	36277.69
769.828	36161.99
770.164	35830.92
770.5	35705.05
770.836	35783.92
771.171	35587.31
771.507	35576.69
771.842	35162.47
772.178	35084.95
772.513	35030.94
772.849	34877.05
773.184	34547.34
773.519	34582.82
773.855	34441.58
774.19	34230.96
774.525	34072.32
774.86	34112.32
775.195	34056.28
775.53	33866.68
775.865	33543.3
776.2	33419.46
776.535	33163.65
776.87	33105.12
777.205	33017.66
777.539	32974.95
777.874	32949.64
778.209	32663.77
778.543	32449.77
778.878	32340.84
779.212	32184.46
779.547	32111.02
779.881	32198.7
780.215	31831.25
780.55	31916.67
780.884	31646.85
781.218	31665.83
781.552	31490.25
781.886	31330.02
782.22	31146.07
782.554	31145.62
782.888	30792.41
783.222	30808.68
783.556	30767.55
783.889	30656.14
784.223	30431.06
784.557	30182.71
784.89	30328.47
785.224	30177.74
785.557	29913.34
785.891	29870.85
786.224	29655.72
786.558	29771.65
786.891	29486
787.224	29426.8
787.557	29185.45
787.891	29266.12
788.224	29274.26
788.557	29236.75
788.89	28979.35
789.223	28956.53
789.556	28736.87
789.888	28709.98
790.221	28596.08
790.554	28408.52
790.887	28424.79
791.219	28203.78
791.552	28317.22
791.884	28071.13
792.217	28142.54
792.549	28005.37
792.882	27733.06
793.214	27739.61
793.546	27768.31
793.879	27564.25
794.211	27516.79
794.543	27589.11
794.875	27553.17
795.207	27595.43
795.539	27323.35
795.871	27308.89
796.203	27138.04
796.535	26949.8
796.867	27033.41
797.198	26951.61
797.53	26895.79
797.862	26762.01
798.193	26891.04
798.525	26619.87
798.856	26552.97
799.188	26388.23
799.519	26266.65
799.85	26148.01
800.182	26162.93
800.513	26212.42
800.844	25844.52
801.175	26048.81
801.506	26065.76
801.837	25961.58
802.168	25899.21
802.499	25709.15
802.83	25568.59
803.161	25474.81
803.491	25649.04
803.822	25490.63
804.153	25379.9
804.483	25210.41
804.814	25075.27
805.145	25227.13
805.475	25227.36
805.805	25061.26
806.136	24960.02
806.466	25087.93
806.796	24913.02
807.126	24781.27
807.457	24665.34
807.787	24813.36
808.117	24603.42
808.447	24390.09
808.777	24536.08
809.107	24340.15
809.436	24239.36
809.766	24206.82
810.096	24180.38
810.426	23941.07
810.755	24035.53
811.085	24042.98
811.414	23894.51
811.744	23631.7
812.073	23756.66
812.403	23616.1
812.732	23466.28
813.061	23403.68
813.39	23333.62
813.719	23356.9
814.049	23216.11
814.378	23258.82
814.707	23152.39
815.036	23221.76
815.365	23031.03
815.693	22853.64
816.022	22809.12
816.351	22701.1
816.68	22595.34
817.008	22757.14
817.337	22442.57
817.665	22399.86
817.994	22439.64
818.322	22484.83
818.651	22357.83
818.979	22162.36
819.307	22315.12
819.636	22098.4
819.964	21857.05
820.292	22012.98
820.62	21952.42
820.948	21879.2
821.276	21995.81
821.604	21932.76
821.932	21878.52
822.259	21846.43
822.587	21732.76
822.915	21685.76
823.243	21797.39
823.57	21559.21
823.898	21714.46
824.225	21587.23
824.553	21552.88
824.88	21578.87
825.207	21728.47
825.535	21560.34
825.862	21524.86
826.189	21531.41
826.516	21739.77
826.843	21778.41
827.17	21740.67
827.497	21598.75
827.824	21595.36
828.151	21584.07
828.478	21496.84
828.805	21609.15
829.131	21524.18
829.458	21423.84
829.785	21356.5
830.111	21355.6
830.438	21441.02
830.764	21342.26
831.09	21441.92
831.417	21318.31
831.743	21412.77
832.069	21311.98
832.395	21202.83
832.722	21399.89
833.048	21158.09
833.374	21345.88
833.7	21117.18
834.026	21137.07
834.351	21196.28
834.677	21145.21
835.003	21144.75
835.329	21167.58
835.654	21095.72
835.98	20942.95
836.306	20982.27
836.631	20933.91
836.956	21072.44
837.282	20919.22
837.607	20932.33
837.932	20765.33
838.258	20803.52
838.583	20795.16
838.908	20776.85
839.233	20759.45
839.558	20606.69
839.883	20529.86
840.208	20504.09
840.533	20505.45
840.858	20667.25
841.182	20543.41
841.507	20384.1
841.832	20333.93
842.156	20319.01
842.481	20273.14
842.805	20212.12
843.13	20185.91
843.454	20347.94
843.778	20086.25
844.103	20094.61
844.427	20091.45
844.751	20026.37
845.075	19978.01
845.399	19983.66
845.723	19842.87
846.047	19934.17
846.371	19747.96
846.695	19739.14
847.019	19513.39
847.343	19390.22
847.666	19371.24
847.99	19304.35
848.313	19253.73
848.637	19221.42
848.96	19201.53
849.284	19132.38
849.607	18944.36
849.931	18890.12
850.254	18820.07
850.577	18785.72
850.9	18685.38
851.223	18603.8
851.546	18522.22
851.869	18439.97
852.192	18517.48
852.515	18350.93
852.838	18247.66
853.161	18270.71
853.483	18167.88
853.806	18087.89
854.129	18017.15
854.451	18001.56
854.774	18022.58
855.096	17750.27
855.419	17868.46
855.741	17911.62
856.063	17672.08
856.385	17704.17
856.708	17675.92
857.03	17689.48
857.352	17672.3
857.674	17639.31
857.996	17615.81
858.318	17469.6
858.64	17438.64
858.961	17375.36
859.283	17345.08
859.605	17382.59
859.926	17391.41
860.248	17236.16
860.57	17220.34
860.891	17210.17
861.212	17110.51
861.534	17009.72
861.855	17006.78
862.176	16997.75
862.498	16937.18
862.819	17016.73
863.14	16965.43
863.461	16887.01
863.782	16818.31
864.103	16740.58
864.424	16730.18
864.745	16748.03
865.065	16668.49
865.386	16687.7
865.707	16670.3
866.027	16642.73
866.348	16566.57
866.668	16574.48
866.989	16613.12
867.309	16403.18
867.63	16318.67
867.95	16273.92
868.27	16217.43
868.59	16320.47
868.91	16291.55
869.23	16208.16
869.55	16197.31
869.87	16239.57
870.19	16122.74
870.51	16151.44
870.83	16141.04
871.15	16040.48
871.469	16004.55
871.789	16035.96
872.109	16031.89
872.428	15975.17
872.748	15921.84
873.067	15986.02
873.386	15863.99
873.706	15784.9
874.025	15776.08
874.344	15682.98
874.663	15640.27
874.982	15660.83
875.301	15558.91
875.62	15445.02
875.939	15530.89
876.258	15431.68
876.577	15461.06
876.896	15536.77
877.214	15330.67
877.533	15362.99
877.852	15339.71
878.17	15299.48
878.489	15265.14
878.807	15239.15
879.125	15241.18
879.444	15149.88
879.762	15038.47
880.08	15047.06
880.398	14995.31
880.716	15037.34
881.034	14965.26
881.352	14887.97
881.67	14905.37
881.988	14812.27
882.306	14623.12
882.624	14737.24
882.941	14621.76
883.259	14607.3
883.577	14586.51
883.894	14528.43
884.212	14519.17
884.529	14443.01
884.846	14355.33
885.164	14363.92
885.481	14320.3
885.798	14330.7
886.115	14288.89
886.432	14225.16
886.75	14143.81
887.067	14144.03
887.383	14071.95
887.7	14107.43
888.017	14043.02
888.334	13989.91
888.651	13904.72
888.967	13885.96
889.284	13837.83
889.6	13755.57
889.917	13643.26
890.233	13685.52
890.55	13673.99
890.866	13684.84
891.182	13556.71
891.498	13524.39
891.815	13456.37
892.131	13397.39
892.447	13358.52
892.763	13287.56
893.079	13152.65
893.395	13231.52
893.71	13193.1
894.026	13217.05
894.342	13119.66
894.657	13085.53
894.973	13037.17
895.289	13063.39
895.604	12950.39
895.92	12935.48
896.235	12852.32
896.55	12848.93
896.865	12882.83
897.181	12735.48
897.496	12747.46
897.811	12662.27
898.126	12580.01
898.441	12588.14
898.756	12464.98
899.071	12516.06
899.386	12474.7
899.7	12389.5
900.015	12325.78
900.33	12182.28
900.644	12212.56
900.959	12296.4
901.273	12180.24
901.588	12092.34
901.902	12045.33
902.216	12106.57
902.531	12037.65
902.845	11983.87
903.159	11910.65
903.473	11898.22
903.787	11778.45
904.101	11746.81
904.415	11802.85
904.729	11784.1
905.042	11664.33
905.356	11624.33
905.67	11589.98
905.984	11597.21
906.297	11516.53
906.611	11432.02
906.924	11469.98
907.237	11444.67
907.551	11345.92
907.864	11323.09
908.177	11192.25
908.491	11248.97
908.804	11193.15
909.117	11151.35
909.43	11144.57
909.743	11125.58
910.056	11133.49
910.368	10977.56
910.681	10948.64
910.994	10925.59
911.307	10957
911.619	10855.99
911.932	10844.23
912.244	10751.81
912.557	10880.84
912.869	10715.42
913.181	10726.72
913.494	10733.5
913.806	10660.74
914.118	10568.31
914.43	10564.02
914.742	10574.64
915.054	10484.92
915.366	10458.26
915.678	10450.57
915.99	10461.42
916.302	10337.36
916.613	10316.79
916.925	10258.04
917.236	10341.2
917.548	10207.87
917.859	10250.13
918.171	10179.39
918.482	10161.54
918.794	10047.19
919.105	10021.88
919.416	9937.82
919.727	9972.17
920.038	9930.36
920.349	9943.24
920.66	9825.28
920.971	9822.79
921.282	9790.93
921.593	9744.6
921.903	9751.83
922.214	9690.59
922.525	9630.71
922.835	9580.31
923.146	9536.7
923.456	9546.87
923.767	9450.15
924.077	9490.15
924.387	9334.44
924.697	9350.94
925.008	9269.81
925.318	9228.46
925.628	9309.59
925.938	9230.72
926.248	9092.19
926.558	9064.17
926.867	9071.17
927.177	8986.88
927.487	8967.45
927.796	8918.64
928.106	8920.9
928.416	8858.75
928.725	8808.36
929.034	8797.06
929.344	8774.01
929.653	8755.25
929.962	8654.46
930.271	8613.78
930.581	8567.91
930.89	8497.4
931.199	8497.86
931.508	8459.66
931.817	8442.04
932.125	8398.2
932.434	8361.59
932.743	8289.27
933.051	8222.38
933.36	8247.01
933.669	8153.01
933.977	8157.07
934.286	8108.71
934.594	8055.61
934.902	7987.59
935.21	7938.1
935.519	7980.36
935.827	7874.6
936.135	7820.13
936.443	7819.68
936.751	7806.57
937.059	7785.78
937.367	7704.88
937.674	7816.07
937.982	7725.22
938.29	7635.28
938.597	7584.66
938.905	7529.97
939.213	7521.61
939.52	7427.15
939.827	7535.17
940.135	7451.33
940.442	7369.07
940.749	7325.23
941.056	7337.21
941.363	7245.23
941.67	7200.71
941.977	7176.53
942.284	7123.2
942.591	7092.69
942.898	7051.57
943.205	7082.98
943.511	6999.82
943.818	7019.48
944.125	6976.09
944.431	6942.64
944.738	6935.86
945.044	6871.68
945.35	6798.01
945.657	6747.85
945.963	6728.64
946.269	6680.73
946.575	6734.06
946.881	6642.31
947.187	6546.04
947.493	6590.34
947.799	6557.34
948.105	6478.93
948.41	6438.93
948.716	6465.59
949.022	6407.97
949.327	6391.24
949.633	6329.1
949.938	6293.62
950.244	6259.5
950.549	6189.67
950.854	6192.61
951.16	6138.37
951.465	6079.84
951.77	6111.48
952.075	6096.56
952.38	6007.98
952.685	6034.42
952.99	5944.48
953.294	5949.9
953.599	5914.87
953.904	5892.27
954.209	5776.12
954.513	5805.5
954.818	5776.8
955.122	5768.89
955.426	5700.19
955.731	5674.43
956.035	5635.78
956.339	5650.02
956.643	5575.45
956.948	5604.6
957.252	5529.57
957.556	5491.61
957.86	5527.09
958.163	5474.66
958.467	5377.71
958.771	5433.76
959.075	5426.75
959.378	5356.47
959.682	5370.03
959.985	5327.09
960.289	5292.29
960.592	5248.9
960.896	5229.47
961.199	5218.39
961.502	5207.32
961.805	5160.09
962.108	5103.14
962.411	5075.35
962.714	5053.65
963.017	5008.23
963.32	5064.27
963.623	5010.49
963.926	5011.17
964.228	5012.07
964.531	4966.88
964.833	4931.62
965.136	4886.65
965.438	4893.2
965.741	4871.28
966.043	4842.81
966.345	4805.3
966.648	4775.24
966.95	4791.29
967.252	4760.1
967.554	4761.46
967.856	4676.71
968.158	4680.1
968.46	4652.76
968.761	4632.65
969.063	4649.37
969.365	4577.73
969.666	4602.82
969.968	4521.24
970.269	4530.28
970.571	4523.04
970.872	4492.31
971.174	4482.37
971.475	4435.14
971.776	4428.13
972.077	4412.99
972.378	4394.69
972.679	4383.16
972.98	4354.46
973.281	4353.56
973.582	4335.25
973.883	4322.6
974.183	4299.77
974.484	4278.53
974.785	4269.72
975.085	4281.7
975.386	4211.19
975.686	4213.67
975.986	4189.72
976.287	4154.02
976.587	4180.91
976.887	4115.6
977.187	4104.07
977.487	4129.61
977.787	4074.02
978.087	4085.99
978.387	4070.4
978.687	4051.64
978.987	4014.58
979.286	4010.97
979.586	4025.43
979.885	3986.34
980.185	3949.73
980.484	3967.13
980.784	3938.43
981.083	3941.37
981.382	3927.58
981.682	3898.65
981.981	3883.74
982.28	3824.98
982.579	3823.85
982.878	3907.47
983.177	3800.35
983.475	3827.24
983.774	3817.07
984.073	3773.23
984.372	3773.46
984.67	3792.44
984.969	3740.47
985.267	3785.44
985.566	3753.57
985.864	3683.29
986.162	3676.29
986.461	3603.3
986.759	3664.76
987.057	3617.98
987.355	3611.66
987.653	3617.76
987.951	3629.06
988.249	3566.91
988.547	3551.77
988.844	3531.66
989.142	3588.83
989.44	3547.7
989.737	3497.54
990.035	3501.6
990.332	3507.25
990.63	3510.87
990.927	3465.67
991.224	3440.14
991.521	3415.28
991.819	3452.79
992.116	3431.32
992.413	3385
992.71	3326.69
993.006	3325.34
993.303	3342.29
993.6	3341.83
993.897	3367.37
994.193	3327.37
994.49	3288.73
994.787	3247.37
995.083	3225.68
995.379	3210.54
995.676	3220.03
995.972	3214.83
996.268	3190.2
996.565	3166.47
996.861	3126.92
997.157	3181.61
997.453	3167.15
997.749	3084.89
998.044	3106.13
998.34	3103.42
998.636	3034.72
998.932	3034.04
999.227	3032.24
999.523	3014.38
999.818	2978.68
1000.114	2996.76
1000.409	2953.14
1000.704	2919.7
1001	2935.74
1001.295	2902.75
1001.59	2920.6
1001.885	2889.87
1002.18	2868.85
1002.475	2831.11
1002.77	2831.11
1003.065	2820.04
1003.359	2814.62
1003.654	2820.26
1003.949	2801.06
1004.243	2773.71
1004.538	2723.54
1004.832	2758.35
1005.127	2668.86
1005.421	2707.5
1005.715	2709.76
1006.009	2693.71
1006.304	2656.88
1006.598	2616.2
1006.892	2625.24
1007.186	2590.44
1007.48	2592.47
1007.773	2563.32
1008.067	2562.19
1008.361	2534.4
1008.655	2533.27
1008.948	2508.86
1009.242	2514.74
1009.535	2457.34
1009.829	2476.09
1010.122	2467.73
1010.415	2430.22
1010.708	2386.6
1011.001	2430.22
1011.295	2385.7
1011.588	2392.25
1011.881	2362.2
1012.173	2346.83
1012.466	2388.19
1012.759	2344.35
1013.052	2288.75
1013.344	2294.85
1013.637	2289.21
1013.93	2273.16
1014.222	2263.9
1014.514	2292.6
1014.807	2233.84
1015.099	2220.28
1015.391	2188.42
1015.683	2175.08
1015.976	2131.47
1016.268	2166.95
1016.56	2113.39
1016.851	2112.94
1017.143	2101.64
1017.435	2048.76
1017.727	2092.37
1018.018	2078.82
1018.31	2053.51
1018.602	2040.62
1018.893	2058.25
1019.185	1973.51
1019.476	2006.5
1019.767	2012.38
1020.058	1970.57
1020.35	1922.44
1020.641	1912.94
1020.932	1931.47
1021.223	1886.5
1021.514	1886.28
1021.804	1874.08
1022.095	1848.09
1022.386	1845.15
1022.677	1841.53
1022.967	1831.59
1023.258	1786.17
1023.548	1778.71
1023.839	1768.99
1024.129	1754.76
1024.419	1739.39
1024.709	1733.51
1025	1720.41
1025.29	1719.05
1025.58	1693.51
1025.87	1664.81
1026.16	1673.85
1026.449	1663.01
1026.739	1650.58
1027.029	1623.01
1027.319	1610.13
1027.608	1609.22
1027.898	1595.44
1028.187	1562.9
1028.477	1595.44
1028.766	1542.11
1029.055	1521.32
1029.344	1493.97
1029.634	1494.88
1029.923	1499.17
1030.212	1516.12
1030.501	1503.01
1030.79	1463.46
1031.078	1447.87
1031.367	1442.22
1031.656	1421.43
1031.945	1387.76
1032.233	1386.63
1032.522	1415.1
1032.81	1394.54
1033.099	1357.93
1033.387	1410.36
1033.675	1354.99
1033.963	1346.18
1034.251	1336.46
1034.54	1330.81
1034.828	1309.12
1035.116	1282.23
1035.403	1287.65
1035.691	1288.33
1035.979	1282.9
1036.267	1253.75
1036.554	1245.62
1036.842	1268.67
1037.129	1226.63
1037.417	1222.11
1037.704	1225.05
1037.992	1216.69
1038.279	1215.79
1038.566	1191.83
1038.853	1191.83
1039.14	1191.83
