Data from white_steel_sheet_FLMS001491_039.txt Node
Date: Tue Feb 07 10:57:46 GMT 2017
User: dcchb
Spectrometer: FLMS00149
Trigger mode: 0
Integration Time (sec): 2.000000E-2
Scans to average: 10
Electric dark correction enabled: true
Nonlinearity correction enabled: false
Boxcar width: 0
XAxis mode: Wavelengths
Number of Pixels in Spectrum: 2048
>>>>>Begin Spectral Data<<<<<
341.393	-9.49
341.776	-9.49
342.16	-9.49
342.543	-52.2
342.927	-49.94
343.31	-71.41
343.693	-83.39
344.077	-64.63
344.46	-36.38
344.843	-48.59
345.226	-41.13
345.61	-37.06
345.993	-25.99
346.376	-13.33
346.759	4.07
347.142	20.34
347.525	49.26
347.908	46.33
348.291	79.09
348.674	98.53
349.057	124.29
349.44	131.97
349.823	126.32
350.206	166.32
350.588	207.45
350.971	222.59
351.354	242.48
351.737	240.9
352.119	259.88
352.502	272.31
352.884	288.13
353.267	279.31
353.65	290.16
354.032	308.47
354.414	320.9
354.797	306.21
355.179	313.21
355.562	336.04
355.944	333.32
356.326	347.79
356.709	334.91
357.091	343.49
357.473	351.4
357.855	332.65
358.238	359.99
358.62	357.5
359.002	359.76
359.384	336.26
359.766	340.1
360.148	358.41
360.53	334.23
360.912	324.51
361.294	359.99
361.676	349.37
362.057	331.97
362.439	331.74
362.821	332.19
363.203	356.37
363.584	319.31
363.966	344.62
364.348	340.78
364.729	338.3
365.111	320.22
365.493	341.01
365.874	317.28
366.256	331.29
366.637	337.84
367.019	343.27
367.4	338.97
367.781	335.58
368.163	325.19
368.544	323.61
368.925	334.68
369.306	344.62
369.688	322.48
370.069	328.35
370.45	327.45
370.831	308.01
371.212	313.21
371.593	317.73
371.974	335.13
372.355	329.26
372.736	336.94
373.117	325.87
373.498	307.34
373.879	343.27
374.26	319.77
374.641	328.8
375.021	316.83
375.402	347.34
375.783	310.95
376.163	340.78
376.544	348.47
376.925	343.04
377.305	338.07
377.686	355.24
378.066	350.5
378.447	359.76
378.827	355.24
379.208	348.92
379.588	340.1
379.968	361.8
380.349	338.97
380.729	359.99
381.109	359.54
381.489	361.35
381.87	363.15
382.25	372.87
382.63	353.66
383.01	370.39
383.39	377.62
383.77	364.74
384.15	360.44
384.53	383.27
384.91	367.22
385.29	376.04
385.67	376.94
386.049	376.49
386.429	383.04
386.809	399.09
387.189	377.84
387.568	394.34
387.948	416.94
388.328	403.38
388.707	410.38
389.087	405.87
389.466	423.49
389.846	429.14
390.225	414.9
390.605	410.61
390.984	418.07
391.363	414.45
391.743	456.26
392.122	428.69
392.501	435.69
392.881	433.66
393.26	447.67
393.639	462.59
394.018	441.12
394.397	465.75
394.776	465.3
395.155	470.5
395.534	462.81
395.913	500.78
396.292	493.32
396.671	492.87
397.05	505.52
397.429	491.06
397.808	514.11
398.186	501.91
398.565	509.37
398.944	530.38
399.323	529.93
399.701	542.36
400.08	553.66
400.458	551.17
400.837	542.36
401.215	551.85
401.594	582.58
401.972	570.15
402.351	561.12
402.729	607.89
403.107	597.95
403.486	592.07
403.864	614.45
404.242	649.7
404.62	637.05
404.999	618.06
405.377	647.89
405.755	652.64
406.133	678.4
406.511	678.4
406.889	679.98
407.267	712.75
407.645	694.22
408.023	731.73
408.401	735.12
408.779	752.97
409.156	733.09
409.534	752.07
409.912	747.78
410.29	784.84
410.667	793.43
411.045	824.39
411.422	798.85
411.8	819.64
412.178	833.65
412.555	834.55
412.933	867.1
413.31	889.92
413.687	915.68
414.065	918.17
414.442	916.36
414.819	924.95
415.197	923.14
415.574	942.8
415.951	936.47
416.328	953.42
416.705	972.86
417.082	978.05
417.46	1004.72
417.837	1006.75
418.214	1002.23
418.591	1017.15
418.967	1019.41
419.344	1033.42
419.721	1068.45
420.098	1075.68
420.475	1051.5
420.852	1088.78
421.228	1078.84
421.605	1100.31
421.982	1122.46
422.358	1106.41
422.735	1143.25
423.111	1124.72
423.488	1165.62
423.864	1164.49
424.241	1202
424.617	1199.06
424.994	1207.88
425.37	1243.36
425.746	1241.78
426.123	1236.58
426.499	1257.59
426.875	1272.06
427.251	1284.49
427.627	1325.61
428.003	1325.84
428.379	1344.37
428.756	1373.07
429.132	1390.25
429.507	1385.27
429.883	1414.65
430.259	1427.99
430.635	1416.46
431.011	1461.2
431.387	1463.01
431.763	1511.37
432.138	1520.86
432.514	1560.18
432.89	1573.74
433.265	1595.89
433.641	1620.07
434.016	1610.13
434.392	1644.48
434.767	1672.95
435.143	1678.15
435.518	1710.69
435.894	1722.67
436.269	1740.97
436.644	1743.01
437.02	1792.5
437.395	1817.13
437.77	1807.18
438.145	1851.7
438.52	1861.42
438.895	1875.2
439.271	1903.23
439.646	1919.72
440.021	1928.99
440.395	1968.31
440.77	1943.45
441.145	1951.14
441.52	2010.34
441.895	1977.58
442.27	2005.6
442.645	2022.77
443.019	2050.57
443.394	2045.37
443.769	2133.5
444.143	2079.95
444.518	2121.53
444.892	2139.83
445.267	2163.78
445.641	2167.4
446.016	2168.08
446.39	2209.66
446.764	2220.05
447.139	2207.63
447.513	2270.67
447.887	2245.82
448.262	2270.67
448.636	2288.3
449.01	2319.71
449.384	2331.69
449.758	2376.89
450.132	2400.16
450.506	2371.24
450.88	2420.05
451.254	2433.16
451.628	2408.07
452.002	2469.54
452.376	2511.57
452.75	2514.51
453.123	2531.46
453.497	2608.52
453.871	2616.65
454.244	2668.18
454.618	2684.9
454.992	2724.22
455.365	2713.37
455.739	2753.83
456.112	2814.39
456.486	2821.85
456.859	2859.59
457.232	2919.92
457.606	2904.78
457.979	2971.67
458.352	3023.2
458.725	3049.19
459.099	3086.7
459.472	3153.82
459.845	3143.19
460.218	3155.4
460.591	3177.09
460.964	3223.19
461.337	3308.84
461.71	3352.45
462.083	3398.33
462.456	3360.59
462.829	3429.97
463.201	3524.43
463.574	3501.83
463.947	3552.22
464.32	3610.07
464.692	3620.7
465.065	3687.13
465.438	3743.86
465.81	3761.93
466.183	3783.86
466.555	3878.09
466.928	3938.65
467.3	3891.2
467.672	3986.34
468.045	4060.46
468.417	4089.84
468.789	4175.03
469.161	4165.77
469.534	4245.54
469.906	4351.52
470.278	4377.96
470.65	4474.68
471.022	4523.95
471.394	4601.01
471.766	4637.39
472.138	4632.42
472.51	4743.6
472.882	4840.1
473.253	4876.93
473.625	4970.26
473.997	5088.91
474.369	5093.2
474.74	5165.06
475.112	5250.48
475.484	5322.12
475.855	5422
476.227	5427.88
476.598	5618.16
476.97	5667.42
477.341	5781.54
477.713	5824.25
478.084	5862.22
478.455	6005.49
478.827	6139.5
479.198	6309.66
479.569	6317.35
479.94	6490.68
480.311	6440.96
480.682	6666.72
481.053	6809.54
481.424	6904.23
481.795	7004.79
482.166	7108.74
482.537	7168.4
482.908	7320.94
483.279	7456.75
483.65	7548.05
484.021	7705.33
484.391	7841.83
484.762	7859.68
485.133	7913.92
485.503	8080.01
485.874	8280.01
486.244	8331.98
486.615	8517.97
486.985	8622.82
487.356	8715.25
487.726	8814.68
488.097	9042.02
488.467	8995.7
488.837	9264.84
489.207	9325.18
489.578	9504.38
489.948	9550.94
490.318	9704.15
490.688	9679.52
491.058	9971.94
491.428	9993.86
491.798	10043.58
492.168	10270.24
492.538	10360.86
492.908	10480.85
493.278	10620.96
493.648	10628.87
494.017	10800.62
494.387	10850.79
494.757	10984.57
495.126	11046.72
495.496	11178.01
495.866	11265.92
496.235	11408.29
496.605	11451.22
496.974	11545.01
497.344	11640.6
497.713	11678.56
498.082	11831.55
498.452	11956.97
498.821	12041.94
499.19	12046.01
499.559	12197.19
499.928	12393.12
500.298	12425.44
500.667	12569.61
501.036	12459.11
501.405	12682.6
501.774	12666.33
502.143	12789.04
502.512	12888.02
502.88	12987.68
503.249	13087.34
503.618	13146.77
503.987	13213.44
504.356	13406.65
504.724	13462.47
505.093	13524.84
505.462	13528.68
505.83	13643.94
506.199	13839.18
506.567	13985.62
506.936	13931.39
507.304	14133.64
507.672	14193.3
508.041	14314.65
508.409	14448.21
508.777	14578.6
509.145	14634.64
509.514	14686.62
509.882	14796
510.25	14876.9
510.618	15040.73
510.986	14991.7
511.354	15190.11
511.722	15274.85
512.09	15513.49
512.458	15479.59
512.826	15619.7
513.193	15711.68
513.561	15775.86
513.929	16008.39
514.297	16120.03
514.664	16191.66
515.032	16312.79
515.4	16440.92
515.767	16469.4
516.135	16650.41
516.502	16649.05
516.869	16927.69
517.237	17006.11
517.604	17085.88
517.972	17341.92
518.339	17353.67
518.706	17392.76
519.073	17433.67
519.44	17762.7
519.808	17832.3
520.175	17851.96
520.542	18172.4
520.909	18188.45
521.276	18277.71
521.643	18556.12
522.009	18653.52
522.376	18746.85
522.743	18854.65
523.11	19062.32
523.477	19263.22
523.843	19329.44
524.21	19568.3
524.577	19681.52
524.943	19787.05
525.31	19939.81
525.676	20191.33
526.043	20218.9
526.409	20516.52
526.776	20630.87
527.142	20710.87
527.508	20882.61
527.874	21012.55
528.241	21093.46
528.607	21112.89
528.973	21420.45
529.339	21338.2
529.705	21617.96
530.071	21838.07
530.437	21905.41
530.803	22092.75
531.169	22200.77
531.535	22193.09
531.901	22292.07
532.267	22442.12
532.632	22708.33
532.998	22702.45
533.364	22819.29
533.73	22906.06
534.095	23157.13
534.461	23152.84
534.826	23273.29
535.192	23389.89
535.557	23581.3
535.923	23492.94
536.288	23649.32
536.653	23823.33
537.019	23764.57
537.384	23940.84
537.749	24081.85
538.114	24086.6
538.479	24276.88
538.845	24235.07
539.21	24306.48
539.575	24497.21
539.94	24573.82
540.305	24645.68
540.67	24762.74
541.034	24943.52
541.399	25037.31
541.764	24990.3
542.129	25193.46
542.494	25180.81
542.858	25201.82
543.223	25389.16
543.587	25510.29
543.952	25560.91
544.316	25692.43
544.681	25566.56
545.045	25807.68
545.41	26044.96
545.774	25923.84
546.138	26046.55
546.503	26172.65
546.867	26185.53
547.231	26409.93
547.595	26551.39
547.959	26469.13
548.324	26615.12
548.688	26699.18
549.052	26722.91
549.416	26739.86
549.779	26880.88
550.143	26892.85
550.507	27193.18
550.871	27276.12
551.235	27229.11
551.599	27387.75
551.962	27502.33
552.326	27431.6
552.689	27726.95
553.053	27616
553.417	27760.17
553.78	28070
554.143	27921.3
554.507	28104.35
554.87	28255.98
555.234	28572.81
555.597	28426.82
555.96	28492.13
556.323	28617.55
556.686	28754.05
557.05	28936.87
557.413	29094.38
557.776	29108.84
558.139	29308.61
558.502	29342.96
558.865	29477.87
559.228	29601.48
559.59	29668.6
559.953	29825.88
560.316	30140.22
560.679	30205.99
561.041	30351.07
561.404	30534.79
561.767	30647.78
562.129	30638.06
562.492	30914.22
562.854	30872.18
563.217	31070.6
563.579	31096.81
563.941	31229.24
564.304	31416.58
564.666	31631.26
565.028	31728.88
565.39	31632.61
565.753	31822.44
566.115	32030.57
566.477	32158.25
566.839	32225.82
567.201	32435.76
567.563	32414.74
567.925	32651.8
568.287	32736.77
568.648	32774.28
569.01	32963.2
569.372	32928.4
569.734	33047.04
570.095	33281.38
570.457	33435.73
570.819	33405.9
571.18	33506.46
571.542	33645.22
571.903	33758.21
572.265	33860.58
572.626	33975.83
572.987	33994.36
573.349	34056.05
573.71	34338.98
574.071	34181.02
574.432	34371.53
574.794	34501.47
575.155	34525.87
575.516	34637.51
575.877	34706.21
576.238	34843.38
576.599	34887.44
576.96	34903.04
577.32	34875.92
577.681	35071.39
578.042	35145.74
578.403	35092.18
578.763	35124.5
579.124	35251.95
579.485	35266.19
579.845	35228.23
580.206	35079.98
580.566	35338.05
580.927	35360.2
581.287	35592.06
581.648	35339.86
582.008	35505.06
582.368	35466.64
582.728	35586.63
583.089	35467.54
583.449	35418.5
583.809	35503.7
584.169	35577.14
584.529	35629.35
584.889	35824.37
585.249	35519.52
585.609	35496.02
585.969	35676.8
586.329	35535.11
586.688	35580.31
587.048	35604.94
587.408	35677.71
587.768	35625.96
588.127	35547.31
588.487	35538.95
588.846	35731.94
589.206	35613.53
589.565	35594.09
589.925	35747.53
590.284	35647.2
590.643	35649.68
591.003	35737.82
591.362	35764.26
591.721	35766.07
592.08	35786.86
592.44	35855.55
592.799	35637.26
593.158	35679.29
593.517	35797.02
593.876	35717.7
594.235	35733.52
594.593	35797.7
594.952	35767.2
595.311	35647.65
595.67	35789.34
596.029	35922.45
596.387	35997.7
596.746	35950.47
597.104	35805.39
597.463	35692.62
597.822	35979.84
598.18	35743.92
598.538	35806.97
598.897	35903.46
599.255	35671.38
599.613	36211.25
599.972	36013.74
600.33	36112.95
600.688	36003.12
601.046	35957.02
601.404	36066.62
601.762	36112.04
602.12	36310.01
602.478	36218.03
602.836	36038.6
603.194	35989.11
603.552	36225.71
603.91	36006.06
604.268	36142.1
604.625	36160.18
604.983	36287.41
605.341	35983.69
605.698	36241.76
606.056	36379.61
606.413	36210.12
606.771	36374.18
607.128	36425.03
607.485	36326.95
607.843	36215.54
608.2	36478.14
608.557	36552.49
608.914	36479.27
609.272	36586.38
609.629	36700.96
609.986	36764.68
610.343	36582.54
610.7	36690.79
611.057	36722.65
611.414	36787.28
611.771	36798.58
612.127	36866.15
612.484	36951.8
612.841	36961.51
613.198	36798.81
613.554	36858.01
613.911	37071.12
614.267	37061.17
614.624	37173.71
614.98	37139.59
615.337	37318.57
615.693	37264.56
616.05	37212.81
616.406	37432.24
616.762	37256.65
617.118	37150.89
617.475	37328.06
617.831	37471.78
618.187	37474.04
618.543	37380.49
618.899	37601.27
619.255	37555.17
619.611	37570.31
619.967	37725.34
620.323	37784.32
620.678	37520.6
621.034	37582.74
621.39	37521.5
621.746	37468.62
622.101	38016.4
622.457	37508.84
622.812	37616.86
623.168	37821.6
623.523	37843.98
623.879	37846.69
624.234	37681.5
624.589	37717.2
624.945	37781.15
625.3	37874.94
625.655	37738.67
626.01	37770.31
626.365	37813.24
626.72	37642.63
627.075	37729.86
627.43	37719.69
627.785	37697.77
628.14	37749.97
628.495	37854.82
628.85	37706.35
629.205	37643.53
629.559	37862.96
629.914	37621.38
630.269	37679.01
630.623	37518.56
630.978	37516.3
631.332	37651.67
631.687	37759.69
632.041	37444.44
632.396	37529.18
632.75	37340.49
633.104	37443.08
633.459	37299.58
633.813	37331.9
634.167	37305.01
634.521	37213.71
634.875	37132.36
635.229	37290.32
635.583	36988.86
635.937	36982.3
636.291	36932.81
636.645	37022.3
636.999	36921.29
637.352	36919.26
637.706	36887.17
638.06	36918.13
638.413	36818.01
638.767	36827.28
639.121	36825.02
639.474	36526.72
639.828	36479.04
640.181	36460.06
640.534	36516.78
640.888	36287.41
641.241	36159.95
641.594	36316.33
641.947	36354.52
642.301	36255.77
642.654	36313.4
643.007	36161.99
643.36	35997.02
643.713	36051.48
644.066	36311.81
644.419	35929.45
644.771	35770.36
645.124	35383.93
645.477	35419.18
645.83	35033.66
646.182	35011.51
646.535	34794.79
646.888	35044.05
647.24	34833.21
647.593	34960.21
647.945	34948.46
648.298	34757.05
648.65	34560
649.002	34655.36
649.355	34745.08
649.707	34586.44
650.059	34866.88
650.411	35058.29
650.763	35233.42
651.115	35516.13
651.467	35439.29
651.819	35328.56
652.171	35198.85
652.523	35277.72
652.875	35228
653.227	35105.52
653.578	35230.71
653.93	35150.26
654.282	35117.04
654.633	34882.25
654.985	35123.37
655.337	35066.65
655.688	35021.68
656.039	35114.33
656.391	34565.19
656.742	34880.21
657.094	34795.24
657.445	34863.49
657.796	34857.84
658.147	34936.93
658.498	34757.73
658.849	34815.58
659.2	34647.22
659.551	34549.37
659.902	34640.45
660.253	34689.94
660.604	34567
660.955	34361.36
661.306	34501.69
661.656	34453.33
662.007	34415.14
662.358	34306.44
662.708	34269.61
663.059	34259.21
663.409	34011.54
663.76	34273.45
664.11	34200.91
664.461	34187.12
664.811	34147.8
665.161	34141.93
665.511	33922.5
665.862	33868.26
666.212	33905.55
666.562	33864.19
666.912	33807.02
667.262	33503.75
667.612	33675.72
667.962	33625.56
668.312	33449.97
668.662	33480.48
669.011	33260.82
669.361	33264.89
669.711	33178.79
670.06	33039.13
670.41	32896.99
670.76	32828.06
671.109	32979.25
671.459	32817.89
671.808	32604.34
672.157	32788.06
672.507	32550.56
672.856	32548.07
673.205	32421.52
673.554	32587.84
673.904	32354.4
674.253	32499.03
674.602	32331.58
674.951	31878.48
675.3	31578.38
675.649	32248.87
675.998	32100.85
676.346	32176.78
676.695	32220.62
677.044	32005.71
677.393	31951.93
677.741	32125.93
678.09	31908.31
678.438	31923.68
678.787	31846.62
679.135	31886.17
679.484	31820.18
679.832	31967.07
680.181	31820.41
680.529	31816.34
680.877	31741.54
681.225	31731.37
681.573	32037.8
681.922	31762.1
682.27	31746.06
682.618	31834.64
682.966	31859.95
683.314	31811.14
683.661	31864.92
684.009	31662.44
684.357	31584.03
684.705	31654.53
685.053	31622.9
685.4	31703.35
685.748	31492.28
686.095	31572.73
686.443	31638.94
686.79	31531.83
687.138	31565.27
687.485	31658.6
687.832	31509.91
688.18	31707.87
688.527	31388.55
688.874	31492.51
689.221	31477.14
689.568	31366.63
689.915	31421.77
690.262	31346.75
690.609	31225.17
690.956	31300.87
691.303	31286.41
691.65	31095.23
691.997	31232.4
692.344	31074.21
692.69	31084.15
693.037	31075.79
693.383	30823.14
693.73	31033.31
694.077	30890.71
694.423	31051.16
694.769	30788.12
695.116	30726.2
695.462	30907.89
695.808	30739.76
696.155	30682.36
696.501	30602.81
696.847	30497.96
697.193	30416.15
697.539	30582.47
697.885	30250.73
698.231	30152.88
698.577	30125.99
698.923	30208.7
699.269	30091.64
699.614	29943.85
699.96	29895.49
700.306	30019.78
700.651	29777.07
700.997	29743.62
701.342	29519.45
701.688	29548.83
702.033	29477.42
702.379	29478.77
702.724	29419.79
703.069	29594.25
703.415	29106.58
703.76	29183.41
704.105	29203.75
704.45	29083.08
704.795	28962.4
705.14	28920.82
705.485	28740.49
705.83	28816.19
706.175	28827.72
706.52	28623.88
706.865	28544.11
707.209	28558.8
707.554	28459.36
707.899	28494.62
708.243	28430.44
708.588	28340.95
708.932	28219.37
709.277	28121.29
709.621	28191.35
709.966	27886.72
710.31	28203.78
710.654	27904.13
710.998	27909.1
711.342	27934.63
711.687	27877.69
712.031	27639.05
712.375	27621.87
712.719	27707.75
713.063	27589.33
713.407	27636.56
713.75	27428.88
714.094	27417.58
714.438	27438.37
714.782	27448.77
715.125	27201.09
715.469	27306.63
715.812	27004.04
716.156	26962
716.499	27069.12
716.843	27005.84
717.186	26767.66
717.53	26862.12
717.873	26890.37
718.216	26778.73
718.559	26760.65
718.902	26583.93
719.246	26677.94
719.589	26551.39
719.932	26451.73
720.275	26373.54
720.617	26358.63
720.96	26396.82
721.303	26448.12
721.646	26341.91
721.989	26136.94
722.331	26175.58
722.674	26127.67
723.016	26276.6
723.359	26117.28
723.701	26032.76
724.044	25887.91
724.386	25850.62
724.729	26140.78
725.071	25790.51
725.413	25746.44
725.755	25858.53
726.097	25727.46
726.439	25621.02
726.782	25672.55
727.124	25631.42
727.465	25525.88
727.807	25620.34
728.149	25461.25
728.491	25493.79
728.833	25375.6
729.175	25285.66
729.516	25283.4
729.858	25227.81
730.199	25202.95
730.541	25232.33
730.882	25098.55
731.224	25234.14
731.565	25094.48
731.906	25032.11
732.248	24956.18
732.589	24898.55
732.93	24782.4
733.271	24745.34
733.612	24838.89
733.953	24877.76
734.294	24817.65
734.635	24700.14
734.976	24809.52
735.317	24605.68
735.658	24595.74
735.999	24541.28
736.339	24467.83
736.68	24541.5
737.021	24381.51
737.361	24326.59
737.702	24383.54
738.042	24289.08
738.383	24224.45
738.723	24341.05
739.063	24272.81
739.404	24266.48
739.744	24292.69
740.084	24106.26
740.424	24137.9
740.764	23934.06
741.104	24115.52
741.444	23965.02
741.784	23988.07
742.124	24028.75
742.464	23859.71
742.804	23924.34
743.143	23866.94
743.483	23849.99
743.823	23720.96
744.162	23794.63
744.502	23683.67
744.841	23602.32
745.181	23732.03
745.52	23506.05
745.86	23605.71
746.199	23529.32
746.538	23499.5
746.877	23434.41
747.216	23490.91
747.556	23353.74
747.895	23329.33
748.234	23183.8
748.573	23241.2
748.911	23254.76
749.25	23190.58
749.589	23040.3
749.928	23127.98
750.267	23081.43
750.605	23086.85
750.944	22894.54
751.283	22847.31
751.621	22963.01
751.96	22777.71
752.298	22756.69
752.636	22756.24
752.975	22568.9
753.313	22429.47
753.651	22670.36
753.989	22495
754.327	22533.64
754.666	22343.82
755.004	22350.37
755.342	22459.75
755.679	22155.12
756.017	22155.8
756.355	22201
756.693	22074
757.031	22124.39
757.368	21979.76
757.706	21949.03
758.044	21728.69
758.381	21921.91
758.719	21816.83
759.056	21734.12
759.394	21643.95
759.731	21620
760.068	21448.7
760.405	21356.73
760.743	21349.5
761.08	21471.98
761.417	21224.53
761.754	21243.96
762.091	21160.8
762.428	21095.49
762.765	20919.9
763.102	20973.69
763.438	20981.37
763.775	20845.33
764.112	20771.66
764.449	20811.43
764.785	20678.55
765.122	20579.12
765.458	20519.46
765.795	20478.56
766.131	20549.74
766.467	20313.14
766.804	20120.15
767.14	20171.45
767.476	20185.01
767.812	20109.53
768.148	20052.58
768.485	19890.32
768.821	19818.91
769.157	19824.34
769.492	19758.8
769.828	19789.99
770.164	19637.9
770.5	19535.76
770.836	19488.98
771.171	19401.07
771.507	19243.79
771.842	19163.79
772.178	19253.28
772.513	19168.76
772.849	19053.51
773.184	19026.17
773.519	19008.31
773.855	18894.64
774.19	18817.13
774.525	18696.46
774.86	18656.01
775.195	18637.02
775.53	18679.73
775.865	18494.43
776.2	18374.66
776.535	18352.51
776.87	18225.96
777.205	18169.92
777.539	18076.13
777.874	18117.26
778.209	17997.27
778.543	17890.6
778.878	17820.55
779.212	17872.75
779.547	17662.36
779.881	17656.03
780.215	17640.21
780.55	17504.4
780.884	17385.31
781.218	17394.57
781.552	17340.34
781.886	17264.63
782.22	17215.82
782.554	17236.83
782.888	17044.52
783.222	16877.52
783.556	16891.08
783.889	16865.55
784.223	16762.05
784.557	16791.42
784.89	16746
785.224	16618.55
785.557	16578.1
785.891	16510.53
786.224	16464.43
786.558	16463.97
786.891	16282.51
787.224	16248.16
787.557	16179.69
787.891	16193.7
788.224	16182.63
788.557	16108.73
788.89	16100.37
789.223	16105.79
789.556	15937.43
789.888	15897.89
790.221	15833.71
790.554	15667.16
790.887	15739.25
791.219	15679.59
791.552	15594.84
791.884	15504
792.217	15508.07
792.549	15422.19
792.882	15256.1
793.214	15228.53
793.546	15343.78
793.879	15236.89
794.211	15056.1
794.543	15122.09
794.875	15052.71
795.207	15061.52
795.539	14951.92
795.871	14831.25
796.203	14897.46
796.535	14763.45
796.867	14777.92
797.198	14579.5
797.53	14592.16
797.862	14609.33
798.193	14565.49
798.525	14442.56
798.856	14454.31
799.188	14378.15
799.519	14268.78
799.85	14192.17
800.182	14187.42
800.513	14309.45
800.844	14083.47
801.175	14075.79
801.506	14090.25
801.837	14092.96
802.168	14040.53
802.499	13938.16
802.83	13898.17
803.161	13864.95
803.491	13855.91
803.822	13873.53
804.153	13733.88
804.483	13672.18
804.814	13580.66
805.145	13584.28
805.475	13605.52
805.805	13535.46
806.136	13539.53
806.466	13529.81
806.796	13460.21
807.126	13400.33
807.457	13384.51
807.787	13363.72
808.117	13264.06
808.447	13243.49
808.777	13196.04
809.107	13266.09
809.436	13131.86
809.766	13003.27
810.096	13011.18
810.426	13030.39
810.755	12996.72
811.085	13042.59
811.414	13001.69
811.744	12873.56
812.073	12808.25
812.403	12774.35
812.732	12781.81
813.061	12799.66
813.39	12714.24
813.719	12643.51
814.049	12697.75
814.378	12604.41
814.707	12555.38
815.036	12564.87
815.365	12439.22
815.693	12319.22
816.022	12423.63
816.351	12387.24
816.68	12263.18
817.008	12294.59
817.337	12254.59
817.665	12221.83
817.994	12294.59
818.322	12181.6
818.651	12135.95
818.979	12059.57
819.307	12188.38
819.636	12046.24
819.964	12029.06
820.292	12024.99
820.62	11979.35
820.948	12047.59
821.276	12132.34
821.604	12047.59
821.932	12063.86
822.259	12025.45
822.587	11954.71
822.915	11914.94
823.243	12004.43
823.57	11973.92
823.898	11913.81
824.225	11936.18
824.553	11958.78
824.88	11936.18
825.207	11974.83
825.535	11925.34
825.862	11997.42
826.189	11917.43
826.516	12029.06
826.843	11948.39
827.17	12017.54
827.497	11980.48
827.824	12024.09
828.151	11998.78
828.478	11854.38
828.805	11858.22
829.131	11921.95
829.458	11948.84
829.785	11824.55
830.111	11913.59
830.438	11918.1
830.764	11850.76
831.09	11901.38
831.417	11858.67
831.743	11806.02
832.069	11841.72
832.395	11765.79
832.722	11823.87
833.048	11846.24
833.374	11808.96
833.7	11767.15
834.026	11783.42
834.351	11816.41
834.677	11768.05
835.003	11834.94
835.329	11798.33
835.654	11706.81
835.98	11735.28
836.306	11640.37
836.631	11574.84
836.956	11630.2
837.282	11649.64
837.607	11623.65
837.932	11515.63
838.258	11613.25
838.583	11559.24
838.908	11452.35
839.233	11491.22
839.558	11499.13
839.883	11436.76
840.208	11396.76
840.533	11411.9
840.858	11435.41
841.182	11394.5
841.507	11319.7
841.832	11355.18
842.156	11376.42
842.481	11314.5
842.805	11303.88
843.13	11167.84
843.454	11245.58
843.778	11175.3
844.103	11133.49
844.427	11116.77
844.751	11100.27
845.075	11136.2
845.399	11046.72
845.723	10935.98
846.047	10957
846.371	10904.57
846.695	10918.13
847.019	10762.88
847.343	10767.63
847.666	10755.88
847.99	10689.44
848.313	10675.88
848.637	10655.54
848.96	10502.1
849.284	10583.68
849.607	10529.21
849.931	10460.97
850.254	10465.49
850.577	10379.61
850.9	10296.9
851.223	10275.89
851.546	10235.21
851.869	10156.12
852.192	10223.01
852.515	10100.07
852.838	10094.42
853.161	10090.36
853.483	10058.27
853.806	10013.97
854.129	10012.62
854.451	9915.22
854.774	9932.39
855.096	9797.48
855.419	9784.15
855.741	9813.98
856.063	9739.18
856.385	9704.15
856.708	9671.84
857.03	9655.34
857.352	9695.34
857.674	9573.99
857.996	9598.84
858.318	9500.99
858.64	9486.98
858.961	9529.47
859.283	9482.24
859.605	9465.97
859.926	9495.57
860.248	9411.96
860.57	9355.01
860.891	9331.28
861.212	9324.95
861.534	9326.08
861.855	9287.67
862.176	9348.45
862.498	9211.51
862.819	9271.17
863.14	9226.88
863.461	9237.27
863.782	9182.81
864.103	9171.06
864.424	9105.07
864.745	9137.61
865.065	9089.03
865.386	9094.9
865.707	9034.11
866.027	9116.37
866.348	9054.45
866.668	9046.77
866.989	8950.27
867.309	8844.74
867.63	9000.22
867.95	8927
868.27	8870.05
868.59	8835.93
868.91	8923.38
869.23	8920.44
869.55	8853.78
869.87	8855.13
870.19	8855.36
870.51	8877.05
870.83	8846.55
871.15	8778.75
871.469	8850.61
871.789	8840.9
872.109	8803.16
872.428	8747.11
872.748	8822.82
873.067	8746.21
873.386	8681.58
873.706	8743.72
874.025	8682.48
874.344	8616.27
874.663	8710.28
874.982	8602.94
875.301	8600
875.62	8610.17
875.939	8537.18
876.258	8541.92
876.577	8556.39
876.896	8469.38
877.214	8447.69
877.533	8557.29
877.852	8503.28
878.17	8464.64
878.489	8480
878.807	8484.07
879.125	8431.87
879.444	8421.47
879.762	8475.26
880.08	8418.31
880.398	8327.01
880.716	8402.49
881.034	8289.95
881.352	8382.38
881.67	8218.54
881.988	8336.05
882.306	8236.62
882.624	8241.82
882.941	8194.81
883.259	8229.16
883.577	8104.19
883.894	8168.82
884.212	8135.15
884.529	8121.37
884.846	8147.58
885.164	8104.87
885.481	8014.7
885.798	8119.79
886.115	8018.09
886.432	8059.68
886.75	8050.18
887.067	7979
887.383	7921.6
887.7	7980.81
888.017	7959.11
888.334	7952.56
888.651	8009.28
888.967	7878.66
889.284	7817.87
889.6	7774.03
889.917	7748.72
890.233	7751.89
890.55	7736.97
890.866	7737.88
891.182	7717.76
891.498	7645.45
891.815	7674.37
892.131	7569.07
892.447	7626.47
892.763	7625.34
893.079	7585.79
893.395	7487.49
893.71	7521.16
894.026	7478
894.342	7472.12
894.657	7440.03
894.973	7448.84
895.289	7395.74
895.604	7358.45
895.92	7313.71
896.235	7280.26
896.55	7245.23
896.865	7334.27
897.181	7276.64
897.496	7245.46
897.811	7206.59
898.126	7166.59
898.441	7187.38
898.756	7086.14
899.071	7120.26
899.386	7095.41
899.7	7039.59
900.015	7069.64
900.33	7045.01
900.644	7000.27
900.959	6995.75
901.273	6979.7
901.588	6957.78
901.902	6888.63
902.216	6889.76
902.531	6923.89
902.845	6840.95
903.159	6792.82
903.473	6755.75
903.787	6769.31
904.101	6727.05
904.415	6663.1
904.729	6696.1
905.042	6591.69
905.356	6583.1
905.67	6578.58
905.984	6637.34
906.297	6551.01
906.611	6478.47
906.924	6487.51
907.237	6464.24
907.551	6407.52
907.864	6411.36
908.177	6391.47
908.491	6412.49
908.804	6433.28
909.117	6302.66
909.43	6283.22
909.743	6236.45
910.056	6273.06
910.368	6269.21
910.681	6213.4
910.994	6169.1
911.307	6134.98
911.619	6105.6
911.932	6088.2
912.244	6019.73
912.557	6093.85
912.869	6027.41
913.181	6030.58
913.494	6005.94
913.806	5891.6
914.118	5948.77
914.43	5869.22
914.742	5851.37
915.054	5826.29
915.366	5823.12
915.678	5804.82
915.99	5848.66
916.302	5768.89
916.613	5709.45
916.925	5688.21
917.236	5703.35
917.548	5696.12
917.859	5638.72
918.171	5653.64
918.482	5586.07
918.794	5612.06
919.105	5600.76
919.416	5512.62
919.727	5485.28
920.038	5481.44
920.349	5473.98
920.66	5435.11
920.971	5477.37
921.282	5409.8
921.593	5365.73
921.903	5350.82
922.214	5311.5
922.525	5278.51
922.835	5309.92
923.146	5300.2
923.456	5272.63
923.767	5209.35
924.077	5189.02
924.387	5172.52
924.697	5170.26
925.008	5162.35
925.318	5108.79
925.628	5088.68
925.938	5059.75
926.248	5055.46
926.558	4999.42
926.867	5037.61
927.177	4984.95
927.487	4968.91
927.796	4903.83
928.106	4935.92
928.416	4900.44
928.725	4888.91
929.034	4851.17
929.344	4860.44
929.653	4785.64
929.962	4786.77
930.271	4798.97
930.581	4767.11
930.89	4710.38
931.199	4717.84
931.508	4675.81
931.817	4656.6
932.125	4614.57
932.434	4607.11
932.743	4610.05
933.051	4571.63
933.36	4533.89
933.669	4547.68
933.977	4514.68
934.286	4503.16
934.594	4505.19
934.902	4456.15
935.21	4472.42
935.519	4456.83
935.827	4446.21
936.135	4339.55
936.443	4353.11
936.751	4405.53
937.059	4364.18
937.367	4308.59
937.674	4298.19
937.982	4283.5
938.29	4290.96
938.597	4280.11
938.905	4282.6
939.213	4267.91
939.52	4181.58
939.827	4219.1
940.135	4201.92
940.442	4160.34
940.749	4107.46
941.056	4118.31
941.363	4092.1
941.67	4081.47
941.977	4058.65
942.284	4060.46
942.591	4067.24
942.898	4006.22
943.205	4002.38
943.511	3965.09
943.818	3965.32
944.125	3904.76
944.431	3916.06
944.738	3930.97
945.044	3893.23
945.35	3871.08
945.657	3875.15
945.963	3868.82
946.269	3787.92
946.575	3830.63
946.881	3797.87
947.187	3784.31
947.493	3740.92
947.799	3759.9
948.105	3736.4
948.41	3677.42
948.716	3729.17
949.022	3642.84
949.327	3668.38
949.633	3643.75
949.938	3633.12
950.244	3624.31
950.549	3600.58
950.854	3597.19
951.16	3590.64
951.465	3556.06
951.77	3540.92
952.075	3552.22
952.38	3463.19
952.685	3506.8
952.99	3461.15
953.294	3467.25
953.599	3431.32
953.904	3455.73
954.209	3420.25
954.513	3428.16
954.818	3388.39
955.122	3342.06
955.426	3363.98
955.731	3307.03
956.035	3335.51
956.339	3316.52
956.643	3288.28
956.948	3290.99
957.252	3272.91
957.556	3254.38
957.86	3263.87
958.163	3268.39
958.467	3195.17
958.771	3219.8
959.075	3220.03
959.378	3154.49
959.682	3206.47
959.985	3204.44
960.289	3105.91
960.592	3152.91
960.896	3142.52
961.199	3085.57
961.502	3106.81
961.805	3095.06
962.108	3084.21
962.411	3024.1
962.714	3052.8
963.017	3038.11
963.32	3006.25
963.623	3032.91
963.926	2975.06
964.228	2971.22
964.531	2960.83
964.833	2957.66
965.136	2926.02
965.438	2948.85
965.741	2897.1
966.043	2859.59
966.345	2912.24
966.648	2868.4
966.95	2876.08
967.252	2883.31
967.554	2831.11
967.856	2833.37
968.158	2779.14
968.46	2801.73
968.761	2803.99
969.063	2789.53
969.365	2786.14
969.666	2746.59
969.968	2730.55
970.269	2717.22
970.571	2715.18
970.872	2718.8
971.174	2679.48
971.475	2682.64
971.776	2653.94
972.077	2680.38
972.378	2672.02
972.679	2632.7
972.98	2636.31
973.281	2667.27
973.582	2623.89
973.883	2601.51
974.183	2592.7
974.484	2578.24
974.785	2609.87
975.085	2545.92
975.386	2571.68
975.686	2502.53
975.986	2484.23
976.287	2517.45
976.587	2513.61
976.887	2477
977.187	2511.8
977.487	2441.52
977.787	2470.67
978.087	2470.44
978.387	2449.43
978.687	2437
978.987	2402.42
979.286	2390.45
979.586	2414.17
979.885	2382.99
980.185	2393.38
980.484	2361.97
980.784	2353.38
981.083	2329.88
981.382	2328.75
981.682	2336.89
981.981	2320.16
982.28	2278.58
982.579	2287.62
982.878	2264.8
983.177	2275.87
983.475	2299.15
983.774	2241.07
984.073	2232.94
984.372	2211.47
984.67	2197.68
984.969	2226.61
985.267	2190.45
985.566	2207.63
985.864	2194.52
986.162	2156.55
986.461	2162.66
986.759	2147.51
987.057	2141.19
987.355	2112.26
987.653	2129.89
987.951	2086.95
988.249	2080.62
988.547	2080.17
988.844	2119.27
989.142	2058.7
989.44	2053.05
989.737	2055.54
990.035	2036.33
990.332	2038.59
990.63	2023
990.927	1993.17
991.224	2031.13
991.521	2008.53
991.819	1973.96
992.116	2003.11
992.413	1987.74
992.71	1957.46
993.006	1970.34
993.303	1918.59
993.6	1942.1
993.897	1921.08
994.193	1936.22
994.49	1903.68
994.787	1935.77
995.083	1867.52
995.379	1873.17
995.676	1851.02
995.972	1839.95
996.268	1849.89
996.565	1891.7
996.861	1842.66
997.157	1834.98
997.453	1826.17
997.749	1826.17
998.044	1830.46
998.34	1790.01
998.636	1795.66
998.932	1774.42
999.227	1784.13
999.523	1734.42
999.818	1747.3
1000.114	1762.67
1000.409	1733.74
1000.704	1748.2
1001	1727.86
1001.295	1738.94
1001.59	1699.39
1001.885	1709.56
1002.18	1657.58
1002.475	1668.66
1002.77	1677.02
1003.065	1662.33
1003.359	1634.31
1003.654	1628.88
1003.949	1612.16
1004.243	1601.09
1004.538	1621.65
1004.832	1609
1005.127	1620.07
1005.421	1602.22
1005.715	1547.08
1006.009	1581.2
1006.304	1539.39
1006.598	1553.63
1006.892	1544.14
1007.186	1539.85
1007.48	1533.52
1007.773	1546.85
1008.067	1538.94
1008.361	1521.54
1008.655	1504.59
1008.948	1481.09
1009.242	1497.81
1009.535	1455.55
1009.829	1480.19
1010.122	1477.7
1010.415	1458.49
1010.708	1451.94
1011.001	1437.25
1011.295	1431.37
1011.588	1414.65
1011.881	1420.08
1012.173	1399.74
1012.466	1406.52
1012.759	1381.21
1013.052	1372.85
1013.344	1371.72
1013.637	1376.24
1013.93	1376.46
1014.222	1364.48
1014.514	1362.22
1014.807	1349.34
1015.099	1319.97
1015.391	1313.41
1015.683	1263.02
1015.976	1297.37
1016.268	1293.07
1016.56	1267.54
1016.851	1266.18
1017.143	1264.37
1017.435	1259.4
1017.727	1247.88
1018.018	1259.85
1018.31	1252.85
1018.602	1254.66
1018.893	1211.27
1019.185	1196.8
1019.476	1240.87
1019.767	1200.87
1020.058	1178.27
1020.35	1183.7
1020.641	1176.01
1020.932	1205.39
1021.223	1199.97
1021.514	1173.53
1021.804	1147.09
1022.095	1162
1022.386	1143.02
1022.677	1144.38
1022.967	1121.33
1023.258	1129.46
1023.548	1117.94
1023.839	1125.85
1024.129	1069.12
1024.419	1100.99
1024.709	1097.6
1025	1105.96
1025.29	1097.6
1025.58	1066.19
1025.87	1051.05
1026.16	1037.26
1026.449	1050.37
1026.739	1053.76
1027.029	1039.97
1027.319	1030.48
1027.608	1016.92
1027.898	1005.4
1028.187	1000.65
1028.477	1008.34
1028.766	971.5
1029.055	1002.91
1029.344	1003.36
1029.634	988.45
1029.923	981.44
1030.212	951.39
1030.501	968.79
1030.79	946.64
1031.078	950.26
1031.367	968.34
1031.656	924.04
1031.945	938.96
1032.233	962.01
1032.522	925.85
1032.81	922.91
1033.099	895.34
1033.387	911.61
1033.675	899.86
1033.963	917.72
1034.251	882.46
1034.54	872.29
1034.828	886.76
1035.116	869.13
1035.403	862.8
1035.691	853.31
1035.979	855.34
1036.267	849.92
1036.554	842.01
1036.842	845.85
1037.129	860.09
1037.417	835.01
1037.704	819.41
1037.992	836.59
1038.279	790.49
1038.566	805.4
1038.853	805.4
1039.14	805.4
