Data from white_poster_card_FLMS001491_00029.txt Node
Date: Wed Feb 08 11:51:18 GMT 2017
User: dcchb
Spectrometer: FLMS00149
Trigger mode: 0
Integration Time (sec): 2.000000E-2
Scans to average: 10
Electric dark correction enabled: true
Nonlinearity correction enabled: false
Boxcar width: 0
XAxis mode: Wavelengths
Number of Pixels in Spectrum: 2048
>>>>>Begin Spectral Data<<<<<
341.393	-4.56
341.776	-4.56
342.16	-4.56
342.543	-58.8
342.927	-85.01
343.31	-68.06
343.693	-66.03
344.077	-76.2
344.46	-45.01
344.843	-41.4
345.226	-47.95
345.61	-24.67
345.993	-9.53
346.376	-3.66
346.759	20.07
347.142	19.62
347.525	38.83
347.908	39.96
348.291	59.84
348.674	88.77
349.057	115.43
349.44	124.7
349.823	144.13
350.206	173.06
350.588	210.12
350.971	195.21
351.354	239.95
351.737	255.54
352.119	263.91
352.502	256.45
352.884	270.68
353.267	290.8
353.65	292.15
354.032	293.74
354.414	307.07
354.797	305.94
355.179	317.24
355.562	332.83
355.944	319.05
356.326	333.06
356.709	337.58
357.091	337.8
357.473	353.39
357.855	349.1
358.238	344.13
358.62	338.71
359.002	343.9
359.384	335.77
359.766	339.84
360.148	312.94
360.53	333.06
360.912	331.02
361.294	348.65
361.676	324.69
362.057	343.45
362.439	332.6
362.821	341.64
363.203	345.03
363.584	318.14
363.966	325.37
364.348	321.31
364.729	334.86
365.111	306.62
365.493	344.58
365.874	305.03
366.256	318.37
366.637	305.94
367.019	314.3
367.4	321.98
367.781	297.58
368.163	324.69
368.544	314.75
368.925	331.7
369.306	335.99
369.688	320.85
370.069	325.6
370.45	306.62
370.831	311.14
371.212	313.85
371.593	319.27
371.974	333.06
372.355	318.59
372.736	335.99
373.117	319.05
373.498	325.15
373.879	313.4
374.26	312.72
374.641	306.84
375.021	326.05
375.402	311.14
375.783	328.54
376.163	335.54
376.544	332.15
376.925	316.79
377.305	333.73
377.686	344.36
378.066	337.35
378.447	323.79
378.827	343.9
379.208	341.42
379.588	330.34
379.968	329.44
380.349	323.34
380.729	356.33
381.109	344.36
381.489	347.52
381.87	352.72
382.25	346.16
382.63	335.32
383.01	339.61
383.39	338.93
383.77	335.09
384.15	347.97
384.53	341.64
384.91	354.98
385.29	372.38
385.67	355.2
386.049	344.81
386.429	366.28
386.809	372.38
387.189	354.3
387.568	351.59
387.948	361.3
388.328	371.02
388.707	388.65
389.087	346.39
389.466	385.94
389.846	376.22
390.225	388.65
390.605	389.1
390.984	382.32
391.363	386.39
391.743	361.08
392.122	397.46
392.501	389.78
392.881	383.22
393.26	414.86
393.639	413.05
394.018	399.04
394.397	382.55
394.776	405.6
395.155	407.63
395.534	414.86
395.913	406.05
396.292	405.14
396.671	423
397.05	397.24
397.429	391.36
397.808	423.9
398.186	420.06
398.565	424.58
398.944	406.27
399.323	435.88
399.701	435.2
400.08	415.31
400.458	420.96
400.837	431.36
401.215	441.98
401.594	453.96
401.972	444.92
402.351	437.01
402.729	464.8
403.107	468.87
403.486	470.91
403.864	451.7
404.242	456.89
404.62	475.2
404.999	482.2
405.377	500.51
405.755	478.82
406.133	509.77
406.511	492.37
406.889	512.26
407.267	505.26
407.645	533.28
408.023	537.57
408.401	533.73
408.779	545.03
409.156	534.41
409.534	546.84
409.912	562.65
410.29	576.67
410.667	591.58
411.045	601.07
411.422	599.26
411.8	630.45
412.178	600.17
412.555	631.58
412.933	659.15
413.31	653.73
413.687	677.68
414.065	689.66
414.442	719.49
414.819	714.97
415.197	736.66
415.574	743.44
415.951	749.54
416.328	740.73
416.705	760.16
417.082	773.72
417.46	807.17
417.837	798.58
418.214	822.99
418.591	819.15
418.967	841.52
419.344	859.6
419.721	864.12
420.098	877.67
420.475	895.75
420.852	914.51
421.228	926.26
421.605	955.19
421.982	952.25
422.358	951.12
422.735	1003.55
423.111	999.93
423.488	996.54
423.864	1025.02
424.241	1042.87
424.617	1035.86
424.994	1040.38
425.37	1078.12
425.746	1100.49
426.123	1107.73
426.499	1093.26
426.875	1132.81
427.251	1163.32
427.627	1178.68
428.003	1168.06
428.379	1207.16
428.756	1242.41
429.132	1222.3
429.507	1272.47
429.883	1277.44
430.259	1260.26
430.635	1293.93
431.011	1306.14
431.387	1362.86
431.763	1400.82
432.138	1370.09
432.514	1393.37
432.89	1413.25
433.265	1434.5
433.641	1454.38
434.016	1474.27
434.392	1487.83
434.767	1526.47
435.143	1523.31
435.518	1527.6
435.894	1545.23
436.269	1580.48
436.644	1603.53
437.02	1638.33
437.395	1664.09
437.77	1651.21
438.145	1676.52
438.52	1688.95
438.895	1696.41
439.271	1704.09
439.646	1726.92
440.021	1735.28
440.395	1758.78
440.77	1771.44
441.145	1811.66
441.52	1824.77
441.895	1786.58
442.27	1825.45
442.645	1806.92
443.019	1850.08
443.394	1834.71
443.769	1882.39
444.143	1856.86
444.518	1910.64
444.892	1907.25
445.267	1883.75
445.641	1953.35
446.016	1906.12
446.39	1962.17
446.764	1952
447.139	1974.59
447.513	2003.52
447.887	2000.81
448.262	2044.2
448.636	2017.08
449.01	2040.81
449.384	2089.85
449.758	2072.22
450.132	2084.65
450.506	2089.17
450.88	2124.42
451.254	2137.08
451.628	2164.65
452.002	2183.4
452.376	2219.56
452.75	2227.7
453.123	2218.2
453.497	2301.59
453.871	2288.49
454.244	2307.02
454.618	2349.5
454.992	2360.12
455.365	2348.6
455.739	2448.93
456.112	2427.92
456.486	2464.07
456.859	2492.1
457.232	2518.54
457.606	2513.34
457.979	2549.04
458.352	2582.49
458.725	2624.75
459.099	2648.25
459.472	2710.85
459.845	2711.75
460.218	2724.63
460.591	2710.62
460.964	2796.49
461.337	2803.05
461.71	2880.56
462.083	2910.39
462.456	2891.41
462.829	2899.77
463.201	2947.45
463.574	2993.78
463.947	3046.66
464.32	3101.35
464.692	3125.53
465.065	3154.9
465.438	3169.82
465.81	3204.39
466.183	3284.39
466.555	3304.5
466.928	3329.36
467.3	3321.23
467.672	3419.53
468.045	3450.04
468.417	3484.61
468.789	3502.46
469.161	3554.44
469.534	3610.03
469.906	3671.73
470.278	3710.14
470.65	3730.71
471.022	3803.93
471.394	3904.49
471.766	3896.58
472.138	3946.97
472.51	4047.08
472.882	4083.69
473.253	4102.67
473.625	4171.83
473.997	4240.07
474.369	4262.22
474.74	4285.04
475.112	4388.32
475.484	4427.64
475.855	4526.17
476.227	4581.08
476.598	4709.66
476.97	4651.36
477.341	4847.29
477.713	4888.19
478.084	4947.85
478.455	5017.45
478.827	5104
479.198	5250.22
479.569	5246.83
479.94	5339.93
480.311	5454.05
480.682	5538.12
481.053	5675.29
481.424	5695.4
481.795	5759.35
482.166	5879.58
482.537	5969.52
482.908	6093.13
483.279	6178.78
483.65	6211.32
484.021	6364.31
484.391	6456.96
484.762	6491.54
485.133	6561.14
485.503	6611.31
485.874	6743.28
486.244	6877.06
486.615	7006.55
486.985	7066.21
487.356	7183.05
487.726	7219.43
488.097	7374.23
488.467	7397.73
488.837	7542.13
489.207	7677.04
489.578	7709.13
489.948	7879.3
490.318	7982.12
490.688	8036.13
491.058	8147.31
491.428	8195
491.798	8301.66
492.168	8464.82
492.538	8522.9
492.908	8597.7
493.278	8733.97
493.648	8716.34
494.017	8864.36
494.387	8936.67
494.757	8981.19
495.126	9057.12
495.496	9150
495.866	9160.39
496.235	9322.42
496.605	9369.65
496.974	9500.72
497.344	9564.45
497.713	9603.77
498.082	9702.75
498.452	9817.1
498.821	9808.74
499.19	9869.98
499.559	9990.66
499.928	10055.06
500.298	10124.66
500.667	10221.84
501.036	10179.58
501.405	10371.44
501.774	10304.32
502.143	10495.5
502.512	10482.62
502.88	10634.25
503.249	10677.87
503.618	10744.08
503.987	10772.33
504.356	10784.76
504.724	10923.51
505.093	10904.98
505.462	11059.33
505.83	11155.37
506.199	11271.53
506.567	11442.37
506.936	11369.38
507.304	11554
507.672	11587.45
508.041	11640.78
508.409	11710.16
508.777	11883.71
509.145	11887.78
509.514	11949.47
509.882	11957.84
510.25	12068.79
510.618	12169.13
510.986	12243.25
511.354	12390.82
511.722	12475.34
512.09	12583.81
512.458	12572.96
512.826	12699.28
513.193	12765.95
513.561	12920.97
513.929	12981.76
514.297	13106.51
514.664	13214.75
515.032	13230.12
515.4	13341.98
515.767	13387.18
516.135	13505.82
516.502	13470.11
516.869	13700.16
517.237	13789.2
517.604	13748.52
517.972	13900.16
518.339	14086.14
518.706	14065.12
519.073	14225.35
519.44	14327.94
519.808	14486.13
520.175	14421.5
520.542	14682.06
520.909	14752.79
521.276	14761.6
521.643	14931.99
522.009	15048.15
522.376	15187.58
522.743	15229.84
523.11	15401.36
523.477	15629.38
523.843	15686.1
524.21	15813.78
524.577	16052.19
524.943	16110.95
525.31	16131.06
525.676	16352.07
526.043	16503.25
526.409	16486.3
526.776	16703.47
527.142	16675.9
527.508	16826.63
527.874	17076.8
528.241	17032.73
528.607	17170.35
528.973	17230.69
529.339	17325.38
529.705	17526.73
530.071	17716.33
530.437	17695.09
530.803	17789.77
531.169	17937.34
531.535	17968.52
531.901	18110.44
532.267	18183.21
532.632	18331.45
532.998	18382.3
533.364	18421.62
533.73	18561.5
534.095	18727.6
534.461	18764.66
534.826	18824.55
535.192	18889.4
535.557	19060.7
535.923	19194.03
536.288	19193.35
536.653	19192
537.019	19380.92
537.384	19390.41
537.749	19477.19
538.114	19529.61
538.479	19598.09
538.845	19655.03
539.21	19616.17
539.575	19850.74
539.94	19921.47
540.305	20085.31
540.67	19987.23
541.034	20137.06
541.399	20208.47
541.764	20225.41
542.129	20479.87
542.494	20466.76
542.858	20601
543.223	20603.71
543.587	20692.29
543.952	20687.55
544.316	20730.03
544.681	20714.67
545.045	20954.21
545.41	20946.3
545.774	21102.23
546.138	21084.6
546.503	21199.17
546.867	21342
547.231	21539.05
547.595	21510.8
547.959	21532.27
548.324	21639.16
548.688	21616.56
549.052	21733.62
549.416	21821.53
549.779	21806.39
550.143	21867.18
550.507	22021.75
550.871	22134.97
551.235	22140.84
551.599	22337.45
551.962	22401.4
552.326	22334.96
552.689	22634.16
553.053	22440.95
553.417	22560.49
553.78	22838
554.143	22797.32
554.507	23031.44
554.87	23043.19
555.234	23321.6
555.597	23128.16
555.96	23381.49
556.323	23321.6
556.686	23494.03
557.05	23650.18
557.413	23712.55
557.776	23770.18
558.139	23890.18
558.502	23981.25
558.865	24060.79
559.228	24217.4
559.59	24373.33
559.953	24483.61
560.316	24719.99
560.679	24556.83
561.041	24722.7
561.404	24833.2
561.767	25024.84
562.129	24903.48
562.492	25327.65
562.854	25313.19
563.217	25403.13
563.579	25425.28
563.941	25582.79
564.304	25663.01
564.666	25806.51
565.028	25826.85
565.39	26005.6
565.753	26192.26
566.115	26263.22
566.477	26436.55
566.839	26430
567.201	26534.85
567.563	26703.21
567.925	26791.8
568.287	26829.08
568.648	26939.81
569.01	27060.04
569.372	27392.91
569.734	27226.13
570.095	27305.45
570.457	27431.1
570.819	27494.83
571.18	27546.58
571.542	27676.97
571.903	27638.78
572.265	27921.94
572.626	28076.73
572.987	28036.28
573.349	28092.33
573.71	28234.92
574.071	28309.04
574.432	28450.06
574.794	28658.19
575.155	28560.11
575.516	28520.79
575.877	28605.99
576.238	28707
576.599	28854.57
576.96	28855.02
577.32	28869.93
577.681	28977.05
578.042	29064.96
578.403	28938.63
578.763	29049.82
579.124	29168.68
579.485	29291.84
579.845	29335.91
580.206	29066.54
580.566	29260.43
580.927	29383.37
581.287	29438.28
581.648	29403.93
582.008	29583.59
582.368	29513.08
582.728	29613.42
583.089	29478.28
583.449	29496.36
583.809	29489.13
584.169	29616.35
584.529	29638.73
584.889	29707.2
585.249	29524.83
585.609	29585.17
585.969	29740.87
586.329	29539.07
586.688	29694.54
587.048	29575.9
587.408	29548.79
587.768	29539.07
588.127	29672.4
588.487	29659.06
588.846	29703.58
589.206	29637.82
589.565	29745.84
589.925	29742.45
590.284	29640.53
590.643	29792.85
591.003	29777.25
591.362	29930.47
591.721	29770.02
592.08	29771.6
592.44	29915.1
592.799	29763.92
593.158	29800.53
593.517	29736.8
593.876	29921.66
594.235	29961.43
594.593	29853.64
594.952	29987.87
595.311	29808.21
595.67	29972.95
596.029	30108.32
596.387	30119.39
596.746	30074.2
597.104	29949.23
597.463	29988.77
597.822	30105.83
598.18	30048.43
598.538	29927.31
598.897	30163.23
599.255	29857.03
599.613	30329.78
599.972	30269.67
600.33	30303.79
600.688	30124.14
601.046	30203.01
601.404	30402.55
601.762	30391.47
602.12	30487.74
602.478	30234.42
602.836	30410.23
603.194	30349.44
603.552	30429.89
603.91	30237.58
604.268	30403.9
604.625	30400.97
604.983	30535.2
605.341	30383.79
605.698	30409.55
606.056	30652.48
606.413	30634.63
606.771	30668.08
607.128	30775.42
607.485	30732.03
607.843	30750.11
608.2	30807.96
608.557	30977.22
608.914	30747.4
609.272	30899.71
609.629	30967.05
609.986	31094.73
610.343	30862.42
610.7	31054.73
611.057	31053.6
611.414	31016.77
611.771	31084.79
612.127	31248.18
612.484	31200.49
612.841	31386.93
613.198	31307.83
613.554	31144.9
613.911	31427.15
614.267	31357.33
614.624	31350.09
614.98	31493.37
615.337	31704.66
615.693	31416.76
616.05	31509.19
616.406	31680.71
616.762	31552.12
617.118	31529.07
617.475	31606.58
617.831	31633.7
618.187	31623.31
618.543	31653.81
618.899	31771.33
619.255	31714.15
619.611	31729.07
619.967	31866.92
620.323	31915.28
620.678	31789.18
621.034	31722.06
621.39	31754.6
621.746	31726.13
622.101	32036.86
622.457	31748.28
622.812	31828.95
623.168	31920.7
623.523	31914.37
623.879	31927.71
624.234	31699.46
624.589	31743.98
624.945	31768.61
625.3	31997.76
625.655	31880.48
626.01	31970.42
626.365	31876.86
626.72	31910.31
627.075	31846.8
627.43	31653.14
627.785	31756.18
628.14	31835.5
628.495	31870.76
628.85	31751.21
629.205	31702.4
629.559	32001.15
629.914	31759.8
630.269	31750.54
630.623	31563.2
630.978	31612.69
631.332	31677.99
631.687	31832.11
632.041	31482.29
632.396	31562.97
632.75	31461.28
633.104	31581.05
633.459	31389.41
633.813	31397.32
634.167	31369.3
634.521	31341.51
634.875	31408.17
635.229	31304.9
635.583	31304.45
635.937	31226.71
636.291	31146.48
636.645	31093.83
636.999	31024.45
637.352	31062.42
637.706	30903.55
638.06	31083.21
638.413	30899.94
638.767	30782.2
639.121	30882.08
639.474	30723.67
639.828	30668.76
640.181	30792.14
640.534	30734.29
640.888	30670.11
641.241	30471.02
641.594	30535.88
641.947	30666.5
642.301	30403.68
642.654	30643.22
643.007	30565.26
643.36	30464.69
643.713	30412.04
644.066	30559.83
644.419	30241.42
644.771	30090.69
645.124	29903.8
645.477	29742.9
645.83	29664.26
646.182	29470.6
646.535	29374.33
646.888	29412.97
647.24	29288.68
647.593	29417.49
647.945	29334.78
648.298	29116.71
648.65	28984.96
649.002	28972.53
649.355	29120.55
649.707	29042.81
650.059	29211.39
650.411	29591.72
650.763	29588.78
651.115	29892.96
651.467	29682.12
651.819	29739.29
652.171	29529.12
652.523	29601.44
652.875	29631.49
653.227	29478.5
653.578	29569.12
653.93	29570.48
654.282	29408.22
654.633	29337.04
654.985	29437.6
655.337	29416.36
655.688	29324.38
656.039	29585.85
656.391	29280.54
656.742	29298.4
657.094	29226.08
657.445	29391.73
657.796	29314.22
658.147	29251.39
658.498	29225.86
658.849	29245.29
659.2	29182.47
659.551	29151.73
659.902	29183.82
660.253	29066.09
660.604	29106.76
660.955	28958.74
661.306	29165.07
661.656	28934.79
662.007	29025.86
662.358	28912.42
662.708	29031.06
663.059	28934.79
663.409	28826.32
663.76	28926.2
664.11	28892.08
664.461	28918.29
664.811	28981.79
665.161	28819.99
665.511	28777.51
665.862	28818.18
666.212	28871.06
666.562	28871.29
666.912	28787.22
667.262	28633.78
667.612	28739.54
667.962	28715.81
668.312	28669.71
668.662	28828.58
669.011	28709.26
669.361	28638.53
669.711	28714
670.06	28566.89
670.41	28517.17
670.76	28506.55
671.109	28509.26
671.459	28475.59
671.808	28543.61
672.157	28648.92
672.507	28425.42
672.856	28405.31
673.205	28427.01
673.554	28543.84
673.904	28333.68
674.253	28516.95
674.602	28430.17
674.951	27973.91
675.3	27881.48
675.649	28350.85
675.998	28323.51
676.346	28392.43
676.695	28455.48
677.044	28197.18
677.393	28316.28
677.741	28293
678.09	28201.02
678.438	28058.43
678.787	28138.2
679.135	28161.03
679.484	27971.2
679.832	28067.02
680.181	27922.84
680.529	28033.57
680.877	27874.93
681.225	27823.41
681.573	27793.35
681.922	27683.75
682.27	27594.49
682.618	27708.61
682.966	27605.11
683.314	27674.48
683.661	27589.51
684.009	27400.59
684.357	27440.82
684.705	27348.17
685.053	27415.06
685.4	27326.47
685.748	27216.19
686.095	27345
686.443	27069.3
686.79	27035.4
687.138	26989.98
687.485	27134.39
687.832	26978.23
688.18	26991.79
688.527	26786.6
688.874	26785.24
689.221	26715.87
689.568	26640.16
689.915	26610.11
690.262	26596.09
690.609	26515.87
690.956	26401.52
691.303	26295.09
691.65	26276.1
691.997	26246.95
692.344	26158.37
692.69	26070.68
693.037	26028.2
693.383	25801.31
693.73	25958.15
694.077	25787.75
694.423	25721.77
694.769	25605.84
695.116	25628.66
695.462	25563.35
695.808	25404.49
696.155	25485.62
696.501	25250.37
696.847	25298.05
697.193	25212.4
697.539	25217.15
697.885	25049.69
698.231	24958.85
698.577	24965.4
698.923	24857.61
699.269	24827.55
699.614	24622.14
699.96	24699.65
700.306	24527.45
700.651	24549.82
700.997	24431.41
701.342	24412.88
701.688	24360.9
702.033	24220.79
702.379	24303.73
702.724	24165.2
703.069	24178.98
703.415	23957.97
703.76	23924.98
704.105	23934.47
704.45	23889.27
704.795	23824.64
705.14	23735.6
705.485	23722.95
705.83	23661.26
706.175	23549.62
706.52	23496.29
706.865	23388.5
707.209	23315.28
707.554	23209.06
707.899	23354.82
708.243	23176.75
708.588	23196.41
708.932	23015.62
709.277	23101.27
709.621	23035.28
709.966	22916.19
710.31	22961.61
710.654	22686.59
710.998	22797.1
711.342	22823.09
711.687	22672.81
712.031	22639.36
712.375	22568.86
712.719	22538.12
713.063	22539.48
713.407	22530.66
713.75	22455.64
714.094	22294.29
714.438	22330.9
714.782	22271.24
715.125	22152.37
715.469	22206.15
715.812	22126.16
716.156	22114.18
716.499	21941.75
716.843	22059.04
717.186	21867.18
717.53	21913.51
717.873	21914.86
718.216	21875.31
718.559	21799.84
718.902	21576.57
719.246	21639.84
719.589	21569.11
719.932	21436
720.275	21583.12
720.617	21412.73
720.96	21439.62
721.303	21451.82
721.646	21458.15
721.989	21291.15
722.331	21297.48
722.674	21234.2
723.016	21336.8
723.359	21294.76
723.701	21289.57
724.044	21090.02
724.386	20984.94
724.729	21068.56
725.071	21050.93
725.413	21133.41
725.755	20947.2
726.097	20880.99
726.439	20765.29
726.782	20758.73
727.124	20839.86
727.465	20716.25
727.807	20697.49
728.149	20718.96
728.491	20619.08
728.833	20709.24
729.175	20532.07
729.516	20539.3
729.858	20492.3
730.199	20587.66
730.541	20511.06
730.882	20369.14
731.224	20454.34
731.565	20353.32
731.906	20332.76
732.248	20328.46
732.589	20253.21
732.93	20180.9
733.271	20288.01
733.612	20194.23
733.953	20227.9
734.294	20136.83
734.635	20083.95
734.976	20013.67
735.317	19950.39
735.658	20022.71
735.999	19960.56
736.339	19908.13
736.68	19923.73
737.021	19902.49
737.361	19803.73
737.702	19954.69
738.042	19794.01
738.383	19765.54
738.723	19788.82
739.063	19718.76
739.404	19664.3
739.744	19667.01
740.084	19470.41
740.424	19623.85
740.764	19456.4
741.104	19503.4
741.444	19390.63
741.784	19398.09
742.124	19403.29
742.464	19402.39
742.804	19403.52
743.143	19185.67
743.483	19225.89
743.823	19120.58
744.162	19213.01
744.502	19210.07
744.841	19086.91
745.181	19220.02
745.52	19011.89
745.86	19027.03
746.199	18992.9
746.538	18979.12
746.877	18986.58
747.216	18908.61
747.556	18862.06
747.895	18914.94
748.234	18904.77
748.573	18765.11
748.911	18736.64
749.25	18710.43
749.589	18594.5
749.928	18609.64
750.267	18598.34
750.605	18547.04
750.944	18468.4
751.283	18375.97
751.621	18421.39
751.96	18383.2
752.298	18402.41
752.636	18344.11
752.975	18256.43
753.313	18227.05
753.651	18353.15
753.989	18231.12
754.327	18119.03
754.666	18051.23
755.004	18088.97
755.342	18092.82
755.679	18088.75
756.017	17910.22
756.355	17947.28
756.693	17862.09
757.031	17906.61
757.368	17833.61
757.706	17709.32
758.044	17717.01
758.381	17671.58
758.719	17490.57
759.056	17607.63
759.394	17549.55
759.731	17484.92
760.068	17416.45
760.405	17330.35
760.743	17274.08
761.08	17315.21
761.417	17179.17
761.754	17252.84
762.091	17128.55
762.428	17106.63
762.765	17022.79
763.102	17095.1
763.438	16853.07
763.775	16796.8
764.112	16850.81
764.449	16881.77
764.785	16720.2
765.122	16680.2
765.458	16553.42
765.795	16519.98
766.131	16577.15
766.467	16435.23
766.804	16370.15
767.14	16329.25
767.476	16356.14
767.812	16223.71
768.148	16209.93
768.485	16102.13
768.821	16084.73
769.157	16013.1
769.492	16027.11
769.828	15972.64
770.164	15775.36
770.5	15781.69
770.836	15789.82
771.171	15675.03
771.507	15600.23
771.842	15459.21
772.178	15582.6
772.513	15533.33
772.849	15441.13
773.184	15343.28
773.519	15352.32
773.855	15290.18
774.19	15199.78
774.525	15184.42
774.86	15095.15
775.195	15081.59
775.53	15044.08
775.865	14937.42
776.2	14840.47
776.535	14695.84
776.87	14767.03
777.205	14668.05
777.539	14642.74
777.874	14638.67
778.209	14548.05
778.543	14420.37
778.878	14370.88
779.212	14401.61
779.547	14289.98
779.881	14379.69
780.215	14136.99
780.55	14246.59
780.884	14155.74
781.218	14097.21
781.552	14040.49
781.886	14063.99
782.22	14006.59
782.554	13932.92
782.888	13734.06
783.222	13717.56
783.556	13659.03
783.889	13732.25
784.223	13577
784.557	13527.06
784.89	13565.02
785.224	13484.35
785.557	13451.13
785.891	13420.17
786.224	13389.66
786.558	13331.58
786.891	13237.8
787.224	13078.71
787.557	13215.66
787.891	13071.7
788.224	13117.58
788.557	13042.78
788.89	12966.85
789.223	12962.33
789.556	12919.62
789.888	12882.78
790.221	12848.89
790.554	12681.88
790.887	12712.84
791.219	12644.14
791.552	12690.25
791.884	12629.23
792.217	12561.89
792.549	12435.79
792.882	12409.57
793.214	12286.41
793.546	12333.87
793.879	12278.28
794.211	12208.22
794.543	12177.26
794.875	12217.72
795.207	12230.37
795.539	12188.11
795.871	12172.52
796.203	12055.69
796.535	11978.63
796.867	11952.41
797.198	11881.68
797.53	11899.31
797.862	11803.04
798.193	11821.57
798.525	11742.47
798.856	11814.11
799.188	11663.38
799.519	11584.74
799.85	11573.44
800.182	11575.7
800.513	11606.66
800.844	11552.42
801.175	11514.46
801.506	11502.93
801.837	11434.01
802.168	11399.88
802.499	11310.85
802.83	11237.63
803.161	11201.47
803.491	11325.99
803.822	11274.92
804.153	11195.6
804.483	11019.33
804.814	11046.22
805.145	10971.19
805.475	10997.18
805.805	10948.82
806.136	10959.9
806.466	10936.62
806.796	10971.87
807.126	10814.36
807.457	10773.91
807.787	10836.96
808.117	10757.41
808.447	10786.34
808.777	10794.93
809.107	10740.01
809.436	10716.74
809.766	10716.51
810.096	10648.94
810.426	10654.14
810.755	10583.86
811.085	10578.44
811.414	10495.05
811.744	10492.11
812.073	10457.99
812.403	10436.52
812.732	10338.22
813.061	10359.69
813.39	10345.45
813.719	10287.14
814.049	10302.06
814.378	10245.56
814.707	10188.62
815.036	10151.78
815.365	10116.3
815.693	10083.08
816.022	10146.58
816.351	10048.73
816.68	9993.82
817.008	10031.11
817.337	9903.65
817.665	9930.77
817.994	9939.36
818.322	9936.42
818.651	9861.85
818.979	9913.37
819.307	9918.11
819.636	9842.18
819.964	9745.01
820.292	9846.25
820.62	9770.77
820.948	9797.67
821.276	9789.76
821.604	9769.19
821.932	9756.54
822.259	9772.13
822.587	9709.98
822.915	9654.17
823.243	9716.99
823.57	9707.5
823.898	9771.68
824.225	9635.18
824.553	9675.64
824.88	9681.74
825.207	9728.97
825.535	9709.76
825.862	9681.28
826.189	9737.78
826.516	9714.73
826.843	9799.25
827.17	9786.59
827.497	9770.55
827.824	9700.04
828.151	9733.26
828.478	9676.99
828.805	9712.02
829.131	9708.63
829.458	9698.23
829.785	9597.9
830.111	9662.75
830.438	9707.72
830.764	9674.51
831.09	9733.04
831.417	9617.33
831.743	9620.27
832.069	9658.01
832.395	9619.82
832.722	9703.43
833.048	9647.16
833.374	9637.9
833.7	9584.34
834.026	9529.2
834.351	9672.02
834.677	9575.07
835.003	9652.36
835.329	9586.15
835.654	9569.42
835.98	9505.47
836.306	9515.87
836.631	9576.65
836.956	9541.18
837.282	9473.38
837.607	9472.7
837.932	9450.78
838.258	9450.78
838.583	9446.94
838.908	9410.33
839.233	9386.83
839.558	9404.23
839.883	9394.96
840.208	9292.82
840.533	9239.04
840.858	9303.44
841.182	9306.38
841.507	9287.62
841.832	9243.78
842.156	9241.97
842.481	9203.33
842.805	9181.86
843.13	9163.11
843.454	9108.64
843.778	9129.21
844.103	9111.13
844.427	9124.69
844.751	8988.2
845.075	9067.74
845.399	9039.72
845.723	8973.28
846.047	8960.85
846.371	8864.13
846.695	8903.45
847.019	8838.14
847.343	8785.26
847.666	8761.54
847.99	8728.09
848.313	8735.55
848.637	8622.78
848.96	8652.84
849.284	8688.32
849.607	8599.28
849.931	8493.75
850.254	8505.27
850.577	8418.49
850.9	8399.06
851.223	8385.73
851.546	8333.07
851.869	8284.49
852.192	8346.4
852.515	8298.95
852.838	8217.14
853.161	8215.56
853.483	8163.13
853.806	8149.12
854.129	8110.7
854.451	8163.13
854.774	8090.59
855.096	8023.02
855.419	8030.93
855.741	8008.79
856.063	7951.16
856.385	7946.64
856.708	7866.87
857.03	7921.11
857.352	7849.24
857.674	7840.66
857.996	7844.95
858.318	7737.38
858.64	7769.24
858.961	7754.56
859.283	7691.96
859.605	7668.68
859.926	7724.5
860.248	7656.48
860.57	7567.89
860.891	7641.11
861.212	7629.14
861.534	7573.54
861.855	7577.84
862.176	7629.14
862.498	7594.11
862.819	7564.05
863.14	7518.4
863.461	7513.21
863.782	7438.41
864.103	7453.09
864.424	7484.73
864.745	7477.73
865.065	7428.24
865.386	7425.53
865.707	7385.07
866.027	7363.38
866.348	7385.75
866.668	7352.31
866.989	7366.32
867.309	7329.26
867.63	7370.16
867.95	7351.85
868.27	7260.11
868.59	7328.8
868.91	7285.64
869.23	7246.32
869.55	7181.92
869.87	7282.25
870.19	7228.24
870.51	7244.96
870.83	7199.77
871.15	7236.6
871.469	7209.71
871.789	7178.98
872.109	7240.9
872.428	7173.1
872.748	7207.9
873.067	7111.41
873.386	7112.54
873.706	7153.44
874.025	7101.47
874.344	7054.24
874.663	7107.79
874.982	7080.45
875.301	7049.72
875.62	7035.48
875.939	7000.68
876.258	7020.56
876.577	6960.23
876.896	6940.11
877.214	6980.11
877.533	6968.14
877.852	6935.59
878.17	6953.22
878.489	6986.44
878.807	6926.33
879.125	6888.59
879.444	6892.88
879.762	6876.16
880.08	6896.27
880.398	6865.31
880.716	6890.4
881.034	6842.26
881.352	6789.84
881.67	6837.74
881.988	6769.72
882.306	6761.81
882.624	6759.1
882.941	6691.53
883.259	6740.35
883.577	6666.67
883.894	6648.82
884.212	6664.42
884.529	6642.27
884.846	6619.9
885.164	6636.39
885.481	6618.31
885.798	6533.35
886.115	6532.67
886.432	6593.23
886.75	6559.33
887.067	6559.33
887.383	6522.72
887.7	6515.27
888.017	6513.46
888.334	6473.46
888.651	6453.8
888.967	6413.12
889.284	6416.06
889.6	6427.81
889.917	6367.7
890.233	6362.05
890.55	6374.71
890.866	6378.32
891.182	6301.71
891.498	6285.44
891.815	6316.18
892.131	6243.86
892.447	6254.71
892.763	6211.09
893.079	6231.43
893.395	6220.59
893.71	6182.62
894.026	6181.04
894.342	6160.25
894.657	6108.95
894.973	6074.6
895.289	6133.13
895.604	6028.73
895.92	5984.89
896.235	5982.17
896.55	6003.19
896.865	5943.98
897.181	5980.14
897.496	5959.8
897.811	5876.19
898.126	5862.63
898.441	5909.18
898.756	5868.05
899.071	5871.89
899.386	5867.37
899.7	5769.98
900.015	5766.36
900.33	5778.11
900.644	5693.37
900.959	5733.37
901.273	5726.59
901.588	5692.92
901.902	5655.63
902.216	5619.7
902.531	5655.18
902.845	5625.35
903.159	5564.11
903.473	5566.14
903.787	5597.78
904.101	5520.04
904.415	5526.59
904.729	5515.29
905.042	5447.05
905.356	5428.52
905.67	5418.12
905.984	5369.99
906.297	5401.62
906.611	5397.33
906.924	5377.22
907.237	5343.32
907.551	5316.2
907.864	5294.28
908.177	5293.83
908.491	5231.46
908.804	5231.01
909.117	5215.41
909.43	5166.15
909.743	5137.9
910.056	5136.09
910.368	5112.59
910.681	5089.09
910.994	5072.14
911.307	5092.48
911.619	4998.02
911.932	5058.58
912.244	4993.27
912.557	4973.39
912.869	4946.95
913.181	4910.34
913.494	4938.58
913.806	4877.57
914.118	4888.42
914.43	4842.09
914.742	4871.02
915.054	4797.8
915.366	4835.31
915.678	4760.06
915.99	4799.61
916.302	4736.78
916.613	4742.43
916.925	4740.85
917.236	4652.26
917.548	4671.02
917.859	4659.95
918.171	4595.32
918.482	4619.72
918.794	4617.24
919.105	4640.97
919.416	4538.82
919.727	4539.5
920.038	4541.99
920.349	4513.74
920.66	4485.04
920.971	4507.18
921.282	4425.38
921.593	4461.08
921.903	4418.6
922.214	4422.44
922.525	4414.98
922.835	4360.07
923.146	4358.71
923.456	4362.33
923.767	4314.42
924.077	4331.14
924.387	4323.01
924.697	4292.27
925.008	4286.85
925.318	4211.6
925.628	4227.42
925.938	4177.02
926.248	4175.22
926.558	4149
926.867	4117.82
927.177	4127.53
927.487	4090.02
927.796	4094.77
928.106	4095.9
928.416	4068.55
928.725	4026.97
929.034	4062
929.344	4010.25
929.653	3993.3
929.962	3951.49
930.271	4001.43
930.581	3969.12
930.89	3928.44
931.199	3895.9
931.508	3904.94
931.817	3896.35
932.125	3910.59
932.434	3843.7
932.743	3811.83
933.051	3810.7
933.36	3794.89
933.669	3760.76
933.977	3773.19
934.286	3757.37
934.594	3785.17
934.902	3714.21
935.21	3685.96
935.519	3695.68
935.827	3677.15
936.135	3657.71
936.443	3646.19
936.751	3648
937.059	3612.74
937.367	3535.91
937.674	3604.38
937.982	3568.45
938.29	3560.09
938.597	3570.03
938.905	3550.82
939.213	3547.21
939.52	3504.05
939.827	3528.45
940.135	3506.31
940.442	3488.23
940.749	3479.64
941.056	3493.65
941.363	3422.69
941.67	3402.13
941.977	3380.21
942.284	3386.54
942.591	3384.73
942.898	3316.71
943.205	3380.43
943.511	3311.28
943.818	3299.98
944.125	3278.52
944.431	3262.92
944.738	3293.88
945.044	3280.55
945.35	3288.91
945.657	3237.39
945.963	3194.22
946.269	3203.94
946.575	3187.44
946.881	3196.48
947.187	3201.23
947.493	3161
947.799	3128.46
948.105	3115.36
948.41	3145.86
948.716	3093.21
949.022	3102.7
949.327	3053.21
949.633	3025.64
949.938	3034.23
950.244	3016.15
950.549	2998.3
950.854	3012.08
951.16	3017.28
951.465	2998.97
951.77	2979.09
952.075	2980.9
952.38	2937.28
952.685	2929.6
952.99	2913.33
953.294	2913.55
953.599	2888.92
953.904	2887.11
954.209	2848.02
954.513	2894.12
954.818	2820.22
955.122	2810.96
955.426	2854.12
955.731	2801.24
956.035	2805.31
956.339	2793.78
956.643	2781.58
956.948	2751.07
957.252	2791.52
957.556	2750.62
957.86	2750.39
958.163	2727.8
958.467	2738.42
958.771	2698.42
959.075	2714.69
959.378	2692.99
959.682	2703.39
959.985	2643.73
960.289	2649.83
960.592	2658.87
960.896	2629.49
961.199	2594.01
961.502	2617.29
961.805	2621.36
962.108	2585.43
962.411	2541.36
962.714	2535.26
963.017	2535.71
963.32	2551.08
963.623	2528.7
963.926	2528.25
964.228	2487.8
964.531	2490.51
964.833	2487.12
965.136	2473.56
965.438	2460.91
965.741	2478.08
966.043	2448.03
966.345	2438.76
966.648	2413.45
966.95	2426.79
967.252	2411.42
967.554	2405.09
967.856	2396.96
968.158	2374.13
968.46	2375.49
968.761	2351.53
969.063	2365.55
969.365	2331.42
969.666	2351.99
969.968	2351.76
970.269	2322.83
970.571	2322.38
970.872	2280.58
971.174	2293.91
971.475	2264.76
971.776	2241.48
972.077	2203.52
972.378	2262.05
972.679	2239.67
972.98	2224.53
973.281	2226.79
973.582	2242.61
973.883	2210.29
974.183	2212.1
974.484	2168.94
974.785	2184.98
975.085	2204.87
975.386	2184.53
975.686	2136.85
975.986	2149.28
976.287	2150.86
976.587	2127.13
976.887	2136.4
977.187	2111.31
977.487	2121.26
977.787	2106.12
978.087	2110.41
978.387	2114.93
978.687	2070.41
978.987	2047.36
979.286	2035.16
979.586	2020.47
979.885	2018.89
980.185	2029.96
980.484	2004.65
980.784	2032.67
981.083	1980.02
981.382	1993.13
981.682	1997.65
981.981	1973.47
982.28	1986.12
982.579	1944.77
982.878	1944.09
983.177	1959.91
983.475	1923.3
983.774	1894.82
984.073	1913.13
984.372	1899.57
984.67	1887.82
984.969	1878.33
985.267	1877.42
985.566	1878.55
985.864	1876.29
986.162	1859.57
986.461	1843.98
986.759	1844.65
987.057	1828.61
987.355	1799.91
987.653	1855.05
987.951	1797.65
988.249	1819.34
988.547	1771.44
988.844	1805.33
989.142	1770.76
989.44	1760.36
989.737	1764.88
990.035	1751.1
990.332	1740.93
990.63	1722.62
990.927	1723.08
991.224	1723.53
991.521	1705.68
991.819	1692.12
992.116	1702.74
992.413	1689.63
992.71	1685.11
993.006	1653.47
993.303	1691.21
993.6	1648.5
993.897	1679.69
994.193	1674.04
994.49	1647.15
994.787	1652.34
995.083	1627.49
995.379	1589.07
995.676	1633.14
995.972	1623.19
996.268	1622.29
996.565	1601.5
996.861	1584.55
997.157	1601.95
997.453	1574.61
997.749	1565.79
998.044	1546.81
998.34	1550.88
998.636	1575.51
998.932	1553.59
999.227	1516.08
999.523	1530.31
999.818	1512.46
1000.114	1507.26
1000.409	1505
1000.704	1488.28
1001	1482.4
1001.295	1484.89
1001.59	1452.12
1001.885	1482.63
1002.18	1463.65
1002.475	1449.19
1002.77	1455.06
1003.065	1449.86
1003.359	1429.75
1003.654	1438.11
1003.949	1418
1004.243	1405.8
1004.538	1405.57
1004.832	1403.54
1005.127	1405.8
1005.421	1399.24
1005.715	1407.83
1006.009	1370.32
1006.304	1387.94
1006.598	1343.88
1006.892	1337.78
1007.186	1317.21
1007.48	1346.36
1007.773	1314.05
1008.067	1328.28
1008.361	1315.4
1008.655	1307.95
1008.948	1282.86
1009.242	1280.38
1009.535	1292.8
1009.829	1307.49
1010.122	1274.27
1010.415	1313.14
1010.708	1246.03
1011.001	1255.97
1011.295	1251
1011.588	1251.9
1011.881	1234.73
1012.173	1225.01
1012.466	1235.41
1012.759	1212.58
1013.052	1230.43
1013.344	1222.52
1013.637	1214.16
1013.93	1200.6
1014.222	1201.06
1014.514	1166.25
1014.807	1145.01
1015.099	1174.84
1015.391	1157.67
1015.683	1144.11
1015.976	1154.05
1016.268	1152.24
1016.56	1136.42
1016.851	1134.84
1017.143	1134.84
1017.435	1097.1
1017.727	1123.32
1018.018	1115.86
1018.31	1092.36
1018.602	1088.52
1018.893	1085.35
1019.185	1067.05
1019.476	1069.76
1019.767	1067.73
1020.058	1072.7
1020.35	1062.53
1020.641	1026.15
1020.932	1029.99
1021.223	1052.13
1021.514	1030.89
1021.804	1016.43
1022.095	1017.78
1022.386	1012.81
1022.677	997.45
1022.967	992.02
1023.258	990.44
1023.548	969.2
1023.839	996.99
1024.129	957.9
1024.419	967.62
1024.709	985.47
1025	952.25
1025.29	974.17
1025.58	951.35
1025.87	948.41
1026.16	935.07
1026.449	946.15
1026.739	935.53
1027.029	936.43
1027.319	909.09
1027.608	919.26
1027.898	918.58
1028.187	893.04
1028.477	870.9
1028.766	887.62
1029.055	899.82
1029.344	871.8
1029.634	871.12
1029.923	852.14
1030.212	875.87
1030.501	862.76
1030.79	832.25
1031.078	848.07
1031.367	856.21
1031.656	844
1031.945	842.65
1032.233	825.92
1032.522	824.12
1032.81	855.3
1033.099	829.54
1033.387	795.87
1033.675	802.65
1033.963	813.95
1034.251	783.89
1034.54	809.65
1034.828	798.13
1035.116	785.25
1035.403	772.82
1035.691	789.09
1035.979	782.08
1036.267	784.34
1036.554	779.6
1036.842	751.8
1037.129	741.18
1037.417	747.28
1037.704	758.58
1037.992	770.56
1038.279	738.92
1038.566	747.96
1038.853	747.96
1039.14	747.96
