Data from white_steel_sheet_FLMS001491_040.txt Node
Date: Tue Feb 07 10:57:47 GMT 2017
User: dcchb
Spectrometer: FLMS00149
Trigger mode: 0
Integration Time (sec): 2.000000E-2
Scans to average: 10
Electric dark correction enabled: true
Nonlinearity correction enabled: false
Boxcar width: 0
XAxis mode: Wavelengths
Number of Pixels in Spectrum: 2048
>>>>>Begin Spectral Data<<<<<
341.393	-8.93
341.776	-8.93
342.16	-8.93
342.543	-53.22
342.927	-49.6
343.31	-63.84
343.693	-83.05
344.077	-72.65
344.46	-46.89
344.843	-49.38
345.226	-47.12
345.61	-23.16
345.993	-23.39
346.376	1.24
346.759	-12.09
347.142	16.16
347.525	26.33
347.908	70.85
348.291	76.27
348.674	111.3
349.057	119.43
349.44	121.47
349.823	140.22
350.206	168.92
350.588	183.16
350.971	220.22
351.354	238.75
351.737	238.52
352.119	244.17
352.502	268.58
352.884	280.56
353.267	282.37
353.65	264.74
354.032	290.5
354.414	321.69
354.797	325.53
355.179	309.48
355.562	328.01
355.944	297.73
356.326	343.83
356.709	345.41
357.091	350.84
357.473	362.82
357.855	352.65
358.238	358.52
358.62	347.45
359.002	329.37
359.384	334.57
359.766	350.61
360.148	369.59
360.53	338.64
360.912	353.1
361.294	331.4
361.676	326.66
362.057	319.43
362.439	328.69
362.821	322.82
363.203	324.4
363.584	336.83
363.966	321.46
364.348	305.87
364.729	330.05
365.111	318.52
365.493	316.26
365.874	313.78
366.256	325.08
366.637	331.4
367.019	331.4
367.4	329.37
367.781	309.26
368.163	302.03
368.544	327.79
368.925	323.27
369.306	324.4
369.688	322.59
370.069	321.23
370.45	323.49
370.831	300.22
371.212	321.23
371.593	305.64
371.974	322.36
372.355	322.36
372.736	351.29
373.117	346.77
373.498	331.18
373.879	309.26
374.26	322.36
374.641	330.27
375.021	327.11
375.402	336.83
375.783	322.14
376.163	330.05
376.544	348.58
376.925	350.61
377.305	332.31
377.686	330.27
378.066	347.9
378.447	352.87
378.827	347.67
379.208	347.45
379.588	352.65
379.968	337.51
380.349	346.32
380.729	351.52
381.109	358.97
381.489	330.5
381.87	371.85
382.25	356.71
382.63	382.93
383.01	379.76
383.39	381.8
383.77	349.03
384.15	352.65
384.53	383.15
384.91	376.15
385.29	376.15
385.67	363.49
386.049	388.13
386.429	374.34
386.809	382.25
387.189	377.73
387.568	406.43
387.948	394.9
388.328	409.37
388.707	399.42
389.087	418.86
389.466	383.61
389.846	387.45
390.225	411.4
390.605	419.54
390.984	429.48
391.363	413.89
391.743	417.5
392.122	426.32
392.501	434.45
392.881	419.99
393.26	448.01
393.639	449.82
394.018	465.86
394.397	474.45
394.776	446.2
395.155	462.7
395.534	467.9
395.913	467.9
396.292	471.51
396.671	489.14
397.05	487.11
397.429	506.77
397.808	495.47
398.186	490.27
398.565	513.77
398.944	488.46
399.323	517.61
399.701	525.97
400.08	521
400.458	530.72
400.837	549.48
401.215	555.35
401.594	566.88
401.972	565.97
402.351	570.72
402.729	599.19
403.107	615.69
403.486	593.09
403.864	608.23
404.242	608.01
404.62	619.08
404.999	619.31
405.377	635.35
405.755	679.87
406.133	665.41
406.511	667.67
406.889	672.86
407.267	682.81
407.645	715.8
408.023	700.21
408.401	744.95
408.779	740.43
409.156	744.5
409.534	766.65
409.912	750.83
410.29	788.11
410.667	792.41
411.045	813.88
411.422	813.2
411.8	820.2
412.178	846.64
412.555	873.76
412.933	851.84
413.31	867.66
413.687	870.37
414.065	891.16
414.442	904.95
414.819	897.94
415.197	909.24
415.574	945.85
415.951	972.52
416.328	967.09
416.705	964.38
417.082	956.7
417.46	1007.09
417.837	986.3
418.214	999.41
418.591	1026.3
418.967	1008
419.344	1024.04
419.721	1062.46
420.098	1044.83
420.475	1080.99
420.852	1050.03
421.228	1051.84
421.605	1101.78
421.982	1092.29
422.358	1130.93
422.735	1155.56
423.111	1156.69
423.488	1178.39
423.864	1171.83
424.241	1191.04
424.617	1219.06
424.994	1202.34
425.37	1228.1
425.746	1207.54
426.123	1225.17
426.499	1258.61
426.875	1277.59
427.251	1268.33
427.627	1305.62
428.003	1337.48
428.379	1372.05
428.756	1355.11
429.132	1390.13
429.507	1418.61
429.883	1392.17
430.259	1423.13
430.635	1441.43
431.011	1467.65
431.387	1502.67
431.763	1500.19
432.138	1503.8
432.514	1544.93
432.89	1567.53
433.265	1581.31
433.641	1588.77
434.016	1617.47
434.392	1651.82
434.767	1654.98
435.143	1662.89
435.518	1693.4
435.894	1717.58
436.269	1765.26
436.644	1739.95
437.02	1777.47
437.395	1767.52
437.77	1807.07
438.145	1813.4
438.52	1859.95
438.895	1896.33
439.271	1862.66
439.646	1902.44
440.021	1934.98
440.395	1981.08
440.77	1957.35
441.145	1980.17
441.52	2014.3
441.895	2028.53
442.27	2017.91
442.645	2024.01
443.019	2061.75
443.394	2074.41
443.769	2090.45
444.143	2091.58
444.518	2138.59
444.892	2102.66
445.267	2126.84
445.641	2138.36
446.016	2202.31
446.39	2209.55
446.764	2228.98
447.139	2236.21
447.513	2248.64
447.887	2262.2
448.262	2254.29
448.636	2273.05
449.01	2327.51
449.384	2311.01
449.758	2374.06
450.132	2371.8
450.506	2369.54
450.88	2434.17
451.254	2440.5
451.628	2448.86
452.002	2481.4
452.376	2523.89
452.75	2538.8
453.123	2550.1
453.497	2585.36
453.871	2598.69
454.244	2642.98
454.618	2669.87
454.992	2708.06
455.365	2692.02
455.739	2784.9
456.112	2825.58
456.486	2845.69
456.859	2894.05
457.232	2901.51
457.606	2891.11
457.979	2941.73
458.352	2956.87
458.725	3040.71
459.099	3028.28
459.472	3165.23
459.845	3135.17
460.218	3194.83
460.591	3188.5
460.964	3216.3
461.337	3294.49
461.71	3344.21
462.083	3362.96
462.456	3435.28
462.829	3406.13
463.201	3458.55
463.574	3465.56
463.947	3524.77
464.32	3580.13
464.692	3641.6
465.065	3672.11
465.438	3725.21
465.81	3764.76
466.183	3792.33
466.555	3922.5
466.928	3896.06
467.3	3935.15
467.672	4002.72
468.045	4041.59
468.417	4079.33
468.789	4091.08
469.161	4185.99
469.534	4295.82
469.906	4317.51
470.278	4327.46
470.65	4432.31
471.022	4492.65
471.394	4576.04
471.766	4571.74
472.138	4671.4
472.51	4758.41
472.882	4800.21
473.253	4868.23
473.625	4920.66
473.997	5035.23
474.369	5097.38
474.74	5169.92
475.112	5197.49
475.484	5285.4
475.855	5413.53
476.227	5483.81
476.598	5610.81
476.97	5666.18
477.341	5802.22
477.713	5862.11
478.084	5939.84
478.455	6077.69
478.827	6080.41
479.198	6304.35
479.569	6307.74
479.94	6472.49
480.311	6507.74
480.682	6696.21
481.053	6820.05
481.424	6885.13
481.795	7036.31
482.166	7110.43
482.537	7236.98
482.908	7348.85
483.279	7362.18
483.65	7528.05
484.021	7691.66
484.391	7852.79
484.762	7891.43
485.133	8001.71
485.503	8099.11
485.874	8247.58
486.244	8359.44
486.615	8525.76
486.985	8581.58
487.356	8752.65
487.726	8827
488.097	8988.13
488.467	9026.32
488.837	9195.58
489.207	9310.15
489.578	9461.11
489.948	9503.82
490.318	9627.66
490.688	9712.17
491.058	9874.43
491.428	9968.66
491.798	10130.02
492.168	10294.31
492.538	10329.56
492.908	10463.11
493.278	10575.2
493.648	10635.31
494.017	10830.56
494.387	10876.89
494.757	10971.58
495.126	11046.6
495.496	11074.62
495.866	11206.82
496.235	11336.54
496.605	11455.41
496.974	11523.2
497.344	11626.7
497.713	11719.13
498.082	11846.58
498.452	12059.68
498.821	12056.52
499.19	12072.56
499.559	12262.16
499.928	12345.78
500.298	12451.76
500.667	12584.41
501.036	12505.09
501.405	12694.69
501.774	12688.37
502.143	12837.74
502.512	12843.84
502.88	12974.24
503.249	13004.97
503.618	13170.16
503.987	13207.22
504.356	13300.33
504.724	13436.37
505.093	13501.23
505.462	13544.62
505.83	13573.32
506.199	13770.82
506.567	13978.05
506.936	13971.5
507.304	14130.81
507.672	14213.98
508.041	14282.68
508.409	14384.82
508.777	14543.01
509.145	14682.44
509.514	14663.46
509.882	14752.27
510.25	14801.98
510.618	15002.2
510.986	15002.88
511.354	15213.27
511.722	15390.89
512.09	15421.85
512.458	15539.82
512.826	15650.32
513.193	15734.61
513.561	15783.88
513.929	16016.87
514.297	16103.87
514.664	16186.81
515.032	16239.69
515.4	16390.87
515.767	16526.68
516.135	16638.09
516.502	16646.45
516.869	16887.8
517.237	17012.32
517.604	16940.91
517.972	17199.66
518.339	17332.31
518.706	17420.9
519.073	17520.33
519.44	17553.55
519.808	17855.01
520.175	17979.3
520.542	18159.86
520.909	18315.11
521.276	18307.43
521.643	18462.9
522.009	18640.07
522.376	18779.28
522.743	18948.09
523.11	19105.15
523.477	19211.36
523.843	19369.1
524.21	19614.29
524.577	19687.5
524.943	19807.05
525.31	20014.95
525.676	20073.94
526.043	20304.66
526.409	20390.54
526.776	20691.09
527.142	20706.24
527.508	20776.29
527.874	20990.52
528.241	21077.75
528.607	21143.29
528.973	21313.9
529.339	21450.85
529.705	21630.96
530.071	21824.62
530.437	21873.44
530.803	21999.76
531.169	22252.18
531.535	22117.05
531.901	22355.91
532.267	22496.47
532.632	22632.51
532.998	22686.97
533.364	22814.2
533.73	22863.69
534.095	23126.74
534.461	23252.38
534.826	23298.26
535.192	23321.31
535.557	23536.44
535.923	23602.88
536.288	23683.11
536.653	23851.69
537.019	23773.27
537.384	24020.5
537.749	24117.44
538.114	24169.42
538.479	24248.97
538.845	24292.36
539.21	24363.77
539.575	24521.05
539.94	24490.77
540.305	24818.22
540.67	24663.65
541.034	24945.22
541.399	24965.78
541.764	25068.61
542.129	25078.78
542.494	25270.18
542.858	25231.77
543.223	25361.03
543.587	25445.55
543.952	25410.07
544.316	25577.52
544.681	25716.27
545.045	25877.85
545.41	25879.43
545.774	26027.45
546.138	25979.32
546.503	26248.69
546.867	26275.58
547.231	26395.8
547.595	26450.04
547.959	26597.83
548.324	26581.79
548.688	26533.88
549.052	26789.24
549.416	26823.59
549.779	26890.71
550.143	26918.05
550.507	27203.24
550.871	27219.74
551.235	27170.7
551.599	27425.38
551.962	27480.29
552.326	27660.4
552.689	27732.72
553.053	27590.35
553.417	27810.91
553.78	28177.68
554.143	27859.04
554.507	28181.52
554.87	28223.55
555.234	28411.8
555.597	28419.93
555.96	28456.31
556.323	28684.78
556.686	28873.25
557.05	28763.88
557.413	29054.72
557.776	29127.71
558.139	29357.53
558.502	29389.62
558.865	29428.94
559.228	29625.1
559.59	29697.19
559.953	29733.79
560.316	30137.4
560.679	30123.16
561.041	30297.4
561.404	30432.31
561.767	30801.79
562.129	30518.86
562.492	30881.56
562.854	30784.61
563.217	30884.72
563.579	31169.24
563.941	31404.94
564.304	31373.75
564.666	31525.61
565.028	31639.28
565.39	31745.94
565.753	31931.48
566.115	32033.85
566.477	32140.74
566.839	32286.5
567.201	32401.07
567.563	32335.76
567.925	32717.22
568.287	32774.17
568.648	32876.76
569.01	32935.29
569.372	33125.8
569.734	33000.6
570.095	33283.76
570.457	33381.83
570.819	33498.89
571.18	33547.48
571.542	33724.2
571.903	33707.02
572.265	33788.6
572.626	33956.96
572.987	34244.41
573.349	34218.2
573.71	34211.64
574.071	34318.76
574.432	34292.32
574.794	34550.84
575.155	34485.31
575.516	34595.59
575.877	34650.05
576.238	34797.62
576.599	34802.36
576.96	34918.74
577.32	34878.74
577.681	34941.12
578.042	35071.28
578.403	34991.96
578.763	35133.43
579.124	35286.19
579.485	35240.54
579.845	35328.22
580.206	35297.49
580.566	35291.84
580.927	35414.78
581.287	35579.06
581.648	35335.91
582.008	35588.1
582.368	35436.02
582.728	35624.26
583.089	35413.19
583.449	35487.99
583.809	35684.82
584.169	35678.72
584.529	35560.99
584.889	35634.2
585.249	35526.64
585.609	35402.57
585.969	35692.06
586.329	35672.17
586.688	35575
587.048	35585.84
587.408	35603.24
587.768	35665.16
588.127	35591.95
588.487	35616.58
588.846	35780.64
589.206	35519.18
589.565	35530.25
589.925	35652.28
590.284	35543.36
590.643	35719.4
591.003	35757.82
591.362	35812.5
591.721	35736.57
592.08	35749.46
592.44	35716.46
592.799	35824.26
593.158	35688.44
593.517	35684.82
593.876	35770.02
594.235	35674.66
594.593	35678.5
594.952	35803.92
595.311	35626.07
595.67	35768.44
596.029	35989.45
596.387	35970.92
596.746	36065.83
597.104	35734.77
597.463	35791.26
597.822	35894.76
598.18	35716.46
598.538	35858.38
598.897	36116.45
599.255	35744.94
599.613	36252.72
599.972	35934.76
600.33	36100.18
600.688	35996.91
601.046	35913.29
601.404	36150.57
601.762	35958.04
602.12	36269.22
602.478	36111.25
602.836	36256.79
603.194	35999.39
603.552	36233.28
603.91	36063.12
604.268	36231.02
604.625	36047.53
604.983	36228.09
605.341	35959.62
605.698	36345.6
606.056	36376.33
606.413	36168.43
606.771	36428.76
607.128	36413.17
607.485	36401.19
607.843	36282.1
608.2	36365.71
608.557	36590.79
608.914	36400.74
609.272	36724.8
609.629	36705.14
609.986	36794.4
610.343	36518.02
610.7	36942.87
611.057	36777
611.414	36763.44
611.771	36794.4
612.127	36891.57
612.484	36818.58
612.841	36991.23
613.198	36829.2
613.554	36883.44
613.911	37107.84
614.267	37060.83
614.624	37098.8
614.98	37087.27
615.337	37407.49
615.693	37262.18
616.05	37212.24
616.406	37399.58
616.762	37181.73
617.118	37305.12
617.475	37280.49
617.831	37432.8
618.187	37428.06
618.543	37427.38
618.899	37560.48
619.255	37533.14
619.611	37529.3
619.967	37640.93
620.323	37723.87
620.678	37523.42
621.034	37500.14
621.39	37563.19
621.746	37509.18
622.101	37926.12
622.457	37533.82
622.812	37795.5
623.168	37853.58
623.523	37833.92
623.879	37868.27
624.234	37648.61
624.589	37741.95
624.945	37755.73
625.3	37772.45
625.655	37620.59
626.01	37805.67
626.365	37860.81
626.72	37826.24
627.075	37710.99
627.43	37602.06
627.785	37725.67
628.14	37727.03
628.495	37708.5
628.85	37754.83
629.205	37621.95
629.559	37955.95
629.914	37539.69
630.269	37708.05
630.623	37573.59
630.978	37561.84
631.332	37607.71
631.687	37672.34
632.041	37393.71
632.396	37521.16
632.75	37423.76
633.104	37487.04
633.459	37319.13
633.813	37227.83
634.167	37234.61
634.521	37101.06
634.875	37262.18
635.229	37284.33
635.583	36974.28
635.937	37091.34
636.291	37071.45
636.645	36997.78
636.999	36866.26
637.352	37047.05
637.706	36873.72
638.06	36807.05
638.413	36748.07
638.767	36622.88
639.121	36777.9
639.474	36456.33
639.828	36447.06
640.181	36603.22
640.534	36520.28
640.888	36383.56
641.241	36216.11
641.594	36378.14
641.947	36391.7
642.301	36279.61
642.654	36250.91
643.007	36202.1
643.36	36168.43
643.713	36044.81
644.066	36225.15
644.419	35968.43
644.771	35802.56
645.124	35415.68
645.477	35354.89
645.83	35168
646.182	35088.23
646.535	34831.74
646.888	34918.74
647.24	34814.79
647.593	34972.75
647.945	34751.97
648.298	34662.03
648.65	34553.55
649.002	34530.96
649.355	34874
649.707	34578.64
650.059	34694.57
650.411	35133.43
650.763	35199.87
651.115	35560.76
651.467	35464.04
651.819	35380.43
652.171	35370.26
652.523	35318.05
652.875	35218.62
653.227	35143.37
653.578	35363.25
653.93	35204.39
654.282	35105.86
654.633	35036.71
654.985	35005.75
655.337	35015.69
655.688	35144.5
656.039	35064.95
656.391	34810.72
656.742	34728.24
657.094	34863.83
657.445	35056.59
657.796	34838.97
658.147	34861.12
658.498	34825.64
658.849	34801.23
659.2	34610.95
659.551	34511.97
659.902	34690.05
660.253	34565.53
660.604	34501.35
660.955	34235.6
661.306	34578.19
661.656	34270.62
662.007	34324.63
662.358	34266.56
662.708	34266.1
663.059	34265.2
663.409	33948.37
663.76	34269.04
664.11	34266.56
664.461	34298.87
664.811	34091.42
665.161	34026.79
665.511	33935.04
665.862	33812.11
666.212	33872.22
666.562	33791.54
666.912	33656.86
667.262	33637.65
667.612	33592
667.962	33484.2
668.312	33371.21
668.662	33482.4
669.011	33295.96
669.361	33290.76
669.711	33135.06
670.06	33102.29
670.41	32927.16
670.76	32868.63
671.109	33035.18
671.459	32717.22
671.808	32713.83
672.157	32678.8
672.507	32606.71
672.856	32473.61
673.205	32512.7
673.554	32513.61
673.904	32358.58
674.253	32517.45
674.602	32312.26
674.951	31925.15
675.3	31704.36
675.649	32214.86
675.998	32145.48
676.346	32154.52
676.695	32327.62
677.044	32018.71
677.393	32150
677.741	32130.12
678.09	31999.05
678.438	31896.9
678.787	31981.42
679.135	32006.28
679.484	31737.81
679.832	31995.43
680.181	31682.22
680.529	31851.7
680.877	31820.52
681.225	31827.07
681.573	32093.05
681.922	31825.94
682.27	31809.67
682.618	31859.61
682.966	31765.15
683.314	31747.3
683.661	31771.26
684.009	31700.97
684.357	31590.02
684.705	31629.34
685.053	31738.49
685.4	31638.6
685.748	31568.77
686.095	31479.96
686.443	31455.56
686.79	31559.06
687.138	31517.93
687.485	31531.94
687.832	31539.62
688.18	31687.87
688.527	31480.87
688.874	31434.54
689.221	31485.39
689.568	31417.14
689.915	31449.91
690.262	31302.11
690.609	31314.77
690.956	31186.64
691.303	31254.21
691.65	31169.91
691.997	31317.71
692.344	31127.43
692.69	31025.74
693.037	31189.12
693.383	30906.87
693.73	31078.62
694.077	30905.06
694.423	31013.76
694.769	30918.62
695.116	30708.91
695.462	30773.09
695.808	30796.59
696.155	30728.34
696.501	30461.46
696.847	30627.56
697.193	30407.45
697.539	30503.72
697.885	30335.36
698.231	30228.7
698.577	30212.88
698.923	30222.14
699.269	30066.89
699.614	29945.54
699.96	29893.34
700.306	29900.8
700.651	29842.72
700.997	29656.28
701.342	29645.89
701.688	29693.12
702.033	29571.99
702.379	29596.62
702.724	29319.12
703.069	29521.82
703.415	29195.73
703.76	29260.36
704.105	29151.21
704.45	29099.46
704.795	28875.29
705.14	28979.92
705.485	28961.84
705.83	28865.12
706.175	28873.25
706.52	28579.47
706.865	28631.22
707.209	28558.23
707.554	28608.4
707.899	28625.12
708.243	28471.91
708.588	28256.32
708.932	28294.06
709.277	28127.28
709.621	28155.98
709.966	28112.37
710.31	28070.56
710.654	27825.82
710.998	27941.07
711.342	28008.42
711.687	27831.7
712.031	27671.7
712.375	27585.38
712.719	27659.95
713.063	27523.23
713.407	27681.42
713.75	27407.75
714.094	27423.57
714.438	27360.07
714.782	27426.74
715.125	27245.95
715.469	27259.74
715.812	26992.85
716.156	26986.97
716.499	26993.08
716.843	26979.97
717.186	26840.54
717.53	26991.49
717.873	26948.78
718.216	26879.63
718.559	26765.06
718.902	26589.47
719.246	26537.72
719.589	26604.61
719.932	26472.19
720.275	26432.41
720.617	26401.45
720.96	26452.98
721.303	26366.43
721.646	26388.35
721.989	26083.04
722.331	26196.49
722.674	26075.81
723.016	26194.68
723.359	26096.6
723.701	26142.7
724.044	25960.11
724.386	25830.17
724.729	25975.02
725.071	25754.69
725.413	25805.54
725.755	25875.82
726.097	25619.33
726.439	25647.8
726.782	25631.76
727.124	25792.88
727.465	25540.01
727.807	25533.9
728.149	25537.29
728.491	25374.14
728.833	25398.32
729.175	25309.73
729.516	25259.34
729.858	25177.76
730.199	25204.2
730.541	25175.5
730.882	25171.88
731.224	25273.12
731.565	25114.03
731.906	24992.22
732.248	24990.19
732.589	24855.28
732.93	24763.08
733.271	24835.84
733.612	24773.02
733.953	24848.73
734.294	24727.6
734.635	24711.33
734.976	24730.99
735.317	24559.24
735.658	24578.22
735.999	24619.13
736.339	24371.9
736.68	24542.07
737.021	24462.29
737.361	24347.95
737.702	24395.63
738.042	24227.05
738.383	24316.76
738.723	24299.36
739.063	24257.1
739.404	24214.84
739.744	24288.29
740.084	24055.75
740.424	24093.04
740.764	24052.59
741.104	24118.8
741.444	24014.17
741.784	23829.32
742.124	24005.58
742.464	23970.33
742.804	23934.17
743.143	23857.34
743.483	23796.32
743.823	23724.91
744.162	23650.56
744.502	23703.44
744.841	23574.63
745.181	23708.87
745.52	23616.44
745.86	23702.54
746.199	23479.72
746.538	23412.15
746.877	23486.28
747.216	23468.2
747.556	23386.39
747.895	23471.81
748.234	23242.21
748.573	23238.15
748.911	23216.45
749.25	23172.84
749.589	23007.19
749.928	23050.35
750.267	23140.75
750.605	22975.78
750.944	22938.27
751.283	22919.28
751.621	22913.18
751.96	22739.63
752.298	22721.55
752.636	22786.86
752.975	22554.77
753.313	22559.07
753.651	22661.66
753.989	22535.11
754.327	22477.49
754.666	22326.08
755.004	22343.93
755.342	22395.91
755.679	22291.05
756.017	22175.8
756.355	22178.96
756.693	22069.82
757.031	22113.88
757.368	22075.69
757.706	22023.49
758.044	21874.57
758.381	21934.9
758.719	21805.64
759.056	21795.47
759.394	21701.46
759.731	21534.69
760.068	21528.81
760.405	21415.6
760.743	21309.61
761.08	21301.7
761.417	21272.55
761.754	21150.52
762.091	21296.5
762.428	21192.32
762.765	20864.88
763.102	20992.78
763.438	20818.55
763.775	20779.23
764.112	20829.17
764.449	20779.68
764.785	20632.11
765.122	20438.22
765.458	20489.29
765.795	20368.17
766.131	20383.31
766.467	20375.62
766.804	20274.61
767.14	20142.18
767.476	20162.29
767.812	20103.31
768.148	19994.62
768.485	19964.11
768.821	19802.3
769.157	19775.41
769.492	19870.55
769.828	19653.61
770.164	19608.18
770.5	19492.93
770.836	19498.81
771.171	19514.4
771.507	19310.79
771.842	19170.68
772.178	19180.85
772.513	19117.35
772.849	19100.85
773.184	19026.05
773.519	18903.8
773.855	18925.04
774.19	18792.39
774.525	18675.55
774.86	18792.84
775.195	18654.54
775.53	18559.85
775.865	18598.72
776.2	18358.5
776.535	18211.61
776.87	18222.01
777.205	18209.8
777.539	18171.84
777.874	18048.68
778.209	17981.79
778.543	17950.15
778.878	17886.65
779.212	17787.67
779.547	17612.76
779.881	17725.3
780.215	17622.93
780.55	17591.29
780.884	17450.28
781.218	17384.51
781.552	17476.26
781.886	17308.13
782.22	17120.79
782.554	17168.02
782.888	17038.31
783.222	16987.91
783.556	16805.09
783.889	16896.62
784.223	16660.69
784.557	16754.02
784.89	16720.58
785.224	16608.26
785.557	16541.82
785.891	16559.9
786.224	16435.61
786.558	16469.06
786.891	16340.7
787.224	16310.64
787.557	16207.37
787.891	16258.89
788.224	16138.67
788.557	16262.51
788.89	16155.85
789.223	16021.16
789.556	15946.59
789.888	15852.35
790.221	15898.45
790.554	15668.85
790.887	15777.78
791.219	15617.1
791.552	15531
791.884	15516.09
792.217	15418.69
792.549	15362.87
792.882	15339.6
793.214	15206.27
793.546	15270.67
793.879	15196.1
794.211	15117.91
794.543	15147.51
794.875	15046.95
795.207	15183.44
795.539	14934.64
795.871	14918.14
796.203	14835.43
796.535	14729.22
796.867	14739.16
797.198	14681.53
797.53	14602.89
797.862	14506.17
798.193	14590.01
798.525	14527.41
798.856	14501.43
799.188	14309.79
799.519	14310.25
799.85	14284.03
800.182	14307.76
800.513	14208.1
800.844	14132.17
801.175	14215.11
801.506	14121.1
801.837	14113.41
802.168	14055.34
802.499	13992.97
802.83	13926.53
803.161	13872.29
803.491	13935.57
803.822	13788
804.153	13736.7
804.483	13679.08
804.814	13578.29
805.145	13608.57
805.475	13572.86
805.805	13489.93
806.136	13487.89
806.466	13498.52
806.796	13500.1
807.126	13377.84
807.457	13396.14
807.787	13278.86
808.117	13309.14
808.447	13178.98
808.777	13303.94
809.107	13189.14
809.436	13145.76
809.766	13091.07
810.096	13033.22
810.426	13071.86
810.755	13018.08
811.085	12959.09
811.414	12907.8
811.744	12830.74
812.073	12791.64
812.403	12818.53
812.732	12768.59
813.061	12740.34
813.39	12697.63
813.719	12614.24
814.049	12748.93
814.378	12659.44
814.707	12606.56
815.036	12577.18
815.365	12437.3
815.693	12370.64
816.022	12330.86
816.351	12323.63
816.68	12264.42
817.008	12295.38
817.337	12288.6
817.665	12188.49
817.994	12246.34
818.322	12180.58
818.651	12171.09
818.979	12144.65
819.307	12103.98
819.636	12089.96
819.964	12003.19
820.292	12050.19
820.62	12021.72
820.948	12040.7
821.276	12011.55
821.604	12004.09
821.932	12012.9
822.259	12078.89
822.587	11949.86
822.915	11926.13
823.243	12039.57
823.57	11915.05
823.898	11925.22
824.225	11911.89
824.553	11932.68
824.88	11885.9
825.207	12030.76
825.535	11967.26
825.862	11956.18
826.189	11895.85
826.516	11934.04
826.843	11961.61
827.17	11980.36
827.497	11927.48
827.824	11893.13
828.151	11971.32
828.478	11927.71
828.805	11929.74
829.131	11884.32
829.458	11888.16
829.785	11763.87
830.111	11865.56
830.438	11944.21
830.764	11868.28
831.09	11939.23
831.417	11838.67
831.743	11877.31
832.069	11880.93
832.395	11845.68
832.722	11844.1
833.048	11718
833.374	11808.39
833.7	11764.1
834.026	11796.86
834.351	11812.23
834.677	11758.67
835.003	11857.2
835.329	11735.4
835.654	11704.89
835.98	11678
836.306	11697.66
836.631	11748.73
836.956	11658.11
837.282	11652.91
837.607	11587.6
837.932	11556.87
838.258	11508.06
838.583	11596.87
838.908	11491.34
839.233	11469.19
839.558	11454.5
839.883	11443.2
840.208	11402.98
840.533	11361.4
840.858	11407.72
841.182	11427.84
841.507	11387.61
841.832	11329.53
842.156	11308.97
842.481	11333.15
842.805	11219.25
843.13	11256.09
843.454	11204.11
843.778	11121.18
844.103	11139.71
844.427	11155.07
844.751	11111.91
845.075	11069.65
845.399	11064.45
845.723	10941.07
846.047	11007.73
846.371	10849.55
846.695	10885.25
847.019	10763.9
847.343	10817.68
847.666	10706.27
847.99	10702.43
848.313	10657.91
848.637	10554.41
848.96	10629.44
849.284	10490.68
849.607	10490.46
849.931	10471.25
850.254	10416.56
850.577	10338.6
850.9	10324.81
851.223	10304.25
851.546	10244.59
851.869	10246.85
852.192	10236.68
852.515	10095.44
852.838	10084.82
853.161	10078.49
853.483	9974.31
853.806	9978.83
854.129	9928.21
854.451	9925.95
854.774	9897.25
855.096	9890.47
855.419	9830.14
855.741	9777.93
856.063	9713.08
856.385	9742.23
856.708	9730.7
857.03	9691.61
857.352	9668.56
857.674	9612.97
857.996	9617.04
858.318	9577.49
858.64	9571.84
858.961	9477.6
859.283	9502.91
859.605	9442.12
859.926	9397.61
860.248	9444.84
860.57	9414.55
860.891	9416.59
861.212	9317.61
861.534	9273.54
861.855	9295.46
862.176	9297.72
862.498	9290.72
862.819	9249.14
863.14	9196.03
863.461	9275.58
863.782	9196.48
864.103	9143.15
864.424	9154.67
864.745	9175.69
865.065	9054.34
865.386	9079.42
865.707	9091.4
866.027	9107.9
866.348	9013.66
866.668	9087.78
866.989	8960.33
867.309	8937.96
867.63	8970.72
867.95	8978.41
868.27	8889.14
868.59	8907.45
868.91	8927.34
869.23	8870.39
869.55	8836.49
869.87	8851.18
870.19	8818.41
870.51	8842.14
870.83	8849.82
871.15	8810.73
871.469	8819.09
871.789	8806.66
872.109	8802.82
872.428	8753.56
872.748	8784.74
873.067	8748.13
873.386	8677.17
873.706	8742.48
874.025	8661.81
874.344	8646.44
874.663	8660.22
874.982	8617.74
875.301	8621.81
875.62	8629.94
875.939	8537.29
876.258	8562.37
876.577	8474.92
876.896	8543.39
877.214	8520.11
877.533	8495.03
877.852	8441.02
878.17	8469.49
878.489	8511.98
878.807	8478.31
879.125	8428.59
879.444	8479.89
879.762	8420
880.08	8403.96
880.398	8439.67
880.716	8317.86
881.034	8353.34
881.352	8336.16
881.67	8305.88
881.988	8257.75
882.306	8243.74
882.624	8271.99
882.941	8218.65
883.259	8196.73
883.577	8203.74
883.894	8218.88
884.212	8114.02
884.529	8157.41
884.846	8076.96
885.164	8105.66
885.481	8006.46
885.798	8062.95
886.115	8005.55
886.432	7996.74
886.75	8042.39
887.067	7977.53
887.383	7920.81
887.7	7929.85
888.017	7914.03
888.334	7884.65
888.651	7893.01
888.967	7822.51
889.284	7849.62
889.6	7805.56
889.917	7750.19
890.233	7772.56
890.55	7714.26
890.866	7766.46
891.182	7664.09
891.498	7732.11
891.815	7655.5
892.131	7592.91
892.447	7640.59
892.763	7595.39
893.079	7554.49
893.395	7556.75
893.71	7532.8
894.026	7497.32
894.342	7477.43
894.657	7399.24
894.973	7425.23
895.289	7384.78
895.604	7365.12
895.92	7333.03
896.235	7355.63
896.55	7306.36
896.865	7329.19
897.181	7248.06
897.496	7286.7
897.811	7190.43
898.126	7177.78
898.441	7163.99
898.756	7111.56
899.071	7093.03
899.386	7116.08
899.7	7095.52
900.015	6999.25
900.33	7018.01
900.644	6968.29
900.959	6962.42
901.273	6900.95
901.588	6918.12
901.902	6885.13
902.216	6852.81
902.531	6853.04
902.845	6845.13
903.159	6815.98
903.473	6766.49
903.787	6766.26
904.101	6705.47
904.415	6646.49
904.729	6683.33
905.042	6625.7
905.356	6632.03
905.67	6570.11
905.984	6542.54
906.297	6532.37
906.611	6467.97
906.924	6533.95
907.237	6506.16
907.551	6436.78
907.864	6397.91
908.177	6404.01
908.491	6376.89
908.804	6369.21
909.117	6311.13
909.43	6341.19
909.743	6260.51
910.056	6277.24
910.368	6239.72
910.681	6215.32
910.994	6214.41
911.307	6151.14
911.619	6088.31
911.932	6074.76
912.244	6007.19
912.557	6043.12
912.869	6040.18
913.181	6026.85
913.494	5958.83
913.806	6018.03
914.118	5912.27
914.43	5905.95
914.742	5891.94
915.054	5841.77
915.366	5854.65
915.678	5849.68
915.99	5794.08
916.302	5797.47
916.613	5736.23
916.925	5722.45
917.236	5713.18
917.548	5679.96
917.859	5718.38
918.171	5616.69
918.482	5604.03
918.794	5590.02
919.105	5566.75
919.416	5531.27
919.727	5525.17
920.038	5484.04
920.349	5510.25
920.66	5466.64
920.971	5401.78
921.282	5430.48
921.593	5366.75
921.903	5369.01
922.214	5325.85
922.525	5316.81
922.835	5267.55
923.146	5240.88
923.456	5230.26
923.767	5217.83
924.077	5227.77
924.387	5192.52
924.697	5176.47
925.008	5136.48
925.318	5151.16
925.628	5082.92
925.938	5069.58
926.248	5049.92
926.558	5057.38
926.867	5001.56
927.177	5031.17
927.487	4947.1
927.796	4953.66
928.106	4901.45
928.416	4937.38
928.725	4863.49
929.034	4843.15
929.344	4895.58
929.653	4805.18
929.962	4791.85
930.271	4723.38
930.581	4752.98
930.89	4717.28
931.199	4687.22
931.508	4679.54
931.817	4707.79
932.125	4649.26
932.434	4625.08
932.743	4612.42
933.051	4547.34
933.36	4555.25
933.669	4498.3
933.977	4483.84
934.286	4490.39
934.594	4508.92
934.902	4454.69
935.21	4420.11
935.519	4433.22
935.827	4395.48
936.135	4402.03
936.443	4381.92
936.751	4378.08
937.059	4335.82
937.367	4321.13
937.674	4296.5
937.982	4307.8
938.29	4292.66
938.597	4230.06
938.905	4230.96
939.213	4253.79
939.52	4229.61
939.827	4187.8
940.135	4151.19
940.442	4139.44
940.749	4143.96
941.056	4142.15
941.363	4101.02
941.67	4073.9
941.977	4068.48
942.284	4009.73
942.591	4051.08
942.898	4005.88
943.205	3990.74
943.511	3948.71
943.818	3965.88
944.125	3940.57
944.431	3904.42
944.738	3932.66
945.044	3897.86
945.35	3877.53
945.657	3887.02
945.963	3835.94
946.269	3792.56
946.575	3775.61
946.881	3810.18
947.187	3748.04
947.493	3728.83
947.799	3756.85
948.105	3713.46
948.41	3703.97
948.716	3692.67
949.022	3708.04
949.327	3675.27
949.633	3626.01
949.938	3658.77
950.244	3622.39
950.549	3622.39
950.854	3584.2
951.16	3609.96
951.465	3549.62
951.77	3550.53
952.075	3516.63
952.38	3509.17
952.685	3512.79
952.99	3503.3
953.294	3468.27
953.599	3438.21
953.904	3417.65
954.209	3458.78
954.513	3412.45
954.818	3384.66
955.122	3405.22
955.426	3375.39
955.731	3318.9
956.035	3342.62
956.339	3292.46
956.643	3336.52
956.948	3304.88
957.252	3271.44
957.556	3268.73
957.86	3226.92
958.163	3250.65
958.467	3258.11
958.771	3211.55
959.075	3179.92
959.378	3132.91
959.682	3150.99
959.985	3177.2
960.289	3162.06
960.592	3116.64
960.896	3154.38
961.199	3129.52
961.502	3102.4
961.805	3070.99
962.108	3075.29
962.411	3018.11
962.714	3006.81
963.017	3027.15
963.32	2993.03
963.623	2988.28
963.926	2970.2
964.228	2965.01
964.531	2930.43
964.833	2948.28
965.136	2925.46
965.438	2894.95
965.741	2901.96
966.043	2895.86
966.345	2910.32
966.648	2859.7
966.95	2878.91
967.252	2820.83
967.554	2809.3
967.856	2811.79
968.158	2821.51
968.46	2789.42
968.761	2797.78
969.063	2797.1
969.365	2725.47
969.666	2741.51
969.968	2727.05
970.269	2713.71
970.571	2712.36
970.872	2686.14
971.174	2652.7
971.475	2665.13
971.776	2652.47
972.077	2674.17
972.378	2617.22
972.679	2653.38
972.98	2594.85
973.281	2615.86
973.582	2626.26
973.883	2597.11
974.183	2590.1
974.484	2589.2
974.785	2550.33
975.085	2561.4
975.386	2562.76
975.686	2539.71
975.986	2489.77
976.287	2507.84
976.587	2455.19
976.887	2507.17
977.187	2474.4
977.487	2486.6
977.787	2440.27
978.087	2461.29
978.387	2421.52
978.687	2428.3
978.987	2387.85
979.286	2404.57
979.586	2358.7
979.885	2353.95
980.185	2338.13
980.484	2369.32
980.784	2367.06
981.083	2353.95
981.382	2322.99
981.682	2316.66
981.981	2312.14
982.28	2303.56
982.579	2266.95
982.878	2260.17
983.177	2254.52
983.475	2282.31
983.774	2253.16
984.073	2214.07
984.372	2201.64
984.67	2238.25
984.969	2195.31
985.267	2206.38
985.566	2178.81
985.864	2176.55
986.162	2156.44
986.461	2176.33
986.759	2129.77
987.057	2143.56
987.355	2133.84
987.653	2086.39
987.951	2099.72
988.249	2109.21
988.547	2080.28
988.844	2112.6
989.142	2069.21
989.44	2074.63
989.737	2039.61
990.035	2055.65
990.332	2041.87
990.63	2018.82
990.927	2001.19
991.224	1988.76
991.521	1971.36
991.819	1985.37
992.116	1995.77
992.413	1980.85
992.71	1954.19
993.006	1973.62
993.303	1966.39
993.6	1957.35
993.897	1911.48
994.193	1918.25
994.49	1913.73
994.787	1921.19
995.083	1883.23
995.379	1884.13
995.676	1910.35
995.972	1865.15
996.268	1853.4
996.565	1853.62
996.861	1834.42
997.157	1848.65
997.453	1831.25
997.749	1817.24
998.044	1769.56
998.34	1792.61
998.636	1786.51
998.932	1787.18
999.227	1777.69
999.523	1737.47
999.818	1759.61
1000.114	1729.33
1000.409	1715.1
1000.704	1737.24
1001	1725.49
1001.295	1690.69
1001.59	1722.33
1001.885	1711.93
1002.18	1684.14
1002.475	1683.68
1002.77	1651.59
1003.065	1663.12
1003.359	1689.11
1003.654	1636.91
1003.949	1600.3
1004.243	1619.51
1004.538	1616.79
1004.832	1626.96
1005.127	1607.3
1005.421	1595.55
1005.715	1583.35
1006.009	1555.1
1006.304	1582.9
1006.598	1537.7
1006.892	1555.1
1007.186	1502.22
1007.48	1524.37
1007.773	1517.36
1008.067	1468.55
1008.361	1493.86
1008.655	1510.81
1008.948	1479.17
1009.242	1469.23
1009.535	1460.19
1009.829	1462.67
1010.122	1453.41
1010.415	1444.59
1010.708	1469.45
1011.001	1421.77
1011.295	1418.38
1011.588	1409.34
1011.881	1412.51
1012.173	1414.54
1012.466	1383.81
1012.759	1396.23
1013.052	1398.04
1013.344	1347.42
1013.637	1370.7
1013.93	1351.26
1014.222	1336.35
1014.514	1359.4
1014.807	1313.75
1015.099	1315.56
1015.391	1311.49
1015.683	1306.52
1015.976	1281.44
1016.268	1265.39
1016.56	1293.19
1016.851	1265.84
1017.143	1255.22
1017.435	1243.47
1017.727	1238.95
1018.018	1274.66
1018.31	1228.33
1018.602	1230.59
1018.893	1256.8
1019.185	1192.85
1019.476	1221.55
1019.767	1189.91
1020.058	1189.91
1020.35	1195.34
1020.641	1169.57
1020.932	1177.03
1021.223	1172.51
1021.514	1133.64
1021.804	1139.07
1022.095	1141.78
1022.386	1128.9
1022.677	1131.38
1022.967	1104.94
1023.258	1109.91
1023.548	1098.16
1023.839	1111.04
1024.129	1081.89
1024.419	1069.46
1024.709	1085.51
1025	1095.45
1025.29	1047.54
1025.58	1048.45
1025.87	1068.11
1026.16	1057.26
1026.449	1033.08
1026.739	1033.76
1027.029	1018.84
1027.319	1022.68
1027.608	1019.97
1027.898	1014.1
1028.187	992.18
1028.477	993.08
1028.766	975.23
1029.055	1006.19
1029.344	999.18
1029.634	975
1029.923	962.12
1030.212	928.22
1030.501	956.02
1030.79	948.56
1031.078	928.22
1031.367	928
1031.656	921.44
1031.945	929.81
1032.233	924.61
1032.522	912.86
1032.81	919.41
1033.099	897.26
1033.387	874.21
1033.675	913.54
1033.963	882.12
1034.251	879.41
1034.54	892.07
1034.828	886.19
1035.116	866.08
1035.403	874.67
1035.691	892.07
1035.979	848.23
1036.267	853.2
1036.554	876.47
1036.842	857.94
1037.129	862.01
1037.417	817.27
1037.704	829.47
1037.992	823.14
1038.279	803.48
1038.566	806.19
1038.853	806.19
1039.14	806.19
