Data from White_paper_FLMS001491_074.txt Node
Date: Tue Feb 07 10:35:32 GMT 2017
User: dcchb
Spectrometer: FLMS00149
Trigger mode: 0
Integration Time (sec): 2.000000E-2
Scans to average: 10
Electric dark correction enabled: true
Nonlinearity correction enabled: false
Boxcar width: 0
XAxis mode: Wavelengths
Number of Pixels in Spectrum: 2048
>>>>>Begin Spectral Data<<<<<
341.393	-19.29
341.776	-19.29
342.16	-19.29
342.543	-76.47
342.927	-67.2
343.31	-61.33
343.693	-86.18
344.077	-57.94
344.46	-72.63
344.843	-53.42
345.226	-44.83
345.61	-45.28
345.993	-24.72
346.376	7.6
346.759	20.48
347.142	24.77
347.525	27.03
347.908	64.09
348.291	91.44
348.674	105.68
349.057	105.22
349.44	109.06
349.823	135.05
350.206	186.35
350.588	225.67
350.971	238.1
351.354	248.5
351.737	263.64
352.119	264.32
352.502	295.5
352.884	311.09
353.267	318.55
353.65	321.04
354.032	321.26
354.414	339.79
354.797	326.91
355.179	340.25
355.562	369.17
355.944	365.33
356.326	375.95
356.709	361.94
357.091	378.89
357.473	372.56
357.855	370.75
358.238	358.1
358.62	371.88
359.002	372.56
359.384	376.63
359.766	375.05
360.148	375.27
360.53	378.44
360.912	376.18
361.294	376.18
361.676	367.59
362.057	377.76
362.439	368.27
362.821	369.4
363.203	349.51
363.584	392.45
363.966	373.01
364.348	368.49
364.729	348.61
365.111	364.43
365.493	370.3
365.874	357.42
366.256	376.4
366.637	361.26
367.019	371.43
367.4	362.17
367.781	363.97
368.163	369.85
368.544	362.17
368.925	355.39
369.306	386.35
369.688	366.23
370.069	370.3
370.45	374.14
370.831	373.24
371.212	384.31
371.593	371.43
371.974	381.83
372.355	389.28
372.736	384.76
373.117	384.76
373.498	381.6
373.879	379.34
374.26	376.4
374.641	393.58
375.021	366.69
375.402	382.96
375.783	388.15
376.163	396.51
376.544	386.8
376.925	391.09
377.305	401.49
377.686	401.71
378.066	407.81
378.447	409.17
378.827	401.03
379.208	403.97
379.588	423.63
379.968	408.72
380.349	406.46
380.729	408.27
381.109	425.21
381.489	426.12
381.87	415.05
382.25	400.13
382.63	413.01
383.01	441.94
383.39	440.36
383.77	439.68
384.15	436.29
384.53	437.64
384.91	458.21
385.29	446.91
385.67	458.43
386.049	456.63
386.429	469.28
386.809	453.01
387.189	474.93
387.568	469.51
387.948	488.26
388.328	493.24
388.707	489.85
389.087	493.24
389.466	487.59
389.846	495.72
390.225	507.7
390.605	508.38
390.984	490.98
391.363	519.68
391.743	525.78
392.122	532.1
392.501	523.29
392.881	531.65
393.26	547.92
393.639	526
394.018	564.65
394.397	541.82
394.776	564.87
395.155	560.13
395.534	571.2
395.913	590.18
396.292	584.98
396.671	583.85
397.05	602.61
397.429	584.98
397.808	624.08
398.186	617.07
398.565	603.97
398.944	601.71
399.323	647.58
399.701	632.22
400.08	648.49
400.458	649.16
400.837	661.37
401.215	660.91
401.594	694.36
401.972	680.8
402.351	692.1
402.729	713.12
403.107	736.85
403.486	719.67
403.864	733.68
404.242	763.06
404.62	742.72
404.999	770.74
405.377	750.18
405.755	792.89
406.133	824.53
406.511	824.98
406.889	848.93
407.267	864.53
407.645	878.99
408.023	892.55
408.401	939.1
408.779	938.2
409.156	980.23
409.534	995.6
409.912	998.08
410.29	1043.28
410.667	1039.66
411.045	1081.92
411.422	1125.99
411.8	1134.12
412.178	1154.69
412.555	1188.36
412.933	1237.17
413.31	1260.67
413.687	1234.23
414.065	1296.83
414.442	1335.7
414.819	1364.85
415.197	1387.68
415.574	1417.73
415.951	1461.57
416.328	1484.62
416.705	1495.7
417.082	1495.24
417.46	1518.29
417.837	1614.11
418.214	1595.35
418.591	1631.96
418.967	1649.59
419.344	1652.3
419.721	1686.88
420.098	1729.81
420.475	1768.68
420.852	1784.05
421.228	1798.06
421.605	1829.02
421.982	1857.04
422.358	1862.69
422.735	1935.46
423.111	1953.08
423.488	1997.83
423.864	1980.88
424.241	2020.43
424.617	2047.32
424.994	2088.9
425.37	2107.43
425.746	2116.47
426.123	2146.07
426.499	2123.7
426.875	2181.1
427.251	2230.82
427.627	2278.95
428.003	2317.14
428.379	2330.7
428.756	2377.25
429.132	2386.97
429.507	2432.17
429.883	2501.09
430.259	2520.53
430.635	2543.35
431.011	2586.97
431.387	2652.5
431.763	2701.99
432.138	2687.3
432.514	2749
432.89	2766.4
433.265	2845.72
433.641	2858.15
434.016	2919.84
434.392	2973.4
434.767	3023.34
435.143	3010.68
435.518	3042.1
435.894	3097.69
436.269	3132.71
436.644	3183.79
437.02	3238.25
437.395	3205.71
437.77	3273.05
438.145	3332.03
438.52	3312.82
438.895	3393.95
439.271	3416.1
439.646	3501.07
440.021	3512.82
440.395	3519.14
440.77	3505.36
441.145	3544.23
441.52	3609.31
441.895	3627.39
442.27	3696.99
442.645	3663.1
443.019	3735.86
443.394	3685.02
443.769	3738.35
444.143	3763.43
444.518	3810.21
444.892	3812.7
445.267	3832.36
445.641	3854.28
446.016	3916.65
446.39	3941.96
446.764	3974.27
447.139	3987.61
447.513	3990.54
447.887	4026.02
448.262	4014.5
448.636	4070.09
449.01	4099.24
449.384	4137.66
449.758	4203.65
450.132	4244.55
450.506	4239.58
450.88	4236.41
451.254	4279.8
451.628	4303.98
452.002	4410.65
452.376	4390.08
452.75	4433.47
453.123	4467.14
453.497	4552.56
453.871	4620.36
454.244	4687.48
454.618	4718.89
454.992	4796.63
455.365	4708.72
455.739	4940.8
456.112	4919.56
456.486	4998.65
456.859	5023.29
457.232	5166.11
457.606	5104.87
457.979	5212.89
458.352	5245.88
458.725	5339.44
459.099	5406.78
459.472	5529.94
459.845	5520.67
460.218	5609.71
460.591	5698.07
460.964	5674.79
461.337	5807.9
461.71	5936.93
462.083	5940.1
462.456	5996.14
462.829	6037.95
463.201	6093.99
463.574	6145.52
463.947	6241.33
464.32	6406.3
464.692	6399.3
465.065	6562
465.438	6581.44
465.81	6677.48
466.183	6753.64
466.555	6928.55
466.928	6971.71
467.3	6926.96
467.672	7093.06
468.045	7262.78
468.417	7281.76
468.789	7328.76
469.161	7406.5
469.534	7551.81
469.906	7685.59
470.278	7763.1
470.65	7851.01
471.022	7952.7
471.394	8190.43
471.766	8251
472.138	8352.92
472.51	8510.2
472.882	8635.62
473.253	8690.76
473.625	8856.18
473.997	9030.19
474.369	9100.92
474.74	9194.02
475.112	9348.6
475.484	9536.39
475.855	9621.13
476.227	9777.51
476.598	10033.32
476.97	10095.92
477.341	10319.42
477.713	10567.32
478.084	10559.64
478.455	10845.05
478.827	10955.79
479.198	11209.34
479.569	11276.91
479.94	11616.56
480.311	11649.78
480.682	11862.2
481.053	12192.81
481.424	12318.69
481.795	12484.56
482.166	12683.2
482.537	12834.83
482.908	13146.69
483.279	13195.5
483.65	13518.66
484.021	13689.72
484.391	13848.36
484.762	14127.45
485.133	14115.7
485.503	14341.01
485.874	14659.42
486.244	14737.38
486.615	15070.03
486.985	15179.18
487.356	15392.96
487.726	15578.26
488.097	15909.78
488.467	15976.44
488.837	16354.97
489.207	16499.59
489.578	16774.39
489.948	16880.15
490.318	17087.15
490.688	17148.62
491.058	17419.34
491.428	17758.54
491.798	17770.07
492.168	18154.01
492.538	18205.54
492.908	18410.05
493.278	18679.2
493.648	18711.51
494.017	18939.3
494.387	19076.48
494.757	19262.46
495.126	19410.7
495.496	19560.08
495.866	19641.43
496.235	19878.71
496.605	20071.93
496.974	20109.67
497.344	20267.63
497.713	20481.18
498.082	20599.83
498.452	20838.46
498.821	20919.37
499.19	20918.01
499.559	21133.37
499.928	21420.14
500.298	21534.26
500.667	21643.41
501.036	21575.62
501.405	21882.5
501.774	21949.62
502.143	22225.09
502.512	22191.2
502.88	22440.68
503.249	22376.5
503.618	22596.61
503.987	22732.88
504.356	22919.09
504.724	23000.89
505.093	23116.37
505.462	23293.31
505.83	23380.54
506.199	23594.32
506.567	23801.55
506.936	23815.33
507.304	24197.47
507.672	24338.71
508.041	24428.43
508.409	24541.64
508.777	24763.11
509.145	24905.7
509.514	24890.56
509.882	25244.9
510.25	25211.68
510.618	25467.95
510.986	25512.46
511.354	25814.6
511.722	26034.71
512.09	26259.11
512.458	26214.82
512.826	26367.13
513.193	26630.18
513.561	26723.05
513.929	26939.55
514.297	27098.86
514.664	27290.05
515.032	27458.85
515.4	27660.2
515.767	27804.38
516.135	27939.07
516.502	27788.56
516.869	28270.58
517.237	28317.59
517.604	28316.23
517.972	28701.31
518.339	28805.26
518.706	28961.41
519.073	29084.57
519.44	29433.04
519.808	29613.83
520.175	29545.13
520.542	29992.8
520.909	30159.57
521.276	30210.42
521.643	30514.82
522.009	30635.95
522.376	30887.46
522.743	31018.31
523.11	31404.51
523.477	31644.51
523.843	31866.87
524.21	32223.7
524.577	32389.35
524.943	32469.12
525.31	32607.42
525.676	32841.54
526.043	33098.93
526.409	33240.85
526.776	33669.99
527.142	33748.86
527.508	34019.59
527.874	34190.65
528.241	34488.73
528.607	34412.12
528.973	34907.92
529.339	34929.84
529.705	35140.01
530.071	35503.39
530.437	35511.52
530.803	35855.02
531.169	35870.61
531.535	36001.45
531.901	36178.85
532.267	36291.39
532.632	36528.45
532.998	36662.91
533.364	37025.16
533.73	37097.24
534.095	37377.92
534.461	37523.9
534.826	37560.74
535.192	37575.65
535.557	37948.97
535.923	38020.38
536.288	38146.03
536.653	38366.36
537.019	38353.03
537.384	38623.76
537.749	38746.47
538.114	38843.64
538.479	38867.82
538.845	39067.14
539.21	39234.14
539.575	39293.57
539.94	39423.06
540.305	39685.43
540.67	39649.27
541.034	39713.9
541.399	39957.73
541.764	40128.13
542.129	40349.81
542.494	40352.3
542.858	40649.69
543.223	40640.65
543.587	40929.01
543.952	40818.95
544.316	41023.24
544.681	41095.33
545.045	41312.95
545.41	41557.92
545.774	41493.74
546.138	41654.41
546.503	41792.94
546.867	41837.46
547.231	42166.26
547.595	42167.62
547.959	42410.1
548.324	42478.35
548.688	42494.39
549.052	42719.24
549.416	42840.37
549.779	42872.91
550.143	43028.16
550.507	43291.21
550.871	43351.77
551.235	43419.34
551.599	43726.45
551.962	43710.4
552.326	43902.49
552.689	44141.35
553.053	43950.17
553.417	44215.02
553.78	44607.56
554.143	44463.83
554.507	44629.93
554.87	44898.17
555.234	45198.73
555.597	44978.85
555.96	45334.99
556.323	45379.51
556.686	45353.98
557.05	45707.87
557.413	45844.81
557.776	45947.63
558.139	46281.18
558.502	46233.28
558.865	46434.4
559.228	46649.99
559.59	46847.72
559.953	46865.58
560.316	47292.46
560.679	47197.09
561.041	47445.45
561.404	47599.12
561.767	47811.99
562.129	47760.47
562.492	48130.85
562.854	48134.02
563.217	48271.87
563.579	48330.17
563.941	48586.21
564.304	48712.08
564.666	48976.48
565.028	49000.43
565.39	49145.74
565.753	49386.64
566.115	49562.91
566.477	49682.22
566.839	49811.71
567.201	50005.61
567.563	50015.78
567.925	50243.34
568.287	50220.06
568.648	50406.5
569.01	50584.57
569.372	50733.95
569.734	50746.6
570.095	50914.96
570.457	51128.06
570.819	51137.1
571.18	51133.49
571.542	51371.45
571.903	51459.35
572.265	51580.71
572.626	51721.72
572.987	51792.9
573.349	51894.6
573.71	52057.3
574.071	52128.71
574.432	52209.39
574.794	52454.13
575.155	52353.34
575.516	52318.31
575.877	52527.57
576.238	52592.88
576.599	52704.07
576.96	52686.67
577.32	52736.83
577.681	52892.54
578.042	52888.24
578.403	52978.64
578.763	53013.89
579.124	53144.73
579.485	53249.59
579.845	53342.47
580.206	53296.59
580.566	53388.57
580.927	53332.52
581.287	53470.15
581.648	53454.78
582.008	53506.53
582.368	53499.07
582.728	53664.72
583.089	53525.51
583.449	53498.4
583.809	53585.4
584.169	53752.85
584.529	53594.89
584.889	53811.16
585.249	53714.66
585.609	53666.98
585.969	53855.45
586.329	53805.73
586.688	53862
587.048	53859.29
587.408	53883.24
587.768	53906.97
588.127	53898.39
588.487	53815
588.846	54051.15
589.206	53895.67
589.565	53913.98
589.925	54110.81
590.284	53971.6
590.643	54047.76
591.003	54141.99
591.362	54200.07
591.721	54102.9
592.08	54137.93
592.44	54238.49
592.799	54202.33
593.158	54187.42
593.517	54298.6
593.876	54272.16
594.235	54219.51
594.593	54230.81
594.952	54311.71
595.311	54257.92
595.67	54367.75
596.029	54466.73
596.387	54482.32
596.746	54595.32
597.104	54372.5
597.463	54386.06
597.822	54546.96
598.18	54502.21
598.538	54460.63
598.897	54562.77
599.255	54371.37
599.613	54782.88
599.972	54684.81
600.33	54670.79
600.688	54581.76
601.046	54700.85
601.404	54859.72
601.762	54699.04
602.12	54927.06
602.478	54905.36
602.836	54869.43
603.194	54781.07
603.552	54832.15
603.91	54758.02
604.268	54904.69
604.625	54816.55
604.983	54903.33
605.341	54824.91
605.698	54954.18
606.056	54957.34
606.413	54986.27
606.771	55085.25
607.128	55049.77
607.485	55020.16
607.843	54996.21
608.2	55193.49
608.557	55237.56
608.914	55208.41
609.272	55286.82
609.629	55332.7
609.986	55374.28
610.343	55243.43
610.7	55364.56
611.057	55422.41
611.414	55430.1
611.771	55404.11
612.127	55499.92
612.484	55466.93
612.841	55564.1
613.198	55532.47
613.554	55530.66
613.911	55669.86
614.267	55671.9
614.624	55643.42
614.98	55721.39
615.337	55824.21
615.693	55745.57
616.05	55713.03
616.406	55835.51
616.762	55716.42
617.118	55734.04
617.475	55776.08
617.831	55910.54
618.187	55853.59
618.543	55868.73
618.899	55955.96
619.255	55948.95
619.611	55909.41
619.967	55976.75
620.323	56035.5
620.678	55945.79
621.034	55852.23
621.39	55977.88
621.746	55915.51
622.101	56207.7
622.457	55906.69
622.812	55998.22
623.168	56077.31
623.523	56021.27
623.879	56130.87
624.234	55957.54
624.589	56040.48
624.945	56073.02
625.3	56144.43
625.655	56057.65
626.01	56078.44
626.365	56087.71
626.72	56081.6
627.075	56040.25
627.43	56054.26
627.785	56015.39
628.14	56086.12
628.495	56161.15
628.85	56110.53
629.205	56014.26
629.559	56161.38
629.914	56103.75
630.269	56083.41
630.623	56032.57
630.978	55914.38
631.332	56041.38
631.687	56162.51
632.041	56075.05
632.396	56079.34
632.75	55900.14
633.104	56026.92
633.459	55911.44
633.813	55934.49
634.167	55927.03
634.521	55860.37
634.875	55907.6
635.229	55864.89
635.583	55752.12
635.937	55696.98
636.291	55762.97
636.645	55720.03
636.999	55666.47
637.352	55781.05
637.706	55570.66
638.06	55757.32
638.413	55761.39
638.767	55558.91
639.121	55647.04
639.474	55466.93
639.828	55547.38
640.181	55573.82
640.534	55641.84
640.888	55469.64
641.241	55401.4
641.594	55465.8
641.947	55509.19
642.301	55441.4
642.654	55557.78
643.007	55469.64
643.36	55392.36
643.713	55353.26
644.066	55428.51
644.419	55212.25
644.771	55113.49
645.124	54847.96
645.477	54791.24
645.83	54689.78
646.182	54566.16
646.535	54528.88
646.888	54556.9
647.24	54393.51
647.593	54585.15
647.945	54452.04
648.298	54385.15
648.65	54364.36
649.002	54283.69
649.355	54438.26
649.707	54406.17
650.059	54426.05
650.411	54772.71
650.763	54821.52
651.115	55125.25
651.467	54971.58
651.819	54965.48
652.171	54976.1
652.523	54907.4
652.875	54861.75
653.227	54857.23
653.578	55025.81
653.93	54973.84
654.282	54845.48
654.633	54734.52
654.985	54833.5
655.337	54787.18
655.688	54775.2
656.039	54919.15
656.391	54553.96
656.742	54639.83
657.094	54685.93
657.445	54788.08
657.796	54711.47
658.147	54725.48
658.498	54682.09
658.849	54715.99
659.2	54657.69
659.551	54568.88
659.902	54736.78
660.253	54588.54
660.604	54643.45
660.955	54519.84
661.306	54634.64
661.656	54597.12
662.007	54598.03
662.358	54592.38
662.708	54560.74
663.059	54521.19
663.409	54289.34
663.76	54555.77
664.11	54536.11
664.461	54544.02
664.811	54550.57
665.161	54510.35
665.511	54409.78
665.862	54406.62
666.212	54477.58
666.562	54483.23
666.912	54490.01
667.262	54355.1
667.612	54411.37
667.962	54437.58
668.312	54337.24
668.662	54433.96
669.011	54358.49
669.361	54258.38
669.711	54237.36
670.06	54260.64
670.41	54200.52
670.76	54117.14
671.109	54258.83
671.459	54159.17
671.808	54118.49
672.157	54174.76
672.507	54028.33
672.856	53928.21
673.205	54069.68
673.554	54105.16
673.904	53976.35
674.253	54140.41
674.602	54023.81
674.951	53567.09
675.3	53437.83
675.649	53888.44
675.998	53828.56
676.346	53845.96
676.695	54005.5
677.044	53714.66
677.393	53778.16
677.741	53830.36
678.09	53699.07
678.438	53683.25
678.787	53757.37
679.135	53674.44
679.484	53413.43
679.832	53592.86
680.181	53404.16
680.529	53528.68
680.877	53392.41
681.225	53428.34
681.573	53519.41
681.922	53269.93
682.27	53198.29
682.618	53225.63
682.966	53094.56
683.314	53196.26
683.661	53000.56
684.009	52828.13
684.357	52832.2
684.705	52756.27
685.053	52820.9
685.4	52791.3
685.748	52537.74
686.095	52500
686.443	52478.99
686.79	52460.91
687.138	52462.04
687.485	52339.56
687.832	52209.39
688.18	52288.03
688.527	52155.38
688.874	52095.27
689.221	51991.77
689.568	51798.1
689.915	51696.41
690.262	51773.24
690.609	51747.93
690.956	51527.15
691.303	51560.37
691.65	51381.16
691.997	51438.56
692.344	51132.13
692.69	51188.4
693.037	51177.33
693.383	50925.58
693.73	50968.29
694.077	50862.08
694.423	50830.9
694.769	50597.68
695.116	50629.09
695.462	50588.87
695.808	50391.13
696.155	50468.19
696.501	50263.9
696.847	50219.61
697.193	50045.15
697.539	49993.63
697.885	49862.56
698.231	49776.01
698.577	49712.51
698.923	49669.8
699.269	49489.69
699.614	49239.98
699.96	49296.7
700.306	49209.92
700.651	49097.61
700.997	49024.39
701.342	48925.86
701.688	48842.47
702.033	48743.94
702.379	48695.81
702.724	48583.04
703.069	48729.48
703.415	48237.06
703.76	48227.57
704.105	48250.62
704.45	48070.52
704.795	47839.34
705.14	47875.94
705.485	47864.65
705.83	47594.6
706.175	47624.2
706.52	47620.36
706.865	47548.95
707.209	47291.33
707.554	47164.78
707.899	47230.99
708.243	47052.92
708.588	46969.98
708.932	46934.27
709.277	46790.55
709.621	46749.42
709.966	46523.21
710.31	46619.48
710.654	46250.22
710.998	46307.17
711.342	46302.88
711.687	46224.24
712.031	45949.89
712.375	45893.17
712.719	46029.21
713.063	45971.59
713.407	46131.13
713.75	45754.87
714.094	45719.84
714.438	45537.93
714.782	45595.1
715.125	45440.3
715.469	45495.22
715.812	45262.45
716.156	45065.17
716.499	45096.13
716.843	45089.35
717.186	44812.97
717.53	45053.19
717.873	44970.03
718.216	44904.95
718.559	44750.6
718.902	44344.06
719.246	44571.4
719.589	44395.58
719.932	44348.58
720.275	44261.8
720.617	44295.47
720.96	44092.77
721.303	44214.12
721.646	44185.65
721.989	43837.41
722.331	44029.94
722.674	43809.38
723.016	43820.23
723.359	43657.75
723.701	43760.35
724.044	43409.62
724.386	43220.7
724.729	43463.41
725.071	43315.61
725.413	43398.77
725.755	43172.57
726.097	43135.05
726.439	43054.83
726.782	42872.69
727.124	43102.96
727.465	42845.12
727.807	42903.42
728.149	42767.15
728.491	42614.16
728.833	42660.94
729.175	42409.87
729.516	42312.25
729.858	42462.98
730.199	42504.11
730.541	42320.84
730.882	42304.79
731.224	42420.04
731.565	42161.52
731.906	42253.04
732.248	42135.08
732.589	41747.29
732.93	41778.03
733.271	41814.41
733.612	41944.58
733.953	41901.86
734.294	41687.41
734.635	41686.73
734.976	41471.14
735.317	41509.11
735.658	41381.65
735.999	41414.65
736.339	41296.46
736.68	41444.7
737.021	41212.62
737.361	41027.76
737.702	41283.35
738.042	41131.26
738.383	41011.04
738.723	41166.06
739.063	40871.61
739.404	40974.66
739.744	40886.98
740.084	40754.55
740.424	40675.68
740.764	40631.16
741.104	40771.27
741.444	40566.76
741.784	40404.5
742.124	40482.01
742.464	40407.67
742.804	40423.71
743.143	40302.36
743.483	40383.26
743.823	40087.45
744.162	39998.41
744.502	40137.84
744.841	39976.72
745.181	39996.83
745.52	39853.1
745.86	39968.36
746.199	39888.58
746.538	39754.35
746.877	39840.68
747.216	39781.02
747.556	39632.55
747.895	39610.17
748.234	39343.29
748.573	39477.52
748.911	39306.23
749.25	39361.14
749.589	39234.82
749.928	39121.37
750.267	39248.15
750.605	39075.5
750.944	39023.75
751.283	38786.92
751.621	38971.55
751.96	38673.02
752.298	38649.07
752.636	38619.01
752.975	38537.43
753.313	38464.89
753.651	38600.48
753.989	38202.3
754.327	38252.02
754.666	37989.2
755.004	38202.3
755.342	38111.68
755.679	38021.97
756.017	37795.76
756.355	37840.28
756.693	37666.27
757.031	37788.07
757.368	37680.05
757.706	37452.72
758.044	37399.61
758.381	37399.84
758.719	37184.02
759.056	37261.99
759.394	37202.33
759.731	36753.07
760.068	36872.39
760.405	36724.6
760.743	36534.55
761.08	36612.06
761.417	36436.92
761.754	36479.18
762.091	36378.17
762.428	36162.81
762.765	35943.38
763.102	36161.68
763.438	35816.37
763.775	35702.93
764.112	35757.85
764.449	35798.97
764.785	35471.07
765.122	35255.94
765.458	34986.57
765.795	35274.69
766.131	35064.76
766.467	35016.85
766.804	34827.25
767.14	34577.99
767.476	34570.08
767.812	34582.28
768.148	34436.52
768.485	34295.74
768.821	34116.53
769.157	34027.95
769.492	33961.96
769.828	33942.98
770.164	33646.49
770.5	33626.38
770.836	33618.47
771.171	33398.13
771.507	33362.2
771.842	33119.04
772.178	33049.67
772.513	33019.61
772.849	32866.85
773.184	32784.59
773.519	32840.86
773.855	32560.64
774.19	32489.68
774.525	32223.47
774.86	32317.71
775.195	32140.31
775.53	32087.43
775.865	31977.61
776.2	31753.66
776.535	31558.63
776.87	31517.28
777.205	31504.4
777.539	31268.92
777.874	31313.44
778.209	30978.76
778.543	31030.51
778.878	30754.36
779.212	30820.57
779.547	30648.37
779.881	30760.46
780.215	30448.15
780.55	30469.17
780.884	30296.52
781.218	30147.82
781.552	30183.98
781.886	30025.57
782.22	29815.18
782.554	29745.8
782.888	29507.61
783.222	29357.79
783.556	29405.7
783.889	29289.77
784.223	29068.53
784.557	29040.51
784.89	28983.79
785.224	28833.73
785.557	28697.24
785.891	28570.92
786.224	28550.35
786.558	28533.18
786.891	28235.56
787.224	28069.69
787.557	28125.5
787.891	28091.83
788.224	28031.27
788.557	27999.18
788.89	27875.11
789.223	27776.81
789.556	27727.32
789.888	27509.25
790.221	27481
790.554	27204.4
790.887	27258.86
791.219	27152.87
791.552	27060.22
791.884	26935.03
792.217	26811.64
792.549	26723.28
792.882	26519.44
793.214	26482.38
793.546	26543.17
793.879	26398.09
794.211	26206.46
794.543	26358.54
794.875	26141.83
795.207	26230.86
795.539	25952.91
795.871	25940.48
796.203	25768.28
796.535	25609.41
796.867	25635.4
797.198	25593.37
797.53	25524.67
797.862	25341.4
798.193	25434.5
798.525	25163.77
798.856	25196.77
799.188	25017.11
799.519	24884.91
799.85	24820.51
800.182	24847.17
800.513	24912.25
800.844	24581.87
801.175	24605.37
801.506	24709.32
801.837	24472.94
802.168	24331.7
802.499	24260.29
802.83	24187.3
803.161	24112.73
803.491	24193.63
803.822	24172.16
804.153	24020.75
804.483	23780.76
804.814	23743.92
805.145	23742.12
805.475	23579.41
805.805	23573.98
806.136	23533.99
806.466	23496.7
806.796	23450.82
807.126	23306.87
807.457	23200.89
807.787	23302.81
808.117	23120.44
808.447	23144.39
808.777	23068.46
809.107	22988.01
809.436	22887
809.766	22909.14
810.096	22748.02
810.426	22750.5
810.755	22760.9
811.085	22665.08
811.414	22485.2
811.744	22359.1
812.073	22424.64
812.403	22388.48
812.732	22185.09
813.061	22207.92
813.39	22143.97
813.719	22036.62
814.049	22164.76
814.378	22120.92
814.707	21877.76
815.036	21832.11
815.365	21780.13
815.693	21600.93
816.022	21672.11
816.351	21644.77
816.68	21573.59
817.008	21536.07
817.337	21388.96
817.665	21323.42
817.994	21362.29
818.322	21463.76
818.651	21226.7
818.979	21141.73
819.307	21164.78
819.636	21252.01
819.964	20967.73
820.292	21081.39
820.62	21053.15
820.948	20978.35
821.276	21039.36
821.604	20924.34
821.932	21071.9
822.259	20972.25
822.587	20913.94
822.915	20902.42
823.243	20967.73
823.57	20882.98
823.898	20948.07
824.225	20793.72
824.553	20899.93
824.88	20784.45
825.207	20915.98
825.535	20889.76
825.862	20946.03
826.189	20767.96
826.516	20880.27
826.843	20888.63
827.17	20807.28
827.497	20938.12
827.824	20803.21
828.151	20931.34
828.478	20752.59
828.805	20904.45
829.131	20700.61
829.458	20859.03
829.785	20605.7
830.111	20852.93
830.438	20833.94
830.764	20842.31
831.09	20759.82
831.417	20669.43
831.743	20870.33
832.069	20776.54
832.395	20596.44
832.722	20764.12
833.048	20651.58
833.374	20675.53
833.7	20554.18
834.026	20592.14
834.351	20607.96
834.677	20610.67
835.003	20581.29
835.329	20582.42
835.654	20446.84
835.98	20445.25
836.306	20446.84
836.631	20407.51
836.956	20437.12
837.282	20432.6
837.607	20298.14
837.932	20273.28
838.258	20188.99
838.583	20221.53
838.908	20146.5
839.233	20203
839.558	20060.4
839.883	20044.36
840.208	19941.54
840.533	20055.21
840.858	20021.54
841.182	20093.85
841.507	19818.6
841.832	19831.48
842.156	19818.83
842.481	19744.03
842.805	19594.43
843.13	19667.87
843.454	19681.88
843.778	19539.06
844.103	19475.34
844.427	19517.59
844.751	19489.35
845.075	19408.22
845.399	19345.62
845.723	19235.12
846.047	19217.49
846.371	19185.17
846.695	19115.34
847.019	18818.18
847.343	18873.54
847.666	18779.53
847.99	18642.59
848.313	18655.47
848.637	18507
848.96	18502.48
849.284	18391.75
849.607	18352.2
849.931	18248.02
850.254	18174.58
850.577	18085.77
850.9	17978.65
851.223	17906.56
851.546	17830.86
851.869	17691.88
852.192	17787.92
852.515	17656.4
852.838	17584.09
853.161	17514.26
853.483	17467.25
853.806	17452.34
854.129	17392
854.451	17293.92
854.774	17235.39
855.096	17150.2
855.419	17094.16
855.741	17058.68
856.063	16915.4
856.385	16915.18
856.708	16875.4
857.03	16856.2
857.352	16846.93
857.674	16729.42
857.996	16662.3
858.318	16606.71
858.64	16718.35
858.961	16528.75
859.283	16528.29
859.605	16429.09
859.926	16544.56
860.248	16488.07
860.57	16362.87
860.891	16419.37
861.212	16244.01
861.534	16252.14
861.855	16126.72
862.176	16267.28
862.498	16131.69
862.819	16142.99
863.14	16021.64
863.461	15986.61
863.782	15942.55
864.103	15970.34
864.424	15890.34
864.745	15901.19
865.065	15847.86
865.386	15783
865.707	15871.59
866.027	15839.5
866.348	15730.58
866.668	15742.1
866.989	15714.53
867.309	15610.13
867.63	15696.23
867.95	15600.63
868.27	15492.62
868.59	15551.82
868.91	15537.13
869.23	15487.87
869.55	15413.3
869.87	15515.21
870.19	15429.57
870.51	15415.78
870.83	15334.2
871.15	15327.87
871.469	15306.86
871.789	15326.52
872.109	15326.29
872.428	15255.56
872.748	15249.68
873.067	15273.19
873.386	15223.24
873.706	15263.24
874.025	15044.04
874.344	15042.23
874.663	15069.8
874.982	15058.73
875.301	15065.06
875.62	14926.98
875.939	14913.42
876.258	14934.66
876.577	14836.59
876.896	14883.14
877.214	14712.07
877.533	14795.91
877.852	14866.87
878.17	14802.01
878.489	14801.11
878.807	14757.27
879.125	14745.74
879.444	14630.94
879.762	14637.95
880.08	14694.22
880.398	14606.08
880.716	14540.32
881.034	14623.94
881.352	14523.38
881.67	14374.45
881.988	14481.79
882.306	14459.2
882.624	14359.09
882.941	14339.88
883.259	14283.83
883.577	14337.39
883.894	14163.38
884.212	14161.35
884.529	14149.37
884.846	14164.29
885.164	14106.44
885.481	13999.55
885.798	14178.07
886.115	13941.7
886.432	13938.53
886.75	13940.11
887.067	13886.78
887.383	13880.91
887.7	13842.04
888.017	13790.74
888.334	13838.42
888.651	13720.91
888.967	13712.1
889.284	13730.4
889.6	13557.75
889.917	13509.84
890.233	13527.02
890.55	13452.89
890.866	13481.14
891.182	13433.01
891.498	13350.75
891.815	13358.89
892.131	13338.32
892.447	13262.84
892.763	13189.17
893.079	13099.68
893.395	13168.61
893.71	13065.79
894.026	13026.01
894.342	13036.86
894.657	12950.31
894.973	12963.19
895.289	12957.09
895.604	12925.45
895.92	12852.68
896.235	12718
896.55	12799.35
896.865	12762.07
897.181	12662.41
897.496	12586.48
897.811	12574.5
898.126	12505.58
898.441	12468.51
898.756	12448.4
899.071	12325.92
899.386	12382.87
899.7	12334.05
900.015	12256.99
900.33	12115.3
900.644	12169.31
900.959	12176.54
901.273	12035.31
901.588	12084.57
901.902	11965.93
902.216	11921.41
902.531	11861.07
902.845	11873.5
903.159	11777.46
903.473	11659.5
903.787	11726.61
904.101	11701.08
904.415	11708.31
904.729	11577.24
905.042	11581.76
905.356	11478.71
905.67	11465.6
905.984	11442.78
906.297	11341.99
906.611	11301.54
906.924	11339.28
907.237	11282.1
907.551	11179.73
907.864	11138.38
908.177	11072.84
908.491	11067.19
908.804	11037.59
909.117	10902.91
909.43	10927.99
909.743	10744.94
910.056	10799.18
910.368	10777.26
910.681	10671.95
910.994	10712.18
911.307	10692.74
911.619	10500.43
911.932	10595.12
912.244	10535.91
912.557	10436.48
912.869	10403.26
913.181	10381.56
913.494	10317.61
913.806	10298.18
914.118	10245.07
914.43	10177.27
914.742	10204.84
915.054	10035.58
915.366	10061.8
915.678	9992.65
915.99	9973.66
916.302	9883.72
916.613	9896.15
916.925	9877.17
917.236	9911.52
917.548	9773.67
917.859	9761.47
918.171	9730.51
918.482	9666.55
918.794	9643.28
919.105	9570.96
919.416	9507.46
919.727	9483.06
920.038	9440.12
920.349	9350.4
920.66	9366.9
920.971	9371.65
921.282	9295.49
921.593	9206
921.903	9201.93
922.214	9183.85
922.525	9129.17
922.835	8995.61
923.146	9029.96
923.456	9038.32
923.767	8895.05
924.077	8891.88
924.387	8935.95
924.697	8834.26
925.008	8783.87
925.318	8774.6
925.628	8795.62
925.938	8731.66
926.248	8676.98
926.558	8608.5
926.867	8582.74
927.177	8522.18
927.487	8527.37
927.796	8417.77
928.106	8396.98
928.416	8352.92
928.725	8330.54
929.034	8295.06
929.344	8324.89
929.653	8278.57
929.962	8184.11
930.271	8123.32
930.581	8115.41
930.89	8088.29
931.199	8075.18
931.508	8034.05
931.817	8008.97
932.125	8008.97
932.434	7942.76
932.743	7862.76
933.051	7831.8
933.36	7836.77
933.669	7826.6
933.977	7747.06
934.286	7720.84
934.594	7693.05
934.902	7651.92
935.21	7601.75
935.519	7631.13
935.827	7480.85
936.135	7486.5
936.443	7411.02
936.751	7401.3
937.059	7397.01
937.367	7406.05
937.674	7379.83
937.982	7312.72
938.29	7303.9
938.597	7230.01
938.905	7221.87
939.213	7186.39
939.52	7111.59
939.827	7155.66
940.135	7112.95
940.442	7046.74
940.749	7031.14
941.056	7038.37
941.363	6943.01
941.67	6894.65
941.977	6881.54
942.284	6801.77
942.591	6824.14
942.898	6792.73
943.205	6800.87
943.511	6706.86
943.818	6682.45
944.125	6655.33
944.431	6573.3
944.738	6642.45
945.044	6597.03
945.35	6535.34
945.657	6488.11
945.963	6462.34
946.269	6466.86
946.575	6457.15
946.881	6413.76
947.187	6410.14
947.493	6376.7
947.799	6362.91
948.105	6301.67
948.41	6288.34
948.716	6232.75
949.022	6182.8
949.327	6185.74
949.633	6112.75
949.938	6131.96
950.244	6179.19
950.549	6095.35
950.854	6048.34
951.16	5989.36
951.465	5986.2
951.77	6010.38
952.075	5933.09
952.38	5866.88
952.685	5903.71
952.99	5832.53
953.294	5818.07
953.599	5811.74
953.904	5742.14
954.209	5755.02
954.513	5729.48
954.818	5685.42
955.122	5672.99
955.426	5665.53
955.731	5598.64
956.035	5600.9
956.339	5542.37
956.643	5547.79
956.948	5544.18
957.252	5503.5
957.556	5450.39
957.86	5458.98
958.163	5436.16
958.467	5426.89
958.771	5366.1
959.075	5313.45
959.378	5382.6
959.682	5295.14
959.985	5320.23
960.289	5282.04
960.592	5217.63
960.896	5165.88
961.199	5213.11
961.502	5185.77
961.805	5117.07
962.108	5123.4
962.411	5080.69
962.714	5029.39
963.017	5028.48
963.32	5049.73
963.623	4947.58
963.926	4959.11
964.228	4943.51
964.531	4912.33
964.833	4894.93
965.136	4854.25
965.438	4884.76
965.741	4863.06
966.043	4792.78
966.345	4805.89
966.648	4814.48
966.95	4722.05
967.252	4708.04
967.554	4677.76
967.856	4680.92
968.158	4685.44
968.46	4645.44
968.761	4642.96
969.063	4593.69
969.365	4582.17
969.666	4564.09
969.968	4527.25
970.269	4488.16
970.571	4521.83
970.872	4451.1
971.174	4452
971.475	4470.08
971.776	4416.52
972.077	4382.4
972.378	4407.48
972.679	4348.95
972.98	4302.63
973.281	4321.16
973.582	4295.4
973.883	4302.18
974.183	4232.57
974.484	4282.06
974.785	4218.34
975.085	4180.14
975.386	4226.47
975.686	4164.1
975.986	4126.13
976.287	4128.62
976.587	4114.84
976.887	4051.11
977.187	4078.9
977.487	4033.26
977.787	4033.03
978.087	4027.38
978.387	3992.58
978.687	4007.27
978.987	3942.86
979.286	3911.68
979.586	3918.46
979.885	3862.19
980.185	3849.31
980.484	3862.19
980.784	3816.54
981.083	3780.61
981.382	3800.04
981.682	3805.24
981.981	3757.78
982.28	3742.87
982.579	3731.34
982.878	3724.11
983.177	3725.24
983.475	3685.02
983.774	3639.82
984.073	3674.85
984.372	3589.2
984.67	3634.4
984.969	3595.98
985.267	3598.24
985.566	3591.91
985.864	3568.41
986.162	3518.92
986.461	3480.05
986.759	3518.69
987.057	3488.19
987.355	3479.37
987.653	3473.5
987.951	3453.84
988.249	3442.76
988.547	3458.36
988.844	3376.1
989.142	3380.62
989.44	3364.8
989.737	3350.11
990.035	3320.96
990.332	3319.15
990.63	3301.52
990.927	3299.49
991.224	3253.39
991.521	3253.16
991.819	3229.89
992.116	3237.12
992.413	3224.92
992.71	3155.99
993.006	3176.33
993.303	3169.32
993.6	3142.21
993.897	3092.72
994.193	3147.18
994.49	3059.04
994.787	3059.95
995.083	3059.72
995.379	3019.27
995.676	3048.87
995.972	3000.29
996.268	2972.04
996.565	2954.64
996.861	2993.06
997.157	2977.01
997.453	2929.56
997.749	2931.36
998.044	2889.1
998.34	2907.64
998.636	2881.42
998.932	2867.18
999.227	2845.04
999.523	2812.5
999.818	2793.29
1000.114	2793.06
1000.409	2823.57
1000.704	2762.1
1001	2788.32
1001.295	2722.1
1001.59	2716.68
1001.885	2705.15
1002.18	2666.51
1002.475	2683.23
1002.77	2688.66
1003.065	2597.81
1003.359	2661.77
1003.654	2605.72
1003.949	2562.56
1004.243	2584.25
1004.538	2529.11
1004.832	2567.08
1005.127	2529.11
1005.421	2526.4
1005.715	2471.71
1006.009	2486.18
1006.304	2488.89
1006.598	2451.6
1006.892	2458.16
1007.186	2395.56
1007.48	2433.3
1007.773	2415.67
1008.067	2394.43
1008.361	2400.98
1008.655	2363.02
1008.948	2320.98
1009.242	2314.43
1009.535	2296.58
1009.829	2331.15
1010.122	2295.45
1010.415	2247.31
1010.708	2295.45
1011.001	2229.46
1011.295	2278.5
1011.588	2199.41
1011.881	2203.02
1012.173	2198.05
1012.466	2216.13
1012.759	2160.08
1013.052	2145.4
1013.344	2116.24
1013.637	2117.37
1013.93	2153.98
1014.222	2117.15
1014.514	2092.06
1014.807	2119.18
1015.099	2065.85
1015.391	2053.65
1015.683	2061.33
1015.976	2030.37
1016.268	1989.92
1016.56	1991.05
1016.851	1986.53
1017.143	1984.27
1017.435	1954.44
1017.727	1958.96
1018.018	1971.39
1018.31	1912.63
1018.602	1928.68
1018.893	1911.5
1019.185	1869.02
1019.476	1867.44
1019.767	1861.79
1020.058	1842.13
1020.35	1828.79
1020.641	1817.04
1020.932	1828.34
1021.223	1800.77
1021.514	1758.51
1021.804	1753.32
1022.095	1730.27
1022.386	1725.52
1022.677	1735.69
1022.967	1699.31
1023.258	1698.63
1023.548	1689.36
1023.839	1695.92
1024.129	1677.39
1024.419	1655.01
1024.709	1618.86
1025	1617.27
1025.29	1597.16
1025.58	1603.04
1025.87	1615.69
1026.16	1603.71
1026.449	1576.37
1026.739	1570.5
1027.029	1591.51
1027.319	1546.54
1027.608	1551.74
1027.898	1545.64
1028.187	1549.93
1028.477	1498.41
1028.766	1511.51
1029.055	1497.5
1029.344	1491.4
1029.634	1472.42
1029.923	1454.34
1030.212	1443.95
1030.501	1441.46
1030.79	1434.23
1031.078	1411.4
1031.367	1376.38
1031.656	1395.81
1031.945	1378.64
1032.233	1357.62
1032.522	1372.99
1032.81	1331.18
1033.099	1337.06
1033.387	1351.07
1033.675	1313.1
1033.963	1316.49
1034.251	1320.11
1034.54	1283.5
1034.828	1310.39
1035.116	1294.8
1035.403	1276.94
1035.691	1257.74
1035.979	1272.2
1036.267	1262.25
1036.554	1245.76
1036.842	1237.85
1037.129	1235.14
1037.417	1228.58
1037.704	1223.61
1037.992	1180.22
1038.279	1199.88
1038.566	1185.87
1038.853	1185.87
1039.14	1185.87
