Data from White_paper_FLMS001491_081.txt Node
Date: Tue Feb 07 10:35:39 GMT 2017
User: dcchb
Spectrometer: FLMS00149
Trigger mode: 0
Integration Time (sec): 2.000000E-2
Scans to average: 10
Electric dark correction enabled: true
Nonlinearity correction enabled: false
Boxcar width: 0
XAxis mode: Wavelengths
Number of Pixels in Spectrum: 2048
>>>>>Begin Spectral Data<<<<<
341.393	-26.3
341.776	-26.3
342.16	-26.3
342.543	-50.93
342.927	-63.13
343.31	-68.56
343.693	-62
344.077	-62.46
344.46	-66.07
344.843	-76.69
345.226	-32.17
345.61	-23.36
345.993	-6.41
346.376	-7.09
346.759	25.23
347.142	19.58
347.525	36.52
347.908	60.48
348.291	60.48
348.674	101.83
349.057	100.7
349.44	131.21
349.823	116.97
350.206	172.11
350.588	211.66
350.971	225.9
351.354	238.1
351.737	258.67
352.119	278.78
352.502	285.11
352.884	326.23
353.267	306.35
353.65	322.84
354.032	336.63
354.414	330.3
354.797	347.93
355.179	347.02
355.562	348.38
355.944	359.68
356.326	352.67
356.709	365.1
357.091	375.05
357.473	365.33
357.855	389.06
358.238	382.73
358.62	366.23
359.002	369.85
359.384	375.27
359.766	377.08
360.148	375.27
360.53	375.72
360.912	370.75
361.294	374.59
361.676	366.23
362.057	368.27
362.439	374.82
362.821	387.48
363.203	373.69
363.584	363.07
363.966	383.86
364.348	371.66
364.729	356.06
365.111	377.08
365.493	358.1
365.874	363.52
366.256	370.75
366.637	371.2
367.019	344.09
367.4	350.64
367.781	361.94
368.163	362.62
368.544	363.52
368.925	371.2
369.306	355.84
369.688	374.59
370.069	361.71
370.45	347.48
370.831	380.47
371.212	377.98
371.593	374.37
371.974	377.08
372.355	363.07
372.736	355.61
373.117	379.11
373.498	371.66
373.879	361.71
374.26	364.2
374.641	362.62
375.021	354.93
375.402	379.79
375.783	370.08
376.163	380.92
376.544	393.8
376.925	393.13
377.305	398.1
377.686	389.28
378.066	389.51
378.447	397.87
378.827	391.77
379.208	390.64
379.588	396.51
379.968	405.33
380.349	410.3
380.729	412.33
381.109	417.53
381.489	402.16
381.87	413.69
382.25	423.41
382.63	439.9
383.01	428.6
383.39	427.7
383.77	410.75
384.15	427.47
384.53	440.58
384.91	458.89
385.29	437.64
385.67	436.74
386.049	443.97
386.429	481.48
386.809	464.54
387.189	452.78
387.568	462.28
387.948	466.12
388.328	474.71
388.707	453.24
389.087	474.71
389.466	485.1
389.846	482.84
390.225	474.71
390.605	515.38
390.984	499.34
391.363	492.78
391.743	512.44
392.122	510.64
392.501	542.73
392.881	527.36
393.26	523.74
393.639	550.86
394.018	537.75
394.397	546.12
394.776	552.9
395.155	563.52
395.534	555.83
395.913	564.42
396.292	559.45
396.671	596.96
397.05	622.05
397.429	605.32
397.808	584.98
398.186	590.18
398.565	609.39
398.944	616.62
399.323	618.66
399.701	619.79
400.08	634.02
400.458	667.24
400.837	658.43
401.215	661.37
401.594	665.89
401.972	673.57
402.351	696.62
402.729	678.77
403.107	695.04
403.486	715.15
403.864	724.42
404.242	742.04
404.62	763.06
404.999	766.22
405.377	771.87
405.755	790.85
406.133	817.97
406.511	822.04
406.889	859.33
407.267	875.6
407.645	884.19
408.023	892.77
408.401	891.64
408.779	952.66
409.156	960.79
409.534	974.8
409.912	975.03
410.29	1002.83
410.667	1023.39
411.045	1050.74
411.422	1087.8
411.8	1109.26
412.178	1125.54
412.555	1168.92
412.933	1177.96
413.31	1214.8
413.687	1236.72
414.065	1277.62
414.442	1301.58
414.819	1321.24
415.197	1345.42
415.574	1383.83
415.951	1432.65
416.328	1452.31
416.705	1472.87
417.082	1521.23
417.46	1534.79
417.837	1537.73
418.214	1577.27
418.591	1615.47
418.967	1603.49
419.344	1616.6
419.721	1669.7
420.098	1656.14
420.475	1722.81
420.852	1762.13
421.228	1797.16
421.605	1783.37
421.982	1812.97
422.358	1879.19
422.735	1905.63
423.111	1899.75
423.488	1921.45
423.864	1946.3
424.241	1997.15
424.617	1996.7
424.994	2023.59
425.37	2066.08
425.746	2077.6
426.123	2118.28
426.499	2176.81
426.875	2185.17
427.251	2210.93
427.627	2240.99
428.003	2279.86
428.379	2317.59
428.756	2341.32
429.132	2355.11
429.507	2414.09
429.883	2449.79
430.259	2498.83
430.635	2516.91
431.011	2543.13
431.387	2582.67
431.763	2660.18
432.138	2675.33
432.514	2732.95
432.89	2728.43
433.265	2820.86
433.641	2824.7
434.016	2848.88
434.392	2943.57
434.767	2970.91
435.143	2969.1
435.518	3002.55
435.894	3071.25
436.269	3101.75
436.644	3106.5
437.02	3146.73
437.395	3208.42
437.77	3244.12
438.145	3298.59
438.52	3309.88
438.895	3353.95
439.271	3375.19
439.646	3447.96
440.021	3499.26
440.395	3513.5
440.77	3465.13
441.145	3533.61
441.52	3594.62
441.895	3587.39
442.27	3618.35
442.645	3621.51
443.019	3690.21
443.394	3692.25
443.769	3741.29
444.143	3722.53
444.518	3783.77
444.892	3762.75
445.267	3828.74
445.641	3791.68
446.016	3891.34
446.39	3873.49
446.764	3973.14
447.139	3925.91
447.513	3990.77
447.887	3968.17
448.262	4022.41
448.636	4040.71
449.01	4085.91
449.384	4149.64
449.758	4127.72
450.132	4172.91
450.506	4196.87
450.88	4194.16
451.254	4247.04
451.628	4280.48
452.002	4353.93
452.376	4386.69
452.75	4479.8
453.123	4489.29
453.497	4559.57
453.871	4590.98
454.244	4644.76
454.618	4670.3
454.992	4718.44
455.365	4697.19
455.739	4866.68
456.112	4910.75
456.486	4942.61
456.859	4970.63
457.232	5130.18
457.606	5104.41
457.979	5170.85
458.352	5274.35
458.725	5328.14
459.099	5336.95
459.472	5475.25
459.845	5507.79
460.218	5541.01
460.591	5634.8
460.964	5642.93
461.337	5811.74
461.71	5853.32
462.083	5899.65
462.456	5950.27
462.829	5988.23
463.201	6103.48
463.574	6138.74
463.947	6291.73
464.32	6421.44
464.692	6411.72
465.065	6462.34
465.438	6591.83
465.81	6683.36
466.183	6716.8
466.555	6807.65
466.928	6860.98
467.3	6902.33
467.672	6996.34
468.045	7183.46
468.417	7240.4
468.789	7232.04
469.161	7390.23
469.534	7538.47
469.906	7647.62
470.278	7739.15
470.65	7831.57
471.022	7978.01
471.394	8125.58
471.766	8229.98
472.138	8289.41
472.51	8429.52
472.882	8529.63
473.253	8644.21
473.625	8797.65
473.997	8990.19
474.369	8981.6
474.74	9163.97
475.112	9341.82
475.484	9403.96
475.855	9609.61
476.227	9690.06
476.598	9978.64
476.97	10137.5
477.341	10234.22
477.713	10425.86
478.084	10511.73
478.455	10789.01
478.827	10875.11
479.198	11231.48
479.569	11190.36
479.94	11530.91
480.311	11657.24
480.682	11819.27
481.053	12129.54
481.424	12396.65
481.795	12380.15
482.166	12582.86
482.537	12852.01
482.908	13002.51
483.279	13185.33
483.65	13377.64
484.021	13743.51
484.391	13755.03
484.762	13983.73
485.133	14135.36
485.503	14216.26
485.874	14533.32
486.244	14676.37
486.615	14931.5
486.985	15156.8
487.356	15479.73
487.726	15508.43
488.097	15832.04
488.467	15910.23
488.837	16194.29
489.207	16405.81
489.578	16686.26
489.948	16698.46
490.318	17092.12
490.688	17067.94
491.058	17382.28
491.428	17577.98
491.798	17791.76
492.168	18068.59
492.538	18098.42
492.908	18361.69
493.278	18537.51
493.648	18593.32
494.017	18791.96
494.387	19049.58
494.757	19174.1
495.126	19400.99
495.496	19437.6
495.866	19599.85
496.235	19817.02
496.605	19987.19
496.974	19952.84
497.344	20281.42
497.713	20310.57
498.082	20578.36
498.452	20749.65
498.821	20798.01
499.19	20977.67
499.559	21160.26
499.928	21231.9
500.298	21371.56
500.667	21566.81
501.036	21619.46
501.405	21785.11
501.774	21863.97
502.143	22082.72
502.512	22180.8
502.88	22354.36
503.249	22382.6
503.618	22521.36
503.987	22743.05
504.356	22783.5
504.724	22982.14
505.093	23074.34
505.462	23205.63
505.83	23359.75
506.199	23605.85
506.567	23812.4
506.936	23702.34
507.304	24118.6
507.672	24120.86
508.041	24274.31
508.409	24458.48
508.777	24651.47
509.145	24842.65
509.514	24909.77
509.882	24983.21
510.25	25136.2
510.618	25401.73
510.986	25428.17
511.354	25745.23
511.722	25814.38
512.09	26092.56
512.458	26088.95
512.826	26367.13
513.193	26573.91
513.561	26564.87
513.929	26922.15
514.297	27030.84
514.664	27210.95
515.032	27316.49
515.4	27596.03
515.767	27581.11
516.135	27734.33
516.502	27677.15
516.869	28263.8
517.237	28241.88
517.604	28216.12
517.972	28581.54
518.339	28745.83
518.706	28799.61
519.073	29019.72
519.44	29266.94
519.808	29546.03
520.175	29418.58
520.542	29929.52
520.909	30040.48
521.276	30108.28
521.643	30477.53
522.009	30537.19
522.376	30831.42
522.743	31069.83
523.11	31246.1
523.477	31516.37
523.843	31622.36
524.21	31922.24
524.577	32282.46
524.943	32274.32
525.31	32439.51
525.676	32846.96
526.043	32929.44
526.409	33295.99
526.776	33470.9
527.142	33515.42
527.508	33687.84
527.874	34169.86
528.241	34153.59
528.607	34360.82
528.973	34650.53
529.339	34730.53
529.705	35024.98
530.071	35300
530.437	35478.98
530.803	35651.86
531.169	35879.2
531.535	35846.66
531.901	35957.39
532.267	36200.32
532.632	36389.69
532.998	36524.6
533.364	36711.72
533.73	36829.91
534.095	37142.89
534.461	37156.23
534.826	37490
535.192	37627.85
535.557	37775.42
535.923	37815.87
536.288	37970.67
536.653	38161.85
537.019	38172.92
537.384	38369.08
537.749	38523.2
538.114	38671.21
538.479	38692.91
538.845	38805.45
539.21	39034.37
539.575	39048.83
539.94	39172.44
540.305	39522.04
540.67	39439.33
541.034	39610.85
541.399	39854.69
541.764	39792.54
542.129	40054.23
542.494	40196.82
542.858	40334.67
543.223	40456.93
543.587	40703.25
543.952	40615.57
544.316	40998.16
544.681	40898.05
545.045	41060.3
545.41	41300.52
545.774	41318.6
546.138	41542.33
546.503	41582.1
546.867	41585.71
547.231	42035.87
547.595	42011.47
547.959	42242.65
548.324	42396.31
548.688	42244.45
549.052	42526.48
549.416	42579.36
549.779	42587.72
550.143	42728.96
550.507	43041.27
550.871	43187.93
551.235	43159.68
551.599	43524.19
551.962	43549.05
552.326	43726.22
552.689	43951.98
553.053	43921.7
553.417	43842.6
553.78	44396.94
554.143	44130.28
554.507	44462.25
554.87	44631.74
555.234	44983.37
555.597	44826.08
555.96	44838.51
556.323	45165.28
556.686	45222.68
557.05	45478.27
557.413	45556.01
557.776	45622.67
558.139	45967.75
558.502	46073.96
558.865	46108.31
559.228	46356.44
559.59	46451.12
559.953	46577.9
560.316	47019.7
560.679	47011.56
561.041	47140.37
561.404	47454.03
561.767	47595.05
562.129	47474.37
562.492	47871.42
562.854	47977.41
563.217	48007.69
563.579	48025.09
563.941	48376.04
564.304	48448.36
564.666	48705.98
565.028	48818.07
565.39	48966.76
565.753	49310.94
566.115	49314.1
566.477	49430.71
566.839	49541.21
567.201	49764.26
567.563	49828.66
567.925	50021.42
568.287	50113.4
568.648	50106.39
569.01	50453.28
569.372	50617.57
569.734	50475.2
570.095	50764.91
570.457	50951.8
570.819	50920.38
571.18	50956.54
571.542	51202.41
571.903	51240.38
572.265	51377.32
572.626	51562.4
572.987	51579.8
573.349	51720.36
573.71	51920.81
574.071	51870.19
574.432	51945.67
574.794	52223.17
575.155	52210.75
575.516	52165.32
575.877	52362.38
576.238	52377.75
576.599	52560.79
576.96	52596.05
577.32	52489.83
577.681	52744.97
578.042	52836.94
578.403	52851.86
578.763	52847.57
579.124	52958.3
579.485	53018.18
579.845	53180.21
580.206	53119.2
580.566	53176.37
580.927	53235.35
581.287	53318.97
581.648	53242.58
582.008	53476.02
582.368	53365.74
582.728	53474.44
583.089	53445.74
583.449	53452.3
583.809	53505.63
584.169	53523.48
584.529	53520.54
584.889	53812.06
585.249	53548.56
585.609	53569.13
585.969	53680.99
586.329	53655.68
586.688	53737.49
587.048	53831.72
587.408	53622.23
587.768	53781.78
588.127	53773.64
588.487	53657.94
588.846	53884.83
589.206	53730.25
589.565	53807.77
589.925	53968.67
590.284	53836.69
590.643	53969.8
591.003	54083.69
591.362	54075.78
591.721	53990.13
592.08	54021.77
592.44	54082.34
592.799	54159.62
593.158	54101.09
593.517	54096.12
593.876	54148.32
594.235	54107.19
594.593	54125.95
594.952	54239.85
595.311	54132.5
595.67	54145.16
596.029	54306.74
596.387	54256.34
596.746	54466.96
597.104	54253.63
597.463	54352.84
597.822	54471.25
598.18	54366.85
598.538	54396.23
598.897	54466.73
599.255	54275.78
599.613	54636.9
599.972	54431.25
600.33	54546.28
600.688	54498.14
601.046	54602.32
601.404	54713.05
601.762	54592.6
602.12	54757.35
602.478	54728.19
602.836	54749.21
603.194	54640.51
603.552	54666.5
603.91	54587.18
604.268	54794.18
604.625	54761.19
604.983	54775.88
605.341	54743.33
605.698	54912.82
606.056	54875.31
606.413	54846.61
606.771	54919.83
607.128	54966.61
607.485	54854.52
607.843	54938.13
608.2	55090.44
608.557	55157.11
608.914	55024.91
609.272	55160.72
609.629	55135.41
609.986	55299.93
610.343	55161.4
610.7	55361.62
611.057	55281.63
611.414	55273.04
611.771	55319.14
612.127	55381.74
612.484	55350.32
612.841	55453.82
613.198	55358.46
613.554	55340.38
613.911	55554.84
614.267	55499.47
614.624	55526.59
614.98	55505.57
615.337	55663.08
615.693	55628.28
616.05	55533.6
616.406	55681.62
616.762	55608.62
617.118	55635.51
617.475	55608.17
617.831	55695.63
618.187	55696.98
618.543	55777.43
618.899	55882.74
619.255	55858.11
619.611	55867.15
619.967	55913.93
620.323	55908.28
620.678	55864.44
621.034	55814.94
621.39	55736.98
621.746	55793.25
622.101	56066.92
622.457	55828.28
622.812	55894.26
623.168	55983.3
623.523	55943.98
623.879	56006.35
624.234	55830.09
624.589	55932.46
624.945	55984.43
625.3	56061.72
625.655	55915.28
626.01	55929.07
626.365	55977.2
626.72	56025.79
627.075	55947.37
627.43	55946.47
627.785	55930.42
628.14	55976.97
628.495	56002.28
628.85	55969.74
629.205	55925.9
629.559	56077.99
629.914	55932.91
630.269	56011.32
630.623	55832.12
630.978	55916.41
631.332	55960.7
631.687	55997.31
632.041	55899.24
632.396	55949.18
632.75	55838
633.104	55953.25
633.459	55726.59
633.813	55836.64
634.167	55747.83
634.521	55789.63
634.875	55749.41
635.229	55733.37
635.583	55671.45
635.937	55659.47
636.291	55693.37
636.645	55661.5
636.999	55582.86
637.352	55645.46
637.706	55551
638.06	55666.47
638.413	55572.47
638.767	55501.28
639.121	55529.53
639.474	55493.6
639.828	55462.64
640.181	55515.29
640.534	55533.37
640.888	55457.44
641.241	55309.2
641.594	55374.05
641.947	55452.02
642.301	55316.43
642.654	55423.77
643.007	55385.35
643.36	55348.97
643.713	55337.9
644.066	55393.71
644.419	55271.91
644.771	55079.6
645.124	54868.3
645.477	54830.56
645.83	54604.36
646.182	54595.54
646.535	54422.21
646.888	54500.4
647.24	54394.87
647.593	54622.21
647.945	54517.35
648.298	54293.85
648.65	54259.73
649.002	54215.21
649.355	54423.34
649.707	54367.98
650.059	54485.04
650.411	54784.24
650.763	54854.97
651.115	55072.59
651.467	54949.66
651.819	55041.18
652.171	54867.17
652.523	54936.78
652.875	54852.26
653.227	54707.63
653.578	55009.99
653.93	54909.66
654.282	54776.78
654.633	54744.01
654.985	54731.81
655.337	54781.75
655.688	54797.12
656.039	54854.97
656.391	54575.88
656.742	54646.16
657.094	54758.25
657.445	54812.49
657.796	54640.06
658.147	54734.75
658.498	54625.37
658.849	54693.39
659.2	54636.44
659.551	54554.19
659.902	54736.56
660.253	54591.47
660.604	54703.34
660.955	54508.99
661.306	54542.44
661.656	54601.64
662.007	54621.53
662.358	54475.77
662.708	54487.52
663.059	54549.67
663.409	54329.33
663.76	54515.09
664.11	54490.69
664.461	54478.71
664.811	54630.12
665.161	54487.97
665.511	54409.33
665.862	54383.8
666.212	54434.87
666.562	54502.66
666.912	54426.51
667.262	54402.1
667.612	54429.67
667.962	54425.6
668.312	54358.03
668.662	54536.79
669.011	54416.56
669.361	54320.52
669.711	54284.82
670.06	54203.24
670.41	54168.89
670.76	54177.7
671.109	54293.85
671.459	54215.21
671.808	54159.85
672.157	54204.14
672.507	54018.83
672.856	54020.42
673.205	54089.34
673.554	54121.2
673.904	53920.76
674.253	54139.51
674.602	54034.2
674.951	53581.78
675.3	53409.58
675.649	53831.04
675.998	53829.46
676.346	53866.75
676.695	53913.75
677.044	53699.52
677.393	53830.82
677.741	53758.73
678.09	53767.09
678.438	53656.58
678.787	53792.85
679.135	53616.13
679.484	53494.1
679.832	53577.26
680.181	53386.53
680.529	53503.14
680.877	53431.96
681.225	53345.86
681.573	53481.45
681.922	53316.71
682.27	53140.66
682.618	53221.79
682.966	53171.62
683.314	53171.85
683.661	53113.32
684.009	52927.79
684.357	52829.94
684.705	52771.41
685.053	52866.32
685.4	52678.08
685.748	52619.55
686.095	52530.96
686.443	52489.83
686.79	52347.69
687.138	52449.61
687.485	52339.1
687.832	52268.6
688.18	52335.04
688.527	52026.57
688.874	52010.07
689.221	51983.41
689.568	51983.86
689.915	51805.78
690.262	51795.16
690.609	51698.22
690.956	51595.62
691.303	51533.25
691.65	51387.49
691.997	51260.04
692.344	51146.14
692.69	51190.66
693.037	51114.73
693.383	50783.89
693.73	50988.63
694.077	50843.32
694.423	50796.32
694.769	50678.58
695.116	50544.12
695.462	50550.68
695.808	50435.65
696.155	50475.42
696.501	50036.79
696.847	50191.82
697.193	49956.12
697.539	50044.48
697.885	49792.05
698.231	49695.56
698.577	49643.58
698.923	49566.07
699.269	49395.23
699.614	49342.8
699.96	49241.11
700.306	49236.13
700.651	48998.4
700.997	48957.72
701.342	48889.25
701.688	48812.19
702.033	48672.99
702.379	48699.88
702.724	48580.11
703.069	48715.02
703.415	48155.94
703.76	48281.81
704.105	48143.51
704.45	48086.33
704.795	47908.03
705.14	47764.76
705.485	47683.63
705.83	47544.88
706.175	47689.73
706.52	47539.68
706.865	47305.79
707.209	47416.52
707.554	47097.66
707.899	47183.99
708.243	47058.34
708.588	47025.8
708.932	46725.92
709.277	46746.48
709.621	46786.26
709.966	46620.84
710.31	46611.12
710.654	46328.87
710.998	46421.29
711.342	46374.97
711.687	46287.51
712.031	46024.69
712.375	45862.44
712.719	45977.69
713.063	45871.93
713.407	46090.45
713.75	45706.51
714.094	45899.73
714.438	45560.07
714.782	45503.35
715.125	45463.35
715.469	45434.2
715.812	45252.06
716.156	44950.82
716.499	44982.69
716.843	45083.7
717.186	44736.14
717.53	45046.41
717.873	45030.6
718.216	44964.38
718.559	44697.5
718.902	44421.8
719.246	44488.24
719.589	44360.33
719.932	44153.56
720.275	44276.27
720.617	44191.97
720.96	44085.99
721.303	44095.25
721.646	44076.95
721.989	43844.19
722.331	43883.96
722.674	43853.68
723.016	43883.51
723.359	43819.1
723.701	43761.7
724.044	43471.54
724.386	43287.82
724.729	43537.08
725.071	43367.59
725.413	43424.76
725.755	43245.56
726.097	43183.19
726.439	42949.52
726.782	42984.55
727.124	43142.51
727.465	42952.01
727.807	42888.05
728.149	42882.4
728.491	42717.44
728.833	42754.95
729.175	42555.18
729.516	42438.35
729.858	42480.15
730.199	42508.85
730.541	42467.73
730.882	42260.5
731.224	42442.64
731.565	42170.11
731.906	42160.61
732.248	42193.38
732.589	41963.78
732.93	41978.25
733.271	41765.37
733.612	41919.04
733.953	42023.22
734.294	41840.17
734.635	41648.76
734.976	41637.24
735.317	41473.18
735.658	41430.69
735.999	41486.51
736.339	41357.92
736.68	41528.99
737.021	41188.44
737.361	41214.42
737.702	41415.78
738.042	41301.65
738.383	40992.96
738.723	41200.64
739.063	40840.88
739.404	41081.09
739.744	41090.36
740.084	40777.15
740.424	40962.91
740.764	40820.76
741.104	40861.89
741.444	40611.28
741.784	40551.17
742.124	40544.61
742.464	40584.38
742.804	40395.01
743.143	40410.6
743.483	40480.21
743.823	40075.47
744.162	40215.36
744.502	40312.98
744.841	39975.36
745.181	40080.67
745.52	39930.62
745.86	40117.96
746.199	40033.89
746.538	39892.65
746.877	39891.07
747.216	39887.91
747.556	39716.61
747.895	39824.4
748.234	39513
748.573	39507.13
748.911	39444.98
749.25	39487.24
749.589	39222.61
749.928	39286.11
750.267	39341.71
750.605	39312.33
750.944	39011.77
751.283	38967.7
751.621	39084.76
751.96	38805.9
752.298	38740.14
752.636	38811.32
752.975	38602.06
753.313	38562.97
753.651	38691.78
753.989	38377.89
754.327	38430.32
754.666	38035.3
755.004	38168.4
755.342	38293.15
755.679	38169.76
756.017	38008.41
756.355	38058.12
756.693	37798.02
757.031	37882.31
757.368	37685.25
757.706	37665.14
758.044	37447.07
758.381	37450.46
758.719	37429.44
759.056	37351.7
759.394	37155.55
759.731	37034.42
760.068	36845.27
760.405	36659.06
760.743	36608.44
761.08	36711.27
761.417	36533.42
761.754	36509.24
762.091	36433.76
762.428	36322.12
762.765	36102.47
763.102	36225.4
763.438	36014.11
763.775	35778.18
764.112	35859.76
764.449	35811.18
764.785	35676.94
765.122	35422.94
765.458	35291.87
765.795	35277.18
766.131	35205.32
766.467	35157.18
766.804	34981.59
767.14	34758.55
767.476	34839.68
767.812	34631.77
768.148	34661.15
768.485	34314.49
768.821	34222.07
769.157	34248.05
769.492	34172.35
769.828	34008.51
770.164	33829.76
770.5	33821.17
770.836	33770.33
771.171	33438.13
771.507	33385.48
771.842	33121.08
772.178	33163.11
772.513	33048.09
772.849	32942.1
773.184	32865.49
773.519	32807.19
773.855	32653.75
774.19	32497.37
774.525	32456.91
774.86	32442.9
775.195	32296.69
775.53	32098.96
775.865	31965.4
776.2	31904.61
776.535	31640.44
776.87	31595.92
777.205	31554.79
777.539	31397.06
777.874	31385.08
778.209	31105.76
778.543	31073
778.878	30929.5
779.212	30834.36
779.547	30635.04
779.881	30716.4
780.215	30520.92
780.55	30676.17
780.884	30396.18
781.218	30270.53
781.552	30210.65
781.886	30020.14
782.22	29924.1
782.554	29865.57
782.888	29509.42
783.222	29498.8
783.556	29355.08
783.889	29291.35
784.223	29116.89
784.557	29052.94
784.89	29197.79
785.224	28928.87
785.557	28843
785.891	28740.63
786.224	28637.58
786.558	28617.02
786.891	28388.55
787.224	28271.26
787.557	28150.14
787.891	28116.92
788.224	28163.24
788.557	28140.87
788.89	27858.84
789.223	27937.03
789.556	27652.52
789.888	27662.92
790.221	27525.29
790.554	27386.54
790.887	27364.17
791.219	27215.92
791.552	27139.77
791.884	27037.4
792.217	27049.83
792.549	26755.6
792.882	26557.86
793.214	26665.43
793.546	26731.42
793.879	26473.57
794.211	26365.1
794.543	26490.97
794.875	26270.18
795.207	26293.24
795.539	26161.26
795.871	26109.06
796.203	25888.27
796.535	25814.83
796.867	25767.37
797.198	25663.42
797.53	25615.29
797.862	25365.12
798.193	25547.04
798.525	25201.51
798.856	25355.86
799.188	25030.44
799.519	25046.49
799.85	24913.38
800.182	24940.5
800.513	24924.91
800.844	24641.53
801.175	24811.01
801.506	24730.11
801.837	24484.02
802.168	24449.67
802.499	24371.03
802.83	24207.19
803.161	24260.97
803.491	24253.06
803.822	24131.71
804.153	23977.82
804.483	23752.06
804.814	23738.05
805.145	23699.41
805.475	23812.17
805.805	23623.7
806.136	23605.62
806.466	23679.07
806.796	23512.74
807.126	23342.8
807.457	23296.7
807.787	23381.67
808.117	23299.19
808.447	23122.92
808.777	23218.51
809.107	23009.48
809.436	23037.05
809.766	22997.28
810.096	22782.14
810.426	22769.94
810.755	22809.48
811.085	22611.98
811.414	22575.14
811.744	22518.19
812.073	22468.25
812.403	22416.27
812.732	22285.2
813.061	22299.67
813.39	22094.25
813.719	22122.27
814.049	22146.23
814.378	22086.57
814.707	22041.6
815.036	22112.55
815.365	21888.15
815.693	21743.07
816.022	21751.89
816.351	21676.86
816.68	21491.55
817.008	21607.48
817.337	21408.84
817.665	21383.08
817.994	21417.66
818.322	21402.74
818.651	21317.55
818.979	21266.7
819.307	21298.56
819.636	21147.83
819.964	21113.94
820.292	21142.18
820.62	21050.66
820.948	21008.63
821.276	21094.05
821.604	20992.13
821.932	21031.68
822.259	21113.48
822.587	20997.1
822.915	20876.2
823.243	21129.98
823.57	20949.42
823.898	20965.24
824.225	20841.85
824.553	20843.89
824.88	20964.56
825.207	20994.39
825.535	20844.56
825.862	20940.61
826.189	20870.55
826.516	20980.61
826.843	20874.85
827.17	20933.38
827.497	20897.22
827.824	20984
828.151	20934.73
828.478	20866.71
828.805	20994.62
829.131	20817.22
829.458	20772.93
829.785	20823.55
830.111	20811.8
830.438	20945.81
830.764	20864.45
831.09	20937.44
831.417	20714.85
831.743	20944.9
832.069	20819.25
832.395	20732.48
832.722	20832.81
833.048	20708.3
833.374	20731.35
833.7	20608.86
834.026	20658.36
834.351	20621.52
834.677	20639.82
835.003	20682.76
835.329	20506.27
835.654	20549.43
835.98	20417.46
836.306	20543.78
836.631	20441.41
836.956	20499.26
837.282	20459.72
837.607	20250.68
837.932	20250.68
838.258	20294.75
838.583	20297.46
838.908	20191.25
839.233	20269.66
839.558	20203.9
839.883	20090.91
840.208	20079.39
840.533	20116.45
840.858	20034.19
841.182	20020.18
841.507	20025.83
841.832	19910.35
842.156	19797.13
842.481	19765.5
842.805	19807.08
843.13	19742.45
843.454	19683.69
843.778	19523.24
844.103	19549.91
844.427	19561.21
844.751	19487.99
845.075	19416.58
845.399	19445.96
845.723	19408.67
846.047	19331.84
846.371	19113.54
846.695	19142.69
847.019	19030.15
847.343	18878.74
847.666	18874.45
847.99	18813.88
848.313	18782.47
848.637	18615.47
848.96	18613.44
849.284	18545.42
849.607	18391.97
849.931	18350.62
850.254	18155.14
850.577	18090.06
850.9	18020.46
851.223	18001.02
851.546	17976.17
851.869	17694.59
852.192	17922.38
852.515	17688.72
852.838	17660.92
853.161	17630.19
853.483	17534.37
853.806	17494.14
854.129	17381.61
854.451	17290.31
854.774	17267.71
855.096	17227.94
855.419	17201.95
855.741	17060.03
856.063	17082.86
856.385	17008.28
856.708	16926.48
857.03	16825.24
857.352	16910.66
857.674	16782.98
857.996	16769.64
858.318	16660.04
858.64	16651.91
858.961	16651
859.283	16607.61
859.605	16503.21
859.926	16468.18
860.248	16394.51
860.57	16331.24
860.891	16371.69
861.212	16241.52
861.534	16218.92
861.855	16212.6
862.176	16238.36
862.498	16214.63
862.819	16221.86
863.14	16072.94
863.461	16107.97
863.782	16057.35
864.103	16056.67
864.424	15942.77
864.745	16094.41
865.065	15816.22
865.386	15816
865.707	15873.62
866.027	15858.03
866.348	15848.76
866.668	15755.21
866.989	15687.19
867.309	15602.67
867.63	15766.73
867.95	15623.01
868.27	15553.4
868.59	15605.38
868.91	15649.9
869.23	15512.05
869.55	15543.01
869.87	15468.44
870.19	15538.72
870.51	15441.54
870.83	15467.76
871.15	15332.62
871.469	15271.83
871.789	15295.11
872.109	15420.75
872.428	15191.38
872.748	15337.82
873.067	15215.79
873.386	15322.9
873.706	15224.6
874.025	15145.51
874.344	15085.62
874.663	15196.8
874.982	14996.36
875.301	15130.59
875.62	15044.72
875.939	14993.42
876.258	14964.95
876.577	14869.35
876.896	14888.56
877.214	14821.9
877.533	14873.65
877.852	14906.64
878.17	14818.73
878.489	14872.29
878.807	14744.16
879.125	14800.66
879.444	14732.86
879.762	14651.28
880.08	14709.58
880.398	14598.63
880.716	14639.98
881.034	14465.52
881.352	14540.78
881.67	14508.46
881.988	14529.93
882.306	14513.88
882.624	14417.16
882.941	14400.44
883.259	14295.58
883.577	14262.82
883.894	14316.6
884.212	14245.87
884.529	14276.15
884.846	14226.21
885.164	14157.51
885.481	14046.33
885.798	14196.6
886.115	13992.99
886.432	14005.42
886.75	14003.61
887.067	14042.94
887.383	13922.04
887.7	13991.64
888.017	13844.3
888.334	13807.24
888.651	13773.34
888.967	13792.09
889.284	13785.77
889.6	13699.22
889.917	13597.75
890.233	13626.9
890.55	13600.01
890.866	13510.97
891.182	13455.61
891.498	13341.94
891.815	13374.7
892.131	13351.43
892.447	13313.01
892.763	13313.46
893.079	13211.55
893.395	13196.4
893.71	13232.79
894.026	13131.32
894.342	13039.57
894.657	12917.09
894.973	12896.75
895.289	12924.55
895.604	13002.74
895.92	12885.45
896.235	12803.19
896.55	12854.94
896.865	12764.55
897.181	12687.94
897.496	12722.29
897.811	12661.96
898.126	12564.78
898.441	12523.65
898.756	12523.43
899.071	12403.66
899.386	12408.4
899.7	12262.19
900.015	12289.76
900.33	12192.81
900.644	12195.75
900.959	12149.65
901.273	12097.9
901.588	12064.68
901.902	11987.62
902.216	11939.04
902.531	12020.84
902.845	11915.76
903.159	11765.48
903.473	11726.39
903.787	11694.52
904.101	11601.64
904.415	11710.79
904.729	11658.14
905.042	11505.6
905.356	11535.88
905.67	11454.53
905.984	11398.94
906.297	11392.84
906.611	11302.44
906.924	11349
907.237	11253.63
907.551	11193.52
907.864	11209.79
908.177	11144.71
908.491	11077.36
908.804	11048.66
909.117	10945.62
909.43	10934.99
909.743	10865.84
910.056	10845.96
910.368	10833.08
910.681	10792.4
910.994	10715.11
911.307	10719.18
911.619	10545.63
911.932	10646.41
912.244	10450.94
912.557	10541.11
912.869	10405.74
913.181	10389.25
913.494	10400.09
913.806	10341.79
914.118	10275.58
914.43	10234.9
914.742	10139.99
915.054	10159.42
915.366	10088.46
915.678	9992.87
915.99	10038.07
916.302	9982.25
916.613	9846.89
916.925	9845.53
917.236	9968.01
917.548	9760.11
917.859	9827.45
918.171	9713.33
918.482	9707.91
918.794	9586.78
919.105	9670.17
919.416	9521.25
919.727	9569.38
920.038	9521.92
920.349	9430.4
920.66	9324.42
920.971	9308.15
921.282	9238.09
921.593	9239.9
921.903	9190.86
922.214	9164.19
922.525	9133.23
922.835	9086.23
923.146	9068.83
923.456	9034.03
923.767	8998.77
924.077	8974.59
924.387	8960.81
924.697	8895.73
925.008	8782.51
925.318	8777.99
925.628	8764.88
925.938	8745.9
926.248	8602.85
926.558	8632
926.867	8622.74
927.177	8589.29
927.487	8493.48
927.796	8443.76
928.106	8467.94
928.416	8364.22
928.725	8373.93
929.034	8263.2
929.344	8369.19
929.653	8285.35
929.962	8239.02
930.271	8153.83
930.581	8119.48
930.89	8081.06
931.199	8040.16
931.508	8039.7
931.817	8029.31
932.125	8012.81
932.434	7954.51
932.743	7902.31
933.051	7857.34
933.36	7848.52
933.669	7782.31
933.977	7801.07
934.286	7770.56
934.594	7704.8
934.902	7648.98
935.21	7537.12
935.519	7613.27
935.827	7605.36
936.135	7503.67
936.443	7446.27
936.751	7439.72
937.059	7368.31
937.367	7352.26
937.674	7358.37
937.982	7365.15
938.29	7286.5
938.597	7287.41
938.905	7173.96
939.213	7194.3
939.52	7144.81
939.827	7201.31
940.135	7109.33
940.442	7065.94
940.749	7114.76
941.056	7068.66
941.363	6943.46
941.67	6940.75
941.977	6843.58
942.284	6864.82
942.591	6832.28
942.898	6799.06
943.205	6815.1
943.511	6726.07
943.818	6712.06
944.125	6677.93
944.431	6652.62
944.738	6617.37
945.044	6576.47
945.35	6609.68
945.657	6589.8
945.963	6503.02
946.269	6460.76
946.575	6484.26
946.881	6403.14
947.187	6411.95
947.493	6390.26
947.799	6315.46
948.105	6282.91
948.41	6249.47
948.716	6277.49
949.022	6185.29
949.327	6221.45
949.633	6112.3
949.938	6098.06
950.244	6133.77
950.549	6113.2
950.854	6038.17
951.16	6073.88
951.465	5974
951.77	5930.61
952.075	5937.16
952.38	5922.7
952.685	5879.99
952.99	5849.7
953.294	5842.93
953.599	5831.4
953.904	5779.42
954.209	5717.96
954.513	5729.26
954.818	5706.43
955.122	5674.79
955.426	5681.35
955.731	5642.48
956.035	5568.81
956.339	5560.9
956.643	5563.38
956.948	5469.38
957.252	5512.76
957.556	5466.44
957.86	5494.91
958.163	5409.26
958.467	5418.76
958.771	5363.39
959.075	5352.09
959.378	5328.36
959.682	5308.25
959.985	5289.72
960.289	5209.27
960.592	5203.39
960.896	5214.24
961.199	5193.68
961.502	5164.98
961.805	5145.54
962.108	5100.12
962.411	5082.72
962.714	5049.73
963.017	5025.77
963.32	5049.95
963.623	5013.79
963.926	4993.68
964.228	4981.48
964.531	4930.41
964.833	4918.43
965.136	4922.27
965.438	4908.94
965.741	4866.68
966.043	4833.01
966.345	4805.44
966.648	4765.21
966.95	4773.12
967.252	4771.99
967.554	4700.58
967.856	4698.1
968.158	4675.27
968.46	4708.72
968.761	4617.87
969.063	4615.61
969.365	4602.96
969.666	4556.18
969.968	4570.19
970.269	4547.59
970.571	4487.25
970.872	4494.71
971.174	4484.32
971.475	4431.89
971.776	4405
972.077	4374.04
972.378	4392.57
972.679	4339.24
972.98	4327.26
973.281	4374.04
973.582	4298.56
973.883	4293.81
974.183	4224.21
974.484	4265.79
974.785	4221.05
975.085	4215.62
975.386	4206.81
975.686	4118
975.986	4182.63
976.287	4133.14
976.587	4105.12
976.887	4086.14
977.187	4088.85
977.487	4078.68
977.787	4050.66
978.087	4010.66
978.387	4010.66
978.687	4013.14
978.987	3968.85
979.286	3935.63
979.586	3915.29
979.885	3899.25
980.185	3897.89
980.484	3823.32
980.784	3866.93
981.083	3845.69
981.382	3835.97
981.682	3819.25
981.981	3774.28
982.28	3762.75
982.579	3758.23
982.878	3779.48
983.177	3693.83
983.475	3692.47
983.774	3634.4
984.073	3654.51
984.372	3634.17
984.67	3654.73
984.969	3588.52
985.267	3554.85
985.566	3605.7
985.864	3514.63
986.162	3544.68
986.461	3546.26
986.759	3519.82
987.057	3480.5
987.355	3479.15
987.653	3465.13
987.951	3456.32
988.249	3458.81
988.547	3388.07
988.844	3346.04
989.142	3391.24
989.44	3352.6
989.737	3339.04
990.035	3329.55
990.332	3342.88
990.63	3301.75
990.927	3308.53
991.224	3260.62
991.521	3236.21
991.819	3257.23
992.116	3231.47
992.413	3226.95
992.71	3141.08
993.006	3202.54
993.303	3188.98
993.6	3172.94
993.897	3133.39
994.193	3108.76
994.49	3080.96
994.787	3048.2
995.083	3062.89
995.379	3020.17
995.676	3028.99
995.972	2984.24
996.268	3003.68
996.565	2980.18
996.861	2955.32
997.157	2965.26
997.453	2914.64
997.749	2942.44
998.044	2857.47
998.34	2883.46
998.636	2822.44
998.932	2848.65
999.227	2816.34
999.523	2819.5
999.818	2791.93
1000.114	2771.82
1000.409	2767.98
1000.704	2750.13
1001	2725.72
1001.295	2713.97
1001.59	2756.45
1001.885	2707.64
1002.18	2708.09
1002.475	2704.7
1002.77	2641.65
1003.065	2636.91
1003.359	2610.24
1003.654	2630.13
1003.949	2614.76
1004.243	2607.3
1004.538	2518.27
1004.832	2566.85
1005.127	2570.7
1005.421	2543.13
1005.715	2488.44
1006.009	2487.99
1006.304	2453.64
1006.598	2462.22
1006.892	2436.69
1007.186	2443.24
1007.48	2446.63
1007.773	2422
1008.067	2398.72
1008.361	2380.64
1008.655	2313.75
1008.948	2312.17
1009.242	2308.78
1009.535	2313.53
1009.829	2278.95
1010.122	2311.72
1010.415	2249.12
1010.708	2259.74
1011.001	2257.48
1011.295	2213.87
1011.588	2201.21
1011.881	2200.76
1012.173	2181.1
1012.466	2233.75
1012.759	2181.33
1013.052	2184.49
1013.344	2168.9
1013.637	2135.68
1013.93	2126.41
1014.222	2115.11
1014.514	2101.1
1014.807	2064.72
1015.099	2090.71
1015.391	2022.46
1015.683	2016.81
1015.976	2038.73
1016.268	1992.18
1016.56	2026.08
1016.851	1985.85
1017.143	1973.65
1017.435	1953.54
1017.727	1930.49
1018.018	1898.62
1018.31	1905.4
1018.602	1899.53
1018.893	1887.55
1019.185	1900.2
1019.476	1845.74
1019.767	1867.44
1020.058	1817.95
1020.35	1826.31
1020.641	1812.52
1020.932	1830.83
1021.223	1806.42
1021.514	1796.7
1021.804	1747.89
1022.095	1770.49
1022.386	1757.38
1022.677	1712.64
1022.967	1721
1023.258	1715.35
1023.548	1682.81
1023.839	1699.31
1024.129	1659.08
1024.419	1657.95
1024.709	1663.6
1025	1623.38
1025.29	1621.12
1025.58	1598.97
1025.87	1588.35
1026.16	1599.87
1026.449	1582.47
1026.739	1582.02
1027.029	1555.13
1027.319	1559.65
1027.608	1546.32
1027.898	1512.42
1028.187	1518.52
1028.477	1506.32
1028.766	1479.42
1029.055	1486.2
1029.344	1471.51
1029.634	1455.92
1029.923	1471.29
1030.212	1437.39
1030.501	1441.69
1030.79	1422.48
1031.078	1425.19
1031.367	1399.43
1031.656	1396.94
1031.945	1382.25
1032.233	1385.64
1032.522	1373.66
1032.81	1363.95
1033.099	1337.96
1033.387	1339.77
1033.675	1326.43
1033.963	1320.78
1034.251	1308.36
1034.54	1301.35
1034.828	1284.4
1035.116	1281.46
1035.403	1290.73
1035.691	1273.33
1035.979	1247.11
1036.267	1253.44
1036.554	1242.82
1036.842	1230.17
1037.129	1215.93
1037.417	1208.25
1037.704	1201.24
1037.992	1182.26
1038.279	1184.29
1038.566	1169.15
1038.853	1169.15
1039.14	1169.15
