Data from whiteboard_FLMS001491_00030.txt Node
Date: Wed Feb 08 11:25:51 GMT 2017
User: dcchb
Spectrometer: FLMS00149
Trigger mode: 0
Integration Time (sec): 2.000000E-2
Scans to average: 10
Electric dark correction enabled: true
Nonlinearity correction enabled: false
Boxcar width: 0
XAxis mode: Wavelengths
Number of Pixels in Spectrum: 2048
>>>>>Begin Spectral Data<<<<<
341.393	1.77
341.776	1.77
342.16	1.77
342.543	-68.29
342.927	-72.58
343.31	-77.78
343.693	-71.23
344.077	-68.06
344.46	-56.99
344.843	-49.08
345.226	-29.42
345.61	-12.7
345.993	-20.15
346.376	-13.6
346.759	-10.89
347.142	18.71
347.525	13.97
347.908	66.85
348.291	83.35
348.674	114.08
349.057	112.95
349.44	122.44
349.823	128.99
350.206	180.74
350.588	243.12
350.971	240.86
351.354	256.45
351.737	279.05
352.119	270.46
352.502	279.27
352.884	319.5
353.267	305.03
353.65	313.85
354.032	340.29
354.414	356.56
354.797	351.59
355.179	366.95
355.562	366.95
355.944	366.5
356.326	386.39
356.709	387.29
357.091	368.99
357.473	380.51
357.855	382.09
358.238	367.41
358.62	373.73
359.002	367.86
359.384	378.03
359.766	396.56
360.148	369.89
360.53	390.68
360.912	378.03
361.294	381.64
361.676	371.25
362.057	375.31
362.439	385.03
362.821	363.34
363.203	388.42
363.584	380.96
363.966	385.48
364.348	367.86
364.729	383.22
365.111	373.73
365.493	379.83
365.874	362.89
366.256	364.92
366.637	381.19
367.019	380.06
367.4	387.97
367.781	354.07
368.163	350.91
368.544	383.9
368.925	387.29
369.306	376.44
369.688	380.06
370.069	363.79
370.45	388.2
370.831	365.82
371.212	396.56
371.593	389.1
371.974	393.17
372.355	375.99
372.736	399.72
373.117	403.56
373.498	384.58
373.879	378.03
374.26	390
374.641	403.34
375.021	400.85
375.402	409.44
375.783	428.87
376.163	447.4
376.544	423.22
376.925	413.51
377.305	418.7
377.686	424.13
378.066	425.03
378.447	422.55
378.827	446.5
379.208	429.1
379.588	439.49
379.968	441.53
380.349	431.81
380.729	425.48
381.109	430
381.489	448.31
381.87	441.08
382.25	458.7
382.63	469.55
383.01	463.9
383.39	467.06
383.77	465.48
384.15	477.01
384.53	486.27
384.91	478.82
385.29	479.04
385.67	506.84
386.049	498.48
386.429	494.18
386.809	481.53
387.189	507.74
387.568	502.54
387.948	519.04
388.328	520.62
388.707	531.02
389.087	531.02
389.466	553.84
389.846	540.28
390.225	546.61
390.605	572.37
390.984	584.35
391.363	576.89
391.743	571.02
392.122	572.15
392.501	595.65
392.881	614.86
393.26	586.83
393.639	618.47
394.018	616.66
394.397	627.96
394.776	634.29
395.155	648.98
395.534	652.82
395.913	665.93
396.292	641.3
396.671	689.43
397.05	680.17
397.429	688.53
397.808	705.7
398.186	714.74
398.565	727.4
398.944	742.54
399.323	737.34
399.701	761.97
400.08	781.41
400.458	772.82
400.837	791.12
401.215	795.87
401.594	787.06
401.972	815.98
402.351	810.33
402.729	841.07
403.107	839.26
403.486	854.85
403.864	891.69
404.242	873.16
404.62	907.96
404.999	938.69
405.377	942.53
405.755	948.86
406.133	973.04
406.511	983.66
406.889	1010.55
407.267	1036.09
407.645	1033.6
408.023	1068.63
408.401	1066.6
408.779	1092.58
409.156	1137.78
409.534	1126.26
409.912	1172.58
410.29	1181.4
410.667	1197.21
411.045	1221.39
411.422	1228.17
411.8	1234.05
412.178	1304.33
412.555	1308.4
412.933	1352.92
413.31	1359.47
413.687	1358.79
414.065	1391.79
414.442	1381.62
414.819	1430.43
415.197	1437.89
415.574	1498
415.951	1501.61
416.328	1521.95
416.705	1530.09
417.082	1550.43
417.46	1569.63
417.837	1602.18
418.214	1610.76
418.591	1639.46
418.967	1634.72
419.344	1660.48
419.721	1667.48
420.098	1716.75
420.475	1747.03
420.852	1764.21
421.228	1766.24
421.605	1796.52
421.982	1804.88
422.358	1838.1
422.735	1883.3
423.111	1844.65
423.488	1886.91
423.864	1948.61
424.241	1971.66
424.617	1975.5
424.994	1975.95
425.37	2014.37
425.746	2035.38
426.123	2061.6
426.499	2089.17
426.875	2115.83
427.251	2164.87
427.627	2207.36
428.003	2234.02
428.379	2265.89
428.756	2297.98
429.132	2310.86
429.507	2354.47
429.883	2343.62
430.259	2429.72
430.635	2447.8
431.011	2459.1
431.387	2499.33
431.763	2607.8
432.138	2575.94
432.514	2640.34
432.89	2606.44
433.265	2720.56
433.641	2751.3
434.016	2780.22
434.392	2836.27
434.767	2878.3
435.143	2869.03
435.518	2916.72
435.894	2970.05
436.269	2975.02
436.644	3049.59
437.02	3063.61
437.395	3137.95
437.77	3122.14
438.145	3187.67
438.52	3216.6
438.895	3247.56
439.271	3242.58
439.646	3341.79
440.021	3386.54
440.395	3353.77
440.77	3340.89
441.145	3349.47
441.52	3462.92
441.895	3467.21
442.27	3509.7
442.645	3509.92
443.019	3608.9
443.394	3568.45
443.769	3703.82
444.143	3610.26
444.518	3705.4
444.892	3638.73
445.267	3742.68
445.641	3730.26
446.016	3776.36
446.39	3768.22
446.764	3826.75
447.139	3852.74
447.513	3942.23
447.887	3880.53
448.262	3925.96
448.636	3962.79
449.01	4003.02
449.384	4073.97
449.758	4099.06
450.132	4171.37
450.506	4187.19
450.88	4173.86
451.254	4216.12
451.628	4310.8
452.002	4367.75
452.376	4373.63
452.75	4398.94
453.123	4469.9
453.497	4502.44
453.871	4526.39
454.244	4615.2
454.618	4663.11
454.992	4789.66
455.365	4773.17
455.739	4930.45
456.112	4973.84
456.486	4994.63
456.859	5037.79
457.232	5122.99
457.606	5161.18
457.979	5242.08
458.352	5308.97
458.725	5432.36
459.099	5437.33
459.472	5555.97
459.845	5609.08
460.218	5649.07
460.591	5784.89
460.964	5795.51
461.337	5902.63
461.71	5974.94
462.083	6134.94
462.456	6075.5
462.829	6159.57
463.201	6277.98
463.574	6282.5
463.947	6369.73
464.32	6534.7
464.692	6571.54
465.065	6609.73
465.438	6741.02
465.81	6761.14
466.183	6915.03
466.555	7026.89
466.928	7071.86
467.3	7095.82
467.672	7239.32
468.045	7369.71
468.417	7361.8
468.789	7514.11
469.161	7553.88
469.534	7732.18
469.906	7929.47
470.278	7968.56
470.65	8042.46
471.022	8215.56
471.394	8363.35
471.766	8469.34
472.138	8501.88
472.51	8792.95
472.882	8884.47
473.253	8954.3
473.625	9127.18
473.997	9381.18
474.369	9418.69
474.74	9494.17
475.112	9687.61
475.484	9856.87
475.855	10088.73
476.227	10147.94
476.598	10422.96
476.97	10493.24
477.341	10774.59
477.713	10926
478.084	10988.6
478.455	11300.68
478.827	11396.95
479.198	11618.64
479.569	11735.47
479.94	12119.19
480.311	12174.78
480.682	12412.96
481.053	12748.32
481.424	12887.75
481.795	13078.71
482.166	13321.19
482.537	13452.94
482.908	13742.87
483.279	13815.19
483.65	14137.21
484.021	14486.58
484.391	14646.13
484.762	14747.37
485.133	14810.42
485.503	15117.07
485.874	15429.61
486.244	15647
486.615	15980.1
486.985	16101.23
487.356	16444.72
487.726	16590.26
488.097	16876.8
488.467	16986.4
488.837	17383
489.207	17495.54
489.578	17830.22
489.948	18050.1
490.318	18196.32
490.688	18335.52
491.058	18608.96
491.428	18963.07
491.798	19106.35
492.168	19479.9
492.538	19529.61
492.908	19722.38
493.278	20039.88
493.648	20030.17
494.017	20398.29
494.387	20452.3
494.757	20546.08
495.126	20827.43
495.496	20924.15
495.866	21122.57
496.235	21374.31
496.605	21514.19
496.974	21645.49
497.344	21876.9
497.713	22053.16
498.082	22232.59
498.452	22413.61
498.821	22497.45
499.19	22618.35
499.559	22894.5
499.928	22985.79
500.298	23097.2
500.667	23420.13
501.036	23384.65
501.405	23691.54
501.774	23752.78
502.143	24058.31
502.512	24010.4
502.88	24380.11
503.249	24506.66
503.618	24633.89
503.987	24823.03
504.356	25035.23
504.724	25205.4
505.093	25343.47
505.462	25361.55
505.83	25607.65
506.199	25893.06
506.567	26223.22
506.936	26164.24
507.304	26552.71
507.672	26665.02
508.041	26762.42
508.409	26976.2
508.777	27126.02
509.145	27322.4
509.514	27350.2
509.882	27635.84
510.25	27636.52
510.618	27892.33
510.986	27886.68
511.354	28293.9
511.722	28525.54
512.09	28779.31
512.458	28651.63
512.826	28884.4
513.193	29213.88
513.561	29138.17
513.929	29598.73
514.297	29748.78
514.664	30023.35
515.032	30157.13
515.4	30374.07
515.767	30468.54
516.135	30731.13
516.502	30650.45
516.869	31140.83
517.237	31281.4
517.604	31306.48
517.972	31771.78
518.339	31857.2
518.706	32010.19
519.073	32284.76
519.44	32404.3
519.808	32809.04
520.175	32969.03
520.542	33330.38
520.909	33585.97
521.276	33578.51
521.643	34028.67
522.009	34254.65
522.376	34454.87
522.743	34767.63
523.11	35043.78
523.477	35397.22
523.843	35649.64
524.21	35917.21
524.577	36248.27
524.943	36309.74
525.31	36582.27
525.676	36915.37
526.043	37215.25
526.409	37323.72
526.776	37728.68
527.142	37864.72
527.508	38085.96
527.874	38262.68
528.241	38581.99
528.607	38708.54
528.973	39025.37
529.339	38939.27
529.705	39400.96
530.071	39583.78
530.437	39719.14
530.803	39996.19
531.169	40316.19
531.535	40390.31
531.901	40476.41
532.267	40651.77
532.632	40887.92
532.998	40917.98
533.364	41222.6
533.73	41376.95
534.095	41606.77
534.461	41730.61
534.826	41987.78
535.192	42199.07
535.557	42468.67
535.923	42304.16
536.288	42762.22
536.653	42896.23
537.019	42975.32
537.384	43186.39
537.749	43299.16
538.114	43508.19
538.479	43608.98
538.845	43965.81
539.21	43855.75
539.575	44101.4
539.94	44103.43
540.305	44442.86
540.67	44432.69
541.034	44661.83
541.399	44895.05
541.764	44772.57
542.129	45180.69
542.494	45087.59
542.858	45321.03
543.223	45382.04
543.587	45709.04
543.952	45657.97
544.316	45669.72
544.681	45774.57
545.045	46039.88
545.41	46165.75
545.774	46297.27
546.138	46292.07
546.503	46584.95
546.867	46537.04
547.231	46712.85
547.595	46861.32
547.959	46981.1
548.324	47117.36
548.688	47222.22
549.052	47382.89
549.416	47525.71
549.779	47549.89
550.143	47753.73
550.507	48034.4
550.871	48115.08
551.235	48009.77
551.599	48397.78
551.962	48475.75
552.326	48582.41
552.689	48775.17
553.053	48749.41
553.417	48884.32
553.78	49333.58
554.143	49240.7
554.507	49320.92
554.87	49486.79
555.234	49700.8
555.597	49626.45
555.96	49836.61
556.323	49975.59
556.686	50126.32
557.05	50403.15
557.413	50460.33
557.776	50463.72
558.139	50824.16
558.502	50828.23
558.865	50909.58
559.228	51081.33
559.59	51149.35
559.953	51226.18
560.316	51619.84
560.679	51658.71
561.041	51838.37
561.404	51918.59
561.767	52060.74
562.129	52045.14
562.492	52337.56
562.854	52271.58
563.217	52479.48
563.579	52558.12
563.941	52805.35
564.304	52936.42
564.666	53098.22
565.028	53153.59
565.39	53286.47
565.753	53424.32
566.115	53567.59
566.477	53623.86
566.839	53730.75
567.201	53873.8
567.563	53934.58
567.925	54207.12
568.287	54213.9
568.648	54248.02
569.01	54463.84
569.372	54689.59
569.734	54562.36
570.095	54725.52
570.457	54935.01
570.819	54856.14
571.18	54906.99
571.542	55169.58
571.903	55175.46
572.265	55275.79
572.626	55353.98
572.987	55436.92
573.349	55495.22
573.71	55584.71
574.071	55643.24
574.432	55713.07
574.794	55899.5
575.155	55848.66
575.516	55895.66
575.877	56072.16
576.238	56062.44
576.599	56179.95
576.96	56167.52
577.32	56249.1
577.681	56345.37
578.042	56390.34
578.403	56348.31
578.763	56418.81
579.124	56370.68
579.485	56533.61
579.845	56595.76
580.206	56519.15
580.566	56610.9
580.927	56626.49
581.287	56635.08
581.648	56548.3
582.008	56753.04
582.368	56613.61
582.728	56681.63
583.089	56726.38
583.449	56646.15
583.809	56720.73
584.169	56789.42
584.529	56693.61
584.889	56872.13
585.249	56803.44
585.609	56695.42
585.969	56808.86
586.329	56853.38
586.688	56865.13
587.048	56897.22
587.408	56739.71
587.768	56760.73
588.127	56842.53
588.487	56666.94
588.846	56915.52
589.206	56815.41
589.565	56743.55
589.925	56924.56
590.284	56834.4
590.643	56889.31
591.003	57013.15
591.362	57027.61
591.721	56963.21
592.08	57015.18
592.44	57071
592.799	57055.63
593.158	57076.42
593.517	57033.49
593.876	57100.83
594.235	57057.21
594.593	57039.59
594.952	57232.13
595.311	57015.63
595.67	57105.8
596.029	57278.9
596.387	57317.77
596.746	57308.96
597.104	57184.44
597.463	57213.14
597.822	57331.78
598.18	57215.18
598.538	57177.44
598.897	57332.69
599.255	57197.32
599.613	57510.54
599.972	57341.95
600.33	57407.26
600.688	57360.03
601.046	57343.31
601.404	57400.48
601.762	57381.05
602.12	57434.15
602.478	57490.2
602.836	57477.99
603.194	57286.59
603.552	57336.98
603.91	57255.18
604.268	57374.04
604.625	57318
604.983	57403.65
605.341	57251.11
605.698	57441.39
606.056	57485.45
606.413	57399.58
606.771	57569.52
607.128	57552.12
607.485	57445.68
607.843	57543.08
608.2	57661.94
608.557	57707.37
608.914	57579.46
609.272	57728.61
609.629	57761.83
609.986	57791.43
610.343	57733.81
610.7	57930.41
611.057	57897.42
611.414	57841.15
611.771	57941.48
612.127	58001.82
612.484	57987.59
612.841	58103.97
613.198	57979
613.554	58077.98
613.911	58190.07
614.267	58192.55
614.624	58159.11
614.98	58219.67
615.337	58288.14
615.693	58240.91
616.05	58247.01
616.406	58410.17
616.762	58253.57
617.118	58369.27
617.475	58385.54
617.831	58484.75
618.187	58437.52
618.543	58458.08
618.899	58602.48
619.255	58549.15
619.611	58528.81
619.967	58575.59
620.323	58704.4
620.678	58570.39
621.034	58489.49
621.39	58482.04
621.746	58475.93
622.101	58734.01
622.457	58494.01
622.812	58615.14
623.168	58637.29
623.523	58600
623.879	58645.87
624.234	58446.33
624.589	58569.27
624.945	58611.07
625.3	58659.43
625.655	58539.66
626.01	58602.26
626.365	58576.27
626.72	58489.95
627.075	58395.71
627.43	58442.49
627.785	58390.06
628.14	58353
628.495	58452.66
628.85	58346.67
629.205	58230.74
629.559	58368.59
629.914	58229.39
630.269	58234.13
630.623	58169.73
630.978	58080.24
631.332	58232.78
631.687	58233.91
632.041	58108.03
632.396	58167.02
632.75	58035.95
633.104	58132.89
633.459	57986.46
633.813	57975.61
634.167	58006.57
634.521	57944.65
634.875	57981.26
635.229	57884.09
635.583	57755.73
635.937	57787.14
636.291	57847.25
636.645	57867.81
636.999	57791.66
637.352	57865.1
637.706	57720.25
638.06	57797.53
638.413	57776.52
638.767	57673.92
639.121	57751.21
639.474	57589.86
639.828	57679.57
640.181	57678.67
640.534	57719.12
640.888	57620.14
641.241	57577.88
641.594	57540.37
641.947	57625.79
642.301	57559.35
642.654	57590.53
643.007	57589.4
643.36	57546.92
643.713	57488.84
644.066	57555.73
644.419	57447.49
644.771	57247.72
645.124	56966.82
645.477	56979.02
645.83	56801.18
646.182	56621.75
646.535	56488.64
646.888	56567.28
647.24	56483.9
647.593	56673.95
647.945	56489.55
648.298	56378.14
648.65	56385.59
649.002	56257.01
649.355	56364.8
649.707	56301.53
650.059	56468.08
650.411	56744.23
650.763	56757.56
651.115	56993.94
651.467	56831.46
651.819	56798.24
652.171	56708.98
652.523	56655.87
652.875	56708.98
653.227	56505.82
653.578	56704
653.93	56620.16
654.282	56483.44
654.633	56427.63
654.985	56452.71
655.337	56444.12
655.688	56372.71
656.039	56473.5
656.391	56179.27
656.742	56302.43
657.094	56215.65
657.445	56381.3
657.796	56324.8
658.147	56198.03
658.498	56128.2
658.849	56194.86
659.2	56171.14
659.551	56023.34
659.902	56180.85
660.253	56059.73
660.604	56125.71
660.955	55958.03
661.306	56021.31
661.656	55987.86
662.007	56040.29
662.358	56015.89
662.708	55984.25
663.059	55900.86
663.409	55794.42
663.76	56007.52
664.11	55955.1
664.461	55982.89
664.811	55899.28
665.161	55920.75
665.511	55919.62
665.862	55944.25
666.212	56012.5
666.562	56085.94
666.912	55974.76
667.262	55964.14
667.612	55977.69
667.962	56027.64
668.312	55916.91
668.662	56047.3
669.011	55955.1
669.361	55857.47
669.711	55862.44
670.06	55819.51
670.41	55776.12
670.76	55744.71
671.109	55870.13
671.459	55780.41
671.808	55695.22
672.157	55778.83
672.507	55597.82
672.856	55627.87
673.205	55677.14
673.554	55750.13
673.904	55592.62
674.253	55660.87
674.602	55661.09
674.951	55193.99
675.3	54969.59
675.649	55456.13
675.998	55408.9
676.346	55367.54
676.695	55487.09
677.044	55228.11
677.393	55340.88
677.741	55410.93
678.09	55307.43
678.438	55260.65
678.787	55218.84
679.135	55256.13
679.484	55023.37
679.832	55137.49
680.181	54893.43
680.529	54900.21
680.877	54870.83
681.225	54839.19
681.573	54973.88
681.922	54736.6
682.27	54644.4
682.618	54712.19
682.966	54622.48
683.314	54643.72
683.661	54573.66
684.009	54461.12
684.357	54398.3
684.705	54362.82
685.053	54392.2
685.4	54263.16
685.748	54030.4
686.095	54119.89
686.443	54069.95
686.79	53939.56
687.138	53984.98
687.485	53885.09
687.832	53862.27
688.18	53949.5
688.527	53608.94
688.874	53610.75
689.221	53508.61
689.568	53471.09
689.915	53378.44
690.262	53426.8
690.609	53405.79
690.956	53230.42
691.303	53140.03
691.65	53013.25
691.997	52985.23
692.344	52870.66
692.69	52879.25
693.037	52830.21
693.383	52612.59
693.73	52709.31
694.077	52460.27
694.423	52574.85
694.769	52517.67
695.116	52332.59
695.462	52300.5
695.808	52124.91
696.155	52224.57
696.501	52036.33
696.847	52007.4
697.193	51738.71
697.539	51848.09
697.885	51743.68
698.231	51620.52
698.577	51540.07
698.923	51533.74
699.269	51484.93
699.614	51190.25
699.96	51166.07
700.306	51197.93
700.651	51077.94
700.997	50954.1
701.342	50882.24
701.688	50839.07
702.033	50775.8
702.379	50711.84
702.724	50626.2
703.069	50719.98
703.415	50233.21
703.76	50341.68
704.105	50281.35
704.45	50115.7
704.795	49968.81
705.14	49782.38
705.485	49875.48
705.83	49597.52
706.175	49735.83
706.52	49579.9
706.865	49423.74
707.209	49365.44
707.554	49156.86
707.899	49240.7
708.243	48977.43
708.588	48930.2
708.932	48747.83
709.277	48743.76
709.621	48597.78
709.966	48503.99
710.31	48541.96
710.654	48204.57
710.998	48150.56
711.342	48222.19
711.687	48056.32
712.031	47927.29
712.375	47875.76
712.719	47906.49
713.063	47698.36
713.407	47720.06
713.75	47469.9
714.094	47556.67
714.438	47347.64
714.782	47298.83
715.125	47083.01
715.469	47295.89
715.812	47007.31
716.156	46689.13
716.499	46630.82
716.843	46809.57
717.186	46543.59
717.53	46661.56
717.873	46693.65
718.216	46371.17
718.559	46144.73
718.902	46035.58
719.246	46090.95
719.589	45899.32
719.932	45850.73
720.275	45880.56
720.617	45869.26
720.96	45647.34
721.303	45554.92
721.646	45614.35
721.989	45441.47
722.331	45548.82
722.674	45427.92
723.016	45269.5
723.359	45319.9
723.701	45368.93
724.044	44946.8
724.386	44877.65
724.729	44991.32
725.071	44821.83
725.413	44747.03
725.755	44629.52
726.097	44601.5
726.439	44351.79
726.782	44495.51
727.124	44496.41
727.465	44354.5
727.807	44233.6
728.149	44127.84
728.491	44075.63
728.833	44196.54
729.175	44105.46
729.516	44004
729.858	43919.48
730.199	43919.48
730.541	43886.94
730.882	43750.45
731.224	43935.3
731.565	43490.34
731.906	43584.12
732.248	43589.09
732.589	43437.69
732.93	43391.81
733.271	43463.45
733.612	43467.06
733.953	43476.1
734.294	43388.87
734.635	43386.61
734.976	43251.25
735.317	43088.77
735.658	42993.86
735.999	42966.51
736.339	42917.25
736.68	43090.12
737.021	42838.83
737.361	42609.01
737.702	42818.49
738.042	42723.81
738.383	42509.12
738.723	42596.8
739.063	42232.29
739.404	42324.72
739.744	42219.41
740.084	41996.82
740.424	42194.33
740.764	42066.65
741.104	42209.47
741.444	41896.94
741.784	41727.67
742.124	41865.07
742.464	41797.05
742.804	41562.71
743.143	41471.86
743.483	41534.68
743.823	41192.32
744.162	41245.88
744.502	41313.9
744.841	41169.95
745.181	41172.21
745.52	40895.38
745.86	41033.45
746.199	40917.53
746.538	40727.7
746.877	40883.85
747.216	40645.67
747.556	40633.47
747.895	40560.02
748.234	40320.25
748.573	40175.85
748.911	40200.93
749.25	40079.81
749.589	40011.56
749.928	39938.34
750.267	39998
750.605	39809.53
750.944	39712.13
751.283	39632.59
751.621	39585.36
751.96	39340.17
752.298	39318.47
752.636	39336.32
752.975	39162.32
753.313	38864.02
753.651	39118.7
753.989	38812.04
754.327	38859.05
754.666	38645.5
755.004	38755.32
755.342	38650.92
755.679	38560.75
756.017	38399.17
756.355	38500.41
756.693	38334.32
757.031	38450.7
757.368	38117.37
757.706	38085.28
758.044	37949.24
758.381	38026.3
758.719	37730.72
759.056	37778.85
759.394	37670.38
759.731	37415.47
760.068	37401.01
760.405	37173.9
760.743	37196.04
761.08	37277.85
761.417	37050.28
761.754	36877.63
762.091	36728.94
762.428	36700.69
762.765	36589.96
763.102	36729.61
763.438	36494.82
763.775	36236.29
764.112	36417.53
764.449	36297.76
764.785	36178.67
765.122	35869.3
765.458	35723.54
765.795	35675.63
766.131	35703.2
766.467	35489.19
766.804	35358.8
767.14	35182.99
767.476	35334.62
767.812	35103.89
768.148	35259.37
768.485	35037.45
768.821	34852.15
769.157	34856.67
769.492	34643.34
769.828	34629.78
770.164	34305.27
770.5	34277.7
770.836	34235.67
771.171	34000.19
771.507	34043.13
771.842	33886.52
772.178	33795
772.513	33769.01
772.849	33527.44
773.184	33510.49
773.519	33416.71
773.855	33172.19
774.19	33189.14
774.525	32901.24
774.86	32868.25
775.195	32924.29
775.53	32675.26
775.865	32434.13
776.2	32194.82
776.535	32019.45
776.87	31928.16
777.205	32057.42
777.539	31816.97
777.874	31826.47
778.209	31570.2
778.543	31520.03
778.878	31228.06
779.212	31307.38
779.547	31099.25
779.881	31073.26
780.215	30845.93
780.55	30879.82
780.884	30606.84
781.218	30576.33
781.552	30502.66
781.886	30247.52
782.22	30005.72
782.554	29924.59
782.888	29660.65
783.222	29659.52
783.556	29484.83
783.889	29316.7
784.223	29279.87
784.557	29205.97
784.89	29155.8
785.224	29047.33
785.557	28919.88
785.891	28760.78
786.224	28805.98
786.558	28524.63
786.891	28331.42
787.224	28283.28
787.557	28224.3
787.891	28075.83
788.224	28050.75
788.557	28062.27
788.89	27876.96
789.223	27991.09
789.556	27684.88
789.888	27469.97
790.221	27462.96
790.554	27306.81
790.887	27281.95
791.219	27063.65
791.552	26994.05
791.884	26907.72
792.217	26879.7
792.549	26762.87
792.882	26519.94
793.214	26494.63
793.546	26504.12
793.879	26314.07
794.211	26168.31
794.543	26267.52
794.875	26122.89
795.207	26069.1
795.539	25898.71
795.871	25983.23
796.203	25760.64
796.535	25614.2
796.867	25583.01
797.198	25410.14
797.53	25507.31
797.862	25363.13
798.193	25385.05
798.525	25199.52
798.856	25331.72
799.188	25020.32
799.519	24833.65
799.85	24860.09
800.182	24755.01
800.513	24822.36
800.844	24700.55
801.175	24781.9
801.506	24671.4
801.837	24568.58
802.168	24557.96
802.499	24384.63
802.83	24331.07
803.161	24233.9
803.491	24290.62
803.822	24373.33
804.153	24206.55
804.483	23923.17
804.814	23907.8
805.145	23837.75
805.475	23910.97
805.805	23795.49
806.136	23790.29
806.466	23721.37
806.796	23673.69
807.126	23468.95
807.457	23562.28
807.787	23561.82
808.117	23473.24
808.447	23212.23
808.777	23357.54
809.107	23231.44
809.436	23216.3
809.766	23205.9
810.096	23129.97
810.426	23051.55
810.755	23091.33
811.085	23047.26
811.414	22898.56
811.744	22639.81
812.073	22723.43
812.403	22696.76
812.732	22501.51
813.061	22588.52
813.39	22356.43
813.719	22395.98
814.049	22549.65
814.378	22355.98
814.707	22260.16
815.036	22308.3
815.365	22234.63
815.693	21930
816.022	21982.2
816.351	21880.96
816.68	21814.07
817.008	21779.5
817.337	21589.22
817.665	21571.14
817.994	21564.81
818.322	21681.2
818.651	21462.67
818.979	21273.97
819.307	21530.01
819.636	21394.88
819.964	21234.65
820.292	21245.27
820.62	21181.77
820.948	21094.77
821.276	21229.68
821.604	21035.34
821.932	21064.94
822.259	21090.93
822.587	20993.98
822.915	20900.43
823.243	21038.73
823.57	20886.41
823.898	21055.45
824.225	20886.87
824.553	20944.27
824.88	20996.69
825.207	20898.39
825.535	20836.7
825.862	20985.62
826.189	20848.45
826.516	20874.21
826.843	20902.01
827.17	20904.27
827.497	20862.69
827.824	20941.1
828.151	20744.04
828.478	20706.53
828.805	20832.86
829.131	20672.41
829.458	20702.24
829.785	20461.57
830.111	20692.75
830.438	20717.38
830.764	20560.77
831.09	20625.4
831.417	20556.25
831.743	20591.05
832.069	20631.73
832.395	20410.49
832.722	20414.79
833.048	20401.91
833.374	20442.13
833.7	20385.41
834.026	20418.86
834.351	20427.67
834.677	20438.97
835.003	20393.77
835.329	20514.45
835.654	20327.78
835.98	20187.68
836.306	20319.2
836.631	20255.92
836.956	20227
837.282	20290.05
837.607	20050.73
837.932	20037.17
838.258	19995.82
838.583	19973.9
838.908	19936.16
839.233	19976.38
839.558	19927.8
839.883	19812.32
840.208	19834.69
840.533	19874.24
840.858	19865.65
841.182	19782.71
841.507	19792.43
841.832	19727.57
842.156	19745.2
842.481	19733.22
842.805	19785.65
843.13	19709.72
843.454	19595.83
843.778	19645.99
844.103	19588.6
844.427	19532.33
844.751	19603.51
845.075	19406.9
845.399	19494.13
845.723	19288.04
846.047	19349.73
846.371	19183.63
846.695	19174.14
847.019	19067.03
847.343	19058.67
847.666	18978.67
847.99	18895.73
848.313	18820.25
848.637	18768.73
848.96	18785.68
849.284	18611.45
849.607	18566.7
849.931	18453.48
850.254	18261.4
850.577	18267.05
850.9	18156.77
851.223	18155.41
851.546	18099.14
851.869	17972.37
852.192	18158.12
852.515	17865.48
852.838	17895.53
853.161	17818.47
853.483	17713.39
853.806	17677.23
854.129	17660.74
854.451	17590.23
854.774	17475.43
855.096	17397.47
855.419	17339.84
855.741	17258.49
856.063	17272.5
856.385	17251.93
856.708	17132.16
857.03	17062.56
857.352	17032.5
857.674	17020.98
857.996	17037.93
858.318	16886.07
858.64	16839.06
858.961	16802.23
859.283	16813.98
859.605	16648.11
859.926	16714.09
860.248	16612.63
860.57	16531.73
860.891	16576.24
861.212	16419.41
861.534	16322.92
861.855	16296.25
862.176	16432.75
862.498	16371.5
862.819	16351.62
863.14	16199.53
863.461	16232.98
863.782	15994.34
864.103	16096.03
864.424	15995.24
864.745	16115.24
865.065	15943.27
865.386	15910.05
865.707	15894
866.027	15912.53
866.348	15897.62
866.668	15822.14
866.989	15772.65
867.309	15673.44
867.63	15688.81
867.95	15706.66
868.27	15575.37
868.59	15583.73
868.91	15504.41
869.23	15472.32
869.55	15299.67
869.87	15501.7
870.19	15393.9
870.51	15405.88
870.83	15326.33
871.15	15360.91
871.469	15276.84
871.789	15296.5
872.109	15214.92
872.428	15111.65
872.748	15218.77
873.067	15128.15
873.386	15149.62
873.706	15084.76
874.025	15061.03
874.344	14962.73
874.663	15115.04
874.982	14996.63
875.301	14881.37
875.62	14886.57
875.939	14854.93
876.258	14804.99
876.577	14771.32
876.896	14833.01
877.214	14716.63
877.533	14789.63
877.852	14713.7
878.17	14666.69
878.489	14614.94
878.807	14603.42
879.125	14510.76
879.444	14651.55
879.762	14472.8
880.08	14542.85
880.398	14467.83
880.716	14433.25
881.034	14360.94
881.352	14407.49
881.67	14312.35
881.988	14449.07
882.306	14317.32
882.624	14253.82
882.941	14220.83
883.259	14173.14
883.577	14214.73
883.894	14088.4
884.212	14236.19
884.529	14098.8
884.846	14105.35
885.164	14024.67
885.481	14005.69
885.798	14024
886.115	13969.31
886.432	13948.97
886.75	13854.51
887.067	13941.29
887.383	13844.79
887.7	13875.98
888.017	13814.96
888.334	13774.74
888.651	13774.28
888.967	13696.32
889.284	13722.31
889.6	13702.42
889.917	13601.86
890.233	13577
890.55	13532.48
890.866	13498.81
891.182	13576.78
891.498	13472.37
891.815	13391.02
892.131	13375.88
892.447	13415.65
892.763	13329.32
893.079	13333.62
893.395	13275.31
893.71	13283.68
894.026	13183.79
894.342	13199.84
894.657	13128.88
894.973	13046.62
895.289	13155.77
895.604	13159.84
895.92	12933.18
896.235	12898.6
896.55	12861.09
896.865	12869.68
897.181	12858.6
897.496	12818.6
897.811	12790.58
898.126	12763.24
898.441	12702.45
898.756	12692.28
899.071	12565.73
899.386	12639.85
899.7	12543.58
900.015	12473.98
900.33	12333.87
900.644	12428.56
900.959	12474.43
901.273	12318.28
901.588	12349.24
901.902	12222.24
902.216	12201.9
902.531	12200.54
902.845	12184.04
903.159	12105.85
903.473	12000.55
903.787	12030.15
904.101	11917.61
904.415	11923.71
904.729	11891.17
905.042	11825.18
905.356	11800.78
905.67	11786.54
905.984	11797.61
906.297	11680.33
906.611	11555.81
906.924	11579.31
907.237	11458.64
907.551	11459.32
907.864	11413.44
908.177	11418.64
908.491	11344.07
908.804	11315.82
909.117	11263.62
909.43	11210.96
909.743	11070.63
910.056	11156.05
910.368	11097.74
910.681	10991.98
910.994	10954.92
911.307	10949.73
911.619	10824.76
911.932	10944.98
912.244	10811.42
912.557	10764.19
912.869	10669.06
913.181	10609.62
913.494	10563.52
913.806	10539.79
914.118	10483.98
914.43	10425.22
914.742	10490.53
915.054	10363.3
915.366	10311.1
915.678	10285.79
915.99	10217.99
916.302	10130.09
916.613	10065.91
916.925	10035.4
917.236	10040.6
917.548	9968.51
917.859	9933.71
918.171	9899.58
918.482	9780.49
918.794	9748.4
919.105	9709.98
919.416	9636.77
919.727	9641.06
920.038	9600.38
920.349	9521.06
920.66	9479.48
920.971	9484.45
921.282	9449.65
921.593	9317.23
921.903	9335.76
922.214	9312.93
922.525	9239.49
922.835	9176.44
923.146	9057.57
923.456	9049.89
923.767	9040.17
924.077	9000.85
924.387	9011.92
924.697	8928.99
925.008	8792.04
925.318	8753.17
925.628	8779.39
925.938	8717.24
926.248	8630.24
926.558	8612.84
926.867	8510.69
927.177	8629.79
927.487	8545.04
927.796	8363.35
928.106	8437.7
928.416	8365.84
928.725	8362.68
929.034	8296.01
929.344	8300.76
929.653	8232.28
929.962	8256.01
930.271	8194.77
930.581	8114.32
930.89	8078.62
931.199	7995.23
931.508	7957.71
931.817	7961.33
932.125	7891.05
932.434	7871.84
932.743	7878.39
933.051	7790.04
933.36	7783.93
933.669	7676.59
933.977	7644.5
934.286	7672.52
934.594	7629.14
934.902	7596.14
935.21	7553.88
935.519	7611.28
935.827	7499.2
936.135	7451.51
936.443	7447.22
936.751	7346.43
937.059	7422.81
937.367	7354.34
937.674	7340.1
937.982	7292.2
938.29	7216.27
938.597	7276.83
938.905	7220.33
939.213	7150.96
939.52	7108.7
939.827	7106.89
940.135	7056.27
940.442	7061.24
940.749	7008.13
941.056	7048.13
941.363	6948.93
941.67	6962.03
941.977	6908.02
942.284	6851.98
942.591	6858.31
942.898	6828.48
943.205	6869.83
943.511	6752.77
943.818	6832.09
944.125	6729.5
944.431	6702.61
944.738	6699.89
945.044	6655.83
945.35	6598.65
945.657	6542.61
945.963	6583.97
946.269	6593.23
946.575	6576.51
946.881	6456.06
947.187	6520.01
947.493	6446.12
947.799	6482.95
948.105	6477.75
948.41	6368.15
948.716	6397.53
949.022	6326.34
949.327	6359.79
949.633	6293.58
949.938	6266.69
950.244	6276.18
950.549	6237.53
950.854	6203.86
951.16	6218.55
951.465	6211.55
951.77	6141.27
952.075	6124.99
952.38	6141.72
952.685	6066.69
952.99	6039.12
953.294	6057.2
953.599	6056.3
953.904	6054.04
954.209	5942.17
954.513	5955.73
954.818	5930.42
955.122	5972
955.426	5876.41
955.731	5839.35
956.035	5837.77
956.339	5840.71
956.643	5784.66
956.948	5747.15
957.252	5758.45
957.556	5738.11
957.86	5695.85
958.163	5713.03
958.467	5623.54
958.771	5677.55
959.075	5625.8
959.378	5565.91
959.682	5569.08
959.985	5536.54
960.289	5553.26
960.592	5485.01
960.896	5446.37
961.199	5436.42
961.502	5456.76
961.805	5381.06
962.108	5385.35
962.411	5373.6
962.714	5353.94
963.017	5298.8
963.32	5343.09
963.623	5234.85
963.926	5285.24
964.228	5212.93
964.531	5169.77
964.833	5159.82
965.136	5152.14
965.438	5112.37
965.741	5093.16
966.043	5071.69
966.345	4990.56
966.648	5016.55
966.95	5052.93
967.252	4925.48
967.554	4949.66
967.856	4906.27
968.158	4861.98
968.46	4882.32
968.761	4796.22
969.063	4811.58
969.365	4764.58
969.666	4795.54
969.968	4737.23
970.269	4747.18
970.571	4751.92
970.872	4706.73
971.174	4675.99
971.475	4627.41
971.776	4591.7
972.077	4530.01
972.378	4551.93
972.679	4570.23
972.98	4526.62
973.281	4493.62
973.582	4497.24
973.883	4453.17
974.183	4431.03
974.484	4424.47
974.785	4363.01
975.085	4373.63
975.386	4381.99
975.686	4306.96
975.986	4293.4
976.287	4319.62
976.587	4256.34
976.887	4192.16
977.187	4214.31
977.487	4202.56
977.787	4127.98
978.087	4091.83
978.387	4123.92
978.687	4091.6
978.987	4036.46
979.286	3995.56
979.586	4022.68
979.885	4032.85
980.185	3991.04
980.484	3950.81
980.784	3932.74
981.083	3895
981.382	3883.02
981.682	3868.33
981.981	3896.8
982.28	3857.48
982.579	3817.48
982.878	3812.74
983.177	3763.93
983.475	3756.24
983.774	3717.37
984.073	3710.14
984.372	3692.97
984.67	3629.69
984.969	3696.58
985.267	3638.05
985.566	3610.94
985.864	3605.74
986.162	3582.91
986.461	3572.29
986.759	3559.64
987.057	3501.79
987.355	3492.52
987.653	3520.99
987.951	3423.6
988.249	3438.29
988.547	3458.4
988.844	3424.73
989.142	3386.76
989.44	3363.49
989.737	3382.47
990.035	3323.03
990.332	3339.53
990.63	3306.99
990.927	3283.49
991.224	3275.35
991.521	3239.65
991.819	3255.69
992.116	3253.43
992.413	3226.99
992.71	3188.57
993.006	3174.79
993.303	3154.22
993.6	3168.01
993.897	3135.02
994.193	3146.77
994.49	3114
994.787	3114
995.083	3098.86
995.379	3100.22
995.676	3016.83
995.972	3050.27
996.268	3031.06
996.565	2995.59
996.861	2961.69
997.157	2959.88
997.453	2979.09
997.749	2980.22
998.044	2958.98
998.34	2972.31
998.636	2912.65
998.932	2889.37
999.227	2848.92
999.523	2883.5
999.818	2875.36
1000.114	2833.1
1000.409	2825.65
1000.704	2787.45
1001	2784.74
1001.295	2784.29
1001.59	2775.03
1001.885	2778.42
1002.18	2739.77
1002.475	2772.54
1002.77	2720.34
1003.065	2682.82
1003.359	2688.7
1003.654	2701.58
1003.949	2656.38
1004.243	2651.19
1004.538	2651.64
1004.832	2638.98
1005.127	2651.41
1005.421	2612.32
1005.715	2587.01
1006.009	2603.05
1006.304	2580.23
1006.598	2542.26
1006.892	2497.07
1007.186	2511.76
1007.48	2519.67
1007.773	2470.63
1008.067	2450.74
1008.361	2458.2
1008.655	2443.96
1008.948	2439.89
1009.242	2411.87
1009.535	2418.88
1009.829	2398.31
1010.122	2397.86
1010.415	2393.79
1010.708	2362.83
1011.001	2352.66
1011.295	2314.7
1011.588	2324.64
1011.881	2302.72
1012.173	2291.42
1012.466	2296.39
1012.759	2289.16
1013.052	2281.03
1013.344	2253.23
1013.637	2229.73
1013.93	2221.82
1014.222	2230.18
1014.514	2213.68
1014.807	2161.26
1015.099	2183.86
1015.391	2187.02
1015.683	2119.9
1015.976	2141.14
1016.268	2154.48
1016.56	2133.69
1016.851	2113.12
1017.143	2078.77
1017.435	2056.85
1017.727	2049.17
1018.018	2056.63
1018.31	2030.41
1018.602	2022.73
1018.893	1969.4
1019.185	1993.58
1019.476	1993.13
1019.767	1957.19
1020.058	1953.13
1020.35	1974.14
1020.641	1893.69
1020.932	1916.97
1021.223	1917.65
1021.514	1874.03
1021.804	1863.41
1022.095	1830.64
1022.386	1841.49
1022.677	1820.93
1022.967	1840.59
1023.258	1762.17
1023.548	1770.98
1023.839	1815.96
1024.129	1765.56
1024.419	1766.24
1024.709	1714.94
1025	1714.49
1025.29	1749.06
1025.58	1703.64
1025.87	1706.81
1026.16	1684.43
1026.449	1637.2
1026.739	1643.76
1027.029	1658.45
1027.319	1601.27
1027.608	1608.5
1027.898	1592.01
1028.187	1594.72
1028.477	1601.95
1028.766	1606.24
1029.055	1551.1
1029.344	1569.18
1029.634	1535.51
1029.923	1511.56
1030.212	1520.6
1030.501	1514.27
1030.79	1479.47
1031.078	1487.15
1031.367	1451.67
1031.656	1450.77
1031.945	1471.11
1032.233	1444.44
1032.522	1446.7
1032.81	1439.02
1033.099	1401.28
1033.387	1400.82
1033.675	1389.07
1033.963	1387.49
1034.251	1385.23
1034.54	1336.65
1034.828	1348.4
1035.116	1328.06
1035.403	1304.1
1035.691	1311.79
1035.979	1340.71
1036.267	1291.45
1036.554	1305.01
1036.842	1293.48
1037.129	1284.44
1037.417	1267.72
1037.704	1247.16
1037.992	1225.91
1038.279	1228.17
1038.566	1205.8
1038.853	1205.8
1039.14	1205.8
