Data from White_paper_FLMS001491_035.txt Node
Date: Tue Feb 07 10:35:00 GMT 2017
User: dcchb
Spectrometer: FLMS00149
Trigger mode: 0
Integration Time (sec): 2.000000E-2
Scans to average: 10
Electric dark correction enabled: true
Nonlinearity correction enabled: false
Boxcar width: 0
XAxis mode: Wavelengths
Number of Pixels in Spectrum: 2048
>>>>>Begin Spectral Data<<<<<
341.393	-20.92
341.776	-20.92
342.16	-20.92
342.543	-73.57
342.927	-66.34
343.31	-64.53
343.693	-74.02
344.077	-56.17
344.46	-52.1
344.843	-37.19
345.226	-52.56
345.61	-30.18
345.993	-26.34
346.376	-17.08
346.759	13.66
347.142	30.38
347.525	22.7
347.908	38.74
348.291	90.27
348.674	99.31
349.057	115.12
349.44	123.03
349.823	139.98
350.206	171.39
350.588	212.97
350.971	235.35
351.354	237.83
351.737	291.84
352.119	296.59
352.502	291.39
352.884	296.81
353.267	307.66
353.65	333.2
354.032	311.28
354.414	331.84
354.797	346.08
355.179	356.7
355.562	351.05
355.944	359.41
356.326	373.2
356.709	358.28
357.091	375.46
357.473	370.71
357.855	365.06
358.238	383.82
358.62	371.84
359.002	370.26
359.384	375.68
359.766	374.33
360.148	384.04
360.53	369.58
360.912	337.04
361.294	358.51
361.676	379.07
362.057	374.55
362.439	377.04
362.821	377.72
363.203	356.47
363.584	375.91
363.966	363.25
364.348	374.55
364.729	373.2
365.111	352.63
365.493	355.57
365.874	365.96
366.256	341.33
366.637	351.95
367.019	372.29
367.4	380.88
367.781	364.38
368.163	344.27
368.544	345.17
368.925	356.93
369.306	365.06
369.688	349.24
370.069	354.89
370.45	358.51
370.831	378.39
371.212	367.55
371.593	369.35
371.974	385.85
372.355	373.87
372.736	378.85
373.117	368.45
373.498	356.93
373.879	381.11
374.26	366.64
374.641	382.46
375.021	359.41
375.402	365.74
375.783	394.44
376.163	394.44
376.544	390.15
376.925	400.54
377.305	405.74
377.686	374.78
378.066	400.54
378.447	388.11
378.827	401.22
379.208	425.17
379.588	406.87
379.968	414.1
380.349	399.41
380.729	405.96
381.109	417.26
381.489	406.64
381.87	422.91
382.25	413.65
382.63	403.7
383.01	445.51
383.39	441.22
383.77	428.56
384.15	435.12
384.53	462.69
384.91	451.61
385.29	445.51
385.67	453.42
386.049	456.58
386.429	464.72
386.809	456.58
387.189	441.44
387.568	466.75
387.948	469.47
388.328	479.41
388.707	485.96
389.087	476.02
389.466	479.63
389.846	481.89
390.225	490.26
390.605	494.55
390.984	519.63
391.363	515.34
391.743	516.7
392.122	530.71
392.501	520.31
392.881	529.12
393.26	532.06
393.639	556.02
394.018	530.93
394.397	542.01
394.776	569.35
395.155	552.85
395.534	558.95
395.913	575.22
396.292	582.91
396.671	586.3
397.05	600.54
397.429	592.85
397.808	599.63
398.186	610.25
398.565	628.56
398.944	592.17
399.323	629.46
399.701	649.35
400.08	642.79
400.458	644.83
400.837	664.04
401.215	653.87
401.594	677.14
401.972	675.79
402.351	696.13
402.729	702.91
403.107	723.02
403.486	719.4
403.864	714.88
404.242	759.4
404.62	738.84
404.999	786.29
405.377	808.21
405.755	802.34
406.133	819.29
406.511	843.24
406.889	866.06
407.267	878.04
407.645	887.53
408.023	893.18
408.401	923.46
408.779	945.61
409.156	962.56
409.534	987.42
409.912	990.58
410.29	1035.55
410.667	1049.79
411.045	1074.87
411.422	1102.67
411.8	1110.8
412.178	1156.45
412.555	1194.87
412.933	1196
413.31	1220.41
413.687	1256.11
414.065	1293.85
414.442	1329.78
414.819	1323.68
415.197	1371.36
415.574	1402.1
415.951	1418.82
416.328	1442.32
416.705	1484.13
417.082	1453.39
417.46	1539.27
417.837	1570
418.214	1601.19
418.591	1602.09
418.967	1646.61
419.344	1695.65
419.721	1684.35
420.098	1716.21
420.475	1746.72
420.852	1765.93
421.228	1814.97
421.605	1820.39
421.982	1809.54
422.358	1876.89
422.735	1923.66
423.111	1938.8
423.488	1951.01
423.864	1960.27
424.241	2002.08
424.617	2004.11
424.994	2078.91
425.37	2060.38
425.746	2099.7
426.123	2108.07
426.499	2123.43
426.875	2169.99
427.251	2225.35
427.627	2293.37
428.003	2288.4
428.379	2334.5
428.756	2300.6
429.132	2393.48
429.507	2411.56
429.883	2444.78
430.259	2515.06
430.635	2514.38
431.011	2511.45
431.387	2592.57
431.763	2668.05
432.138	2700.59
432.514	2711.89
432.89	2741.04
433.265	2824.21
433.641	2845.67
434.016	2892.9
434.392	2945.33
434.767	2976.07
435.143	2987.36
435.518	3011.77
435.894	3045.44
436.269	3116.85
436.644	3154.14
437.02	3170.64
437.395	3207.02
437.77	3212.9
438.145	3281.82
438.52	3341.48
438.895	3354.81
439.271	3390.07
439.646	3461.48
440.021	3443.17
440.395	3477.3
440.77	3516.84
441.145	3526.11
441.52	3578.08
441.895	3600.91
442.27	3637.97
442.645	3619.44
443.019	3691.98
443.394	3679.1
443.769	3736.05
444.143	3721.81
444.518	3777.85
444.892	3807.91
445.267	3844.07
445.641	3873.67
446.016	3834.12
446.39	3894.69
446.764	3884.06
447.139	3892.88
447.513	3969.03
447.887	3949.6
448.262	3950.5
448.636	4042.03
449.01	4057.17
449.384	4101.46
449.758	4138.75
450.132	4185.75
450.506	4230.27
450.88	4237.5
451.254	4220.33
451.628	4276.6
452.002	4378.29
452.376	4348.01
452.75	4454.45
453.123	4375.58
453.497	4560.2
453.871	4539.19
454.244	4659.86
454.618	4653.08
454.992	4738.51
455.365	4785.51
455.739	4877.03
456.112	4893.08
456.486	4943.47
456.859	4978.73
457.232	5085.61
457.606	5030.93
457.979	5187.76
458.352	5244.48
458.725	5298.04
459.099	5339.85
459.472	5446.06
459.845	5495.77
460.218	5578.94
460.591	5618.71
460.964	5655.32
461.337	5742.32
461.71	5837.46
462.083	5953.16
462.456	5925.82
462.829	5946.38
463.201	6110.67
463.574	6136.89
463.947	6211.69
464.32	6314.51
464.692	6390.67
465.065	6464.11
465.438	6535.97
465.81	6635.18
466.183	6719.24
466.555	6786.59
466.928	6879.01
467.3	6914.49
467.672	7041.72
468.045	7184.32
468.417	7171.44
468.789	7253.69
469.161	7312
469.534	7508.38
469.906	7660.46
470.278	7710.18
470.65	7772.55
471.022	7893.68
471.394	8076.04
471.766	8177.06
472.138	8292.76
472.51	8444.62
472.882	8529.82
473.253	8659.08
473.625	8751.51
473.997	8954.89
474.369	9017.49
474.74	9103.36
475.112	9255.22
475.484	9433.52
475.855	9590.13
476.227	9672.39
476.598	9857.24
476.97	9999.84
477.341	10213.39
477.713	10384.68
478.084	10442.31
478.455	10674.62
478.827	10827.16
479.198	11119.35
479.569	11123.2
479.94	11489.06
480.311	11578.1
480.682	11819.22
481.053	12051.53
481.424	12269.83
481.795	12361.81
482.166	12573.55
482.537	12737.39
482.908	12926.54
483.279	13063.94
483.65	13364.04
484.021	13558.16
484.391	13797.7
484.762	13918.6
485.133	13958.83
485.503	14202.66
485.874	14541.19
486.244	14641.52
486.615	14950.44
486.985	15003.55
487.356	15343.88
487.726	15440.82
488.097	15754.94
488.467	15850.98
488.837	16130.3
489.207	16278.77
489.578	16534.13
489.948	16668.36
490.318	16912.2
490.688	17031.29
491.058	17228.8
491.428	17509.69
491.798	17648.67
492.168	18007.99
492.538	18037.36
492.908	18254.08
493.278	18523.68
493.648	18543.34
494.017	18786.72
494.387	18919.6
494.757	19061.07
495.126	19253.83
495.496	19366.82
495.866	19568.4
496.235	19744.44
496.605	19870.76
496.974	19969.97
497.344	20098.55
497.713	20148.5
498.082	20440.92
498.452	20578.31
498.821	20795.48
499.19	20754.36
499.559	21102.37
499.928	21072.99
500.298	21278.18
500.667	21442.47
501.036	21355.24
501.405	21741.9
501.774	21715.91
502.143	21943.25
502.512	22011.72
502.88	22197.71
503.249	22242.45
503.618	22444.03
503.987	22634.31
504.356	22661.88
504.724	22806.73
505.093	22910
505.462	23068.19
505.83	23234.52
506.199	23429.54
506.567	23675.63
506.936	23655.75
507.304	23950.43
507.672	24014.16
508.041	24121.5
508.409	24394.03
508.777	24520.36
509.145	24671.31
509.514	24788.6
509.882	24944.53
510.25	24994.24
510.618	25236.05
510.986	25328.25
511.354	25537.05
511.722	25771.85
512.09	25969.59
512.458	26075.8
512.826	26255
513.193	26346.98
513.561	26470.82
513.929	26738.15
514.297	26864.7
514.664	27106.73
515.032	27151.02
515.4	27362.77
515.767	27467.4
516.135	27716.66
516.502	27516.44
516.869	28027.38
517.237	28117.55
517.604	28157.55
517.972	28397.32
518.339	28531.1
518.706	28750.98
519.073	28854.93
519.44	29041.14
519.808	29435.03
520.175	29331.76
520.542	29651.75
520.909	29810.39
521.276	29946.88
521.643	30286.31
522.009	30439.07
522.376	30571.27
522.743	30817.82
523.11	31138.49
523.477	31348.43
523.843	31506.62
524.21	31796.55
524.577	32072.02
524.943	32139.82
525.31	32344.11
525.676	32613.25
526.043	32844.66
526.409	32975.05
526.776	33384.08
527.142	33462.04
527.508	33658.65
527.874	33835.37
528.241	33989.26
528.607	34009.6
528.973	34400.78
529.339	34559.64
529.705	34790.14
530.071	35099.74
530.437	35298.83
530.803	35398.49
531.169	35641.42
531.535	35600.74
531.901	35757.8
532.267	36033.95
532.632	36220.62
532.998	36272.59
533.364	36506.48
533.73	36799.81
534.095	37103.53
534.461	37134.94
534.826	37209.29
535.192	37352.79
535.557	37659
535.923	37603.4
536.288	37821.25
536.653	38085.2
537.019	38058.31
537.384	38262.6
537.749	38354.8
538.114	38430.5
538.479	38515.47
538.845	38769.25
539.21	38861.22
539.575	39104.16
539.94	39044.04
540.305	39235
540.67	39127.88
541.034	39524.94
541.399	39720.41
541.764	39662.56
542.129	39901.2
542.494	40118.59
542.858	40211.47
543.223	40268.19
543.587	40438.58
543.952	40375.53
544.316	40727.84
544.681	40708.18
545.045	40987.72
545.41	41138.23
545.774	41243.99
546.138	41305
546.503	41403.08
546.867	41369.41
547.231	41824.54
547.595	41848.72
547.959	41875.61
548.324	42020.24
548.688	42110.4
549.052	42235.37
549.416	42345.2
549.779	42515.59
550.143	42618.41
550.507	42832.87
550.871	43123.71
551.235	42938.18
551.599	43336.81
551.962	43395.12
552.326	43449.35
552.689	43674.66
553.053	43584.72
553.417	43856.12
553.78	44320.52
554.143	44162.1
554.507	44363.23
554.87	44415.43
555.234	44894.96
555.597	44650.68
555.96	44952.14
556.323	45085.02
556.686	45157.33
557.05	45363.43
557.413	45438.9
557.776	45602.29
558.139	45840.93
558.502	45817.2
558.865	46026.23
559.228	46182.16
559.59	46383.06
559.953	46426.67
560.316	46800.22
560.679	46754.8
561.041	47088.35
561.404	47164.51
561.767	47402.24
562.129	47463.48
562.492	47793.19
562.854	47777.37
563.217	47795.68
563.579	48051.72
563.941	48241.32
564.304	48331.71
564.666	48655.54
565.028	48639.72
565.39	48840.4
565.753	48974.4
566.115	49022.76
566.477	49305.92
566.839	49443.77
567.201	49651.22
567.563	49536.42
567.925	49815.29
568.287	50001.27
568.648	50013.47
569.01	50266.8
569.372	50377.53
569.734	50372.79
570.095	50616.62
570.457	50755.37
570.819	50746.34
571.18	50874.24
571.542	51065.87
571.903	51124.4
572.265	51193.78
572.626	51398.07
572.987	51470.16
573.349	51613.88
573.71	51763.94
574.071	51818.62
574.432	51837.38
574.794	52101.55
575.155	51977.72
575.516	52022.23
575.877	52237.37
576.238	52261.1
576.599	52393.98
576.96	52423.58
577.32	52399.85
577.681	52654.99
578.042	52712.39
578.403	52691.14
578.763	52769.56
579.124	52793.74
579.485	52998.48
579.845	53028.99
580.206	52996.67
580.566	53005.26
580.927	53070.34
581.287	53198.47
581.648	53081.42
582.008	53291.35
582.368	53268.98
582.728	53281.86
583.089	53303.1
583.449	53280.96
583.809	53330.45
584.169	53400.73
584.529	53362.09
584.889	53679.59
585.249	53473.95
585.609	53320.5
585.969	53561.63
586.329	53448.41
586.688	53596.66
587.048	53506.94
587.408	53574.74
587.768	53633.94
588.127	53548.07
588.487	53550.78
588.846	53809.08
589.206	53611.12
589.565	53636.88
589.925	53775.86
590.284	53602.76
590.643	53778.8
591.003	53838.23
591.362	53842.52
591.721	53839.36
592.08	53835.52
592.44	53912.13
592.799	54015.63
593.158	53878.46
593.517	53994.61
593.876	53993.71
594.235	53882.75
594.593	54085.91
594.952	54056.53
595.311	54040.49
595.67	54074.84
596.029	54211.1
596.387	54189.41
596.746	54266.92
597.104	54211.78
597.463	54223.53
597.822	54294.94
598.18	54155.29
598.538	54259.01
598.897	54353.47
599.255	54111.44
599.613	54512.11
599.972	54274.83
600.33	54499.91
600.688	54304.66
601.046	54436.63
601.404	54568.38
601.762	54463.07
602.12	54580.13
602.478	54544.2
602.836	54556.4
603.194	54375.62
603.552	54500.13
603.91	54494.03
604.268	54618.1
604.625	54579
604.983	54700.36
605.341	54607.25
605.698	54736.74
606.056	54729.06
606.413	54717.98
606.771	54790.3
607.128	54892.21
607.485	54685.21
607.843	54775.16
608.2	54882.5
608.557	55011.08
608.914	54853.35
609.272	55040.69
609.629	55072.78
609.986	55139.21
610.343	55087.69
610.7	55180.79
611.057	55131.08
611.414	55205.65
611.771	55142.15
612.127	55247.69
612.484	55194.35
612.841	55334.46
613.198	55219.44
613.554	55263.73
613.911	55431.64
614.267	55423.73
614.624	55386.44
614.98	55411.98
615.337	55565.87
615.693	55391.86
616.05	55434.8
616.406	55628.01
616.762	55451.75
617.118	55493.33
617.475	55502.59
617.831	55621.46
618.187	55580.11
618.543	55640.22
618.899	55710.27
619.255	55688.13
619.611	55705.53
619.967	55775.81
620.323	55814.68
620.678	55659.88
621.034	55686.54
621.39	55672.08
621.746	55623.95
622.101	55943.94
622.457	55681.57
622.812	55759.76
623.168	55868.23
623.523	55894.67
623.879	55926.09
624.234	55680.22
624.589	55763.83
624.945	55837.5
625.3	55830.27
625.655	55803.15
626.01	55778.97
626.365	55846.09
626.72	55826.65
627.075	55805.19
627.43	55788.24
627.785	55780.33
628.14	55928.12
628.495	55909.14
628.85	55783.72
629.205	55842.02
629.559	55947.78
629.914	55708.69
630.269	55839.53
630.623	55760.21
630.978	55743.04
631.332	55870.95
631.687	55820.55
632.041	55725.19
632.396	55828.91
632.75	55661.46
633.104	55729.71
633.459	55642.48
633.813	55602.93
634.167	55660.56
634.521	55613.55
634.875	55641.12
635.229	55628.92
635.583	55464.18
635.937	55506.89
636.291	55502.59
636.645	55507.57
636.999	55461.01
637.352	55428.02
637.706	55401.13
638.06	55512.99
638.413	55374.01
638.767	55402.94
639.121	55385.08
639.474	55268.48
639.828	55281.13
640.181	55396.61
640.534	55322.94
640.888	55295.37
641.241	55191.64
641.594	55174.47
641.947	55360.9
642.301	55200
642.654	55282.94
643.007	55251.53
643.36	55149.61
643.713	55175.6
644.066	55240.91
644.419	55032.32
644.771	54913.23
645.124	54630.53
645.477	54574.26
645.83	54433.02
646.182	54356.86
646.535	54292
646.888	54287.94
647.24	54154.38
647.593	54390.76
647.945	54327.03
648.298	54146.7
648.65	54123.2
649.002	54075.74
649.355	54141.27
649.707	54080.94
650.059	54207.26
650.411	54559.12
650.763	54517.99
651.115	54874.81
651.467	54754.59
651.819	54796.17
652.171	54797.53
652.523	54721.6
652.875	54699.45
653.227	54578.78
653.578	54748.72
653.93	54728.83
654.282	54553.01
654.633	54478.67
654.985	54604.31
655.337	54615.84
655.688	54542.17
656.039	54626.01
656.391	54389.18
656.742	54504.88
657.094	54506.69
657.445	54558.44
657.796	54559.12
658.147	54391.21
658.498	54539.23
658.849	54506.24
659.2	54442.28
659.551	54389.86
659.902	54537.42
660.253	54392.79
660.604	54431.66
660.955	54332.23
661.306	54465.56
661.656	54459.68
662.007	54399.12
662.358	54316.64
662.708	54331.1
663.059	54351.66
663.409	54087.49
663.76	54419.46
664.11	54284.1
664.461	54356.86
664.811	54276.64
665.161	54275.51
665.511	54205.68
665.862	54215.4
666.212	54369.97
666.562	54276.19
666.912	54220.59
667.262	54148.96
667.612	54191.67
667.962	54228.05
668.312	54206.36
668.662	54238.67
669.011	54196.64
669.361	54146.92
669.711	54103.08
670.06	54045.46
670.41	54010.66
670.76	53939.47
671.109	54132.01
671.459	53975.4
671.808	53856.99
672.157	54036.64
672.507	53702.64
672.856	53848.63
673.205	53851.11
673.554	53892.69
673.904	53811.11
674.253	53906.48
674.602	53816.31
674.951	53358.7
675.3	53246.16
675.649	53703.77
675.998	53721.17
676.346	53570.67
676.695	53731.34
677.044	53474.63
677.393	53565.24
677.741	53610.21
678.09	53488.64
678.438	53467.17
678.787	53450.67
679.135	53329.77
679.484	53216.1
679.832	53358.7
680.181	53109.89
680.529	53280.73
680.877	53148.76
681.225	53141.98
681.573	53252.48
681.922	53076.9
682.27	52955.99
682.618	52960.51
682.966	52872.38
683.314	52993.96
683.661	52829.9
684.009	52732.72
684.357	52648.66
684.705	52596
685.053	52678.04
685.4	52578.15
685.748	52443.47
686.095	52408.21
686.443	52325.5
686.79	52149.91
687.138	52207.31
687.485	52106.53
687.832	52084.38
688.18	52093.19
688.527	51810.49
688.874	51930.94
689.221	51710.6
689.568	51622.7
689.915	51693.88
690.262	51596.93
690.609	51398.75
690.956	51372.76
691.303	51323.04
691.65	51145.87
691.997	51071.75
692.344	51052.09
692.69	50799.67
693.037	50911.3
693.383	50607.36
693.73	50744.53
694.077	50597.19
694.423	50648.94
694.769	50350.19
695.116	50354.71
695.462	50299.34
695.808	50119.68
696.155	50189.06
696.501	49905.45
696.847	49885.11
697.193	49745.91
697.539	49744.1
697.885	49545.24
698.231	49460.27
698.577	49334.62
698.923	49165.36
699.269	49146.15
699.614	48955.2
699.96	48928.3
700.306	48905.03
700.651	48755.43
700.997	48596.79
701.342	48663.23
701.688	48549.33
702.033	48472.95
702.379	48509.33
702.724	48335.33
703.069	48298.72
703.415	47856.47
703.76	47884.72
704.105	47864.83
704.45	47807.66
704.795	47576.02
705.14	47518.4
705.485	47518.4
705.83	47305.07
706.175	47337.16
706.52	47271.4
706.865	47115.24
707.209	47132.64
707.554	46847.91
707.899	46948.69
708.243	46654.24
708.588	46669.83
708.932	46474.81
709.277	46478.42
709.621	46393.91
709.966	46101.26
710.31	46344.87
710.654	45953.01
710.998	46103.07
711.342	46040.02
711.687	45884.99
712.031	45655.4
712.375	45536.53
712.719	45706.24
713.063	45682.06
713.407	45618.11
713.75	45469.64
714.094	45322.97
714.438	45134.28
714.782	45148.06
715.125	45096.31
715.469	45080.27
715.812	44863.78
716.156	44681.41
716.499	44684.8
716.843	44689.55
717.186	44467.86
717.53	44724.12
717.873	44631.92
718.216	44378.82
718.559	44323
718.902	44167.75
719.246	44253.62
719.589	43943.58
719.932	43955.55
720.275	43815.67
720.617	43799.17
720.96	43685.96
721.303	43897.48
721.646	43760.98
721.989	43482.12
722.331	43671.94
722.674	43598.27
723.016	43401.22
723.359	43467.88
723.701	43456.58
724.044	43066.09
724.386	43026.54
724.729	43260.2
725.071	43000.1
725.413	42967.78
725.755	42839.65
726.097	42763.49
726.439	42621.35
726.782	42699.54
727.124	42682.59
727.465	42430.85
727.807	42359.21
728.149	42275.82
728.491	42396.05
728.833	42333.45
729.175	42125.77
729.516	42132.78
729.858	42029.73
730.199	42099.33
730.541	41997.64
730.882	41913.35
731.224	42052.1
731.565	41764.2
731.906	41821.15
732.248	41746.12
732.589	41621.6
732.93	41542.06
733.271	41627.7
733.612	41610.53
733.953	41539.57
734.294	41402.4
734.635	41333.25
734.976	41343.42
735.317	41145.68
735.658	41128.96
735.999	41095.97
736.339	40975.29
736.68	41123.54
737.021	40966.93
737.361	40805.35
737.702	40970.55
738.042	40822.08
738.383	40746.37
738.723	40834.96
739.063	40635.64
739.404	40715.41
739.744	40592.48
740.084	40379.83
740.424	40440.39
740.764	40475.42
741.104	40590.44
741.444	40203.11
741.784	40243.33
742.124	40113.17
742.464	40114.3
742.804	40138.7
743.143	40033.85
743.483	40126.28
743.823	39812.39
744.162	39889.67
744.502	39916.11
744.841	39759.96
745.181	39792.27
745.52	39711.82
745.86	39705.95
746.199	39663.69
746.538	39589.34
746.877	39618.27
747.216	39567.19
747.556	39350.48
747.895	39451.94
748.234	39181.89
748.573	39139.41
748.911	39217.6
749.25	39039.3
749.589	38998.85
749.928	39020.32
750.267	39156.81
750.605	38870.72
750.944	38783.03
751.283	38550.95
751.621	38738.97
751.96	38509.82
752.298	38458.75
752.636	38507.79
752.975	38390.5
753.313	38248.36
753.651	38399.32
753.989	38248.13
754.327	38183.05
754.666	37897.63
755.004	37872.78
755.342	37863.51
755.679	37880.91
756.017	37623.06
756.355	37830.29
756.693	37668.03
757.031	37460.81
757.368	37253.58
757.706	37408.38
758.044	37246.35
758.381	37222.62
758.719	36982.4
759.056	37036.19
759.394	37056.07
759.731	36667.16
760.068	36593.71
760.405	36441.63
760.743	36423.77
761.08	36386.03
761.417	36174.51
761.754	36244.34
762.091	36039.83
762.428	35964.12
762.765	35734.75
763.102	35947.18
763.438	35672.16
763.775	35506.28
764.112	35487.08
764.449	35506.06
764.785	35296.8
765.122	35109.46
765.458	35015.45
765.795	34930.03
766.131	34990.14
766.467	34807.77
766.804	34661.56
767.14	34518.74
767.476	34481.45
767.812	34289.59
768.148	34286.88
768.485	34208.69
768.821	33891.64
769.157	33862.71
769.492	33802.6
769.828	33758.08
770.164	33389.73
770.5	33509.27
770.836	33423.4
771.171	33218.89
771.507	33138.21
771.842	32971.66
772.178	32813.47
772.513	32891.21
772.849	32723.08
773.184	32654.38
773.519	32489.19
773.855	32388.17
774.19	32205.81
774.525	32194.05
774.86	32131.68
775.195	32044.45
775.53	31999.71
775.865	31704.8
776.2	31555.2
776.535	31273.63
776.87	31329.67
777.205	31212.16
777.539	31181.88
777.874	31144.59
778.209	30850.14
778.543	30815.11
778.878	30535.79
779.212	30574.44
779.547	30373.54
779.881	30569.92
780.215	30188.23
780.55	30177.38
780.884	30072.75
781.218	30050.83
781.552	30079.08
781.886	29818.52
782.22	29676.38
782.554	29562.71
782.888	29279.78
783.222	29222.61
783.556	29121.82
783.889	29076.17
784.223	28809.74
784.557	28827.36
784.89	28803.41
785.224	28637.31
785.557	28562.51
785.891	28441.61
786.224	28306.25
786.558	28318.45
786.891	28051.34
787.224	28033.49
787.557	28104.9
787.891	27967.73
788.224	27912.59
788.557	27797.33
788.89	27644.34
789.223	27559.83
789.556	27418.81
789.888	27395.31
790.221	27342.2
790.554	27046.17
790.887	27110.12
791.219	26993.06
791.552	26871.03
791.884	26790.58
792.217	26748.55
792.549	26603.02
792.882	26464.94
793.214	26368.45
793.546	26366.19
793.879	26137.26
794.211	26012.3
794.543	26053.43
794.875	26019.98
795.207	25954.22
795.539	25808.46
795.871	25799.87
796.203	25656.15
796.535	25512.42
796.867	25463.16
797.198	25446.66
797.53	25341.58
797.862	25289.6
798.193	25260
798.525	25021.59
798.856	25139.55
799.188	24900.24
799.519	24747.02
799.85	24559.45
800.182	24651.43
800.513	24669.73
800.844	24481.26
801.175	24475.84
801.506	24427.48
801.837	24394.94
802.168	24292.57
802.499	24225.22
802.83	24087.15
803.161	24012.57
803.491	23996.53
803.822	24033.82
804.153	23895.52
804.483	23713.15
804.814	23661.85
805.145	23598.57
805.475	23525.36
805.805	23397
806.136	23421.4
806.466	23401.97
806.796	23373.27
807.126	23234.06
807.457	23095.31
807.787	23211.69
808.117	22986.61
808.447	22942.55
808.777	22977.57
809.107	22874.98
809.436	22734.19
809.766	22847.63
810.096	22652.61
810.426	22565.61
810.755	22616.45
811.085	22552.73
811.414	22390.47
811.744	22277.03
812.073	22234.99
812.403	22180.31
812.732	22172.85
813.061	22099.86
813.39	21945.74
813.719	21882.46
814.049	21877.72
814.378	21909.81
814.707	21764.72
815.036	21842.46
815.365	21677.95
815.693	21499.65
816.022	21482.02
816.351	21413.77
816.68	21248.81
817.008	21369.25
817.337	21037.74
817.665	21197.73
817.994	21353.89
818.322	21214.46
818.651	21117.51
818.979	20997.96
819.307	21008.81
819.636	20964.97
819.964	20838.2
820.292	20948.7
820.62	20903.96
820.948	20866.67
821.276	20883.39
821.604	20882.49
821.932	20877.97
822.259	20827.12
822.587	20784.64
822.915	20707.13
823.243	20795.71
823.57	20713.9
823.898	20680.69
824.225	20665.54
824.553	20770.63
824.88	20667.58
825.207	20751.64
825.535	20716.84
825.862	20824.18
826.189	20621.7
826.516	20700.12
826.843	20814.69
827.17	20754.13
827.497	20714.13
827.824	20727.24
828.151	20790.51
828.478	20722.94
828.805	20769.5
829.131	20629.16
829.458	20719.33
829.785	20515.49
830.111	20632.32
830.438	20627.13
830.764	20746.9
831.09	20686.33
831.417	20506.68
831.743	20628.93
832.069	20561.37
832.395	20410.64
832.722	20572.67
833.048	20433.23
833.374	20490.63
833.7	20387.36
834.026	20410.41
834.351	20428.94
834.677	20447.92
835.003	20326.57
835.329	20399.34
835.654	20456.74
835.98	20282.73
836.306	20355.27
836.631	20229.62
836.956	20221.94
837.282	20302.84
837.607	20120.25
837.932	20042.51
838.258	20035.96
838.583	20107.82
838.908	19929.07
839.233	20053.13
839.558	19832.57
839.883	19827.6
840.208	19733.59
840.533	19786.7
840.858	19898.78
841.182	19857.43
841.507	19762.97
841.832	19647.04
842.156	19684.78
842.481	19560.94
842.805	19566.82
843.13	19492.47
843.454	19436.65
843.778	19354.39
844.103	19337.22
844.427	19392.13
844.751	19303.55
845.075	19257.9
845.399	19152.36
845.723	19019.49
846.047	19127.73
846.371	18920.73
846.695	19036.43
847.019	18751.92
847.343	18692.04
847.666	18620.4
847.99	18562.1
848.313	18570.01
848.637	18409.33
848.96	18418.15
849.284	18362.1
849.607	18263.12
849.931	18154.88
850.254	17961.89
850.577	17937.25
850.9	17771.83
851.223	17799.63
851.546	17634.21
851.869	17603.93
852.192	17748.56
852.515	17527.55
852.838	17460.66
853.161	17434.67
853.483	17448.91
853.806	17240.55
854.129	17144.73
854.451	17183.83
854.774	17196.26
855.096	17099.31
855.419	17043.72
855.741	16948.81
856.063	16897.96
856.385	16896.38
856.708	16779.09
857.03	16707.68
857.352	16768.7
857.674	16580.91
857.996	16612.32
858.318	16446.67
858.64	16482.6
858.961	16503.39
859.283	16444.41
859.605	16330.52
859.926	16396.5
860.248	16206.9
860.57	16334.58
860.891	16258.65
861.212	16119.68
861.534	16174.36
861.855	16053.01
862.176	16090.75
862.498	16093.69
862.819	16011.2
863.14	15861.6
863.461	15902.05
863.782	15882.85
864.103	15933.24
864.424	15792.45
864.745	15829.51
865.065	15748.39
865.386	15681.72
865.707	15674.94
866.027	15610.08
866.348	15635.39
866.668	15580.48
866.989	15636.07
867.309	15443.99
867.63	15479.01
867.95	15562.18
868.27	15452.35
868.59	15523.08
868.91	15360.15
869.23	15391.33
869.55	15258.68
869.87	15364.89
870.19	15301.84
870.51	15346.14
870.83	15215.97
871.15	15137.1
871.469	15240.6
871.789	15195.18
872.109	15190.66
872.428	15143.2
872.748	15169.42
873.067	15091.23
873.386	15197.21
873.706	15051.91
874.025	14970.33
874.344	14928.29
874.663	15095.07
874.982	14987.05
875.301	14963.55
875.62	14857.79
875.939	14833.61
876.258	14818.24
876.577	14720.62
876.896	14853.27
877.214	14707.06
877.533	14705.47
877.852	14799.48
878.17	14743.89
878.489	14705.47
878.807	14678.58
879.125	14643.56
879.444	14504.35
879.762	14467.52
880.08	14545.25
880.398	14455.54
880.716	14455.76
881.034	14410.79
881.352	14380.29
881.67	14348.87
881.988	14321.98
882.306	14227.07
882.624	14227.07
882.941	14244.47
883.259	14253.51
883.577	14063.23
883.894	14093.97
884.212	14066.17
884.529	14130.12
884.846	14056.68
885.164	14007.64
885.481	14003.35
885.798	14071.37
886.115	13881.32
886.432	13914.31
886.75	13867.3
887.067	13897.81
887.383	13727.65
887.7	13757.93
888.017	13751.38
888.334	13729.23
888.651	13611.27
888.967	13668.67
889.284	13476.81
889.6	13505.51
889.917	13384.38
890.233	13529.01
890.55	13341.44
890.866	13358.39
891.182	13342.8
891.498	13299.18
891.815	13200.88
892.131	13192.75
892.447	13111.84
892.763	13120.43
893.079	13043.6
893.395	12975.58
893.71	12959.08
894.026	12925.18
894.342	12948.91
894.657	12841.34
894.973	12769.03
895.289	12794.11
895.604	12836.15
895.92	12723.38
896.235	12704.17
896.55	12656.49
896.865	12612.2
897.181	12625.98
897.496	12522.71
897.811	12476.83
898.126	12474.35
898.441	12379.66
898.756	12407.23
899.071	12292.21
899.386	12294.69
899.7	12262.83
900.015	12114.13
900.33	12090.85
900.644	12007.47
900.959	12061.25
901.273	11950.07
901.588	11926.34
901.902	11888.83
902.216	11825.55
902.531	11754.59
902.845	11771.09
903.159	11678.44
903.473	11598.21
903.787	11572.22
904.101	11558.21
904.415	11521.6
904.729	11472.57
905.042	11431.89
905.356	11349.63
905.67	11372
905.984	11322.74
906.297	11321.38
906.611	11234.38
906.924	11179.47
907.237	11207.94
907.551	11094.04
907.864	11086.81
908.177	11048.62
908.491	11016.98
908.804	10958.68
909.117	10897.67
909.43	10791.23
909.743	10746.26
910.056	10751.23
910.368	10770.44
910.681	10685.92
910.994	10631.68
911.307	10575.41
911.619	10426.27
911.932	10507.62
912.244	10400.05
912.557	10394.63
912.869	10301.97
913.181	10316.44
913.494	10350.34
913.806	10222.2
914.118	10158.93
914.43	10122.09
914.742	10168.42
915.054	10008.65
915.366	10051.59
915.678	9931.82
915.99	9885.94
916.302	9861.76
916.613	9838.94
916.925	9829.9
917.236	9796.45
917.548	9670.58
917.859	9727.53
918.171	9594.65
918.482	9556.68
918.794	9432.39
919.105	9473.75
919.416	9480.98
919.727	9453.86
920.038	9449.79
920.349	9354.88
920.66	9303.13
920.971	9299.97
921.282	9244.6
921.593	9201.66
921.903	9080.76
922.214	9145.62
922.525	9094.32
922.835	9022.01
923.146	8889.81
923.456	8960.54
923.767	8941.33
924.077	8881
924.387	8873.76
924.697	8772.52
925.008	8780.21
925.318	8756.93
925.628	8716.71
925.938	8672.64
926.248	8617.95
926.558	8561.91
926.867	8556.26
927.177	8473.1
927.487	8441.23
927.796	8379.77
928.106	8309.03
928.416	8331.41
928.725	8349.71
929.034	8234.46
929.344	8327.34
929.653	8234.01
929.962	8134.12
930.271	8107
930.581	8126.21
930.89	8010.96
931.199	7998.08
931.508	7927.35
931.817	7938.87
932.125	7936.39
932.434	7836.5
932.743	7769.39
933.051	7841.02
933.36	7774.58
933.669	7738.43
933.977	7684.64
934.286	7645.1
934.594	7668.37
934.902	7570.07
935.21	7518.55
935.519	7587.02
935.827	7563.74
936.135	7493.69
936.443	7386.12
936.751	7359.45
937.059	7363.75
937.367	7314.03
937.674	7347.48
937.982	7293.92
938.29	7249.63
938.597	7239
938.905	7119.23
939.213	7135.28
939.52	7115.84
939.827	7076.52
940.135	7060.7
940.442	6980.48
940.749	6976.64
941.056	6935.28
941.363	6848.73
941.67	6932.12
941.977	6818.45
942.284	6880.82
942.591	6763.31
942.898	6742.97
943.205	6743.2
943.511	6684.22
943.818	6681.73
944.125	6678.57
944.431	6603.99
944.738	6607.16
945.044	6527.16
945.35	6519.25
945.657	6475.63
945.963	6415.75
946.269	6396.99
946.575	6403.32
946.881	6401.74
947.187	6295.75
947.493	6245.81
947.799	6244.68
948.105	6243.32
948.41	6230.67
948.716	6237.9
949.022	6149.99
949.327	6179.6
949.633	6114.74
949.938	6103.22
950.244	6056.89
950.549	6047.17
950.854	5965.14
951.16	6026.38
951.465	5938.93
951.77	5919.49
952.075	5903.45
952.38	5823.22
952.685	5875.42
952.99	5813.05
953.294	5830
953.599	5759.95
953.904	5747.74
954.209	5654.87
954.513	5684.24
954.818	5668.65
955.122	5660.29
955.426	5639.72
955.731	5573.06
956.035	5541.2
956.339	5520.63
956.643	5479.5
956.948	5479.95
957.252	5504.36
957.556	5427.53
957.86	5389.11
958.163	5376.91
958.467	5369.45
958.771	5356.34
959.075	5305.27
959.378	5284.25
959.682	5310.24
959.985	5225.27
960.289	5235.44
960.592	5192.96
960.896	5202
961.199	5173.52
961.502	5117.7
961.805	5103.69
962.108	5008.55
962.411	5027.99
962.714	5051.49
963.017	5023.02
963.32	5036.35
963.623	4970.59
963.926	4965.39
964.228	4936.01
964.531	4899.86
964.833	4903.02
965.136	4790.71
965.438	4868.9
965.741	4855.79
966.043	4792.52
966.345	4764.27
966.648	4753.87
966.95	4746.19
967.252	4720.65
967.554	4699.41
967.856	4653.08
968.158	4589.13
968.46	4638.85
968.761	4601.56
969.063	4590.94
969.365	4543.93
969.666	4534.67
969.968	4477.5
970.269	4493.54
970.571	4466.2
970.872	4454.67
971.174	4397.05
971.475	4396.37
971.776	4423.71
972.077	4338.29
972.378	4354.11
972.679	4359.31
972.98	4251.51
973.281	4291.74
973.582	4274.56
973.883	4241.57
974.183	4223.04
974.484	4215.58
974.785	4213.77
975.085	4183.94
975.386	4148.69
975.686	4128.35
975.986	4086.77
976.287	4112.53
976.587	4009.94
976.887	4071.18
977.187	4040.9
977.487	4034.57
977.787	3956.38
978.087	3957.73
978.387	3996.6
978.687	3921.35
978.987	3941.01
979.286	3918.41
979.586	3910.96
979.885	3839.55
980.185	3849.72
980.484	3804.29
980.784	3807.91
981.083	3776.04
981.382	3793.67
981.682	3774.24
981.981	3766.33
982.28	3738.76
982.579	3717.06
982.878	3741.92
983.177	3667.8
983.475	3657.63
983.774	3627.35
984.073	3646.33
984.372	3581.47
984.67	3633.9
984.969	3559.78
985.267	3540.57
985.566	3560.68
985.864	3513.23
986.162	3536.73
986.461	3459.22
986.759	3486.56
987.057	3456.28
987.355	3446.79
987.653	3419.67
987.951	3431.65
988.249	3392.33
988.547	3395.94
988.844	3339.45
989.142	3383.29
989.44	3316.17
989.737	3303.97
990.035	3345.77
990.332	3289.28
990.63	3240.01
990.927	3254.48
991.224	3245.89
991.521	3217.42
991.819	3211.99
992.116	3184.65
992.413	3215.38
992.71	3163.63
993.006	3133.35
993.303	3120.02
993.6	3124.08
993.897	3118.43
994.193	3105.1
994.49	3080.92
994.787	3023.52
995.083	3044.31
995.379	3057.65
995.676	2988.49
995.972	2993.69
996.268	2981.04
996.565	2949.17
996.861	2938.55
997.157	2860.36
997.453	2937.87
997.749	2881.83
998.044	2899.91
998.34	2855.17
998.636	2868.05
998.932	2821.95
999.227	2820.82
999.523	2810.65
999.818	2821.72
1000.114	2757.31
1000.409	2743.53
1000.704	2767.48
1001	2759.12
1001.295	2706.92
1001.59	2697.66
1001.885	2705.79
1002.18	2658.33
1002.475	2622.85
1002.77	2651.55
1003.065	2611.56
1003.359	2598
1003.654	2574.49
1003.949	2604.78
1004.243	2564.78
1004.538	2517.32
1004.832	2546.02
1005.127	2524.1
1005.421	2481.16
1005.715	2447.04
1006.009	2474.61
1006.304	2449.07
1006.598	2428.28
1006.892	2417.44
1007.186	2405.01
1007.48	2374.27
1007.773	2349.42
1008.067	2368.17
1008.361	2355.29
1008.655	2341.51
1008.948	2341.96
1009.242	2299.25
1009.535	2292.69
1009.829	2274.39
1010.122	2279.59
1010.415	2279.81
1010.708	2204.56
1011.001	2228.06
1011.295	2225.13
1011.588	2220.61
1011.881	2187.61
1012.173	2188.52
1012.466	2178.8
1012.759	2139.25
1013.052	2159.82
1013.344	2120.95
1013.637	2101.96
1013.93	2106.48
1014.222	2084.34
1014.514	2057.67
1014.807	2056.99
1015.099	2043.66
1015.391	2051.57
1015.683	2010.44
1015.976	1972.93
1016.268	1991.23
1016.56	1964.57
1016.851	1943.78
1017.143	1958.24
1017.435	1977
1017.727	1960.73
1018.018	1918.47
1018.31	1939.26
1018.602	1897.45
1018.893	1881.41
1019.185	1861.29
1019.476	1847.96
1019.767	1835.98
1020.058	1869.65
1020.35	1839.6
1020.641	1798.47
1020.932	1774.52
1021.223	1771.13
1021.514	1757.34
1021.804	1739.04
1022.095	1736.55
1022.386	1748.53
1022.677	1710.11
1022.967	1708.75
1023.258	1659.04
1023.548	1675.99
1023.839	1717.79
1024.129	1661.3
1024.419	1652.03
1024.709	1645.93
1025	1616.33
1025.29	1629.43
1025.58	1624.24
1025.87	1605.71
1026.16	1576.33
1026.449	1565.93
1026.739	1551.02
1027.029	1536.33
1027.319	1527.06
1027.608	1535.2
1027.898	1503.34
1028.187	1492.71
1028.477	1477.8
1028.766	1461.98
1029.055	1479.83
1029.344	1486.84
1029.634	1445.03
1029.923	1459.27
1030.212	1429.67
1030.501	1431.93
1030.79	1431.02
1031.078	1403
1031.367	1372.94
1031.656	1385.37
1031.945	1385.83
1032.233	1365.71
1032.522	1365.71
1032.81	1358.71
1033.099	1333.4
1033.387	1341.76
1033.675	1321.65
1033.963	1306.73
1034.251	1292.72
1034.54	1264.25
1034.828	1269.22
1035.116	1266.28
1035.403	1276.68
1035.691	1265.15
1035.979	1258.6
1036.267	1253.17
1036.554	1240.07
1036.842	1194.19
1037.129	1206.17
1037.417	1201.88
1037.704	1228.77
1037.992	1193.74
1038.279	1203.23
1038.566	1185.6
1038.853	1185.6
1039.14	1185.6
