Data from White_reflection_standard_FLMS001491_020.txt Node
Date: Tue Feb 07 10:31:59 GMT 2017
User: dcchb
Spectrometer: FLMS00149
Trigger mode: 0
Integration Time (sec): 2.000000E-2
Scans to average: 10
Electric dark correction enabled: true
Nonlinearity correction enabled: false
Boxcar width: 0
XAxis mode: Wavelengths
Number of Pixels in Spectrum: 2048
>>>>>Begin Spectral Data<<<<<
341.393	-23.84
341.776	-23.84
342.16	-23.84
342.543	-72.65
342.927	-57.29
343.31	-61.35
343.693	-67
344.077	-56.38
344.46	-57.06
344.843	-47.8
345.226	-75.37
345.61	-36.5
345.993	-5.54
346.376	-12.32
346.759	11.19
347.142	26.55
347.525	46.21
347.908	67.91
348.291	74.24
348.674	83.05
349.057	110.17
349.44	116.95
349.823	120.34
350.206	191.29
350.588	229.94
350.971	240.11
351.354	264.29
351.737	293.66
352.119	290.5
352.502	286.21
352.884	321.23
353.267	325.3
353.65	343.15
354.032	357.84
354.414	352.42
354.797	344.74
355.179	363.72
355.562	367.11
355.944	371.4
356.326	376.37
356.709	390.39
357.091	381.8
357.473	417.5
357.855	384.06
358.238	395.81
358.62	396.26
359.002	424.06
359.384	413.66
359.766	418.86
360.148	401.46
360.53	421.57
360.912	375.92
361.294	402.81
361.676	391.97
362.057	399.65
362.439	418.63
362.821	401.91
363.203	425.19
363.584	405.53
363.966	415.7
364.348	418.63
364.729	418.18
365.111	429.71
365.493	398.29
365.874	401.01
366.256	420.44
366.637	405.07
367.019	410.95
367.4	435.58
367.781	419.76
368.163	402.36
368.544	425.86
368.925	436.94
369.306	423.6
369.688	424.06
370.069	425.64
370.45	416.15
370.831	429.03
371.212	425.41
371.593	444.17
371.974	421.8
372.355	434.23
372.736	435.58
373.117	455.24
373.498	431.74
373.879	464.73
374.26	447.11
374.641	432.87
375.021	439.42
375.402	458.86
375.783	455.92
376.163	492.53
376.544	503.15
376.925	487.11
377.305	498.18
377.686	487.33
378.066	487.33
378.447	503.15
378.827	474.45
379.208	499.53
379.588	521
379.968	530.72
380.349	523.94
380.729	512.42
381.109	540.21
381.489	528.01
381.87	534.56
382.25	540.89
382.63	545.64
383.01	549.03
383.39	573.21
383.77	547.44
384.15	565.07
384.53	608.68
384.91	594.45
385.29	612.98
385.67	595.13
386.049	604.84
386.429	619.53
386.809	626.54
387.189	614.56
387.568	621.11
387.948	641.23
388.328	657.95
388.707	659.98
389.087	662.69
389.466	652.75
389.846	666.76
390.225	672.64
390.605	680.55
390.984	676.71
391.363	678.97
391.743	714.44
392.122	720.09
392.501	735.69
392.881	737.95
393.26	758.51
393.639	765.74
394.018	768
394.397	773.88
394.776	789.02
395.155	773.2
395.534	803.93
395.913	829.7
396.292	802.13
396.671	830.37
397.05	835.8
397.429	821.56
397.808	855.46
398.186	862.01
398.565	859.3
398.944	879.41
399.323	864.72
399.701	891.39
400.08	885.06
400.458	920.31
400.837	911.05
401.215	892.29
401.594	928
401.972	933.65
402.351	962.12
402.729	961.44
403.107	980.65
403.486	977.94
403.864	995.12
404.242	998.5
404.62	1008
404.999	1025.4
405.377	1033.98
405.755	1069.46
406.133	1064.72
406.511	1102.91
406.889	1087.77
407.267	1096.13
407.645	1125.96
408.023	1166.18
408.401	1151.5
408.779	1175.22
409.156	1187.2
409.534	1204.15
409.912	1214.09
410.29	1257.03
410.667	1239.63
411.045	1261.55
411.422	1276.01
411.8	1276.01
412.178	1348.1
412.555	1335.45
412.933	1337.7
413.31	1394.88
413.687	1395.56
414.065	1407.08
414.442	1409.79
414.819	1443.01
415.197	1446.18
415.574	1476.46
415.951	1511.03
416.328	1536.12
416.705	1536.12
417.082	1567.53
417.46	1542.9
417.837	1584.48
418.214	1558.04
418.591	1598.94
418.967	1625.16
419.344	1629.45
419.721	1690.01
420.098	1650.01
420.475	1696.57
420.852	1693.85
421.228	1735.89
421.605	1713.74
421.982	1750.58
422.358	1763
422.735	1828.31
423.111	1777.24
423.488	1856.56
423.864	1846.17
424.241	1889.1
424.617	1915.99
424.994	1914.64
425.37	1938.59
425.746	1912.83
426.123	1963.45
426.499	1989.21
426.875	2021.75
427.251	2031.7
427.627	2110.79
428.003	2120.06
428.379	2170
428.756	2174.75
429.132	2214.07
429.507	2244.57
429.883	2282.09
430.259	2273.27
430.635	2326.38
431.011	2339.71
431.387	2386.04
431.763	2447.05
432.138	2449.54
432.514	2477.56
432.89	2521.4
433.265	2574.73
433.641	2606.37
434.016	2624.22
434.392	2681.62
434.767	2750.78
435.143	2702.87
435.518	2725.92
435.894	2798.23
436.269	2806.14
436.644	2858.34
437.02	2915.06
437.395	2930.21
437.77	2955.06
438.145	2972.01
438.52	3002.97
438.895	3037.77
439.271	3047.49
439.646	3128.84
440.021	3202.74
440.395	3207.26
440.77	3179.01
441.145	3221.05
441.52	3250.2
441.895	3321.61
442.27	3275.28
442.645	3290.65
443.019	3374.26
443.394	3384.43
443.769	3393.02
444.143	3405.22
444.518	3461.94
444.892	3488.38
445.267	3488.61
445.641	3505.78
446.016	3558.89
446.39	3585.1
446.764	3613.13
447.139	3636.18
447.513	3656.97
447.887	3679.79
448.262	3716.17
448.636	3716.4
449.01	3749.62
449.384	3789.17
449.758	3816.96
450.132	3903.06
450.506	3902.84
450.88	3979.9
451.254	3942.83
451.628	4004.75
452.002	4068.48
452.376	4093.34
452.75	4130.85
453.123	4169.49
453.497	4264.63
453.871	4252.66
454.244	4371.98
454.618	4427.34
454.992	4498.3
455.365	4448.36
455.739	4601.57
456.112	4624.4
456.486	4676.15
456.859	4712.08
457.232	4821
457.606	4809.7
457.979	4863.94
458.352	4997.27
458.725	5033.43
459.099	5077.72
459.472	5174.21
459.845	5193.42
460.218	5291.27
460.591	5331.95
460.964	5341.89
461.337	5512.51
461.71	5557.03
462.083	5655.78
462.456	5633.86
462.829	5665.05
463.201	5820.3
463.574	5820.07
463.947	5891.26
464.32	6062.78
464.692	6077.69
465.065	6142.1
465.438	6258.03
465.81	6358.59
466.183	6425.25
466.555	6525.59
466.928	6548.64
467.3	6584.35
467.672	6647.85
468.045	6839.71
468.417	6840.39
468.789	6923.77
469.161	7009.87
469.534	7182.07
469.906	7360.82
470.278	7396.75
470.65	7458.22
471.022	7585.9
471.394	7710.19
471.766	7851.21
472.138	7890.75
472.51	8085.55
472.882	8192.44
473.253	8249.39
473.625	8412.55
473.997	8614.8
474.369	8692.99
474.74	8726.66
475.112	9019.31
475.484	9107.22
475.855	9271.96
476.227	9288.91
476.598	9553.53
476.97	9647.54
477.341	9910.13
477.713	10051.83
478.084	10066.29
478.455	10385.83
478.827	10447.75
479.198	10790.34
479.569	10756.21
479.94	11103.78
480.311	11277.78
480.682	11500.15
481.053	11662.63
481.424	11881.61
481.795	12084.09
482.166	12199.79
482.537	12400.01
482.908	12631.65
483.279	12794.8
483.65	13071.18
484.021	13337.39
484.391	13463.94
484.762	13635.69
485.133	13754.78
485.503	13922.23
485.874	14142.79
486.244	14328.1
486.615	14625.04
486.985	14798.82
487.356	15113.84
487.726	15245.59
488.097	15548.86
488.467	15509.08
488.837	15871.33
489.207	16102.51
489.578	16297.54
489.948	16481.49
490.318	16761.03
490.688	16708.37
491.058	17033.11
491.428	17229.72
491.798	17422.48
492.168	17772.08
492.538	17899.08
492.908	18009.58
493.278	18299.97
493.648	18429.91
494.017	18654.09
494.387	18708.55
494.757	18827.64
495.126	19094.98
495.496	19190.34
495.866	19360.06
496.235	19620.61
496.605	19753.94
496.974	19823.55
497.344	20141.05
497.713	20181.96
498.082	20368.39
498.452	20531.55
498.821	20763.86
499.19	20713.92
499.559	20967.7
499.928	21167.01
500.298	21310.74
500.667	21587.79
501.036	21515.03
501.405	21665.98
501.774	21732.65
502.143	22046.54
502.512	22058.29
502.88	22325.85
503.249	22317.04
503.618	22571.72
503.987	22615.11
504.356	22733.98
504.724	22976.23
505.093	23089
505.462	23229.11
505.83	23295.32
506.199	23509.78
506.567	23842.65
506.936	23865.93
507.304	24270.44
507.672	24287.84
508.041	24522.86
508.409	24602.18
508.777	24863.19
509.145	24998.78
509.514	25014.14
509.882	25257.53
510.25	25385.66
510.618	25544.3
510.986	25635.37
511.354	25947.68
511.722	26146.32
512.09	26358.29
512.458	26410.04
512.826	26704.04
513.193	26768.45
513.561	26899.07
513.929	27159.62
514.297	27302.9
514.664	27548.09
515.032	27646.62
515.4	27911.7
515.767	28070.34
516.135	28206.6
516.502	28209.54
516.869	28760.49
517.237	28969.29
517.604	28814.95
517.972	29178.78
518.339	29473.69
518.706	29441.6
519.073	29646.34
519.44	29919.55
519.808	30209.94
520.175	30202.48
520.542	30678.18
520.909	30907.32
521.276	30997.04
521.643	31342.57
522.009	31555.44
522.376	31764.02
522.743	31962.21
523.11	32150.91
523.477	32464.8
523.843	32738.91
524.21	33119.69
524.577	33362.85
524.943	33376.41
525.31	33476.52
525.676	33833.12
526.043	34106.11
526.409	34263.17
526.776	34739.31
527.142	34800.78
527.508	35084.61
527.874	35334.78
528.241	35425.4
528.607	35453.42
528.973	35894.31
529.339	35943.57
529.705	36386.95
530.071	36535.2
530.437	36670.79
530.803	36990.78
531.169	37160.94
531.535	37361.62
531.901	37492.23
532.267	37556.87
532.632	37812.9
532.998	37960.47
533.364	38219.9
533.73	38292.21
534.095	38648.81
534.461	38794.35
534.826	38800.45
535.192	39098.75
535.557	39176.71
535.923	39338.06
536.288	39612.18
536.653	39719.75
537.019	39713.42
537.384	39858.27
537.749	40060.75
538.114	40174.88
538.479	40329
538.845	40568.09
539.21	40551.14
539.575	40756.78
539.94	40914.07
540.305	41152.93
540.67	41057.34
541.034	41386.14
541.399	41539.81
541.764	41593.37
542.129	41695.74
542.494	41865.23
542.858	42009.63
543.223	42091.44
543.587	42346.57
543.952	42209.85
544.316	42501.14
544.681	42468.83
545.045	42830.4
545.41	43120.56
545.774	42978.19
546.138	43048.92
546.503	43288.24
546.867	43367.79
547.231	43781.33
547.595	43728.91
547.959	43959.86
548.324	43943.59
548.688	44022.91
549.052	44203.02
549.416	44413.41
549.779	44369.57
550.143	44585.16
550.507	44817.47
550.871	45042.54
551.235	44956.9
551.599	45320.5
551.962	45337.68
552.326	45412.48
552.689	45836.42
553.053	45620.16
553.417	45751.9
553.78	46291.33
554.143	46134.72
554.507	46289.52
554.87	46537.19
555.234	46846.56
555.597	46605.44
555.96	46897.86
556.323	47042.04
556.686	47211.3
557.05	47494.91
557.413	47478.41
557.776	47735.36
558.139	47882.92
558.502	48039.53
558.865	48167.43
559.228	48508.89
559.59	48526.29
559.953	48687.19
560.316	48979.16
560.679	49063
561.041	49257.57
561.404	49496.21
561.767	49585.48
562.129	49539.38
562.492	49948.4
562.854	49839.71
563.217	50014.17
563.579	50147.95
563.941	50377.55
564.304	50537.77
564.666	50771.43
565.028	50799.23
565.39	50977.08
565.753	51115.83
566.115	51158.32
566.477	51358.99
566.839	51550.85
567.201	51704.97
567.563	51788.58
567.925	51936.83
568.287	51956.49
568.648	51975.92
569.01	52220.66
569.372	52438.96
569.734	52385.63
570.095	52467.66
570.457	52704.49
570.819	52776.35
571.18	52813.87
571.542	52924.6
571.903	53060.41
572.265	53120.75
572.626	53245.94
572.987	53224.02
573.349	53375.88
573.71	53458.59
574.071	53598.93
574.432	53643.9
574.794	53866.49
575.155	53818.58
575.516	53751.24
575.877	53934.51
576.238	53973.16
576.599	54194.62
576.96	54120.27
577.32	54083.89
577.681	54280.95
578.042	54272.36
578.403	54279.59
578.763	54308.52
579.124	54324.11
579.485	54499.92
579.845	54544.89
580.206	54505.35
580.566	54500.83
580.927	54563.65
581.287	54713.48
581.648	54597.32
582.008	54672.35
582.368	54626.93
582.728	54687.71
583.089	54658.56
583.449	54702.18
583.809	54716.64
584.169	54747.6
584.529	54707.38
584.889	54929.29
585.249	54723.19
585.609	54678.45
585.969	54859.01
586.329	54825.34
586.688	54792.34
587.048	54779.01
587.408	54762.74
587.768	54748.5
588.127	54857.88
588.487	54694.72
588.846	54936.3
589.206	54831.89
589.565	54793.02
589.925	54897.88
590.284	54823.3
590.643	54867.82
591.003	54919.57
591.362	55040.25
591.721	54887.71
592.08	54931.1
592.44	55031.66
592.799	54977.88
593.158	54990.76
593.517	54961.83
593.876	55010.42
594.235	55029.63
594.593	54977.2
594.952	55069.4
595.311	54953.02
595.67	55103.3
596.029	55202.05
596.387	55174.48
596.746	55276.17
597.104	55127.93
597.463	55051.09
597.822	55247.02
598.18	55173.35
598.538	55077.31
598.897	55284.99
599.255	55007.48
599.613	55496.51
599.972	55293.8
600.33	55378.54
600.688	55241.37
601.046	55343.74
601.404	55453.34
601.762	55360.92
602.12	55524.08
602.478	55554.36
602.836	55501.7
603.194	55329.05
603.552	55469.39
603.91	55342.61
604.268	55549.84
604.625	55415.83
604.983	55606.79
605.341	55428.71
605.698	55610.18
606.056	55658.99
606.413	55589.61
606.771	55697.18
607.128	55737.86
607.485	55601.59
607.843	55647.24
608.2	55802.49
608.557	55837.97
608.914	55761.13
609.272	55957.29
609.629	55914.8
609.986	56069.6
610.343	55953.67
610.7	56149.37
611.057	56050.39
611.414	56009.04
611.771	56037.96
612.127	56165.64
612.484	56116.83
612.841	56252.42
613.198	56133.33
613.554	56135.59
613.911	56284.96
614.267	56253.55
614.624	56181.91
614.98	56290.84
615.337	56400.21
615.693	56330.61
616.05	56338.07
616.406	56441.57
616.762	56391.85
617.118	56379.42
617.475	56384.17
617.831	56447.67
618.187	56471.85
618.543	56535.12
618.899	56616.25
619.255	56606.31
619.611	56509.59
619.967	56590.72
620.323	56646.53
620.678	56515.92
621.034	56467.1
621.39	56522.24
621.746	56473.2
622.101	56765.17
622.457	56507.78
622.812	56599.3
623.168	56608.12
623.523	56666.19
623.879	56708.9
624.234	56514.11
624.589	56571.05
624.945	56638.85
625.3	56658.96
625.655	56686.31
626.01	56628.45
626.365	56611.96
626.72	56630.04
627.075	56599.08
627.43	56627.1
627.785	56532.64
628.14	56595.24
628.495	56566.76
628.85	56544.84
629.205	56475.92
629.559	56595.91
629.914	56454.45
630.269	56491.73
630.623	56410.83
630.978	56420.1
631.332	56503.26
631.687	56507.33
632.041	56314.11
632.396	56446.76
632.75	56211.97
633.104	56295.36
633.459	56182.14
633.813	56238.63
634.167	56147.34
634.521	56146.21
634.875	56182.59
635.229	56114.57
635.583	55981.24
635.937	56003.39
636.291	55988.02
636.645	55933.11
636.999	55901.92
637.352	55946.44
637.706	55782.15
638.06	55911.86
638.413	55814.92
638.767	55697.63
639.121	55765.2
639.474	55624.64
639.828	55575.37
640.181	55638.42
640.534	55632.77
640.888	55573.57
641.241	55464.19
641.594	55460.8
641.947	55540.57
642.301	55417.19
642.654	55452.21
643.007	55439.79
643.36	55333.35
643.713	55302.39
644.066	55448.15
644.419	55112.11
644.771	54925.45
645.124	54678.45
645.477	54661.73
645.83	54510.77
646.182	54414.95
646.535	54333.6
646.888	54319.81
647.24	54187.61
647.593	54402.07
647.945	54244.79
648.298	54118.46
648.65	54063.78
649.002	54026.94
649.355	54114.62
649.707	54099.48
650.059	54149.2
650.411	54488.17
650.763	54476.87
651.115	54788.5
651.467	54682.29
651.819	54612.69
652.171	54515.97
652.523	54532.46
652.875	54456.08
653.227	54319.36
653.578	54554.38
653.93	54378.8
654.282	54332.24
654.633	54263.32
654.985	54237.78
655.337	54279.59
655.688	54272.13
656.039	54287.5
656.391	54109.65
656.742	54097.22
657.094	54075.3
657.445	54306.48
657.796	54119.59
658.147	54048.18
658.498	53967.96
658.849	54142.64
659.2	54004.79
659.551	53969.99
659.902	54109.42
660.253	53912.59
660.604	54102.87
660.955	53890.22
661.306	54045.02
661.656	53941.29
662.007	53937.9
662.358	53924.12
662.708	53907.85
663.059	53803.67
663.409	53654.97
663.76	53780.85
664.11	53815.65
664.461	53792.6
664.811	53854.74
665.161	53720.06
665.511	53604.35
665.862	53741.52
666.212	53719.83
666.562	53802.99
666.912	53675.99
667.262	53640.06
667.612	53636.89
667.962	53658.36
668.312	53558.93
668.662	53695.88
669.011	53588.31
669.361	53494.07
669.711	53512.6
670.06	53382.44
670.41	53298.15
670.76	53351.48
671.109	53452.04
671.459	53371.82
671.808	53344.93
672.157	53450.23
672.507	53206.62
672.856	53256.79
673.205	53213.86
673.554	53275.77
673.904	53142.9
674.253	53315.55
674.602	53177.02
674.951	52718.95
675.3	52544.04
675.649	53088.89
675.998	53156.91
676.346	53006.85
676.695	53138.15
677.044	52900.64
677.393	53040.3
677.741	52963.92
678.09	52859.06
678.438	52845.96
678.787	52890.47
679.135	52811.83
679.484	52685.51
679.832	52798.27
680.181	52605.51
680.529	52646.41
680.877	52535.68
681.225	52563.25
681.573	52754.88
681.922	52533.42
682.27	52363.71
682.618	52313.31
682.966	52313.77
683.314	52407.77
683.661	52308.79
684.009	52067.44
684.357	52048.91
684.705	51968.01
685.053	52049.37
685.4	51914.91
685.748	51675.59
686.095	51629.49
686.443	51602.15
686.79	51539.32
687.138	51575.25
687.485	51465.88
687.832	51457.07
688.18	51422.26
688.527	51293.23
688.874	51302.94
689.221	51164.42
689.568	51089.39
689.915	50977.98
690.262	50984.54
690.609	50890.53
690.956	50733.47
691.303	50643.75
691.65	50482.85
691.997	50456.19
692.344	50360.82
692.69	50272.24
693.037	50306.36
693.383	50029.53
693.73	50137.1
694.077	49812.14
694.423	49870.21
694.769	49759.71
695.116	49784.34
695.462	49578.47
695.808	49459.38
696.155	49552.71
696.501	49181.64
696.847	49171.93
697.193	48892.84
697.539	49074.08
697.885	48815.55
698.231	48674.54
698.577	48708.89
698.923	48571.49
699.269	48436.35
699.614	48244.49
699.96	48167.43
700.306	48246.98
700.651	48006.76
700.997	47834.79
701.342	47870.04
701.688	47918.63
702.033	47567.9
702.379	47567.22
702.724	47485.64
703.069	47625.75
703.415	47176.05
703.76	47141.25
704.105	47061.02
704.45	46953
704.795	46697.19
705.14	46647.93
705.485	46738.09
705.83	46527.7
706.175	46460.36
706.52	46388.95
706.865	46186.02
707.209	46124.78
707.554	45932.92
707.899	46073.03
708.243	45806.82
708.588	45669.87
708.932	45538.8
709.277	45460.61
709.621	45633.49
709.966	45201.64
710.31	45304.23
710.654	44960.29
710.998	44982.21
711.342	45092.71
711.687	44924.36
712.031	44663.12
712.375	44497.25
712.719	44735.66
713.063	44530.24
713.407	44826.05
713.75	44370.02
714.094	44400.98
714.438	44196.92
714.782	44199.4
715.125	44071.72
715.469	43928
715.812	43813.42
716.156	43697.5
716.499	43536.6
716.843	43761.22
717.186	43479.87
717.53	43563.71
717.873	43668.12
718.216	43436.49
718.559	43291.4
718.902	42962.6
719.246	43022.03
719.589	43003.28
719.932	42840.34
720.275	42888.25
720.617	42590.18
720.96	42732.77
721.303	42702.27
721.646	42631.31
721.989	42228.61
722.331	42425.44
722.674	42372.56
723.016	42279.23
723.359	42199.23
723.701	42295.05
724.044	42002.62
724.386	41705.46
724.729	42044.43
725.071	41813.25
725.413	41809.18
725.755	41756.76
726.097	41663.42
726.439	41387.05
726.782	41364
727.124	41599.25
727.465	41217.33
727.807	41325.13
728.149	41208.07
728.491	41106.83
728.833	41115.64
729.175	40896.21
729.516	40973.72
729.858	40896.89
730.199	40772.15
730.541	40672.04
730.882	40659.61
731.224	40794.75
731.565	40476.79
731.906	40528.09
732.248	40670
732.589	40144.14
732.93	40039.96
733.271	40262.33
733.612	40190.92
733.953	40260.3
734.294	39980.98
734.635	40018.95
734.976	39978.5
735.317	39787.99
735.658	39778.28
735.999	39809.91
736.339	39450.6
736.68	39576.93
737.021	39592.07
737.361	39408.34
737.702	39590.26
738.042	39453.76
738.383	39318.85
738.723	39340.1
739.063	39176.94
739.404	39215.81
739.744	39046.32
740.084	38897.62
740.424	38888.13
740.764	38842.48
741.104	39006.77
741.444	38656.95
741.784	38630.74
742.124	38764.52
742.464	38584.18
742.804	38488.14
743.143	38388.03
743.483	38405.88
743.823	38253.8
744.162	38212.22
744.502	38244.98
744.841	38084.76
745.181	38209.5
745.52	37945.33
745.86	38048.83
746.199	37851.55
746.538	37810.87
746.877	37910.53
747.216	37881.6
747.556	37713.92
747.895	37637.99
748.234	37555.28
748.573	37441.61
748.911	37543.31
749.25	37408.17
749.589	37165.24
749.928	37220.38
750.267	37264.9
750.605	37089.31
750.944	37071.91
751.283	36863.55
751.621	36986.26
751.96	36817.22
752.298	36688.41
752.636	36622.43
752.975	36638.7
753.313	36324.36
753.651	36484.58
753.989	36228.54
754.327	36266.73
754.666	36066.28
755.004	36103.8
755.342	36089.56
755.679	35862.67
756.017	35871.49
756.355	35822.67
756.693	35681.21
757.031	35576.8
757.368	35367.09
757.706	35355.12
758.044	35308.11
758.381	35281.22
758.719	35004.84
759.056	35103.82
759.394	34961.23
759.731	34730.73
760.068	34571.86
760.405	34474.69
760.743	34468.13
761.08	34624.74
761.417	34224.07
761.754	34184.75
762.091	34152.66
762.428	34101.82
762.765	33783.18
763.102	33805.55
763.438	33691.88
763.775	33540.7
764.112	33580.92
764.449	33604.2
764.785	33413.92
765.122	33150.65
765.458	33189.07
765.795	33075.85
766.131	32996.76
766.467	32926.7
766.804	32648.75
767.14	32559.03
767.476	32578.24
767.812	32271.13
768.148	32360.39
768.485	32144.35
768.821	31932.15
769.157	31962.21
769.492	31892.83
769.828	31805.15
770.164	31594.99
770.5	31531.49
770.836	31416.24
771.171	31205.39
771.507	31150.93
771.842	30982.8
772.178	30959.52
772.513	30941.67
772.849	30901.22
773.184	30555.69
773.519	30633.66
773.855	30451.97
774.19	30369.94
774.525	30159.09
774.86	30256.94
775.195	30044.29
775.53	29938.08
775.865	29661.25
776.2	29516.63
776.535	29425.78
776.87	29504.2
777.205	29411.77
777.539	29254.26
777.874	29205.9
778.209	28943.76
778.543	29025.79
778.878	28760.49
779.212	28734.27
779.547	28616.76
779.881	28797.55
780.215	28383.32
780.55	28446.6
780.884	28307.39
781.218	28199.15
781.552	28122.76
781.886	28005.25
782.22	27744.69
782.554	27697.69
782.888	27429
783.222	27322.33
783.556	27245.27
783.889	27303.12
784.223	26998.05
784.557	26987.88
784.89	27096.12
785.224	26920.99
785.557	26653.2
785.891	26633.31
786.224	26640.99
786.558	26518.51
786.891	26378.63
787.224	26270.16
787.557	26189.93
787.891	26118.07
788.224	26030.84
788.557	25944.97
788.89	25858.19
789.223	25975.25
789.556	25640.79
789.888	25676.5
790.221	25486
790.554	25311.31
790.887	25222.5
791.219	25227.25
791.552	25121.03
791.884	24984.54
792.217	24998.78
792.549	24803.3
792.882	24699.35
793.214	24524.67
793.546	24602.63
793.879	24538.68
794.211	24386.14
794.543	24351.34
794.875	24286.03
795.207	24365.35
795.539	24205.8
795.871	24169.42
796.203	23933.04
796.535	23802.88
796.867	23714.29
797.198	23740.51
797.53	23640.85
797.862	23581.41
798.193	23543.22
798.525	23430.23
798.856	23469.33
799.188	23129.67
799.519	23159.5
799.85	22933.3
800.182	22946.85
800.513	23001.99
800.844	22830.25
801.175	22912.73
801.506	22857.14
801.837	22738.05
802.168	22772.85
802.499	22586.64
802.83	22434.33
803.161	22384.61
803.491	22420.54
803.822	22375.8
804.153	22236.36
804.483	22062.36
804.814	22006.54
805.145	22021.68
805.475	21944.62
805.805	21766.77
806.136	21814.68
806.466	21834.12
806.796	21827.79
807.126	21576.95
807.457	21551.86
807.787	21589.83
808.117	21474.35
808.447	21330.85
808.777	21470.51
809.107	21293.11
809.436	21153.23
809.766	21241.36
810.096	21056.73
810.426	20863.29
810.755	20994.59
811.085	20955.72
811.414	20834.82
811.744	20604.99
812.073	20692.9
812.403	20670.76
812.732	20602.74
813.061	20542.62
813.39	20416.75
813.719	20432.34
814.049	20417.66
814.378	20364.32
814.707	20351.89
815.036	20256.08
815.365	20149.64
815.693	19967.5
816.022	19964.79
816.351	19964.79
816.68	19749.65
817.008	19909.65
817.337	19693.61
817.665	19729.54
817.994	19762.76
818.322	19700.61
818.651	19627.62
818.979	19518.24
819.307	19591.69
819.636	19542.2
819.964	19419.26
820.292	19512.59
820.62	19486.15
820.948	19409.32
821.276	19358.93
821.604	19252.04
821.932	19405.25
822.259	19480.5
822.587	19279.15
822.915	19259.95
823.243	19383.33
823.57	19337.01
823.898	19287.74
824.225	19224.47
824.553	19193.28
824.88	19278.48
825.207	19272.37
825.535	19247.29
825.862	19328.64
826.189	19319.83
826.516	19205.48
826.843	19402.54
827.17	19269.66
827.497	19299.04
827.824	19215.88
828.151	19329.77
828.478	19252.94
828.805	19245.26
829.131	19256.56
829.458	19180.63
829.785	19093.85
830.111	19165.94
830.438	19186.95
830.764	19118.71
831.09	19235.09
831.417	19169.55
831.743	19174.3
832.069	19103.11
832.395	19038.71
832.722	19080.06
833.048	19007.97
833.374	19110.57
833.7	19111.25
834.026	18977.92
834.351	19025.15
834.677	19025.15
835.003	19002.55
835.329	18931.59
835.654	18855.66
835.98	18795.1
836.306	18841.2
836.631	18726.4
836.956	18706.06
837.282	18733.41
837.607	18717.81
837.932	18702.9
838.258	18688.44
838.583	18657.02
838.908	18518.04
839.233	18632.39
839.558	18585.16
839.883	18501.55
840.208	18449.57
840.533	18410.93
840.858	18372.96
841.182	18376.35
841.507	18313.76
841.832	18299.52
842.156	18243.02
842.481	18233.76
842.805	18278.95
843.13	18095.46
843.454	18103.14
843.778	18053.42
844.103	17992.41
844.427	17972.3
844.751	17908.79
845.075	17898.4
845.399	17810.04
845.723	17721.91
846.047	17747.44
846.371	17582.48
846.695	17636.26
847.019	17429.03
847.343	17377.51
847.666	17283.05
847.99	17175.93
848.313	17208.7
848.637	17045.54
848.96	16958.54
849.284	17005.32
849.607	16903.62
849.931	16826.56
850.254	16739.79
850.577	16674.48
850.9	16544.31
851.223	16525.78
851.546	16443.3
851.869	16250.99
852.192	16367.59
852.515	16323.3
852.838	16209.63
853.161	16236.07
853.483	16023.42
853.806	16054.15
854.129	15974.16
854.451	15910.43
854.774	15749.53
855.096	15712.69
855.419	15830.88
855.741	15700.72
856.063	15560.83
856.385	15611.91
856.708	15605.58
857.03	15516.99
857.352	15551.57
857.674	15436.09
857.996	15380.27
858.318	15310.67
858.64	15352.25
858.961	15261.63
859.283	15198.81
859.605	15129.88
859.926	15097.34
860.248	15062.77
860.57	15014.63
860.891	15053.73
861.212	14954.97
861.534	14960.62
861.855	14893.28
862.176	14853.73
862.498	14837.69
862.819	14811.02
863.14	14790.23
863.461	14716.34
863.782	14726.28
864.103	14701.2
864.424	14626.85
864.745	14721.53
865.065	14565.83
865.386	14577.81
865.707	14575.77
866.027	14601.09
866.348	14447.87
866.668	14478.38
866.989	14470.92
867.309	14393.41
867.63	14329.23
867.95	14338.95
868.27	14244.48
868.59	14271.15
868.91	14239.29
869.23	14237.03
869.55	14144.37
869.87	14279.06
870.19	14098.95
870.51	14108.44
870.83	14161.32
871.15	14051.27
871.469	14134.43
871.789	14105.73
872.109	14046.98
872.428	13959.29
872.748	14009.01
873.067	14052.17
873.386	14065.51
873.706	13945.74
874.025	13890.82
874.344	13882.01
874.663	13853.76
874.982	13851.5
875.301	13815.57
875.62	13755.91
875.939	13743.25
876.258	13757.27
876.577	13673.2
876.896	13702.35
877.214	13626.65
877.533	13630.26
877.852	13597.27
878.17	13621.22
878.489	13607.21
878.807	13653.09
879.125	13541.68
879.444	13410.61
879.762	13463.71
880.08	13449.48
880.398	13478.18
880.716	13382.36
881.034	13357.95
881.352	13398.63
881.67	13336.03
881.988	13255.81
882.306	13285.64
882.624	13256.49
882.941	13161.12
883.259	13084.06
883.577	13089.03
883.894	13127.23
884.212	13055.14
884.529	13033.89
884.846	13025.99
885.164	13020.79
885.481	12993.22
885.798	12916.16
886.115	12835.93
886.432	12826.89
886.75	12719.33
887.067	12854.92
887.383	12703.73
887.7	12776.27
888.017	12682.94
888.334	12617.63
888.651	12643.17
888.967	12647.01
889.284	12549.84
889.6	12573.34
889.917	12450.18
890.233	12419.22
890.55	12424.42
890.866	12477.53
891.182	12347.81
891.498	12316.63
891.815	12214.03
892.131	12259.68
892.447	12186.46
892.763	12115.05
893.079	12101.04
893.395	12065.33
893.71	12059.68
894.026	12058.55
894.342	12022.62
894.657	11917.99
894.973	11867.6
895.289	11854.49
895.604	11851.33
895.92	11830.08
896.235	11753.48
896.55	11719.35
896.865	11621.73
897.181	11595.74
897.496	11660.15
897.811	11464.9
898.126	11493.6
898.441	11482.52
898.756	11422.64
899.071	11398.68
899.386	11414.5
899.7	11217.45
900.015	11287.5
900.33	11183.1
900.644	11195.07
900.959	11133.38
901.273	11050.9
901.588	11013.38
901.902	11016.09
902.216	10967.06
902.531	10945.14
902.845	10854.06
903.159	10749.43
903.473	10781.3
903.787	10701.3
904.101	10627.18
904.415	10666.5
904.729	10593.28
905.042	10563.45
905.356	10563.45
905.67	10513.51
905.984	10527.75
906.297	10489.1
906.611	10353.29
906.924	10357.35
907.237	10368.2
907.551	10366.62
907.864	10263.8
908.177	10242.33
908.491	10187.42
908.804	10009.12
909.117	10077.36
909.43	10015.22
909.743	9949.91
910.056	9904.71
910.368	9899.29
910.681	9836.69
910.994	9778.16
911.307	9751.27
911.619	9745.85
911.932	9743.13
912.244	9612.06
912.557	9621.78
912.869	9541.11
913.181	9525.96
913.494	9594.21
913.806	9531.61
914.118	9436.48
914.43	9335.69
914.742	9338.62
915.054	9334.33
915.366	9313.09
915.678	9238.51
915.99	9229.25
916.302	9146.99
916.613	9163.26
916.925	9105.41
917.236	8960.1
917.548	8976.37
917.859	8986.54
918.171	8921.23
918.482	8850.95
918.794	8883.27
919.105	8830.16
919.416	8743.61
919.727	8753.78
920.038	8738.64
920.349	8665.2
920.66	8638.53
920.971	8626.33
921.282	8494.35
921.593	8488.48
921.903	8427.46
922.214	8443.28
922.525	8407.35
922.835	8344.98
923.146	8326
923.456	8274.02
923.767	8297.75
924.077	8292.55
924.387	8184.53
924.697	8181.14
925.008	8173.01
925.318	8067.92
925.628	8074.7
925.938	8013.69
926.248	7996.06
926.558	7940.47
926.867	7883.52
927.177	7841.49
927.487	7824.54
927.796	7797.65
928.106	7721.94
928.416	7674.04
928.725	7737.31
929.034	7645.11
929.344	7599.69
929.653	7656.18
929.962	7533.7
930.271	7552.91
930.581	7491.22
930.89	7443.08
931.199	7387.04
931.508	7359.92
931.817	7368.28
932.125	7389.3
932.434	7313.59
932.743	7177.55
933.051	7174.16
933.36	7249.19
933.669	7161.05
933.977	7141.62
934.286	7182.97
934.594	7077.89
934.902	6965.13
935.21	6978.01
935.519	6950.66
935.827	7002.41
936.135	6905.92
936.443	6888.75
936.751	6819.14
937.059	6847.62
937.367	6809.43
937.674	6751.8
937.982	6699.15
938.29	6706.15
938.597	6656.89
938.905	6590.22
939.213	6657.34
939.52	6590.22
939.827	6563.1
940.135	6526.72
940.442	6483.78
940.749	6421.19
941.056	6434.97
941.363	6342.09
941.67	6398.81
941.977	6334.64
942.284	6272.72
942.591	6321.08
942.898	6238.82
943.205	6244.92
943.511	6201.76
943.818	6163.57
944.125	6154.3
944.431	6121.08
944.738	6044.47
945.044	6117.24
945.35	6015.32
945.657	5988.2
945.963	6011.25
946.269	5926.06
946.575	5924.48
946.881	5879.73
947.187	5847.87
947.493	5821.88
947.799	5823.24
948.105	5820.3
948.41	5761.54
948.716	5783.01
949.022	5711.83
949.327	5716.57
949.633	5601.77
949.938	5681.55
950.244	5617.14
950.549	5572.62
950.854	5529.69
951.16	5517.03
951.465	5517.03
951.77	5511.83
952.075	5484.26
952.38	5461.44
952.685	5482.23
952.99	5384.6
953.294	5363.59
953.599	5345.06
953.904	5342.8
954.209	5297.15
954.513	5247.43
954.818	5267.77
955.122	5291.05
955.426	5212.63
955.731	5186.42
956.035	5167.66
956.339	5126.31
956.643	5102.8
956.948	5096.93
957.252	5060.09
957.556	5080.21
957.86	5055.57
958.163	5004.73
958.467	5000.43
958.771	4968.8
959.075	4960.43
959.378	4900.55
959.682	4872.98
959.985	4880.66
960.289	4839.08
960.592	4836.37
960.896	4859.19
961.199	4805.41
961.502	4789.59
961.805	4733.32
962.108	4741.23
962.411	4713.66
962.714	4672.08
963.017	4668.46
963.32	4677.96
963.623	4633.89
963.926	4640.67
964.228	4550.5
964.531	4551.18
964.833	4609.03
965.136	4501.46
965.438	4527.45
965.741	4465.53
966.043	4456.49
966.345	4405.87
966.648	4413.78
966.95	4378.75
967.252	4355.7
967.554	4337.85
967.856	4291.3
968.158	4282.71
968.46	4289.04
968.761	4299.66
969.063	4253.56
969.365	4207.23
969.666	4232.77
969.968	4198.87
970.269	4162.04
970.571	4141.25
970.872	4121.59
971.174	4114.81
971.475	4049.72
971.776	4072.55
972.077	4068.03
972.378	4054.02
972.679	4093.34
972.98	4008.14
973.281	3995.71
973.582	3962.95
973.883	3938.99
974.183	3976.51
974.484	3942.38
974.785	3901.71
975.085	3902.38
975.386	3883.17
975.686	3833.01
975.986	3852.67
976.287	3862.16
976.587	3780.8
976.887	3784.87
977.187	3759.34
977.487	3755.95
977.787	3707.81
978.087	3741.71
978.387	3719.56
978.687	3722.73
978.987	3660.36
979.286	3617.19
979.586	3631.88
979.885	3590.08
980.185	3594.37
980.484	3560.7
980.784	3568.15
981.083	3517.08
981.382	3510.3
981.682	3493.35
981.981	3463.52
982.28	3472.56
982.579	3439.57
982.878	3450.19
983.177	3425.79
983.475	3431.44
983.774	3376.97
984.073	3358.67
984.372	3397.76
984.67	3353.25
984.969	3339.01
985.267	3298.56
985.566	3274.15
985.864	3293.36
986.162	3302.17
986.461	3267.6
986.759	3286.13
987.057	3231.44
987.355	3239.58
987.653	3231.21
987.951	3211.55
988.249	3164.55
988.547	3177.66
988.844	3143.76
989.142	3147.15
989.44	3100.37
989.737	3107.15
990.035	3096.98
990.332	3059.47
990.63	3056.08
990.927	3034.84
991.224	3025.34
991.521	3023.99
991.819	2976.98
992.116	3001.16
992.413	2985.35
992.71	2998
993.006	2967.49
993.303	2961.39
993.6	2924.56
993.897	2906.25
994.193	2885.23
994.49	2842.52
994.787	2879.59
995.083	2824.67
995.379	2839.36
995.676	2764.11
995.972	2817.67
996.268	2781.96
996.565	2744
996.861	2732.47
997.157	2691.57
997.453	2735.18
997.749	2732.92
998.044	2696.54
998.34	2649.53
998.636	2677.33
998.932	2644.34
999.227	2634.85
999.523	2639.82
999.818	2619.25
1000.114	2597.78
1000.409	2593.72
1000.704	2566.6
1001	2560.72
1001.295	2541.97
1001.59	2527.96
1001.885	2525.24
1002.18	2471.23
1002.475	2474.85
1002.77	2461.07
1003.065	2461.29
1003.359	2443.21
1003.654	2408.64
1003.949	2420.16
1004.243	2409.09
1004.538	2381.97
1004.832	2387.62
1005.127	2347.62
1005.421	2346.94
1005.715	2331.58
1006.009	2356.21
1006.304	2328.41
1006.598	2284.8
1006.892	2283.89
1007.186	2277.34
1007.48	2225.14
1007.773	2247.96
1008.067	2214.97
1008.361	2204.57
1008.655	2186.04
1008.948	2203.22
1009.242	2162.32
1009.535	2167.29
1009.829	2126.61
1010.122	2105.37
1010.415	2112.15
1010.708	2115.54
1011.001	2077.8
1011.295	2094.97
1011.588	2062.88
1011.881	2039.16
1012.173	2070.12
1012.466	2013.62
1012.759	2007.29
1013.052	2018.82
1013.344	2007.29
1013.637	1973.85
1013.93	1986.5
1014.222	1942.89
1014.514	1959.84
1014.807	1929.33
1015.099	1899.72
1015.391	1925.03
1015.683	1890.01
1015.976	1883.68
1016.268	1874.19
1016.56	1854.53
1016.851	1888.42
1017.143	1841.65
1017.435	1818.82
1017.727	1798.03
1018.018	1792.38
1018.31	1786.96
1018.602	1767.3
1018.893	1781.31
1019.185	1776.11
1019.476	1755.32
1019.767	1751.03
1020.058	1722.1
1020.35	1697.92
1020.641	1700.18
1020.932	1700.41
1021.223	1639.17
1021.514	1649.11
1021.804	1647.53
1022.095	1619.96
1022.386	1623.8
1022.677	1645.49
1022.967	1626.96
1023.258	1590.81
1023.548	1573.86
1023.839	1583.8
1024.129	1596.46
1024.419	1545.38
1024.709	1521.2
1025	1496.12
1025.29	1511.71
1025.58	1506.51
1025.87	1501.77
1026.16	1455.89
1026.449	1480.53
1026.739	1466.29
1027.029	1476.01
1027.319	1465.39
1027.608	1427.42
1027.898	1410.7
1028.187	1442.33
1028.477	1401.43
1028.766	1415.22
1029.055	1355.33
1029.344	1373.86
1029.634	1378.61
1029.923	1343.13
1030.212	1347.65
1030.501	1333.19
1030.79	1347.42
1031.078	1330.93
1031.367	1290.93
1031.656	1283.02
1031.945	1292.06
1032.233	1290.7
1032.522	1272.62
1032.81	1259.97
1033.099	1251.83
1033.387	1244.15
1033.675	1230.59
1033.963	1217.26
1034.251	1238.27
1034.54	1211.38
1034.828	1230.59
1035.116	1193.75
1035.403	1201.66
1035.691	1182.45
1035.979	1180.65
1036.267	1158.05
1036.554	1173.42
1036.842	1170.93
1037.129	1161.89
1037.417	1149.01
1037.704	1143.36
1037.992	1136.58
1038.279	1135.9
1038.566	1109.01
1038.853	1109.01
1039.14	1109.01
