Data from white_poster_card_FLMS001491_00037.txt Node
Date: Wed Feb 08 11:51:26 GMT 2017
User: dcchb
Spectrometer: FLMS00149
Trigger mode: 0
Integration Time (sec): 2.000000E-2
Scans to average: 10
Electric dark correction enabled: true
Nonlinearity correction enabled: false
Boxcar width: 0
XAxis mode: Wavelengths
Number of Pixels in Spectrum: 2048
>>>>>Begin Spectral Data<<<<<
341.393	-25.15
341.776	-25.15
342.16	-25.15
342.543	-70.35
342.927	-66.06
343.31	-34.87
343.693	-73.74
344.077	-52.27
344.46	-85.04
344.843	-63.35
345.226	-31.93
345.61	-10.92
345.993	-10.92
346.376	-19.96
346.759	10.78
347.142	16.65
347.525	37.22
347.908	58.23
348.291	71.11
348.674	86.03
349.057	102.98
349.44	119.25
349.823	137.1
350.206	165.57
350.588	197.21
350.971	197.89
351.354	222.3
351.737	257.1
352.119	237.44
352.502	242.41
352.884	260.26
353.267	272.46
353.65	282.86
354.032	297.77
354.414	312.69
354.797	335.51
355.179	316.76
355.562	304.55
355.944	315.18
356.326	348.39
356.709	349.07
357.091	321.73
357.473	326.25
357.855	346.81
358.238	357.89
358.62	364.89
359.002	349.52
359.384	333.25
359.766	316.98
360.148	320.6
360.53	340.49
360.912	336.42
361.294	341.62
361.676	323.76
362.057	307.04
362.439	321.28
362.821	322.63
363.203	326.47
363.584	328.96
363.966	333.48
364.348	320.82
364.729	330.77
365.111	316.53
365.493	320.15
365.874	326.7
366.256	305.01
366.637	318.57
367.019	311.56
367.4	314.5
367.781	293.93
368.163	329.41
368.544	319.92
368.925	314.5
369.306	325.34
369.688	322.86
370.069	329.86
370.45	325.34
370.831	301.84
371.212	321.05
371.593	326.25
371.974	300.49
372.355	319.92
372.736	310.2
373.117	320.82
373.498	331.9
373.879	304.33
374.26	299.58
374.641	321.5
375.021	338.23
375.402	303.88
375.783	328.06
376.163	336.87
376.544	348.17
376.925	350.2
377.305	331.9
377.686	342.07
378.066	346.81
378.447	339.81
378.827	330.77
379.208	319.24
379.588	343.65
379.968	347.04
380.349	333.93
380.729	343.2
381.109	345.46
381.489	340.71
381.87	345.01
382.25	339.81
382.63	339.81
383.01	363.31
383.39	351.11
383.77	360.37
384.15	334.61
384.53	356.08
384.91	345.68
385.29	353.37
385.67	362.41
386.049	348.62
386.429	378.45
386.809	359.92
387.189	367.38
387.568	350.2
387.948	364.89
388.328	377.32
388.707	382.97
389.087	357.43
389.466	395.63
389.846	375.51
390.225	395.85
390.605	376.19
390.984	383.65
391.363	392.46
391.743	406.7
392.122	384.33
392.501	408.28
392.881	384.55
393.26	376.64
393.639	404.21
394.018	380.94
394.397	417.77
394.776	410.99
395.155	398.79
395.534	423.65
395.913	406.47
396.292	431.1
396.671	428.84
397.05	416.42
397.429	439.92
397.808	434.49
398.186	437.66
398.565	413.93
398.944	433.82
399.323	426.58
399.701	428.62
400.08	455.74
400.458	425.91
400.837	452.35
401.215	465.91
401.594	458.67
401.972	443.31
402.351	455.51
402.729	475.85
403.107	457.32
403.486	486.02
403.864	456.41
404.242	480.37
404.62	484.21
404.999	468.84
405.377	486.7
405.755	478.33
406.133	496.87
406.511	507.49
406.889	479.69
407.267	533.02
407.645	514.04
408.023	509.52
408.401	537.54
408.779	541.61
409.156	557.88
409.534	549.75
409.912	564.66
410.29	581.61
410.667	594.72
411.045	612.79
411.422	618.22
411.8	632.91
412.178	629.07
412.555	639.46
412.933	654.83
413.31	667.26
413.687	688.27
414.065	709.52
414.442	708.16
414.819	719.46
415.197	728.95
415.574	742.06
415.951	774.82
416.328	756.52
416.705	784.99
417.082	813.02
417.46	801.72
417.837	835.61
418.214	848.27
418.591	853.47
418.967	861.6
419.344	873.8
419.721	896.18
420.098	889.62
420.475	926.91
420.852	941.37
421.228	944.76
421.605	970.07
421.982	979.79
422.358	990.19
422.735	1000.36
423.111	991.54
423.488	1015.04
423.864	1039.9
424.241	1066.34
424.617	1079.22
424.994	1076.96
425.37	1101.14
425.746	1110.86
426.123	1081.93
426.499	1122.16
426.875	1171.2
427.251	1169.84
427.627	1173.46
428.003	1205.1
428.379	1231.08
428.756	1247.13
429.132	1240.12
429.507	1277.18
429.883	1297.3
430.259	1314.7
430.635	1322.61
431.011	1290.74
431.387	1382.04
431.763	1394.69
432.138	1395.82
432.514	1442.83
432.89	1429.5
433.265	1479.66
433.641	1503.62
434.016	1506.33
434.392	1561.47
434.767	1538.65
435.143	1561.24
435.518	1587.91
435.894	1578.87
436.269	1631.52
436.644	1642.15
437.02	1645.99
437.395	1652.09
437.77	1700.68
438.145	1712.43
438.52	1700.22
438.895	1766.44
439.271	1725.76
439.646	1810.5
440.021	1794.01
440.395	1818.41
440.77	1817.51
441.145	1815.93
441.52	1846.43
441.895	1859.09
442.27	1880.56
442.645	1881.01
443.019	1913.33
443.394	1911.07
443.769	1917.39
444.143	1914
444.518	1955.81
444.892	1947.45
445.267	1933.21
445.641	1959.43
446.016	1990.16
446.39	2026.99
446.764	2030.38
447.139	2021.35
447.513	2059.76
447.887	2049.14
448.262	2050.04
448.636	2057.73
449.01	2109.03
449.384	2140.21
449.758	2142.7
450.132	2139.99
450.506	2154
450.88	2172.3
451.254	2174.79
451.628	2208.46
452.002	2233.32
452.376	2250.49
452.75	2276.48
453.123	2305.18
453.497	2349.92
453.871	2313.09
454.244	2363.48
454.618	2382.47
454.992	2431.96
455.365	2410.71
455.739	2488.23
456.112	2511.73
456.486	2553.76
456.859	2512.63
457.232	2603.93
457.606	2577.71
457.979	2629.46
458.352	2689.35
458.725	2730.93
459.099	2701.55
459.472	2754.66
459.845	2789.23
460.218	2820.19
460.591	2819.06
460.964	2875.56
461.337	2923.69
461.71	2940.87
462.083	3005.5
462.456	2989.23
462.829	2981.09
463.201	3086.4
463.574	3052.73
463.947	3128.43
464.32	3214.53
464.692	3203.69
465.065	3215.21
465.438	3324.59
465.81	3328.66
466.183	3368.65
466.555	3447.07
466.928	3409.56
467.3	3454.98
467.672	3517.35
468.045	3557.8
468.417	3609.55
468.789	3605.48
469.161	3670.34
469.534	3711.92
469.906	3800.73
470.278	3837.34
470.65	3890
471.022	3932.93
471.394	3996.21
471.766	4000.05
472.138	4074.85
472.51	4129.31
472.882	4215.41
473.253	4295.41
473.625	4318.23
473.997	4367.5
474.369	4430.32
474.74	4445.01
475.112	4526.82
475.484	4609.98
475.855	4729.07
476.227	4716.19
476.598	4887.03
476.97	4854.49
477.341	5028.5
477.713	5030.98
478.084	5101.26
478.455	5210.87
478.827	5266.23
479.198	5428.26
479.569	5461.71
479.94	5561.59
480.311	5616.96
480.682	5717.97
481.053	5849.04
481.424	5926.1
481.795	5984.86
482.166	6071.41
482.537	6201.57
482.908	6272.98
483.279	6344.4
483.65	6451.06
484.021	6600.66
484.391	6684.5
484.762	6825.96
485.133	6784.16
485.503	6920.43
485.874	7060.31
486.244	7100.76
486.615	7216.24
486.985	7372.62
487.356	7444.93
487.726	7549.11
488.097	7704.36
488.467	7689.44
488.837	7867.75
489.207	7938.25
489.578	8069.77
489.948	8155.87
490.318	8298.92
490.688	8264.8
491.058	8425.24
491.428	8524.45
491.798	8659.59
492.168	8815.97
492.538	8882.63
492.908	8865.46
493.278	9046.02
493.648	9039.69
494.017	9182.74
494.387	9296.18
494.757	9405.56
495.126	9501.15
495.496	9523.52
495.866	9560.13
496.235	9695.04
496.605	9753.8
496.974	9804.42
497.344	9908.14
497.713	9984.53
498.082	10121.02
498.452	10125.31
498.821	10250.73
499.19	10269.04
499.559	10373.89
499.928	10510.16
500.298	10469.48
500.667	10651.63
501.036	10648.46
501.405	10812.3
501.774	10772.3
502.143	10887.33
502.512	10920.55
502.88	11087.77
503.249	11094.1
503.618	11140.88
503.987	11225.4
504.356	11346.52
504.724	11377.03
505.093	11451.61
505.462	11461.55
505.83	11538.38
506.199	11646.85
506.567	11836.23
506.936	11854.08
507.304	12033.74
507.672	12043
508.041	12142.89
508.409	12141.31
508.777	12315.31
509.145	12449.32
509.514	12397.12
509.882	12464.23
510.25	12581.07
510.618	12687.73
510.986	12715.08
511.354	12916.43
511.722	12939.93
512.09	13065.12
512.458	13139.7
512.826	13295.17
513.193	13330.88
513.561	13358
513.929	13454.49
514.297	13566.58
514.664	13696.74
515.032	13800.92
515.4	13925.89
515.767	13983.97
516.135	13985.1
516.502	13961.6
516.869	14264.64
517.237	14294.69
517.604	14377.86
517.972	14460.34
518.339	14594.12
518.706	14584.4
519.073	14759.77
519.44	14842.03
519.808	15071.62
520.175	15056.03
520.542	15245.63
520.909	15319.75
521.276	15391.62
521.643	15513.19
522.009	15655.34
522.376	15726.3
522.743	15936.01
523.11	16023.24
523.477	16167.64
523.843	16247.41
524.21	16345.04
524.577	16553.17
524.943	16681.98
525.31	16749.77
525.676	16971.23
526.043	17100.04
526.409	17116.09
526.776	17293.03
527.142	17385.46
527.508	17465.01
527.874	17565.12
528.241	17758.78
528.607	17893.24
528.973	17968.72
529.339	18041.71
529.705	18235.38
530.071	18307.92
530.437	18396.51
530.803	18636.05
531.169	18605.99
531.535	18660.46
531.901	18782.26
532.267	18795.82
532.632	18933.67
532.998	19122.36
533.364	19229.93
533.73	19218.41
534.095	19417.27
534.461	19533.2
534.826	19674.44
535.192	19652.07
535.557	19881.44
535.923	19860.65
536.288	19895.9
536.653	20056.58
537.019	19895
537.384	20086.63
537.749	20314.88
538.114	20187.2
538.479	20327.53
538.845	20445.27
539.21	20433.06
539.575	20610.91
539.94	20587.64
540.305	20741.53
540.67	20699.27
541.034	20864.69
541.399	21026.5
541.764	20948.98
542.129	21073.05
542.494	21093.61
542.858	21311.01
543.223	21247.05
543.587	21476.65
543.952	21466.94
544.316	21465.35
544.681	21562.98
545.045	21686.14
545.41	21779.24
545.774	21906.47
546.138	21948.5
546.503	22014.72
546.867	21974.27
547.231	22189.63
547.595	22223.07
547.959	22396.63
548.324	22230.08
548.688	22296.97
549.052	22450.41
549.416	22492.22
549.779	22572.67
550.143	22633.91
550.507	22833.91
550.871	22884.75
551.235	22956.16
551.599	23087.91
551.962	23100.79
552.326	23109.83
552.689	23415.81
553.053	23225.08
553.417	23335.14
553.78	23622.36
554.143	23569.25
554.507	23727.67
554.87	23849.25
555.234	23953.42
555.597	23932.41
555.96	24027.55
556.323	24193.87
556.686	24252.63
557.05	24390.7
557.413	24461.21
557.776	24469.34
558.139	24762.67
558.502	24804.7
558.865	24752.95
559.228	25008.09
559.59	25178.93
559.953	25204.69
560.316	25454.63
560.679	25420.5
561.041	25645.36
561.404	25698.01
561.767	25923.32
562.129	25807.84
562.492	26184.33
562.854	26142.07
563.217	26120.37
563.579	26297.09
563.941	26473.58
564.304	26612.56
564.666	26701.83
565.028	26669.28
565.39	26860.47
565.753	27019.56
566.115	27111.98
566.477	27197.41
566.839	27404.63
567.201	27443.73
567.563	27439.66
567.925	27583.16
568.287	27686.43
568.648	27774.79
569.01	27882.59
569.372	28138.62
569.734	28059.08
570.095	28383.59
570.457	28315.12
570.819	28511.27
571.18	28556.24
571.542	28561.66
571.903	28643.47
572.265	28754.88
572.626	28846.85
572.987	28988.55
573.349	29099.5
573.71	29092.5
574.071	29149.22
574.432	29265.83
574.794	29528.19
575.155	29453.17
575.516	29412.04
575.877	29624.46
576.238	29703.1
576.599	29833.5
576.96	29809.54
577.32	29761.18
577.681	29936.77
578.042	30064.9
578.403	30025.58
578.763	30059.93
579.124	30083.66
579.485	30252.92
579.845	30338.34
580.206	30187.38
580.566	30339.92
580.927	30378.57
581.287	30382.18
581.648	30305.35
582.008	30491.11
582.368	30447.94
582.728	30457.43
583.089	30456.76
583.449	30426.47
583.809	30470.99
584.169	30593.93
584.529	30553.02
584.889	30693.59
585.249	30578.33
585.609	30397.1
585.969	30614.27
586.329	30472.35
586.688	30584.66
587.048	30463.54
587.408	30562.74
587.768	30566.81
588.127	30582.85
588.487	30563.42
588.846	30784.66
589.206	30523.42
589.565	30619.92
589.925	30682.96
590.284	30576.07
590.643	30674.6
591.003	30731.78
591.362	30885.22
591.721	30706.92
592.08	30708.05
592.44	30767.03
592.799	30846.8
593.158	30784.88
593.517	30794.15
593.876	30765.9
594.235	30677.77
594.593	30728.61
594.952	30959.79
595.311	30720.93
595.67	30829.63
596.029	30945.56
596.387	30970.19
596.746	31021.03
597.104	30897.42
597.463	30839.34
597.822	31210.86
598.18	30985.1
598.538	30875.95
598.897	31187.36
599.255	30840.7
599.613	31365.66
599.972	31200.69
600.33	31290.63
600.688	31127.47
601.046	31210.86
601.404	31358.65
601.762	31233.91
602.12	31498.31
602.478	31454.47
602.836	31487.46
603.194	31385.54
603.552	31302.84
603.91	31317.75
604.268	31475.94
604.625	31413.11
604.983	31449.27
605.341	31314.59
605.698	31665.54
606.056	31586.44
606.413	31624.41
606.771	31752.77
607.128	31732.2
607.485	31518.87
607.843	31576.73
608.2	31792.31
608.557	31752.77
608.914	31769.72
609.272	31884.97
609.629	32047.67
609.986	31936.72
610.343	31926.32
610.7	32112.98
611.057	32155.69
611.414	32059.43
611.771	32020.56
612.127	32199.76
612.484	32175.35
612.841	32212.87
613.198	32152.3
613.554	32208.57
613.911	32398.4
614.267	32379.42
614.624	32303.71
614.98	32214
615.337	32518.62
615.693	32459.87
616.05	32373.32
616.406	32632.97
616.762	32464.16
617.118	32520.66
617.475	32456.7
617.831	32582.8
618.187	32537.15
618.543	32621.22
618.899	32754.1
619.255	32806.98
619.611	32753.19
619.967	32888.78
620.323	32752.74
620.678	32798.84
621.034	32681.1
621.39	32720.2
621.746	32571.95
622.101	32970.14
622.457	32708
622.812	32865.51
623.168	32910.25
623.523	32799.29
623.879	33079.51
624.234	32797.71
624.589	32859.4
624.945	32898.05
625.3	32907.54
625.655	32899.18
626.01	32866.18
626.365	32898.5
626.72	32872.74
627.075	32853.75
627.43	32906.18
627.785	32697.83
628.14	32876.35
628.495	32826.18
628.85	32684.95
629.205	32670.26
629.559	32896.69
629.914	32611.73
630.269	32782.8
630.623	32617.6
630.978	32477.04
631.332	32623.25
631.687	32742.35
632.041	32532.86
632.396	32626.87
632.75	32468
633.104	32378.74
633.459	32352.07
633.813	32323.83
634.167	32438.4
634.521	32267.78
634.875	32369.93
635.229	32299.65
635.583	32131.06
635.937	32119.31
636.291	32126.09
636.645	32124.96
636.999	31941.24
637.352	32240.44
637.706	31882.93
638.06	31952.08
638.413	31924.74
638.767	31808.36
639.121	31787.12
639.474	31695.82
639.828	31718.64
640.181	31776.27
640.534	31675.93
640.888	31570.17
641.241	31563.85
641.594	31559.78
641.947	31529.04
642.301	31308.71
642.654	31418.76
643.007	31536.73
643.36	31306.45
643.713	31229.62
644.066	31402.95
644.419	31154.59
644.771	31053.12
645.124	30717.31
645.477	30607.71
645.83	30402.29
646.182	30381.73
646.535	30399.58
646.888	30344.89
647.24	30198.23
647.593	30214.05
647.945	30240.49
648.298	30084.11
648.65	29994.85
649.002	29864.45
649.355	30087.27
649.707	30099.02
650.059	30129.08
650.411	30393.25
650.763	30489.98
651.115	30787.82
651.467	30687.71
651.819	30504.89
652.171	30633.25
652.523	30485.23
652.875	30382.41
653.227	30378.34
653.578	30587.6
653.93	30515.51
654.282	30338.79
654.633	30235.52
654.985	30303.31
655.337	30308.06
655.688	30325.01
656.039	30408.85
656.391	30087.27
656.742	30156.88
657.094	30092.7
657.445	30275.52
657.796	30061.74
658.147	29999.14
658.498	29985.13
658.849	30134.5
659.2	30089.31
659.551	30016.77
659.902	30048.86
660.253	30058.8
660.604	29967.5
660.955	29860.39
661.306	30023.77
661.656	29917.56
662.007	29979.48
662.358	29858.58
662.708	29884.57
663.059	29654.29
663.409	29638.47
663.76	29844.34
664.11	29848.41
664.461	29708.98
664.811	29853.83
665.161	29745.36
665.511	29715.53
665.862	29678.25
666.212	29780.16
666.562	29761.41
666.912	29680.73
667.262	29527.29
667.612	29611.13
667.962	29685.25
668.312	29555.76
668.662	29800.28
669.011	29610.68
669.361	29541.53
669.711	29539.72
670.06	29486.39
670.41	29560.73
670.76	29534.29
671.109	29533.16
671.459	29409.78
671.808	29416.78
672.157	29433.28
672.507	29285.94
672.856	29327.52
673.205	29425.37
673.554	29410.91
673.904	29434.18
674.253	29437.12
674.602	29324.58
674.951	28784.48
675.3	28670.14
675.649	29224.92
675.998	29062.67
676.346	29146.06
676.695	29190.12
677.044	28944.48
677.393	29158.71
677.741	29063.12
678.09	28985.61
678.438	28896.8
678.787	28950.35
679.135	28981.77
679.484	28819.51
679.832	28943.35
680.181	28721.43
680.529	28826.52
680.877	28782.22
681.225	28681.44
681.573	28815.89
681.922	28567.31
682.27	28458.84
682.618	28627.65
682.966	28407.32
683.314	28406.64
683.661	28365.06
684.009	28094.11
684.357	28295.68
684.705	28141.34
685.053	28130.72
685.4	28140.66
685.748	28048.46
686.095	27992.64
686.443	27822.7
686.79	27789.71
687.138	27930.04
687.485	27885.98
687.832	27814.79
688.18	27743.15
688.527	27613.44
688.874	27598.07
689.221	27465.2
689.568	27480.56
689.915	27352.66
690.262	27272.21
690.609	27296.39
690.956	27001.93
691.303	27228.59
691.65	26958.77
691.997	27073.34
692.344	26904.53
692.69	26919
693.037	26852.1
693.383	26561.26
693.73	26824.31
694.077	26606.46
694.423	26577.08
694.769	26420.7
695.116	26390.65
695.462	26388.61
695.808	26244.44
696.155	26341.38
696.501	26125.57
696.847	26184.55
697.193	25914.73
697.539	25981.17
697.885	25897.55
698.231	25761.74
698.577	25775.52
698.923	25706.6
699.269	25583.89
699.614	25563.1
699.96	25454.63
700.306	25489.88
700.651	25270
700.997	25297.12
701.342	25208.98
701.688	25134.41
702.033	25078.59
702.379	24971.93
702.724	25105.94
703.069	25039.72
703.415	24863.46
703.76	24840.41
704.105	24773.06
704.45	24733.52
704.795	24553.41
705.14	24520.19
705.485	24510.02
705.83	24385.95
706.175	24359.51
706.52	24147.32
706.865	24189.8
707.209	24091.5
707.554	24086.3
707.899	24110.03
708.243	23940.32
708.588	23919.98
708.932	23678.63
709.277	23805.41
709.621	23770.38
709.966	23537.16
710.31	23672.08
710.654	23362.48
710.998	23488.13
711.342	23547.56
711.687	23392.76
712.031	23293.55
712.375	23247.68
712.719	23293.1
713.063	23219.88
713.407	23339.65
713.75	23085.65
714.094	23059.44
714.438	23035.26
714.782	23001.81
715.125	22891.08
715.469	22875.03
715.812	22774.25
716.156	22725.21
716.499	22769.27
716.843	22664.42
717.186	22646.57
717.53	22691.76
717.873	22620.8
718.216	22491.32
718.559	22465.55
718.902	22263.98
719.246	22294.94
719.589	22258.1
719.932	22108.95
720.275	22238.21
720.617	22149.4
720.96	22082.29
721.303	22108.27
721.646	22187.82
721.989	21891.56
722.331	22078.22
722.674	21880.71
723.016	21993.7
723.359	21860.37
723.701	21893.14
724.044	21688.85
724.386	21722.75
724.729	21833.48
725.071	21601.4
725.413	21730.21
725.755	21678.68
726.097	21602.75
726.439	21449.99
726.782	21384.9
727.124	21566.37
727.465	21386.94
727.807	21258.35
728.149	21308.52
728.491	21343.55
728.833	21325.24
729.175	21126.61
729.516	21159.15
729.858	21136.32
730.199	21112.37
730.541	21101.75
730.882	21113.5
731.224	21131.8
731.565	20920.74
731.906	20979.04
732.248	20971.13
732.589	20880.96
732.93	20880.51
733.271	20752.6
733.612	20760.06
733.953	20745.15
734.294	20663.79
734.635	20643.23
734.976	20768.42
735.317	20558.03
735.658	20526.17
735.999	20533.17
736.339	20469.9
736.68	20519.39
737.021	20502.44
737.361	20403.01
737.702	20447.53
738.042	20436
738.383	20359.39
738.723	20363.24
739.063	20293.86
739.404	20306.97
739.744	20151.49
740.084	20023.81
740.424	20207.76
740.764	20128.44
741.104	20223.35
741.444	20041.66
741.784	19971.61
742.124	19978.84
742.464	19945.85
742.804	19871.95
743.143	19905.85
743.483	19869.46
743.823	19783.36
744.162	19814.1
744.502	19834.44
744.841	19688.9
745.181	19784.27
745.52	19766.19
745.86	19634.89
746.199	19645.74
746.538	19577.95
746.877	19605.74
747.216	19654.78
747.556	19572.97
747.895	19443.71
748.234	19432.64
748.573	19359.19
748.911	19250.27
749.25	19358.06
749.589	19196.26
749.928	19354.45
750.267	19248.01
750.605	19173.44
750.944	19189.48
751.283	19110.84
751.621	19122.59
751.96	18981.8
752.298	19000.56
752.636	18956.72
752.975	18814.8
753.313	18801.02
753.651	18871.52
753.989	18744.07
754.327	18704.3
754.666	18593.79
755.004	18584.75
755.342	18729.61
755.679	18515.37
756.017	18456.85
756.355	18527.8
756.693	18424.76
757.031	18443.51
757.368	18358.99
757.706	18323.29
758.044	18271.77
758.381	18221.37
758.719	18094.14
759.056	18250.07
759.394	18029.51
759.731	17976.86
760.068	17969.63
760.405	17898.89
760.743	17820.7
761.08	17827.48
761.417	17766.47
761.754	17702.51
762.091	17672.01
762.428	17702.29
762.765	17539.81
763.102	17552.24
763.438	17551.11
763.775	17375.07
764.112	17361.96
764.449	17321.28
764.785	17231.79
765.122	17111.12
765.458	17087.84
765.795	17103.43
766.131	17072.93
766.467	17070.67
766.804	16930.33
767.14	16822.76
767.476	16792.48
767.812	16778.7
768.148	16694.41
768.485	16617.12
768.821	16607.4
769.157	16533.05
769.492	16504.35
769.828	16495.77
770.164	16309.11
770.5	16287.86
770.836	16315.66
771.171	16170.58
771.507	16096.68
771.842	16031.82
772.178	16027.53
772.513	15990.47
772.849	15849.23
773.184	15850.81
773.519	15844.26
773.855	15776.24
774.19	15692.62
774.525	15536.02
774.86	15552.74
775.195	15559.52
775.53	15429.58
775.865	15392.52
776.2	15290.83
776.535	15216.25
776.87	15304.61
777.205	15117.72
777.539	15097.61
777.874	15054
778.209	14993.21
778.543	14853.55
778.878	14822.14
779.212	14804.06
779.547	14744.63
779.881	14843.38
780.215	14732.65
780.55	14696.94
780.884	14617.17
781.218	14592.77
781.552	14546.44
781.886	14422.15
782.22	14404.75
782.554	14274.13
782.888	14209.05
783.222	14109.16
783.556	14119.56
783.889	14126.56
784.223	14016.06
784.557	13960.69
784.89	14055.38
785.224	13857.42
785.557	13807.25
785.891	13824.65
786.224	13698.1
786.558	13694.71
786.891	13597.76
787.224	13531.33
787.557	13556.18
787.891	13510.76
788.224	13505.34
788.557	13403.64
788.89	13459.91
789.223	13420.37
789.556	13339.24
789.888	13277.09
790.221	13210.2
790.554	13100.15
790.887	13129.08
791.219	13056.54
791.552	13074.39
791.884	12913.71
792.217	12887.5
792.549	12849.31
792.882	12794.4
793.214	12679.6
793.546	12695.87
793.879	12652.7
794.211	12642.31
794.543	12598.92
794.875	12537.23
795.207	12545.36
795.539	12568.86
795.871	12573.38
796.203	12372.26
796.535	12278.93
796.867	12298.59
797.198	12294.97
797.53	12336.33
797.862	12200.74
798.193	12186.05
798.525	12089.1
798.856	12182.21
799.188	12062.21
799.519	11912.38
799.85	11923.23
800.182	11996.9
800.513	11936.79
800.844	11810.01
801.175	11899.05
801.506	11833.06
801.837	11739.96
802.168	11783.35
802.499	11683.01
802.83	11620.19
803.161	11594.65
803.491	11639.4
803.822	11579.51
804.153	11533.64
804.483	11487.54
804.814	11415.22
805.145	11411.38
805.475	11375.45
805.805	11337.48
806.136	11322.57
806.466	11279.18
806.796	11286.86
807.126	11171.61
807.457	11205.74
807.787	11145.4
808.117	11095
808.447	11041.22
808.777	11108.56
809.107	11012.52
809.436	11042.8
809.766	10920.77
810.096	10925.29
810.426	10889.81
810.755	10880.32
811.085	10808.23
811.414	10766.65
811.744	10708.35
812.073	10735.69
812.403	10779.98
812.732	10671.29
813.061	10679.87
813.39	10602.81
813.719	10585.87
814.049	10561.46
814.378	10554.68
814.707	10511.07
815.036	10499.09
815.365	10476.26
815.693	10363.05
816.022	10299.09
816.351	10435.14
816.68	10374.57
817.008	10300.9
817.337	10249.6
817.665	10301.35
817.994	10240.79
818.322	10181.81
818.651	10222.26
818.979	10145.43
819.307	10229.04
819.636	10200.11
819.964	10066.11
820.292	10183.84
820.62	10109.49
820.948	10080.57
821.276	10057.97
821.604	10062.72
821.932	10099.32
822.259	10038.99
822.587	10032.89
822.915	10021.59
823.243	10060.91
823.57	10057.07
823.898	10030.63
824.225	9954.92
824.553	9996.28
824.88	9998.76
825.207	9974.81
825.535	10077.86
825.862	10027.69
826.189	9954.47
826.516	10083.05
826.843	10085.09
827.17	10017.97
827.497	10042.6
827.824	10031.08
828.151	10058.87
828.478	10000.34
828.805	9978.65
829.131	9991.76
829.458	9985.2
829.785	9922.83
830.111	9968.48
830.438	10019.78
830.764	9945.2
831.09	9944.07
831.417	9892.32
831.743	9918.99
832.069	9954.24
832.395	9902.95
832.722	9980.46
833.048	9906.11
833.374	9929.16
833.7	9858.88
834.026	9871.76
834.351	9866.11
834.677	9823.63
835.003	9919.44
835.329	9890.52
835.654	9856.62
835.98	9793.57
836.306	9851.2
836.631	9756.73
836.956	9816.85
837.282	9827.24
837.607	9806.9
837.932	9697.08
838.258	9791.76
838.583	9721.26
838.908	9671.09
839.233	9668.6
839.558	9708.83
839.883	9636.29
840.208	9527.14
840.533	9644.42
840.858	9616.4
841.182	9598.32
841.507	9602.61
841.832	9561.26
842.156	9514.03
842.481	9568.04
842.805	9563.97
843.13	9447.14
843.454	9362.4
843.778	9444.2
844.103	9383.41
844.427	9427.93
844.751	9344.77
845.075	9297.76
845.399	9238.33
845.723	9290.31
846.047	9205.79
846.371	9148.39
846.695	9182.74
847.019	9036.53
847.343	9121.05
847.666	9067.94
847.99	8972.8
848.313	8961.28
848.637	8854.61
848.96	8858
849.284	8918.34
849.607	8776.42
849.931	8810.55
850.254	8779.36
850.577	8714.73
850.9	8634.28
851.223	8649.65
851.546	8550.21
851.869	8477.45
852.192	8595.18
852.515	8504.34
852.838	8467.28
853.161	8465.02
853.483	8434.51
853.806	8401.97
854.129	8376.43
854.451	8389.09
854.774	8254.63
855.096	8277.68
855.419	8277.45
855.741	8269.99
856.063	8213.95
856.385	8167.4
856.708	8140.73
857.03	8156.55
857.352	8119.26
857.674	8066.38
857.996	8055.31
858.318	7987.52
858.64	8048.08
858.961	7989.32
859.283	7955.2
859.605	7944.35
859.926	7938.03
860.248	7869.55
860.57	7828.2
860.891	7860.29
861.212	7837.46
861.534	7792.49
861.855	7799.5
862.176	7834.53
862.498	7741.19
862.819	7780.06
863.14	7771.93
863.461	7755.43
863.782	7757.01
864.103	7703.68
864.424	7658.71
864.745	7700.29
865.065	7665.26
865.386	7561.54
865.707	7620.29
866.027	7650.35
866.348	7607.64
866.668	7637.92
866.989	7609.9
867.309	7562.89
867.63	7612.84
867.95	7537.81
868.27	7504.82
868.59	7514.76
868.91	7476.57
869.23	7432.73
869.55	7461.65
869.87	7434.76
870.19	7437.7
870.51	7382.56
870.83	7418.49
871.15	7399.96
871.469	7383.24
871.789	7396.57
872.109	7376.01
872.428	7358.83
872.748	7336.23
873.067	7323.13
873.386	7340.75
873.706	7319.51
874.025	7275.9
874.344	7316.8
874.663	7268.21
874.982	7294.88
875.301	7184.15
875.62	7186.18
875.939	7185.5
876.258	7162.45
876.577	7202.68
876.896	7153.41
877.214	7141.89
877.533	7111.15
877.852	7178.95
878.17	7133.08
878.489	7132.62
878.807	7107.31
879.125	7063.7
879.444	7075.45
879.762	7064.38
880.08	7055.56
880.398	7018.5
880.716	7027.54
881.034	7020.99
881.352	7013.98
881.67	6972.18
881.988	6965.17
882.306	6978.95
882.624	6927.43
882.941	6910.03
883.259	6898.28
883.577	6908.45
883.894	6912.29
884.212	6826.64
884.529	6827.55
884.846	6829.35
885.164	6835.68
885.481	6775.12
885.798	6813.08
886.115	6740.32
886.432	6733.99
886.75	6787.1
887.067	6748.68
887.383	6715.23
887.7	6686.99
888.017	6706.42
888.334	6706.19
888.651	6609.25
888.967	6620.55
889.284	6579.87
889.6	6565.63
889.917	6594.11
890.233	6565.86
890.55	6556.59
890.866	6501.91
891.182	6460.55
891.498	6458.52
891.815	6446.09
892.131	6466.2
892.447	6399.76
892.763	6386.2
893.079	6369.48
893.395	6347.79
893.71	6331.29
894.026	6325.86
894.342	6349.37
894.657	6230.95
894.973	6233.21
895.289	6261.46
895.604	6270.05
895.92	6178.3
896.235	6135.59
896.55	6151.86
896.865	6154.12
897.181	6138.98
897.496	6162.03
897.811	6060.79
898.126	5997.96
898.441	6030.51
898.756	6059.21
899.071	5963.39
899.386	5969.49
899.7	5948.02
900.015	5946.89
900.33	5875.93
900.644	5844.97
900.959	5895.59
901.273	5872.54
901.588	5853.33
901.902	5787.35
902.216	5797.52
902.531	5821.02
902.845	5772.21
903.159	5734.69
903.473	5750.96
903.787	5725.2
904.101	5681.81
904.415	5673.68
904.729	5672.32
905.042	5593
905.356	5602.95
905.67	5598.65
905.984	5569.27
906.297	5477.3
906.611	5511.2
906.924	5483.4
907.237	5488.15
907.551	5442.95
907.864	5436.85
908.177	5426.91
908.491	5411.54
908.804	5407.92
909.117	5386.45
909.43	5308.04
909.743	5270.98
910.056	5310.98
910.368	5281.6
910.681	5248.6
910.994	5210.19
911.307	5169.06
911.619	5132.45
911.932	5157.53
912.244	5140.81
912.557	5102.17
912.869	5135.39
913.181	5096.74
913.494	5106.46
913.806	5057.88
914.118	5017.65
914.43	4938.56
914.742	4991.89
915.054	4972.23
915.366	4972.23
915.678	4898.78
915.99	4906.24
916.302	4887.94
916.613	4829.18
916.925	4861.27
917.236	4856.07
917.548	4820.37
917.859	4815.62
918.171	4759.13
918.482	4748.73
918.794	4713.25
919.105	4762.97
919.416	4698.56
919.727	4703.53
920.038	4671.22
920.349	4619.24
920.66	4613.82
920.971	4619.47
921.282	4603.88
921.593	4587.38
921.903	4546.02
922.214	4526.14
922.525	4516.87
922.835	4510.55
923.146	4515.74
923.456	4446.82
923.767	4452.02
924.077	4405.92
924.387	4364.33
924.697	4404.33
925.008	4367.05
925.318	4332.24
925.628	4383.77
925.938	4313.71
926.248	4264.68
926.558	4275.75
926.867	4257.44
927.177	4276.2
927.487	4209.31
927.796	4170.89
928.106	4184.68
928.416	4180.84
928.725	4144.68
929.034	4129.09
929.344	4120.95
929.653	4129.31
929.962	4094.29
930.271	4073.04
930.581	4041.63
930.89	4049.99
931.199	4028.52
931.508	3975.19
931.817	4014.74
932.125	3997.56
932.434	3967.06
932.743	3925.25
933.051	3908.3
933.36	3899.94
933.669	3878.92
933.977	3868.98
934.286	3849.32
934.594	3826.95
934.902	3812.03
935.21	3811.81
935.519	3818.13
935.827	3759.83
936.135	3773.62
936.443	3749.44
936.751	3732.71
937.059	3716.44
937.367	3692.49
937.674	3686.61
937.982	3680.96
938.29	3694.75
938.597	3683.45
938.905	3642.55
939.213	3633.73
939.52	3599.83
939.827	3600.51
940.135	3637.12
940.442	3561.19
940.749	3567.75
941.056	3536.11
941.363	3489.1
941.67	3513.06
941.977	3485.04
942.284	3464.92
942.591	3448.65
942.898	3446.84
943.205	3445.26
943.511	3431.7
943.818	3384.47
944.125	3386.06
944.431	3358.94
944.738	3341.08
945.044	3346.73
945.35	3317.36
945.657	3292.95
945.963	3345.83
946.269	3325.94
946.575	3303.8
946.881	3276
947.187	3261.09
947.493	3229.45
947.799	3226.74
948.105	3217.25
948.41	3188.09
948.716	3198.04
949.022	3145.38
949.327	3134.99
949.633	3134.08
949.938	3109.23
950.244	3117.36
950.549	3119.4
950.854	3080.98
951.16	3025.39
951.465	3071.04
951.77	3057.93
952.075	3001.43
952.38	3022
952.685	3021.32
952.99	2987.42
953.294	2982.9
953.599	3003.01
953.904	2941.09
954.209	2940.64
954.513	2942.68
954.818	2918.72
955.122	2885.05
955.426	2893.64
955.731	2880.31
956.035	2879.63
956.339	2876.01
956.643	2856.35
956.948	2847.76
957.252	2852.06
957.556	2826.75
957.86	2785.62
958.163	2832.85
958.467	2789.01
958.771	2785.39
959.075	2773.87
959.378	2758.73
959.682	2743.81
959.985	2726.86
960.289	2741.33
960.592	2703.81
960.896	2717.37
961.199	2699.75
961.502	2676.7
961.805	2657.03
962.108	2626.53
962.411	2616.81
962.714	2611.84
963.017	2666.07
963.32	2544.5
963.623	2620.2
963.926	2583.82
964.228	2567.77
964.531	2585.85
964.833	2575.91
965.136	2555.12
965.438	2550.14
965.741	2479.19
966.043	2498.85
966.345	2520.54
966.648	2516.93
966.95	2483.71
967.252	2467.89
967.554	2461.79
967.856	2412.97
968.158	2434.22
968.46	2392.41
968.761	2441.45
969.063	2408.23
969.365	2399.87
969.666	2401
969.968	2355.57
970.269	2356.25
970.571	2365.06
970.872	2357.16
971.174	2377.72
971.475	2334.11
971.776	2315.8
972.077	2326.65
972.378	2308.57
972.679	2336.82
972.98	2303.82
973.281	2250.49
973.582	2237.84
973.883	2267.67
974.183	2210.49
974.484	2208.91
974.785	2240.1
975.085	2205.3
975.386	2230.83
975.686	2207.55
975.986	2222.02
976.287	2201.68
976.587	2174.11
976.887	2146.09
977.187	2145.18
977.487	2136.14
977.787	2149.7
978.087	2152.42
978.387	2099.54
978.687	2098.41
978.987	2110.38
979.286	2071.51
979.586	2106.77
979.885	2082.81
980.185	2071.74
980.484	2097.05
980.784	2056.15
981.083	2065.86
981.382	2034.68
981.682	2058.41
981.981	2022.7
982.28	2036.94
982.579	1997.62
982.878	1968.47
983.177	1990.84
983.475	1991.74
983.774	1998.97
984.073	1972.31
984.372	1973.21
984.67	1935.25
984.969	1946.54
985.267	1941.8
985.566	1895.02
985.864	1945.64
986.162	1907.9
986.461	1867.9
986.759	1885.3
987.057	1856.38
987.355	1885.08
987.653	1892.31
987.951	1840.78
988.249	1829.94
988.547	1861.8
988.844	1805.98
989.142	1824.74
989.44	1840.33
989.737	1809.15
990.035	1794.23
990.332	1780.45
990.63	1779.77
990.927	1799.2
991.224	1781.58
991.521	1757.17
991.819	1734.8
992.116	1750.39
992.413	1763.95
992.71	1740.9
993.006	1743.16
993.303	1706.78
993.6	1721.01
993.897	1720.56
994.193	1723.05
994.49	1699.09
994.787	1671.75
995.083	1679.21
995.379	1640.11
995.676	1684.63
995.972	1644.41
996.268	1666.78
996.565	1604.63
996.861	1627.23
997.157	1619.32
997.453	1603.05
997.749	1597.4
998.044	1598.08
998.34	1587.01
998.636	1590.4
998.932	1568.25
999.227	1570.28
999.523	1565.99
999.818	1551.3
1000.114	1547.01
1000.409	1528.02
1000.704	1535.26
1001	1535.03
1001.295	1529.83
1001.59	1518.08
1001.885	1515.14
1002.18	1511.08
1002.475	1493.22
1002.77	1471.98
1003.065	1488.7
1003.359	1475.14
1003.654	1455.26
1003.949	1460.91
1004.243	1439.89
1004.538	1427.69
1004.832	1427.91
1005.127	1442.83
1005.421	1393.79
1005.715	1395.15
1006.009	1409.16
1006.304	1398.54
1006.598	1375.94
1006.892	1365.77
1007.186	1382.27
1007.48	1384.07
1007.773	1347.69
1008.067	1352.66
1008.361	1351.31
1008.655	1335.26
1008.948	1333.68
1009.242	1375.94
1009.535	1312.66
1009.829	1283.51
1010.122	1302.95
1010.415	1300.46
1010.708	1282.61
1011.001	1292.1
1011.295	1267.24
1011.588	1266.11
1011.881	1260.91
1012.173	1286
1012.466	1259.78
1012.759	1274.7
1013.052	1214.59
1013.344	1224.76
1013.637	1226.56
1013.93	1213.46
1014.222	1220.69
1014.514	1226.79
1014.807	1214.59
1015.099	1191.08
1015.391	1189.95
1015.683	1174.81
1015.976	1171.42
1016.268	1171.42
1016.56	1154.93
1016.851	1167.81
1017.143	1130.75
1017.435	1134.81
1017.727	1167.13
1018.018	1116.06
1018.31	1120.8
1018.602	1128.26
1018.893	1100.01
1019.185	1080.35
1019.476	1091.43
1019.767	1085.32
1020.058	1085.32
1020.35	1064.53
1020.641	1074.7
1020.932	1059.56
1021.223	1072.67
1021.514	1037.87
1021.804	1039.22
1022.095	1047.59
1022.386	1033.8
1022.677	1000.13
1022.967	1018.21
1023.258	1005.55
1023.548	1006
1023.839	981.82
1024.129	1002.61
1024.419	979.56
1024.709	986.12
1025	991.99
1025.29	989.51
1025.58	984.99
1025.87	943.41
1026.16	958.77
1026.449	969.85
1026.739	932.56
1027.029	937.08
1027.319	935.5
1027.608	940.92
1027.898	928.94
1028.187	908.83
1028.477	932.56
1028.766	931.88
1029.055	894.14
1029.344	887.14
1029.634	892.79
1029.923	874.48
1030.212	888.72
1030.501	886.01
1030.79	890.98
1031.078	872.45
1031.367	835.84
1031.656	863.64
1031.945	853.47
1032.233	838.55
1032.522	855.05
1032.81	839
1033.099	842.85
1033.387	831.55
1033.675	829.29
1033.963	816.41
1034.251	841.04
1034.54	830.19
1034.828	787.48
1035.116	800.13
1035.403	796.07
1035.691	792.9
1035.979	798.78
1036.267	798.33
1036.554	773.02
1036.842	781.38
1037.129	782.96
1037.417	780.93
1037.704	757.42
1037.992	761.27
1038.279	746.58
1038.566	746.58
1038.853	746.58
1039.14	746.58
