Data from white_wall_FLMS001491_051.txt Node
Date: Tue Feb 07 11:04:57 GMT 2017
User: dcchb
Spectrometer: FLMS00149
Trigger mode: 0
Integration Time (sec): 2.000000E-2
Scans to average: 10
Electric dark correction enabled: true
Nonlinearity correction enabled: false
Boxcar width: 0
XAxis mode: Wavelengths
Number of Pixels in Spectrum: 2048
>>>>>Begin Spectral Data<<<<<
341.393	-14.6
341.776	-14.6
342.16	-14.6
342.543	-56.86
342.927	-55.28
343.31	-56.64
343.693	-65.68
344.077	-48.73
344.46	-55.73
344.843	-50.99
345.226	-46.24
345.61	-41.95
345.993	-18.45
346.376	11.38
346.759	-8.28
347.142	35.11
347.525	31.72
347.908	52.06
348.291	67.88
348.674	83.7
349.057	110.82
349.44	128.44
349.823	130.25
350.206	144.04
350.588	205.28
350.971	192.17
351.354	212.73
351.737	231.72
352.119	254.54
352.502	248.67
352.884	269.68
353.267	283.92
353.65	297.93
354.032	312.39
354.414	306.74
354.797	320.98
355.179	335.9
355.562	304.71
355.944	326.18
356.326	312.39
356.709	339.96
357.091	326.18
357.473	317.59
357.855	341.54
358.238	355.1
358.62	333.64
359.002	331.6
359.384	345.61
359.766	351.94
360.148	338.61
360.53	344.26
360.912	342.22
361.294	323.92
361.676	341.09
362.057	337.48
362.439	311.49
362.821	339.06
363.203	313.97
363.584	319.4
363.966	338.15
364.348	330.02
364.729	334.31
365.111	329.34
365.493	318.04
365.874	314.65
366.256	322.34
366.637	329.34
367.019	305.61
367.4	304.94
367.781	329.34
368.163	313.75
368.544	311.94
368.925	293.18
369.306	329.57
369.688	324.6
370.069	336.12
370.45	327.31
370.831	307.42
371.212	313.75
371.593	310.81
371.974	336.35
372.355	333.86
372.736	323.69
373.117	331.15
373.498	320.53
373.879	318.27
374.26	311.94
374.641	322.79
375.021	303.13
375.402	325.73
375.783	320.53
376.163	343.8
376.544	339.28
376.925	334.54
377.305	291.83
377.686	332.96
378.066	335.22
378.447	342.45
378.827	339.74
379.208	352.84
379.588	362.11
379.968	330.92
380.349	340.19
380.729	337.25
381.109	339.06
381.489	347.19
381.87	320.53
382.25	357.82
382.63	358.95
383.01	335.67
383.39	344.93
383.77	363.01
384.15	349.23
384.53	344.71
384.91	366.85
385.29	358.72
385.67	363.69
386.049	353.3
386.429	351.26
386.809	357.82
387.189	384.03
387.568	393.52
387.948	386.52
388.328	379.74
388.707	375.44
389.087	389.45
389.466	391.71
389.846	395.1
390.225	389.91
390.605	396.91
390.984	393.97
391.363	408.21
391.743	418.15
392.122	410.24
392.501	404.82
392.881	399.17
393.26	435.78
393.639	417.47
394.018	422.9
394.397	437.36
394.776	437.59
395.155	440.07
395.534	430.58
395.913	474.2
396.292	476.46
396.671	471.03
397.05	491.6
397.429	484.14
397.808	475.1
398.186	479.62
398.565	503.8
398.944	494.54
399.323	501.31
399.701	508.55
400.08	531.37
400.458	537.25
400.837	547.87
401.215	519.17
401.594	553.74
401.972	552.16
402.351	564.59
402.729	556
403.107	574.53
403.486	587.41
403.864	595.55
404.242	634.42
404.62	606.17
404.999	614.31
405.377	612.95
405.755	635.32
406.133	650.24
406.511	662.67
406.889	673.51
407.267	687.75
407.645	701.76
408.023	679.39
408.401	708.77
408.779	730.46
409.156	746.96
409.534	743.79
409.912	756.22
410.29	757.58
410.667	786.96
411.045	791.7
411.422	798.71
411.8	825.37
412.178	860.63
412.555	835.32
412.933	874.19
413.31	874.64
413.687	847.07
414.065	889.55
414.442	893.17
414.819	892.49
415.197	907.18
415.574	915.54
415.951	922.55
416.328	944.01
416.705	951.47
417.082	965.94
417.46	975.43
417.837	963.22
418.214	998.7
418.591	1027.85
418.967	1011.13
419.344	1023.79
419.721	1033.05
420.098	1012.71
420.475	1068.53
420.852	1065.14
421.228	1071.02
421.605	1065.14
421.982	1109.89
422.358	1101.75
422.735	1126.61
423.111	1124.12
423.488	1113.05
423.864	1162.54
424.241	1158.02
424.617	1183.78
424.994	1187.4
425.37	1211.13
425.746	1197.34
426.123	1241.86
426.499	1258.81
426.875	1278.47
427.251	1270.33
427.627	1288.19
428.003	1309.43
428.379	1319.82
428.756	1293.84
429.132	1329.99
429.507	1362.08
429.883	1346.04
430.259	1393.72
430.635	1402.31
431.011	1406.38
431.387	1463.1
431.763	1482.76
432.138	1464.9
432.514	1517.56
432.89	1484.79
433.265	1545.58
433.641	1563.43
434.016	1593.49
434.392	1645.24
434.767	1640.27
435.143	1617.67
435.518	1671.68
435.894	1695.63
436.269	1698.57
436.644	1713.94
437.02	1732.92
437.395	1741.96
437.77	1795.74
438.145	1791.68
438.52	1788.29
438.895	1814.95
439.271	1835.97
439.646	1900.6
440.021	1860.15
440.395	1885.23
440.77	1875.29
441.145	1878.91
441.52	1959.36
441.895	1922.75
442.27	1981.5
442.645	1949.86
443.019	1983.99
443.394	2004.55
443.769	2014.5
444.143	2009.07
444.518	2085.23
444.892	2058.34
445.267	2047.04
445.641	2091.1
446.016	2111.89
446.39	2142.63
446.764	2137.88
447.139	2158.67
447.513	2175.17
447.887	2180.82
448.262	2192.8
448.636	2181.95
449.01	2242.51
449.384	2241.83
449.758	2288.16
450.132	2281.38
450.506	2300.82
450.88	2317.09
451.254	2319.12
451.628	2352.79
452.002	2407.48
452.376	2394.6
452.75	2440.25
453.123	2467.14
453.497	2490.19
453.871	2517.31
454.244	2548.72
454.618	2603.86
454.992	2602.5
455.365	2592.56
455.739	2665.55
456.112	2720.24
456.486	2741.26
456.859	2771.76
457.232	2813.57
457.606	2839.78
457.979	2842.72
458.352	2909.16
458.725	2969.05
459.099	2965.2
459.472	3049.95
459.845	3085.88
460.218	3120.68
460.591	3116.16
460.964	3149.38
461.337	3232.32
461.71	3241.13
462.083	3280.45
462.456	3294.46
462.829	3347.34
463.201	3392.99
463.574	3414.01
463.947	3463.04
464.32	3531.74
464.692	3571.29
465.065	3522.93
465.438	3607.22
465.81	3700.1
466.183	3668.46
466.555	3795.69
466.928	3823.04
467.3	3766.99
467.672	3894.67
468.045	3993.2
468.417	4036.81
468.789	4020.32
469.161	4080.43
469.534	4176.02
469.906	4247.66
470.278	4282.68
470.65	4336.24
471.022	4442.23
471.394	4484.26
471.766	4507.08
472.138	4597.7
472.51	4672.28
472.882	4753.63
473.253	4808.09
473.625	4859.84
473.997	4954.3
474.369	4998.15
474.74	5094.41
475.112	5204.24
475.484	5234.98
475.855	5368.76
476.227	5409.66
476.598	5574.85
476.97	5601.97
477.341	5737.56
477.713	5783.21
478.084	5852.81
478.455	5964.67
478.827	6030.21
479.198	6256.64
479.569	6254.61
479.94	6482.85
480.311	6469.29
480.682	6646.92
481.053	6749.74
481.424	6858.66
481.795	6920.35
482.166	7015.72
482.537	7156.96
482.908	7374.13
483.279	7436.95
483.65	7530.06
484.021	7672.43
484.391	7819.99
484.762	7869.48
485.133	7995.58
485.503	8034.22
485.874	8280.77
486.244	8308.79
486.615	8487.09
486.985	8605.06
487.356	8767.31
487.726	8798.05
488.097	8980.64
488.467	8999.17
488.837	9292.72
489.207	9293.85
489.578	9475.54
489.948	9522.77
490.318	9632.83
490.688	9722.09
491.058	9914.17
491.428	10072.81
491.798	10179.25
492.168	10308.29
492.538	10431.9
492.908	10459.7
493.278	10639.58
493.648	10746.24
494.017	10784.21
494.387	10907.59
494.757	11003.41
495.126	11100.36
495.496	11211.54
495.866	11275.95
496.235	11468.03
496.605	11540.8
496.974	11599.78
497.344	11714.35
497.713	11854.46
498.082	11902.37
498.452	12030.28
498.821	12087.45
499.19	12153.66
499.559	12276.82
499.928	12389.82
500.298	12483.15
500.667	12590.94
501.036	12590.04
501.405	12803.14
501.774	12767.66
502.143	12884.49
502.512	12955
502.88	13139.4
503.249	13226.4
503.618	13289.23
503.987	13415.55
504.356	13448.32
504.724	13571.71
505.093	13596.11
505.462	13690.35
505.83	13853.05
506.199	13914.75
506.567	14121.07
506.936	14180.5
507.304	14250.33
507.672	14357.22
508.041	14507.95
508.409	14620.94
508.777	14653.48
509.145	14814.84
509.514	14874.5
509.882	14978
510.25	15060.93
510.618	15090.54
510.986	15296.41
511.354	15411.66
511.722	15556.74
512.09	15614.36
512.458	15724.19
512.826	15796.51
513.193	15951.3
513.561	15939.1
513.929	16158.76
514.297	16257.06
514.664	16379.09
515.032	16432.65
515.4	16709.25
515.767	16744.5
516.135	16913.09
516.502	16789.02
516.869	17126.87
517.237	17180.88
517.604	17234.66
517.972	17359.85
518.339	17594.65
518.706	17610.24
519.073	17740.18
519.44	17832.61
519.808	18002.78
520.175	18088.2
520.542	18200.28
520.909	18388.75
521.276	18427.62
521.643	18638.24
522.009	18612.93
522.376	18885.92
522.743	18998
523.11	19176.76
523.477	19374.49
523.843	19496.97
524.21	19639.57
524.577	19846.79
524.943	19951.42
525.31	19991.88
525.676	20218.99
526.043	20427.12
526.409	20472.77
526.776	20690.39
527.142	20725.42
527.508	20951.4
527.874	20968.12
528.241	21093.99
528.607	21310.26
528.973	21428
529.339	21535.11
529.705	21719.97
530.071	21796.8
530.437	21985.27
530.803	22043.12
531.169	22190.69
531.535	22232.04
531.901	22390.68
532.267	22416.44
532.632	22654.18
532.998	22747.06
533.364	22876.77
533.73	22958.13
534.095	23124.45
534.461	23184.79
534.826	23300.04
535.192	23477.21
535.557	23502.07
535.923	23585.45
536.288	23676.75
536.653	23714.94
537.019	23787.48
537.384	23953.58
537.749	24032.9
538.114	24095.5
538.479	24106.8
538.845	24335.94
539.21	24303.17
539.575	24449.39
539.94	24515.82
540.305	24659.32
540.67	24757.17
541.034	24845.99
541.399	24901.12
541.764	24958.98
542.129	25132.76
542.494	25085.98
542.858	25270.83
543.223	25264.96
543.587	25516.93
543.952	25486.87
544.316	25603.03
544.681	25675.57
545.045	25777.26
545.41	25960.98
545.774	26063.58
546.138	26079.4
546.503	26239.62
546.867	26283.24
547.231	26537.24
547.595	26490.91
547.959	26698.82
548.324	26743.56
548.688	26807.29
549.052	27019.94
549.416	27145.81
549.779	27080.5
550.143	27216.09
550.507	27399.36
550.871	27535.86
551.235	27549.19
551.599	27766.13
551.962	27905.57
552.326	28040.7
552.689	28105.33
553.053	28111.89
553.417	28108.5
553.78	28511.88
554.143	28556.17
554.507	28736.5
554.87	28745.77
555.234	29047.23
555.597	28848.37
555.96	29028.93
556.323	29280.22
556.686	29312.99
557.05	29462.36
557.413	29597.27
557.776	29684.28
558.139	29895.57
558.502	29963.36
558.865	29954.55
559.228	30199.29
559.59	30582.33
559.953	30490.81
560.316	30773.51
560.679	30848.54
561.041	30971.02
561.404	31179.15
561.767	31313.61
562.129	31296.21
562.492	31701.4
562.854	31592.47
563.217	31737.1
563.579	31708.18
563.941	32012.8
564.304	32255.06
564.666	32424.32
565.028	32389.52
565.39	32474.26
565.753	32696.17
566.115	32744.99
566.477	32922.38
566.839	33145.2
567.201	33412.31
567.563	33507.9
567.925	33699.09
568.287	33695.92
568.648	33769.37
569.01	33808.91
569.372	34189.02
569.734	34055.01
570.095	34289.8
570.457	34443.92
570.819	34546.75
571.18	34519.86
571.542	34702.22
571.903	34744.71
572.265	34929.11
572.626	35064.47
572.987	35064.47
573.349	35082.33
573.71	35227.63
574.071	35437.8
574.432	35384.01
574.794	35733.83
575.155	35774.51
575.516	35574.29
575.877	35823.78
576.238	35838.69
576.599	35838.24
576.96	35992.13
577.32	36010.66
577.681	36199.13
578.042	36242.52
578.403	36275.52
578.763	36228.06
579.124	36372.69
579.485	36382.86
579.845	36450.88
580.206	36469.18
580.566	36550.54
580.927	36550.99
581.287	36694.04
581.648	36480.26
582.008	36645.67
582.368	36517.54
582.728	36776.74
583.089	36683.64
583.449	36697.2
583.809	36857.19
584.169	36805.67
584.529	36828.27
584.889	37157.53
585.249	36864.65
585.609	36814.48
585.969	36943.07
586.329	36784.43
586.688	37043.4
587.048	36896.97
587.408	36899
587.768	36947.14
588.127	36746.69
588.487	36955.27
588.846	37110.07
589.206	36879.57
589.565	36872.79
589.925	37176.51
590.284	36980.36
590.643	37047.92
591.003	37115.72
591.362	37184.19
591.721	37052.9
592.08	37082.73
592.44	37221.48
592.799	37059.9
593.158	37253.34
593.517	37199.11
593.876	37196.85
594.235	37189.16
594.593	37097.41
594.952	37285.66
595.311	37145.32
595.67	37192.55
596.029	37522.71
596.387	37415.15
596.746	37388.48
597.104	37249.05
597.463	37270.07
597.822	37465.99
598.18	37241.37
598.538	37431.87
598.897	37578.76
599.255	37310.52
599.613	37925.64
599.972	37660.34
600.33	37709.38
600.688	37412.89
601.046	37684.52
601.404	37687.23
601.762	37477.29
602.12	37847
602.478	37757.51
602.836	37800.67
603.194	37624.18
603.552	37816.94
603.91	37739.66
604.268	37968.58
604.625	37719.32
604.983	37948.47
605.341	38002.02
605.698	38067.33
606.056	38007
606.413	38105.07
606.771	38180.32
607.128	38202.24
607.485	38030.72
607.843	38170.38
608.2	38243.15
608.557	38319.08
608.914	38305.52
609.272	38395.23
609.629	38518.85
609.986	38581.67
610.343	38419.41
610.7	38693.3
611.057	38604.04
611.414	38629.13
611.771	38728.33
612.127	38760.42
612.484	38806.97
612.841	38855.33
613.198	38722.91
613.554	38764.49
613.911	39034.09
614.267	38962.45
614.624	38911.83
614.98	39135.1
615.337	39129.45
615.693	39101.66
616.05	39030.02
616.406	39334.87
616.762	39167.64
617.118	39131.71
617.475	39126.06
617.831	39233.18
618.187	39204.03
618.543	39246.28
618.899	39442.21
619.255	39373.74
619.611	39362.21
619.967	39425.71
620.323	39576.9
620.678	39423.91
621.034	39409.44
621.39	39351.14
621.746	39404.25
622.101	39751.13
622.457	39376.45
622.812	39614.41
623.168	39616.22
623.523	39752.03
623.879	39842.65
624.234	39547.52
624.589	39646.73
624.945	39608.31
625.3	39681.98
625.655	39621.87
626.01	39775.54
626.365	39717.68
626.72	39679.95
627.075	39664.13
627.43	39664.58
627.785	39568.31
628.14	39638.82
628.495	39754.52
628.85	39665.71
629.205	39552.49
629.559	39787.51
629.914	39614.64
630.269	39651.25
630.623	39481.76
630.978	39478.37
631.332	39774.18
631.687	39577.12
632.041	39428.88
632.396	39482.21
632.75	39300.75
633.104	39346.85
633.459	39262.1
633.813	39256.68
634.167	39161.77
634.521	39200.41
634.875	39337.81
635.229	39221.2
635.583	39066.85
635.937	39093.52
636.291	38941.66
636.645	39075.67
636.999	38908.21
637.352	38848.1
637.706	38740.99
638.06	38798.61
638.413	38804.94
638.767	38699.18
639.121	38840.87
639.474	38560.2
639.828	38541.44
640.181	38673.64
640.534	38637.71
640.888	38322.69
641.241	38217.16
641.594	38370.6
641.947	38458.73
642.301	38397.72
642.654	38467.32
643.007	38377.83
643.36	38193.43
643.713	38307.33
644.066	38295.57
644.419	38107.11
644.771	37773.33
645.124	37451.98
645.477	37536.27
645.83	37243.85
646.182	37158.88
646.535	36925.22
646.888	37041.37
647.24	36770.19
647.593	36962.5
647.945	36849.96
648.298	36781.04
648.65	36717.09
649.002	36523.64
649.355	36698.55
649.707	36732.9
650.059	36844.77
650.411	37107.13
650.763	37182.16
651.115	37523.39
651.467	37530.62
651.819	37471.42
652.171	37257.64
652.523	37348.71
652.875	37240.24
653.227	37192.1
653.578	37303.51
653.93	37113.69
654.282	37085.89
654.633	36990.98
654.985	37167.7
655.337	37193.23
655.688	37124.53
656.039	37128.83
656.391	36935.84
656.742	37043.86
657.094	36908.94
657.445	37153.23
657.796	36800.02
658.147	36915.05
658.498	36876.63
658.849	36885.89
659.2	36829.17
659.551	36818.78
659.902	36933.12
660.253	36847.93
660.604	36814.03
660.955	36551.67
661.306	36784.43
661.656	36587.82
662.007	36600.48
662.358	36687.48
662.708	36568.61
663.059	36619.69
663.409	36341.28
663.76	36666.01
664.11	36467.83
664.461	36593.47
664.811	36559.12
665.161	36567.03
665.511	36374.72
665.862	36331.78
666.212	36445.45
666.562	36426.47
666.912	36423.31
667.262	36430.09
667.612	36343.99
667.962	36408.62
668.312	36333.14
668.662	36466.24
669.011	36379.24
669.361	36231.9
669.711	36127.27
670.06	36093.6
670.41	36017.67
670.76	36155.97
671.109	36266.48
671.459	36179.02
671.808	35979.93
672.157	36248.4
672.507	35843.21
672.856	35996.43
673.205	36133.6
673.554	36082.07
673.904	35868.29
674.253	36112.58
674.602	35987.84
674.951	35438.02
675.3	35283.68
675.649	35753.72
675.998	35720.28
676.346	35837.33
676.695	35824.45
677.044	35577.68
677.393	35674.85
677.741	35662.65
678.09	35627.85
678.438	35407.97
678.787	35556.66
679.135	35525.25
679.484	35140.4
679.832	35494.07
680.181	35277.58
680.529	35364.13
680.877	35083.23
681.225	35167.52
681.573	35329.33
681.922	35042.78
682.27	34898.6
682.618	35106.73
682.966	34846.85
683.314	34895.21
683.661	34764.37
684.009	34556.69
684.357	34738.15
684.705	34499.52
685.053	34620.19
685.4	34516.92
685.748	34220.88
686.095	34278.05
686.443	34090.04
686.79	34115.12
687.138	34216.81
687.485	34220.65
687.832	34062.24
688.18	34186.98
688.527	33923.94
688.874	33727.11
689.221	33640.1
689.568	33756.49
689.915	33674.45
690.262	33597.39
690.609	33421.58
690.956	33200.12
691.303	33270.62
691.65	33137.97
691.997	33246.22
692.344	32969.39
692.69	32914.93
693.037	32976.39
693.383	32607.59
693.73	32755.16
694.077	32571.43
694.423	32580.25
694.769	32466.58
695.116	32345.67
695.462	32443.75
695.808	32257.99
696.155	32251.44
696.501	32028.62
696.847	31867.95
697.193	31650.33
697.539	31913.37
697.885	31728.97
698.231	31557.9
698.577	31635.41
698.923	31601.74
699.269	31452.37
699.614	31312.03
699.96	31287.85
700.306	31224.12
700.651	31029.1
700.997	30951.14
701.342	30934.41
701.688	30825.26
702.033	30833.62
702.379	30792.95
702.724	30621.65
703.069	30643.12
703.415	30284.03
703.76	30433.18
704.105	30346.41
704.45	30300.53
704.795	30210.14
705.14	29973.76
705.485	30079.29
705.83	29729.92
706.175	29942.57
706.52	29764.27
706.865	29751.62
707.209	29711.85
707.554	29449.25
707.899	29737.83
708.243	29350.5
708.588	29395.7
708.932	29177.4
709.277	29232.99
709.621	29201.35
709.966	28890.85
710.31	29077.74
710.654	28720.69
710.998	28982.15
711.342	28883.17
711.687	28730.18
712.031	28666
712.375	28626.68
712.719	28604.98
713.063	28553.01
713.407	28614.93
713.75	28494.48
714.094	28461.03
714.438	28256.74
714.782	28324.76
715.125	28182.62
715.469	28231.66
715.812	27955.96
716.156	27892.23
716.499	28002.74
716.843	28017.65
717.186	27857.66
717.53	27863.08
717.873	27902.18
718.216	27833.03
718.559	27689.07
718.902	27534.28
719.246	27559.81
719.589	27554.61
719.932	27338.12
720.275	27398.46
720.617	27360.95
720.96	27391.68
721.303	27339.93
721.646	27319.14
721.989	27167.28
722.331	27179.03
722.674	27190.56
723.016	27058.36
723.359	27082.54
723.701	27044.8
724.044	26820.62
724.386	26749.66
724.729	26990.56
725.071	26800.06
725.413	26783.11
725.755	26811.58
726.097	26568.65
726.439	26400.97
726.782	26564.36
727.124	26612.27
727.465	26460.63
727.807	26424.47
728.149	26396.23
728.491	26360.07
728.833	26355.55
729.175	26224.93
729.516	26231.26
729.858	26115.78
730.199	26219.96
730.541	25949.46
730.882	26121.88
731.224	26181.54
731.565	25902.91
731.906	25910.36
732.248	25985.62
732.589	25852.51
732.93	25722.57
733.271	25768.67
733.612	25779.07
733.953	25706.98
734.294	25584.72
734.635	25583.59
734.976	25612.74
735.317	25483.26
735.658	25489.36
735.999	25542.92
736.339	25390.6
736.68	25499.3
737.021	25368.68
737.361	25205.75
737.702	25389.02
738.042	25310.61
738.383	25275.35
738.723	25204.62
739.063	25076.26
739.404	25158.52
739.744	25079.65
740.084	24962.59
740.424	25101.8
740.764	25016.6
741.104	25005.53
741.444	24847.79
741.784	24819.55
742.124	24855.93
742.464	24814.8
742.804	24801.69
743.143	24723.05
743.483	24753.78
743.823	24579.1
744.162	24636.95
744.502	24603.73
744.841	24385.66
745.181	24530.29
745.52	24450.52
745.86	24481.47
746.199	24319.22
746.538	24306.34
746.877	24457.29
747.216	24338.88
747.556	24172.56
747.895	24252.55
748.234	24075.84
748.573	24137.08
748.911	24111.32
749.25	24018.21
749.589	23906.57
749.928	23909.74
750.267	23964.65
750.605	23893.02
750.944	23808.95
751.283	23621.61
751.621	23808.72
751.96	23629.52
752.298	23606.02
752.636	23666.58
752.975	23578
753.313	23330.32
753.651	23527.83
753.989	23320.38
754.327	23280.38
754.666	23263.2
755.004	23271.11
755.342	23213.71
755.679	23264.33
756.017	22912.93
756.355	23152.47
756.693	22960.84
757.031	22965.58
757.368	22834.51
757.706	22889.43
758.044	22706.61
758.381	22728.75
758.719	22645.14
759.056	22722.2
759.394	22502.32
759.731	22551.81
760.068	22412.6
760.405	22391.13
760.743	22153.4
761.08	22297.58
761.417	22207.18
761.754	22097.58
762.091	22099.84
762.428	21983.91
762.765	21739.17
763.102	21880.19
763.438	21809.68
763.775	21769.91
764.112	21733.75
764.449	21666.86
764.785	21483.36
765.122	21470.03
765.458	21413.53
765.795	21300.99
766.131	21334.21
766.467	21171.51
766.804	21110.26
767.14	20931.51
767.476	21027.1
767.812	20912.3
768.148	20969.02
768.485	20781.46
768.821	20650.62
769.157	20659.43
769.492	20485.87
769.828	20569.71
770.164	20304.86
770.5	20422.37
770.836	20364.3
771.171	20283.62
771.507	20225.77
771.842	20106.9
772.178	20015.15
772.513	19914.59
772.849	19926.34
773.184	19836.85
773.519	19744.2
773.855	19616.29
774.19	19569.51
774.525	19556.86
774.86	19454.04
775.195	19447.93
775.53	19364.77
775.865	19236.19
776.2	19121.16
776.535	19037.1
776.87	18971.11
777.205	18991
777.539	18828.97
777.874	18951.9
778.209	18670.78
778.543	18683.21
778.878	18545.36
779.212	18593.04
779.547	18420.62
779.881	18473.72
780.215	18442.54
780.55	18365.25
780.884	18254.29
781.218	18237.12
781.552	18188.53
781.886	18104.02
782.22	17961.87
782.554	17921.65
782.888	17759.84
783.222	17759.84
783.556	17637.36
783.889	17681.65
784.223	17473.52
784.557	17506.29
784.89	17474.43
785.224	17432.85
785.557	17255.68
785.891	17205.96
786.224	17136.81
786.558	17173.19
786.891	17027.66
787.224	16958.73
787.557	17027.21
787.891	16890.49
788.224	16900.88
788.557	16872.86
788.89	16775.91
789.223	16698.4
789.556	16540.44
789.888	16585.86
790.221	16426.77
790.554	16386.77
790.887	16324.85
791.219	16270.62
791.552	16231.07
791.884	16139.1
792.217	16102.71
792.549	16076.72
792.882	15997.86
793.214	15937.52
793.546	15982.72
793.879	15881.25
794.211	15700.46
794.543	15770.74
794.875	15718.32
795.207	15745.21
795.539	15624.76
795.871	15568.94
796.203	15526.46
796.535	15357.2
796.867	15337.99
797.198	15384.99
797.53	15326.91
797.862	15184.54
798.193	15246.24
798.525	15196.07
798.856	15235.39
799.188	14966.7
799.519	14956.08
799.85	14864.78
800.182	14946.13
800.513	14905
800.844	14811.22
801.175	14793.14
801.506	14783.42
801.837	14659.81
802.168	14738.23
802.499	14599.25
802.83	14501.62
803.161	14588.63
803.491	14568.97
803.822	14548.18
804.153	14463.66
804.483	14333.95
804.814	14255.76
805.145	14221.63
805.475	14180.73
805.805	14181.41
806.136	14138.02
806.466	14210.33
806.796	14090.79
807.126	13957.46
807.457	13945.93
807.787	13911.81
808.117	13831.59
808.447	13780.97
808.777	13837.24
809.107	13767.63
809.436	13772.38
809.766	13742.55
810.096	13751.36
810.426	13563.34
810.755	13676.34
811.085	13555.21
811.414	13561.76
811.744	13487.87
812.073	13437.25
812.403	13471.82
812.732	13351.37
813.061	13361.09
813.39	13240.19
813.719	13244.93
814.049	13267.08
814.378	13216.91
814.707	13262.33
815.036	13161.55
815.365	13084.49
815.693	12953.64
816.022	12999.29
816.351	12985.51
816.68	12836.13
817.008	12910.48
817.337	12804.95
817.665	12791.61
817.994	12867.09
818.322	12788.22
818.651	12734.21
818.979	12711.84
819.307	12737.6
819.636	12692.41
819.964	12673.42
820.292	12688.11
820.62	12578.74
820.948	12586.87
821.276	12694.67
821.604	12571.51
821.932	12691.28
822.259	12581.9
822.587	12545.97
822.915	12526.99
823.243	12564.5
823.57	12526.99
823.898	12500.32
824.225	12467.55
824.553	12428.68
824.88	12523.15
825.207	12611.05
825.535	12482.24
825.862	12528.79
826.189	12445.86
826.516	12525.18
826.843	12591.39
827.17	12530.6
827.497	12548.46
827.824	12522.69
828.151	12604.5
828.478	12526.31
828.805	12581.22
829.131	12567.21
829.458	12494.22
829.785	12396.14
830.111	12466.65
830.438	12469.81
830.764	12506.2
831.09	12426.2
831.417	12498.74
831.743	12536.7
832.069	12456.25
832.395	12395.69
832.722	12388.46
833.048	12381.68
833.374	12415.58
833.7	12293.32
834.026	12349.59
834.351	12388.46
834.677	12357.27
835.003	12333.09
835.329	12301.23
835.654	12330.83
835.98	12264.62
836.306	12280.44
836.631	12287.9
836.956	12218.52
837.282	12260.55
837.607	12133.33
837.932	12162.93
838.258	12189.59
838.583	12099.88
838.908	12014.23
839.233	12083.83
839.558	12034.34
839.883	11929.04
840.208	12009.03
840.533	11992.31
840.858	11989.37
841.182	12013.1
841.507	11937.17
841.832	11916.16
842.156	11818.08
842.481	11829.6
842.805	11779.21
843.13	11795.93
843.454	11741.47
843.778	11687.24
844.103	11689.49
844.427	11712.55
844.751	11698.53
845.075	11591.42
845.399	11591.87
845.723	11499.67
846.047	11582.83
846.371	11353.68
846.695	11370.86
847.019	11334.93
847.343	11293.35
847.666	11259.68
847.99	11216.06
848.313	11192.78
848.637	11104.65
848.96	11100.58
849.284	11020.36
849.607	11012.45
849.931	10996.63
850.254	10940.59
850.577	10744.89
850.9	10764.55
851.223	10720.71
851.546	10700.14
851.869	10659.92
852.192	10659.01
852.515	10578.11
852.838	10544.21
853.161	10555.06
853.483	10486.36
853.806	10484.55
854.129	10422.86
854.451	10433.71
854.774	10287.95
855.096	10340.83
855.419	10294.05
855.741	10261.28
856.063	10181.06
856.385	10208.63
856.708	10216.09
857.03	10136.09
857.352	10179.7
857.674	10054.28
857.996	10047.28
858.318	10030.56
858.64	10052.02
858.961	9941.97
859.283	9934.29
859.605	9896.55
859.926	9893.38
860.248	9932.7
860.57	9828.3
860.891	9795.31
861.212	9720.06
861.534	9749.43
861.855	9679.6
862.176	9798.25
862.498	9689.55
862.819	9704.91
863.14	9674.41
863.461	9686.38
863.782	9604.58
864.103	9589.89
864.424	9513.73
864.745	9552.15
865.065	9542.88
865.386	9489.78
865.707	9442.32
866.027	9537.69
866.348	9377.24
866.668	9440.06
866.989	9408.65
867.309	9434.86
867.63	9370.01
867.95	9394.41
868.27	9283.91
868.59	9399.16
868.91	9334.3
869.23	9281.42
869.55	9320.52
869.87	9276
870.19	9273.29
870.51	9318.48
870.83	9274.64
871.15	9206.4
871.469	9186.06
871.789	9151.26
872.109	9170.24
872.428	9161.65
872.748	9179.73
873.067	9148.32
873.386	9116.46
873.706	9078.04
874.025	9080.98
874.344	9080.07
874.663	9084.82
874.982	9028.1
875.301	9055.89
875.62	9041.65
875.939	8985.39
876.258	8995.1
876.577	8966.85
876.896	8992.16
877.214	8935.22
877.533	8921.88
877.852	8891.83
878.17	8882.34
878.489	8880.08
878.807	8860.19
879.125	8872.39
879.444	8882.34
879.762	8762.57
880.08	8861.32
880.398	8733.64
880.716	8774.77
881.034	8724.6
881.352	8769.12
881.67	8701.55
881.988	8722.34
882.306	8709.01
882.624	8665.17
882.941	8626.75
883.259	8648.44
883.577	8593.31
883.894	8491.84
884.212	8585.62
884.529	8523.25
884.846	8557.37
885.164	8496.36
885.481	8498.84
885.798	8480.54
886.115	8445.29
886.432	8419.07
886.75	8407.77
887.067	8471.73
887.383	8335.91
887.7	8308.79
888.017	8358.74
888.334	8353.31
888.651	8285.74
888.967	8272.18
889.284	8157.38
889.6	8251.17
889.917	8131.85
890.233	8143.83
890.55	8133.88
890.866	8183.82
891.182	8139.76
891.498	8096.82
891.815	8078.29
892.131	8063.15
892.447	7994.22
892.763	7953.1
893.079	7983.38
893.395	7946.09
893.71	7861.8
894.026	7811.4
894.342	7883.49
894.657	7817.96
894.973	7783.16
895.289	7792.42
895.604	7794
895.92	7687.57
896.235	7696.61
896.55	7739.09
896.865	7632.43
897.181	7655.25
897.496	7651.41
897.811	7560.34
898.126	7562.15
898.441	7519.66
898.756	7487.35
899.071	7466.1
899.386	7460.91
899.7	7444.63
900.015	7333.23
900.33	7363.05
900.644	7272.44
900.959	7334.13
901.273	7211.19
901.588	7246.22
901.902	7226.56
902.216	7183.17
902.531	7206.45
902.845	7154.25
903.159	7112.44
903.473	7130.29
903.787	7111.08
904.101	7069.73
904.415	7010.3
904.729	6972.56
905.042	6992.67
905.356	6976.17
905.67	6916.06
905.984	6952.22
906.297	6855.72
906.611	6836.52
906.924	6810.08
907.237	6771.88
907.551	6763.97
907.864	6728.27
908.177	6777.99
908.491	6707.48
908.804	6614.37
909.117	6641.49
909.43	6549.74
909.743	6614.83
910.056	6577.54
910.368	6568.95
910.681	6489.86
910.994	6504.32
911.307	6460.93
911.619	6437.43
911.932	6366.02
912.244	6340.26
912.557	6361.73
912.869	6338.9
913.181	6320.82
913.494	6274.95
913.806	6248.96
914.118	6181.17
914.43	6225.46
914.742	6154.27
915.054	6087.16
915.366	6105.91
915.678	6105.91
915.99	6040.83
916.302	6022.3
916.613	5985.69
916.925	5984.56
917.236	5967.84
917.548	5925.8
917.859	5906.6
918.171	5885.35
918.482	5886.26
918.794	5851
919.105	5814.4
919.416	5829.08
919.727	5813.94
920.038	5739.82
920.349	5705.02
920.66	5701.86
920.971	5678.35
921.282	5663.66
921.593	5595.42
921.903	5611.46
922.214	5551.58
922.525	5562.65
922.835	5556.1
923.146	5526.49
923.456	5453.73
923.767	5495.08
924.077	5497.34
924.387	5449.43
924.697	5411.47
925.008	5406.5
925.318	5370.79
925.628	5376.89
925.938	5385.48
926.248	5335.09
926.558	5290.12
926.867	5300.51
927.177	5258.7
927.487	5217.35
927.796	5181.19
928.106	5157.46
928.416	5119.05
928.725	5137.35
929.034	5080.86
929.344	5102.78
929.653	5030.01
929.962	5008.31
930.271	5009.9
930.581	4966.51
930.89	4957.69
931.199	4921.99
931.508	4905.49
931.817	4944.36
932.125	4900.97
932.434	4915.21
932.743	4828.88
933.051	4817.36
933.36	4785.72
933.669	4769.45
933.977	4736.91
934.286	4722.9
934.594	4720.19
934.902	4719.73
935.21	4732.16
935.519	4704.82
935.827	4668.89
936.135	4638.83
936.443	4561.32
936.751	4584.82
937.059	4560.87
937.367	4541.43
937.674	4560.64
937.982	4492.17
938.29	4550.7
938.597	4475.9
938.905	4462.79
939.213	4417.6
939.52	4374.21
939.827	4441.32
940.135	4403.58
940.442	4403.58
940.749	4410.14
941.056	4355.45
941.363	4279.07
941.67	4312.51
941.977	4251.27
942.284	4188.68
942.591	4286.53
942.898	4210.14
943.205	4212.4
943.511	4163.37
943.818	4190.71
944.125	4147.55
944.431	4097.6
944.738	4135.8
945.044	4079.98
945.35	4071.84
945.657	4053.09
945.963	4050.15
946.269	4021.45
946.575	4028
946.881	3973.99
947.187	3956.82
947.493	3963.6
947.799	3935.35
948.105	3914.56
948.41	3894.45
948.716	3878.4
949.022	3894.9
949.327	3853.09
949.633	3800.89
949.938	3779.87
950.244	3814.67
950.549	3770.61
950.854	3781.68
951.16	3768.57
951.465	3712.98
951.77	3700.33
952.075	3736.26
952.38	3685.19
952.685	3683.38
952.99	3619.88
953.294	3678.63
953.599	3639.31
953.904	3610.61
954.209	3586.88
954.513	3586.88
954.818	3536.71
955.122	3541.01
955.426	3536.94
955.731	3497.39
956.035	3503.27
956.339	3504.63
956.643	3464.85
956.948	3494
957.252	3418.07
957.556	3437.96
957.86	3438.86
958.163	3427.34
958.467	3385.98
958.771	3393.44
959.075	3350.96
959.378	3370.84
959.682	3307.12
959.985	3334.23
960.289	3313.9
960.592	3259.66
960.896	3287.46
961.199	3237.29
961.502	3263.73
961.805	3263.28
962.108	3200.45
962.411	3178.98
962.714	3168.36
963.017	3182.37
963.32	3142.83
963.623	3159.32
963.926	3172.88
964.228	3132.21
964.531	3085.88
964.833	3117.29
965.136	3087.24
965.438	3057.18
965.741	3078.2
966.043	3050.4
966.345	3047.01
966.648	3017.18
966.95	3025.77
967.252	2989.16
967.554	2988.48
967.856	2978.09
968.158	2903.29
968.46	2958.2
968.761	2932.44
969.063	2925.21
969.365	2892.44
969.666	2891.99
969.968	2870.74
970.269	2871.65
970.571	2830.97
970.872	2856.51
971.174	2810.86
971.475	2807.02
971.776	2807.69
972.077	2803.63
972.378	2791.88
972.679	2772.44
972.98	2741.71
973.281	2744.65
973.582	2732.67
973.883	2722.5
974.183	2727.24
974.484	2687.02
974.785	2680.92
975.085	2690.86
975.386	2716.62
975.686	2694.7
975.986	2677.98
976.287	2674.36
976.587	2652.22
976.887	2619.45
977.187	2576.97
977.487	2576.74
977.787	2569.06
978.087	2544.42
978.387	2552.11
978.687	2529.06
978.987	2557.76
979.286	2564.76
979.586	2513.69
979.885	2494.48
980.185	2479.34
980.484	2475.5
980.784	2468.27
981.083	2447.7
981.382	2470.75
981.682	2469.62
981.981	2413.13
982.28	2432.56
982.579	2419.46
982.878	2397.76
983.177	2387.14
983.475	2378.78
983.774	2371.55
984.073	2359.57
984.372	2342.17
984.67	2344.66
984.969	2285.67
985.267	2300.59
985.566	2301.95
985.864	2281.38
986.162	2267.82
986.461	2265.11
986.759	2248.39
987.057	2217.88
987.355	2245.22
987.653	2237.09
987.951	2230.99
988.249	2205.45
988.547	2214.72
988.844	2194.83
989.142	2162.51
989.44	2150.31
989.737	2167.26
990.035	2168.84
990.332	2146.69
990.63	2114.15
990.927	2138.56
991.224	2104.89
991.521	2101.72
991.819	2089.75
992.116	2091.78
992.413	2075.06
992.71	2088.62
993.006	2082.74
993.303	2033.7
993.6	2041.16
993.897	2020.6
994.193	2012.01
994.49	2002.52
994.787	1988.51
995.083	1974.72
995.379	1957.32
995.676	1972.69
995.972	1975.17
996.268	1949.19
996.565	1970.88
996.861	1944.67
997.157	1928.17
997.453	1905.8
997.749	1863.09
998.044	1867.61
998.34	1874.16
998.636	1866.93
998.932	1880.49
999.227	1845.01
999.523	1841.62
999.818	1819.7
1000.114	1843.88
1000.409	1844.56
1000.704	1789.64
1001	1785.8
1001.295	1772.92
1001.59	1810.66
1001.885	1791.45
1002.18	1770.21
1002.475	1753.94
1002.77	1751.23
1003.065	1758.46
1003.359	1738.8
1003.654	1730.66
1003.949	1717.78
1004.243	1706.25
1004.538	1695.63
1004.832	1718.68
1005.127	1651.11
1005.421	1690.89
1005.715	1682.3
1006.009	1663.09
1006.304	1628.97
1006.598	1652.47
1006.892	1650.66
1007.186	1615.41
1007.48	1611.79
1007.773	1607.27
1008.067	1617.22
1008.361	1577.9
1008.655	1551
1008.948	1548.97
1009.242	1556.43
1009.535	1547.39
1009.829	1525.47
1010.122	1506.03
1010.415	1535.64
1010.708	1500.38
1011.001	1495.19
1011.295	1492.7
1011.588	1475.98
1011.881	1470.33
1012.173	1440.05
1012.466	1458.58
1012.759	1451.57
1013.052	1460.61
1013.344	1449.09
1013.637	1418.58
1013.93	1423.55
1014.222	1424.45
1014.514	1396.88
1014.807	1396.43
1015.099	1413.83
1015.391	1375.64
1015.683	1369.54
1015.976	1358.92
1016.268	1365.25
1016.56	1322.08
1016.851	1331.35
1017.143	1354.63
1017.435	1348.52
1017.727	1324.57
1018.018	1324.57
1018.31	1306.04
1018.602	1303.1
1018.893	1313.04
1019.185	1265.14
1019.476	1274.63
1019.767	1264.91
1020.058	1257.23
1020.35	1267.17
1020.641	1261.97
1020.932	1238.7
1021.223	1230.11
1021.514	1253.84
1021.804	1202.99
1022.095	1201.41
1022.386	1209.09
1022.677	1199.83
1022.967	1174.52
1023.258	1161.41
1023.548	1182.88
1023.839	1156.66
1024.129	1153.73
1024.419	1160.28
1024.709	1124.35
1025	1109.66
1025.29	1105.14
1025.58	1101.52
1025.87	1118.02
1026.16	1106.95
1026.449	1094.29
1026.739	1071.24
1027.029	1080.73
1027.319	1080.06
1027.608	1035.76
1027.898	1056.1
1028.187	1047.51
1028.477	1041.87
1028.766	1026.27
1029.055	1081.86
1029.344	1045.93
1029.634	1033.28
1029.923	1008.42
1030.212	1011.58
1030.501	986.05
1030.79	981.08
1031.078	985.37
1031.367	958.7
1031.656	960.29
1031.945	973.17
1032.233	958.25
1032.522	951.25
1032.81	949.89
1033.099	949.21
1033.387	954.41
1033.675	912.6
1033.963	937.91
1034.251	941.53
1034.54	909.67
1034.828	909.44
1035.116	908.31
1035.403	910.57
1035.691	882.55
1035.979	861.08
1036.267	891.81
1036.554	876.22
1036.842	846.16
1037.129	884.58
1037.417	864.92
1037.704	849.33
1037.992	869.89
1038.279	832.38
1038.566	836.45
1038.853	836.45
1039.14	836.45
