Data from white_poster_card_FLMS001491_00091.txt Node
Date: Wed Feb 08 11:52:17 GMT 2017
User: dcchb
Spectrometer: FLMS00149
Trigger mode: 0
Integration Time (sec): 2.000000E-2
Scans to average: 10
Electric dark correction enabled: true
Nonlinearity correction enabled: false
Boxcar width: 0
XAxis mode: Wavelengths
Number of Pixels in Spectrum: 2048
>>>>>Begin Spectral Data<<<<<
341.393	-18.25
341.776	-18.25
342.16	-18.25
342.543	-62.09
342.927	-89.21
343.31	-55.76
343.693	-81.07
344.077	-54.18
344.46	-53.28
344.843	-56.89
345.226	-61.18
345.61	-28.87
345.993	-15.54
346.376	-5.37
346.759	8.42
347.142	33.05
347.525	35.76
347.908	72.14
348.291	47.51
348.674	97
349.057	118.25
349.44	113.5
349.823	141.97
350.206	170
350.588	177.23
350.971	200.05
351.354	205.25
351.737	209.32
352.119	255.64
352.502	263.55
352.884	268.98
353.267	294.74
353.65	299.71
354.032	303.1
354.414	294.29
354.797	339.48
355.179	334.06
355.562	323.21
355.944	340.16
356.326	312.14
356.709	346.49
357.091	351.69
357.473	322.53
357.855	316.21
358.238	330.44
358.62	333.61
359.002	353.27
359.384	339.93
359.766	333.83
360.148	332.93
360.53	346.04
360.912	346.04
361.294	343.32
361.676	329.09
362.057	327.51
362.439	318.69
362.821	325.25
363.203	337.9
363.584	344
363.966	328.41
364.348	338.13
364.729	333.16
365.111	319.6
365.493	345.81
365.874	343.32
366.256	341.06
366.637	307.62
367.019	299.71
367.4	312.14
367.781	295.42
368.163	306.04
368.544	316.21
368.925	321.86
369.306	327.05
369.688	319.82
370.069	328.18
370.45	304.46
370.831	323.21
371.212	325.47
371.593	307.62
371.974	330.22
372.355	334.74
372.736	321.4
373.117	325.25
373.498	323.66
373.879	320.73
374.26	322.76
374.641	318.69
375.021	301.52
375.402	320.95
375.783	330.67
376.163	320.73
376.544	318.01
376.925	298.58
377.305	321.86
377.686	326.38
378.066	318.92
378.447	314.4
378.827	355.98
379.208	314.17
379.588	336.54
379.968	315.3
380.349	329.99
380.729	351.69
381.109	329.09
381.489	344.68
381.87	336.32
382.25	337.67
382.63	358.92
383.01	337.45
383.39	320.95
383.77	341.52
384.15	345.36
384.53	358.47
384.91	341.29
385.29	366.37
385.67	371.57
386.049	351.69
386.429	336.09
386.809	365.7
387.189	358.47
387.568	363.89
387.948	352.36
388.328	377.67
388.707	365.02
389.087	344.45
389.466	371.12
389.846	365.24
390.225	373.61
390.605	368.18
390.984	381.06
391.363	386.94
391.743	381.29
392.122	381.52
392.501	388.29
392.881	384.91
393.26	393.27
393.639	413.6
394.018	398.92
394.397	410.22
394.776	385.81
395.155	397.56
395.534	412.02
395.913	417.22
396.292	411.35
396.671	421.74
397.05	412.25
397.429	402.76
397.808	414.51
398.186	419.93
398.565	410.44
398.944	407.28
399.323	435.98
399.701	412.25
400.08	428.29
400.458	437.79
400.837	434.17
401.215	426.03
401.594	430.55
401.972	432.81
402.351	453.15
402.729	438.92
403.107	451.57
403.486	456.32
403.864	466.71
404.242	461.97
404.62	457.45
404.999	478.24
405.377	501.06
405.755	477.11
406.133	471.23
406.511	486.6
406.889	506.03
407.267	525.47
407.645	516.2
408.023	531.34
408.401	536.99
408.779	511.46
409.156	531.57
409.534	551.68
409.912	572.47
410.29	583.77
410.667	569.76
411.045	594.84
411.422	584.45
411.8	584.22
412.178	636.42
412.555	627.16
412.933	654.05
413.31	658.57
413.687	659.47
414.065	667.16
414.442	685.69
414.819	691.34
415.197	699.47
415.574	697.67
415.951	754.84
416.328	762.3
416.705	753.93
417.082	773.37
417.46	770.66
417.837	786.02
418.214	819.7
418.591	837.55
418.967	836.87
419.344	854.27
419.721	856.98
420.098	849.53
420.475	887.49
420.852	907.6
421.228	908.51
421.605	920.48
421.982	933.37
422.358	966.58
422.735	996.87
423.111	976.3
423.488	991.22
423.864	1023.76
424.241	1054.94
424.617	1011.78
424.994	1042.74
425.37	1089.07
425.746	1061.72
426.123	1104.43
426.499	1063.53
426.875	1107.15
427.251	1118.22
427.627	1153.47
428.003	1163.19
428.379	1199.8
428.756	1198.67
429.132	1195.28
429.507	1232.57
429.883	1234.6
430.259	1255.84
430.635	1282.73
431.011	1309.17
431.387	1315.95
431.763	1354.6
432.138	1346.01
432.514	1370.19
432.89	1402.05
433.265	1413.58
433.641	1427.36
434.016	1435.05
434.392	1452.22
434.767	1524.99
435.143	1501.94
435.518	1538.1
435.894	1531.99
436.269	1568.15
436.644	1583.29
437.02	1616.06
437.395	1611.54
437.77	1652.44
438.145	1621.26
438.52	1647.7
438.895	1693.35
439.271	1670.3
439.646	1734.93
440.021	1721.37
440.395	1730.18
440.77	1741.71
441.145	1766.56
441.52	1785.32
441.895	1769.95
442.27	1796.85
442.645	1795.26
443.019	1816.28
443.394	1801.37
443.769	1846.56
444.143	1822.83
444.518	1885.66
444.892	1854.25
445.267	1889.05
445.641	1903.06
446.016	1910.74
446.39	1923.17
446.764	1941.02
447.139	1929.95
447.513	1954.81
447.887	1961.81
448.262	1976.73
448.636	2025.77
449.01	2024.18
449.384	2011.53
449.758	2053.56
450.132	2082.26
450.506	2083.39
450.88	2110.51
451.254	2099.44
451.628	2114.58
452.002	2151.41
452.376	2182.6
452.75	2167.68
453.123	2198.64
453.497	2253.56
453.871	2258.98
454.244	2294.01
454.618	2304.18
454.992	2344.63
455.365	2314.57
455.739	2395.25
456.112	2407
456.486	2422.14
456.859	2415.13
457.232	2492.87
457.606	2485.64
457.979	2505.3
458.352	2540.1
458.725	2590.04
459.099	2619.42
459.472	2631.17
459.845	2691.29
460.218	2695.58
460.591	2702.58
460.964	2768.35
461.337	2761.57
461.71	2817.38
462.083	2871.17
462.456	2879.75
462.829	2912.3
463.201	2940.54
463.574	2945.52
463.947	3006.53
464.32	3032.07
464.692	3067.32
465.065	3095.34
465.438	3132.4
465.81	3164.72
466.183	3167.43
466.555	3274.55
466.928	3278.84
467.3	3344.6
467.672	3335.56
468.045	3426.18
468.417	3425.05
468.789	3452.4
469.161	3454.43
469.534	3564.03
469.906	3638.6
470.278	3623.01
470.65	3686.29
471.022	3746.17
471.394	3825.04
471.766	3852.61
472.138	3887.86
472.51	3979.16
472.882	3979.16
473.253	4089.89
473.625	4118.59
473.997	4189.32
474.369	4235.88
474.74	4256.67
475.112	4282.88
475.484	4420.05
475.855	4476.1
476.227	4532.59
476.598	4679.48
476.97	4624.57
477.341	4820.27
477.713	4845.58
478.084	4883.77
478.455	4999.47
478.827	5013.71
479.198	5182.07
479.569	5156.76
479.94	5337.09
480.311	5342.29
480.682	5438.33
481.053	5582.51
481.424	5621.38
481.795	5687.14
482.166	5812.11
482.537	5878.09
482.908	5973.68
483.279	6055.26
483.65	6177.52
484.021	6220.46
484.391	6375.48
484.762	6404.63
485.133	6484.41
485.503	6516.5
485.874	6704.51
486.244	6745.64
486.615	6836.94
486.985	6932.53
487.356	7106.54
487.726	7135.91
488.097	7346.3
488.467	7320.09
488.837	7525.96
489.207	7506.98
489.578	7656.8
489.948	7709.23
490.318	7815.22
490.688	7912.84
491.058	8000.98
491.428	8131.59
491.798	8196
492.168	8353.06
492.538	8366.39
492.908	8507.4
493.278	8555.09
493.648	8614.29
494.017	8772.71
494.387	8822.2
494.757	8902.65
495.126	8995.07
495.496	9036.2
495.866	9117.56
496.235	9199.36
496.605	9304.22
496.974	9395.29
497.344	9459.24
497.713	9543.53
498.082	9590.31
498.452	9700.37
498.821	9727.26
499.19	9828.05
499.559	9900.59
499.928	9987.59
500.298	9991.88
500.667	10114.59
501.036	10100.81
501.405	10208.83
501.774	10199.56
502.143	10317.3
502.512	10391.87
502.88	10481.81
503.249	10527.92
503.618	10601.36
503.987	10676.84
504.356	10698.76
504.724	10781.02
505.093	10872.54
505.462	10907.57
505.83	10968.36
506.199	11122.93
506.567	11219.2
506.936	11256.26
507.304	11336.93
507.672	11432.3
508.041	11496.48
508.409	11578.96
508.777	11678.85
509.145	11840.65
509.514	11779.41
509.882	11877.03
510.25	11966.07
510.618	11974.2
510.986	12062.11
511.354	12175.33
511.722	12311.15
512.09	12440.41
512.458	12447.41
512.826	12599.95
513.193	12606.5
513.561	12691.93
513.929	12827.74
514.297	12942.77
514.664	13018.47
515.032	13124.91
515.4	13208.3
515.767	13250.33
516.135	13307.28
516.502	13304.57
516.869	13576.65
517.237	13517.44
517.604	13578
517.972	13770.99
518.339	13865
518.706	13976.41
519.073	14014.15
519.44	14087.14
519.808	14222.96
520.175	14326.69
520.542	14363.75
520.909	14565.32
521.276	14597.64
521.643	14717.18
522.009	14738.43
522.376	14936.84
522.743	15040.11
523.11	15197.4
523.477	15394.91
523.843	15397.84
524.21	15575.69
524.577	15705.63
524.943	15821.34
525.31	15950.15
525.676	16097.94
526.043	16187.88
526.409	16206.41
526.776	16388.78
527.142	16507.42
527.508	16672.61
527.874	16710.13
528.241	16794.64
528.607	16887.52
528.973	17121.41
529.339	17163.9
529.705	17177.68
530.071	17454.29
530.437	17460.39
530.803	17553.95
531.169	17754.17
531.535	17721.62
531.901	17754.17
532.267	17966.82
532.632	17982.86
532.998	18074.84
533.364	18228.73
533.73	18260.59
534.095	18391.21
534.461	18416.07
534.826	18560.47
535.192	18649.28
535.557	18730.41
535.923	18772.67
536.288	18899.9
536.653	18982.16
537.019	18894.25
537.384	19021.7
537.749	19103.06
538.114	19124.07
538.479	19201.59
538.845	19359.1
539.21	19269.61
539.575	19456.04
539.94	19614.23
540.305	19709.37
540.67	19630.95
541.034	19752.31
541.399	19921.79
541.764	19989.59
542.129	19989.81
542.494	20058.29
542.858	20213.76
543.223	20200.88
543.587	20332.63
543.952	20355.68
544.316	20390.48
544.681	20446.3
545.045	20504.15
545.41	20732.62
545.774	20699.63
546.138	20783.69
546.503	20875.67
546.867	20860.52
547.231	21150.01
547.595	21056.45
547.959	21138.48
548.324	21263.9
548.688	21238.14
549.052	21301.19
549.416	21371.92
549.779	21472.03
550.143	21535.31
550.507	21708.64
550.871	21698.69
551.235	21736.21
551.599	21915.64
551.962	21889.88
552.326	22025.24
552.689	22221.85
553.053	22017.1
553.417	22199.92
553.78	22483.08
554.143	22352.01
554.507	22477.21
554.87	22641.95
555.234	22875.39
555.597	22631.55
555.96	22906.35
556.323	22962.84
556.686	23064.99
557.05	23203.74
557.413	23244.87
557.776	23349.05
558.139	23361.02
558.502	23561.7
558.865	23507.24
559.228	23655.48
559.59	23806.21
559.953	23893.89
560.316	24140.89
560.679	24128.69
561.041	24213.66
561.404	24318.97
561.767	24568.68
562.129	24544.72
562.492	24742.46
562.854	24638.5
563.217	24734.1
563.579	24928.21
563.941	25192.84
564.304	25094.09
564.666	25336.11
565.028	25470.8
565.39	25453.17
565.753	25599.84
566.115	25750.11
566.477	25832.82
566.839	25898.36
567.201	26110.56
567.563	26188.07
567.925	26246.15
568.287	26286.14
568.648	26435.07
569.01	26553.03
569.372	26749.86
569.734	26630.77
570.095	26841.84
570.457	26908.05
570.819	27031.21
571.18	26977.2
571.542	27154.37
571.903	27178.1
572.265	27280.7
572.626	27299.23
572.987	27514.59
573.349	27606.11
573.71	27618.77
574.071	27776.73
574.432	27808.82
574.794	28065.31
575.155	28039.55
575.516	27866.67
575.877	28116.38
576.238	28050.39
576.599	28190.05
576.96	28184.4
577.32	28291.52
577.681	28383.26
578.042	28498.06
578.403	28358.86
578.763	28353.89
579.124	28564.73
579.485	28653.99
579.845	28820.32
580.206	28609.47
580.566	28685.86
580.927	28872.97
581.287	28766.53
581.648	28727.21
582.008	28772.41
582.368	28957.94
582.728	28917.04
583.089	28941.67
583.449	28979.86
583.809	28709.13
584.169	28956.36
584.529	28872.97
584.889	29152.28
585.249	28906.42
585.609	28790.71
585.969	28957.71
586.329	28843.82
586.688	29063.93
587.048	28963.81
587.408	29057.15
587.768	28980.31
588.127	29077.94
588.487	28930.82
588.846	29183.92
589.206	28942.12
589.565	28957.04
589.925	29079.07
590.284	29025.73
590.643	29018.73
591.003	29202
591.362	29311.38
591.721	29100.53
592.08	29280.64
592.44	29267.99
592.799	29144.15
593.158	29163.13
593.517	29186.41
593.876	29267.08
594.235	29261.21
594.593	29285.16
594.952	29217.82
595.311	29067.99
595.67	29273.19
596.029	29432.95
596.387	29308.66
596.746	29357.48
597.104	29253.52
597.463	29307.53
597.822	29382.56
598.18	29286.29
598.538	29415.33
598.897	29570.58
599.255	29294.88
599.613	29701.65
599.972	29542.56
600.33	29509.56
600.688	29544.59
601.046	29569.67
601.404	29730.8
601.762	29533.07
602.12	29830.01
602.478	29784.13
602.836	29765.38
603.194	29644.02
603.552	29827.52
603.91	29629.33
604.268	29758.37
604.625	29642.21
604.983	29885.15
605.341	29741.65
605.698	29827.97
606.056	30064.35
606.413	29891.7
606.771	29935.77
607.128	30060.96
607.485	29914.75
607.843	30006.73
608.2	30210.11
608.557	30137.57
608.914	30173.95
609.272	30228.87
609.629	30235.19
609.986	30373.72
610.343	30322.65
610.7	30507.5
611.057	30423.21
611.414	30351.12
611.771	30439.71
612.127	30441.97
612.484	30495.75
612.841	30637.67
613.198	30555.41
613.554	30515.19
613.911	30695.29
614.267	30667.95
614.624	30769.42
614.98	30675.86
615.337	30838.34
615.693	30743.88
616.05	30740.72
616.406	30930.99
616.762	30775.97
617.118	30773.94
617.475	30714.96
617.831	30902.97
618.187	30907.27
618.543	30891.9
618.899	30996.3
619.255	31019.58
619.611	31064.32
619.967	31008.05
620.323	31058.45
620.678	31042.63
621.034	30955.85
621.39	31021.39
621.746	30843.09
622.101	31307.03
622.457	30983.65
622.812	31162.4
623.168	31156.53
623.523	31180.71
623.879	31201.5
624.234	31079.69
624.589	31171.89
624.945	31252.57
625.3	31204.89
625.655	31083.31
626.01	31149.75
626.365	31330.31
626.72	31212.8
627.075	31045.57
627.43	31220.93
627.785	31098.67
628.14	31050.77
628.495	31078.79
628.85	31046.47
629.205	30972.58
629.559	31135.06
629.914	30961.28
630.269	31037.88
630.623	30801.51
630.978	30814.39
631.332	30949.98
631.687	30990.88
632.041	30742.07
632.396	30968.73
632.75	30690.55
633.104	30756.08
633.459	30547.28
633.813	30666.37
634.167	30585.92
634.521	30668.18
634.875	30696.65
635.229	30451.46
635.583	30489.2
635.937	30367.62
636.291	30364.46
636.645	30454.4
636.999	30270.67
637.352	30372.59
637.706	30260.05
638.06	30311.12
638.413	30263.89
638.767	30112.49
639.121	30179.15
639.474	30066.38
639.828	30010.79
640.181	30070.68
640.534	29902.55
640.888	30054.63
641.241	29803.11
641.594	29789.56
641.947	29910.23
642.301	29740.29
642.654	29959.27
643.007	29848.76
643.36	29640.18
643.713	29641.54
644.066	29814.41
644.419	29663.23
644.771	29458.72
645.124	29140.76
645.477	29077.03
645.83	28904.61
646.182	28813.76
646.535	28730.15
646.888	28748.91
647.24	28592.53
647.593	28653.99
647.945	28605.63
648.298	28418.29
648.65	28445.18
649.002	28283.38
649.355	28404.06
649.707	28385.75
650.059	28478.63
650.411	28844.95
650.763	28915.23
651.115	29121.55
651.467	28931.95
651.819	29045.85
652.171	28962.68
652.523	28811.5
652.875	28928.11
653.227	28661.22
653.578	28791.84
653.93	28895.57
654.282	28785.29
654.633	28694.9
654.985	28690.38
655.337	28698.51
655.688	28570.38
656.039	28784.84
656.391	28480.44
656.742	28534.22
657.094	28472.98
657.445	28721.11
657.796	28509.36
658.147	28554.33
658.498	28386.2
658.849	28627.1
659.2	28372.64
659.551	28229.14
659.902	28399.31
660.253	28396.6
660.604	28378.07
660.955	28132.42
661.306	28356.37
661.656	28268.01
662.007	28355.92
662.358	28202.25
662.708	28196.6
663.059	28272.08
663.409	28083.39
663.76	28204.74
664.11	28133.1
664.461	28118.41
664.811	28147.34
665.161	28178.75
665.511	28178.52
665.862	28141.46
666.212	28157.73
666.562	28214.46
666.912	28159.54
667.262	28014.69
667.612	28083.16
667.962	28192.54
668.312	28030.51
668.662	28189.15
669.011	28054.23
669.361	27950.06
669.711	28060.79
670.06	27991.41
670.41	27877.97
670.76	27942.37
671.109	27947.12
671.459	27841.36
671.808	27840.23
672.157	27945.08
672.507	27635.26
672.856	27712.1
673.205	27793
673.554	27889.72
673.904	27607.92
674.253	27808.59
674.602	27573.34
674.951	27340.81
675.3	27094.94
675.649	27580.12
675.998	27555.26
676.346	27575.38
676.695	27658.31
677.044	27474.36
677.393	27595.49
677.741	27592.33
678.09	27482.27
678.438	27379
678.787	27488.37
679.135	27458.09
679.484	27185.56
679.832	27342.16
680.181	27101.04
680.529	27235.95
680.877	27157.31
681.225	27195.95
681.573	27350.75
681.922	27280.24
682.27	27050.87
682.618	26877.32
682.966	26902.17
683.314	26910.76
683.661	26849.07
684.009	26697.89
684.357	26670.32
684.705	26654.04
685.053	26685.91
685.4	26659.02
685.748	26487.04
686.095	26483.2
686.443	26481.39
686.79	26357.33
687.138	26421.28
687.485	26287.73
687.832	26253.6
688.18	26266.48
688.527	26234.17
688.874	26187.62
689.221	26089.09
689.568	25891.58
689.915	25897
690.262	25851.58
690.609	25810.9
690.956	25727.97
691.303	25765.71
691.65	25561.64
691.997	25567.97
692.344	25386.06
692.69	25371.14
693.037	25378.15
693.383	25193.97
693.73	25222.44
694.077	25073.97
694.423	25102.45
694.769	25017.48
695.116	24982
695.462	24858.61
695.808	24746.52
696.155	24840.08
696.501	24589.01
696.847	24743.36
697.193	24346.31
697.539	24464.27
697.885	24231.28
698.231	24308.57
698.577	24256.37
698.923	24276.25
699.269	24128.24
699.614	24083.27
699.96	23949.03
700.306	24021.57
700.651	23988.35
700.997	23876.26
701.342	23780
701.688	23661.13
702.033	23697.06
702.379	23551.53
702.724	23599.89
703.069	23672.65
703.415	23329.16
703.76	23307.24
704.105	23398.31
704.45	23300.46
704.795	23105.44
705.14	23057.76
705.485	23006.23
705.83	23022.73
706.175	23013.46
706.52	22877.65
706.865	22784.77
707.209	22821.38
707.554	22745.9
707.899	22834.48
708.243	22682.17
708.588	22640.14
708.932	22409.86
709.277	22410.54
709.621	22477.66
709.966	22295.06
710.31	22383.65
710.654	22146.59
710.998	22135.29
711.342	22161.73
711.687	22103.2
712.031	22115.18
712.375	21898.24
712.719	21930.78
713.063	21916.09
713.407	21957.22
713.75	21817.56
714.094	21795.64
714.438	21705.25
714.782	21650.33
715.125	21684.46
715.469	21648.07
715.812	21496.67
716.156	21446.05
716.499	21451.24
716.843	21493.05
717.186	21171.03
717.53	21375.99
717.873	21341.42
718.216	21290.34
718.559	21223
718.902	20933.52
719.246	21081.76
719.589	21052.61
719.932	20989.56
720.275	20921.54
720.617	20921.54
720.96	20816.23
721.303	20899.85
721.646	20969
721.989	20676.12
722.331	20829.57
722.674	20695.33
723.016	20633.19
723.359	20665.5
723.701	20666.63
724.044	20376.92
724.386	20434.1
724.729	20536.01
725.071	20348.45
725.413	20443.81
725.755	20332.4
726.097	20318.17
726.439	20184.38
726.782	20281.56
727.124	20322.46
727.465	20110.94
727.807	20183.03
728.149	20229.81
728.491	20085.4
728.833	20128.11
729.175	20034.56
729.516	19842.47
729.858	20007.21
730.199	19956.59
730.541	19922.02
730.882	19842.47
731.224	19902.81
731.565	19660.78
731.906	19727.67
732.248	19712.31
732.589	19656.71
732.93	19648.81
733.271	19496.94
733.612	19606.55
733.953	19614.23
734.294	19613.55
734.635	19383.05
734.976	19530.84
735.317	19404.97
735.658	19374.24
735.999	19360.45
736.339	19290.4
736.68	19294.24
737.021	19204.98
737.361	19222.6
737.702	19317.06
738.042	19203.39
738.383	19128.14
738.723	19203.39
739.063	19098.09
739.404	19113.45
739.744	19117.75
740.084	18846.34
740.424	18974.92
740.764	18981.7
741.104	19014.92
741.444	18972.66
741.784	18929.95
742.124	18865.55
742.464	18898.99
742.804	18796.4
743.143	18728.15
743.483	18714.37
743.823	18538.78
744.162	18678.66
744.502	18618.1
744.841	18562.96
745.181	18629.62
745.52	18560.47
745.86	18593.69
746.199	18573.13
746.538	18522.73
746.877	18527.48
747.216	18450.19
747.556	18285.9
747.895	18332.68
748.234	18314.83
748.573	18260.59
748.911	18189.18
749.25	18172.69
749.589	18105.34
749.928	18144.44
750.267	18200.71
750.605	18007.49
750.944	18109.86
751.283	17982.63
751.621	17970.21
751.96	17871.45
752.298	17900.6
752.636	17863.09
752.975	17768.18
753.313	17715.97
753.651	17724.11
753.989	17645.24
754.327	17667.84
754.666	17600.27
755.004	17589.42
755.342	17550.56
755.679	17592.81
756.017	17394.63
756.355	17428.3
756.693	17388.98
757.031	17432.37
757.368	17315.53
757.706	17270.34
758.044	17235.76
758.381	17132.71
758.719	17183.33
759.056	17171.13
759.394	17058.14
759.731	16876.45
760.068	16975.2
760.405	16880.52
760.743	16733.18
761.08	16864.25
761.417	16682.78
761.754	16703.35
762.091	16607.3
762.428	16581.32
762.765	16518.94
763.102	16551.94
763.438	16428.33
763.775	16369.8
764.112	16378.61
764.449	16322.79
764.785	16306.52
765.122	16179.52
765.458	16093.87
765.795	16059.3
766.131	16106.75
766.467	16013.42
766.804	15901.33
767.14	15890.03
767.476	15853.2
767.812	15838.96
768.148	15801.9
768.485	15682.81
768.821	15564.39
769.157	15540.66
769.492	15514.22
769.828	15450.05
770.164	15419.09
770.5	15369.14
770.836	15328.47
771.171	15317.39
771.507	15135.48
771.842	15074.46
772.178	15114.91
772.513	15083.05
772.849	15064.52
773.184	14960.79
773.519	14998.31
773.855	14825.2
774.19	14780.23
774.525	14787.92
774.86	14780.68
775.195	14704.08
775.53	14663.4
775.865	14561.26
776.2	14416.85
776.535	14382.73
776.87	14385.89
777.205	14330.75
777.539	14332.56
777.874	14340.24
778.209	14086.69
778.543	14118.78
778.878	13989.07
779.212	14060.93
779.547	13961.5
779.881	13919.92
780.215	13862.06
780.55	13898.67
780.884	13723.09
781.218	13695.52
781.552	13750.66
781.886	13710.88
782.22	13578.91
782.554	13557.21
782.888	13403.09
783.222	13401.74
783.556	13295.07
783.889	13404.22
784.223	13146.6
784.557	13205.13
784.89	13165.59
785.224	13133.04
785.557	13063.44
785.891	12942.77
786.224	12946.38
786.558	12895.76
786.891	12811.7
787.224	12768.31
787.557	12775.09
787.891	12773.73
788.224	12691.7
788.557	12731.47
788.89	12644.7
789.223	12620.97
789.556	12520.18
789.888	12524.7
790.221	12486.28
790.554	12305.04
790.887	12347.08
791.219	12331.94
791.552	12310.24
791.884	12214.2
792.217	12191.6
792.549	12160.41
792.882	12032.73
793.214	11959.29
793.546	11998.16
793.879	11897.37
794.211	11847.65
794.543	11879.29
794.875	11867.54
795.207	11866.64
795.539	11723.14
795.871	11814.44
796.203	11643.59
796.535	11609.24
796.867	11558.17
797.198	11491.28
797.53	11536.25
797.862	11491.96
798.193	11466.2
798.525	11400.43
798.856	11453.77
799.188	11333.32
799.519	11242.25
799.85	11146.43
800.182	11144.17
800.513	11232.98
800.844	11115.92
801.175	11116.15
801.506	11045.87
801.837	11052.65
802.168	11054
802.499	11033.66
802.83	10984.17
803.161	10899.2
803.491	10852.2
803.822	10881.35
804.153	10828.47
804.483	10821.24
804.814	10776.72
805.145	10763.16
805.475	10764.52
805.805	10744.18
806.136	10675.48
806.466	10653.11
806.796	10606.11
807.126	10500.8
807.457	10569.72
807.787	10506.9
808.117	10432.32
808.447	10416.73
808.777	10448.82
809.107	10402.27
809.436	10382.16
809.766	10411.76
810.096	10366.34
810.426	10223.52
810.755	10203.18
811.085	10253.35
811.414	10223.06
811.744	10148.94
812.073	10162.95
812.403	10135.38
812.732	10035.05
813.061	10056.97
813.39	10008.61
813.719	9974.48
814.049	9985.33
814.378	9960.02
814.707	9946.01
815.036	9866.92
815.365	9911.66
815.693	9819.91
816.022	9802.28
816.351	9755.73
816.68	9765.22
817.008	9749.63
817.337	9617.43
817.665	9743.3
817.994	9665.34
818.322	9628.96
818.651	9610.88
818.979	9494.72
819.307	9586.47
819.636	9580.14
819.964	9575.17
820.292	9544.21
820.62	9596.19
820.948	9509.18
821.276	9510.31
821.604	9549.18
821.932	9511.9
822.259	9539.47
822.587	9516.87
822.915	9505.57
823.243	9494.72
823.57	9453.14
823.898	9396.19
824.225	9390.09
824.553	9486.59
824.88	9393.71
825.207	9474.61
825.535	9468.28
825.862	9478.9
826.189	9454.72
826.516	9469.86
826.843	9452.24
827.17	9437.77
827.497	9440.26
827.824	9394.16
828.151	9447.72
828.478	9393.93
828.805	9467.15
829.131	9414.27
829.458	9421.28
829.785	9391.45
830.111	9381.28
830.438	9351.45
830.764	9375.86
831.09	9360.94
831.417	9311
831.743	9341.05
832.069	9395.52
832.395	9389.87
832.722	9356.65
833.048	9352.58
833.374	9316.65
833.7	9279.81
834.026	9357.32
834.351	9326.82
834.677	9316.42
835.003	9370.21
835.329	9301.28
835.654	9324.56
835.98	9205.24
836.306	9264.22
836.631	9250.43
836.956	9348.06
837.282	9231.68
837.607	9211.57
837.932	9202.53
838.258	9221.28
838.583	9132.02
838.908	9136.31
839.233	9137.9
839.558	9086.37
839.883	9101.74
840.208	9065.81
840.533	9054.51
840.858	9016.99
841.182	9081.85
841.507	8964.79
841.832	8974.96
842.156	8926.83
842.481	8960.72
842.805	8955.98
843.13	8939.26
843.454	8927.51
843.778	8907.62
844.103	8810.9
844.427	8849.77
844.751	8806.83
845.075	8792.37
845.399	8826.72
845.723	8681.18
846.047	8739.26
846.371	8670.11
846.695	8612.94
847.019	8567.06
847.343	8522.32
847.666	8548.98
847.99	8431.47
848.313	8388.08
848.637	8400.74
848.96	8363.9
849.284	8388.31
849.607	8321.87
849.931	8227.86
850.254	8263.34
850.577	8194.19
850.9	8205.72
851.223	8106.28
851.546	8067.41
851.869	8054.76
852.192	8094.08
852.515	8007.76
852.838	7931.83
853.161	8011.6
853.483	7957.81
853.806	7943.58
854.129	7888.44
854.451	7844.6
854.774	7834.88
855.096	7780.87
855.419	7745.16
855.741	7756.46
856.063	7687.09
856.385	7717.37
856.708	7652.28
857.03	7690.93
857.352	7663.58
857.674	7601.21
857.996	7615.9
858.318	7495.9
858.64	7524.38
858.961	7520.08
859.283	7467.66
859.605	7503.81
859.926	7515.57
860.248	7402.8
860.57	7435.34
860.891	7447.32
861.212	7373.42
861.534	7335.46
861.855	7391.5
862.176	7347.89
862.498	7384.04
862.819	7318.28
863.14	7330.49
863.461	7313.76
863.782	7284.84
864.103	7271.28
864.424	7249.81
864.745	7244.84
865.065	7232.63
865.386	7152.64
865.707	7150.38
866.027	7198.74
866.348	7212.97
866.668	7163.26
866.989	7199.64
867.309	7076.03
867.63	7135.24
867.95	7112.41
868.27	6998.97
868.59	7053.2
868.91	7084.16
869.23	7026.76
869.55	6930.5
869.87	7039.19
870.19	7009.14
870.51	6980.21
870.83	7088.46
871.15	6948.8
871.469	6918.29
871.789	6963.49
872.109	6964.85
872.428	6922.13
872.748	6916.26
873.067	6919.87
873.386	6892.98
873.706	6863.6
874.025	6854.79
874.344	6802.82
874.663	6885.07
874.982	6824.96
875.301	6803.04
875.62	6858.18
875.939	6808.47
876.258	6836.03
876.577	6737.05
876.896	6783.61
877.214	6744.51
877.533	6770.27
877.852	6756.71
878.17	6735.25
878.489	6723.27
878.807	6750.16
879.125	6709.94
879.444	6704.06
879.762	6650.73
880.08	6692.76
880.398	6649.37
880.716	6623.16
881.034	6618.87
881.352	6602.37
881.67	6597.4
881.988	6547.45
882.306	6597.4
882.624	6551.75
882.941	6549.04
883.259	6552.88
883.577	6535.7
883.894	6505.87
884.212	6460.9
884.529	6476.72
884.846	6444.63
885.164	6464.97
885.481	6420.9
885.798	6429.27
886.115	6349.95
886.432	6356.95
886.75	6326.44
887.067	6364.41
887.383	6322.38
887.7	6324.64
888.017	6303.17
888.334	6278.54
888.651	6269.95
888.967	6289.83
889.284	6237.86
889.6	6216.16
889.917	6173
890.233	6200.12
890.55	6152.66
890.866	6147.24
891.182	6168.48
891.498	6095.26
891.815	6138.65
892.131	6064.76
892.447	6045.1
892.763	6047.13
893.079	6009.84
893.395	6001.25
893.71	6027.02
894.026	6004.19
894.342	5984.98
894.657	5972.55
894.973	5918.54
895.289	5966.23
895.604	5848.26
895.92	5838.1
896.235	5817.53
896.55	5826.12
896.865	5796.06
897.181	5776.18
897.496	5786.12
897.811	5744.31
898.126	5751.09
898.441	5707.7
898.756	5685.1
899.071	5630.64
899.386	5671.09
899.7	5608.5
900.015	5611.21
900.33	5541.83
900.644	5533.47
900.959	5563.3
901.273	5527.82
901.588	5559.68
901.902	5434.04
902.216	5469.74
902.531	5432.46
902.845	5425.68
903.159	5384.1
903.473	5377.32
903.787	5389.07
904.101	5338.22
904.415	5359.92
904.729	5319.69
905.042	5264.55
905.356	5290.31
905.67	5298.22
905.984	5245.57
906.297	5274.27
906.611	5145.68
906.924	5182.97
907.237	5193.37
907.551	5153.59
907.864	5173.93
908.177	5115.63
908.491	5129.64
908.804	5116.98
909.117	5051.68
909.43	5018.68
909.743	5008.29
910.056	4997.44
910.368	4943.43
910.681	4973.71
910.994	4931.9
911.307	4910.66
911.619	4865.92
911.932	4908.18
912.244	4895.07
912.557	4863.21
912.869	4784.34
913.181	4802.19
913.494	4826.14
913.806	4751.57
914.118	4770.33
914.43	4724.45
914.742	4722.42
915.054	4695.75
915.366	4646.94
915.678	4655.08
915.99	4598.35
916.302	4570.33
916.613	4587.05
916.925	4603.55
917.236	4596.55
917.548	4521.52
917.859	4485.14
918.171	4493.05
918.482	4479.49
918.794	4453.72
919.105	4472.26
919.416	4424.12
919.727	4383.9
920.038	4439.71
920.349	4357.23
920.66	4401.75
920.971	4343.45
921.282	4343.22
921.593	4317.68
921.903	4288.08
922.214	4265.71
922.525	4299.83
922.835	4262.09
923.146	4238.14
923.456	4211.92
923.767	4193.39
924.077	4188.19
924.387	4210.79
924.697	4161.53
925.008	4149.33
925.318	4110.91
925.628	4116.11
925.938	4102.32
926.248	4056.45
926.558	4071.36
926.867	4030.91
927.177	4027.3
927.487	4007.18
927.796	3980.29
928.106	3968.09
928.416	3932.38
928.725	3908.2
929.034	3892.38
929.344	3913.63
929.653	3882.44
929.962	3880.41
930.271	3882.44
930.581	3857.36
930.89	3789.79
931.199	3781.2
931.508	3809.67
931.817	3767.42
932.125	3803.12
932.434	3723.8
932.743	3718.6
933.051	3668.66
933.36	3687.87
933.669	3694.65
933.977	3689.45
934.286	3635.44
934.594	3650.36
934.902	3629.11
935.21	3597.25
935.519	3557.48
935.827	3599.51
936.135	3535.33
936.443	3561.77
936.751	3507.31
937.059	3524.71
937.367	3506.86
937.674	3495.11
937.982	3486.29
938.29	3456.69
938.597	3475.67
938.905	3462.11
939.213	3419.85
939.52	3382.34
939.827	3387.54
940.135	3375.79
940.442	3350.25
940.749	3348.44
941.056	3372.4
941.363	3334.88
941.67	3322.46
941.977	3253.3
942.284	3260.99
942.591	3282.23
942.898	3237.71
943.205	3222.12
943.511	3237.26
943.818	3216.7
944.125	3174.21
944.431	3229.58
944.738	3203.81
945.044	3122.01
945.35	3125.17
945.657	3165.17
945.963	3125.85
946.269	3086.08
946.575	3108
946.881	3105.96
947.187	3072.29
947.493	3070.26
947.799	3076.59
948.105	3015.34
948.41	3052.63
948.716	2974.89
949.022	2996.14
949.327	2970.6
949.633	2956.36
949.938	2941.67
950.244	2982.58
950.549	2930.6
950.854	2915.91
951.16	2883.82
951.465	2917.04
951.77	2879.08
952.075	2886.53
952.38	2856.48
952.685	2851.96
952.99	2811.73
953.294	2833.88
953.599	2808.34
953.904	2798.63
954.209	2742.13
954.513	2791.17
954.818	2772.19
955.122	2758.63
955.426	2730.61
955.731	2728.12
956.035	2705.52
956.339	2714.34
956.643	2711.85
956.948	2685.64
957.252	2681.79
957.556	2672.3
957.86	2683.83
958.163	2664.62
958.467	2677.05
958.771	2608.12
959.075	2614
959.378	2637.05
959.682	2610.61
959.985	2585.53
960.289	2583.49
960.592	2565.19
960.896	2525.41
961.199	2536.26
961.502	2560.44
961.805	2517.5
962.108	2486.54
962.411	2465.53
962.714	2497.17
963.017	2475.25
963.32	2499.65
963.623	2460.33
963.926	2468.01
964.228	2424.4
964.531	2433.21
964.833	2404.29
965.136	2426.21
965.438	2381.91
965.741	2393.44
966.043	2368.36
966.345	2405.87
966.648	2373.55
966.95	2375.14
967.252	2373.33
967.554	2358.64
967.856	2332.65
968.158	2320.45
968.46	2285.65
968.761	2322.93
969.063	2291.3
969.365	2270.05
969.666	2287.68
969.968	2243.16
970.269	2247.23
970.571	2223.5
970.872	2249.04
971.174	2191.41
971.475	2204.97
971.776	2172.43
972.077	2175.37
972.378	2191.41
972.679	2189.15
972.98	2171.07
973.281	2136.27
973.582	2142.15
973.883	2142.15
974.183	2123.16
974.484	2136.27
974.785	2129.49
975.085	2112.54
975.386	2077.29
975.686	2088.14
975.986	2075.93
976.287	2047.23
976.587	2051.53
976.887	2061.92
977.187	2011.08
977.487	2068.02
977.787	2024.86
978.087	1984.86
978.387	2022.15
978.687	2000
978.987	1986.22
979.286	1986.22
979.586	1980.12
979.885	1978.08
980.185	1988.48
980.484	1947.8
980.784	1952.77
981.083	1946.9
981.382	1957.75
981.682	1937.63
981.981	1912.32
982.28	1903.74
982.579	1884.53
982.878	1888.82
983.177	1863.28
983.475	1882.27
983.774	1884.53
984.073	1868.48
984.372	1854.7
984.67	1848.82
984.969	1846.79
985.267	1795.49
985.566	1809.95
985.864	1806.56
986.162	1814.92
986.461	1785.55
986.759	1793.23
987.057	1793
987.355	1793.68
987.653	1794.13
987.951	1775.6
988.249	1742.84
988.547	1757.3
988.844	1734.7
989.142	1723.4
989.44	1707.81
989.737	1751.87
990.035	1694.25
990.332	1699.9
990.63	1712.1
990.927	1683.85
991.224	1690.63
991.521	1682.95
991.819	1633.23
992.116	1683.85
992.413	1635.49
992.71	1621.93
993.006	1636.4
993.303	1620.8
993.6	1667.36
993.897	1634.14
994.193	1607.92
994.49	1596.85
994.787	1583.29
995.083	1598.21
995.379	1565.21
995.676	1571.77
995.972	1603.18
996.268	1568.6
996.565	1532.22
996.861	1558.89
997.157	1546.46
997.453	1559.56
997.749	1522.28
998.044	1536.29
998.34	1506.68
998.636	1511.66
998.932	1510.75
999.227	1486.35
999.523	1488.6
999.818	1472.11
1000.114	1460.81
1000.409	1486.8
1000.704	1433.24
1001	1450.64
1001.295	1470.75
1001.59	1436.4
1001.885	1434.82
1002.18	1434.6
1002.475	1422.17
1002.77	1451.32
1003.065	1403.41
1003.359	1399.12
1003.654	1396.86
1003.949	1404.77
1004.243	1391.88
1004.538	1372.22
1004.832	1391.88
1005.127	1356.41
1005.421	1375.39
1005.715	1319.57
1006.009	1316.86
1006.304	1305.33
1006.598	1290.87
1006.892	1296.07
1007.186	1328.16
1007.48	1308.5
1007.773	1296.75
1008.067	1304.65
1008.361	1275.28
1008.655	1261.27
1008.948	1291.32
1009.242	1262.4
1009.535	1261.27
1009.829	1254.49
1010.122	1217.2
1010.415	1210.65
1010.708	1231.44
1011.001	1225.34
1011.295	1213.58
1011.588	1209.06
1011.881	1159.57
1012.173	1193.92
1012.466	1209.52
1012.759	1181.27
1013.052	1192.34
1013.344	1188.05
1013.637	1171.55
1013.93	1183.53
1014.222	1156.64
1014.514	1153.7
1014.807	1138.11
1015.099	1123.19
1015.391	1139.91
1015.683	1113.7
1015.976	1117.99
1016.268	1112.8
1016.56	1111.67
1016.851	1113.47
1017.143	1094.94
1017.435	1113.47
1017.727	1064.44
1018.018	1073.47
1018.31	1073.93
1018.602	1079.35
1018.893	1050.2
1019.185	1038.9
1019.476	1061.72
1019.767	1043.64
1020.058	1045.9
1020.35	1046.36
1020.641	1046.36
1020.932	1020.14
1021.223	999.8
1021.514	996.41
1021.804	995.28
1022.095	995.06
1022.386	989.86
1022.677	967.04
1022.967	982.18
1023.258	1006.81
1023.548	943.31
1023.839	977.43
1024.129	951.9
1024.419	963.65
1024.709	945.57
1025	949.41
1025.29	907.15
1025.58	931.11
1025.87	912.8
1026.16	929.3
1026.449	912.12
1026.739	903.31
1027.029	911.44
1027.319	892.01
1027.608	909.64
1027.898	905.8
1028.187	875.74
1028.477	890.88
1028.766	891.33
1029.055	847.49
1029.344	870.09
1029.634	841.62
1029.923	841.16
1030.212	855.63
1030.501	850.2
1030.79	834.16
1031.078	812.24
1031.367	813.59
1031.656	831.9
1031.945	837.77
1032.233	812.46
1032.522	802.97
1032.81	799.36
1033.099	793.03
1033.387	778.34
1033.675	786.02
1033.963	801.62
1034.251	776.53
1034.54	773.14
1034.828	768.85
1035.116	772.69
1035.403	758.91
1035.691	750.09
1035.979	763.65
1036.267	747.83
1036.554	746.93
1036.842	760.49
1037.129	761.62
1037.417	727.04
1037.704	716.65
1037.992	727.49
1038.279	747.61
1038.566	713.71
1038.853	713.71
1039.14	713.71
