Data from white_poster_card_FLMS001491_00008.txt Node
Date: Wed Feb 08 11:50:58 GMT 2017
User: dcchb
Spectrometer: FLMS00149
Trigger mode: 0
Integration Time (sec): 2.000000E-2
Scans to average: 10
Electric dark correction enabled: true
Nonlinearity correction enabled: false
Boxcar width: 0
XAxis mode: Wavelengths
Number of Pixels in Spectrum: 2048
>>>>>Begin Spectral Data<<<<<
341.393	-9.65
341.776	-9.65
342.16	-9.65
342.543	-79.93
342.927	-79.93
343.31	-74.73
343.693	-55.07
344.077	-66.59
344.46	-55.75
344.843	-62.98
345.226	-51.68
345.61	-29.53
345.993	-15.3
346.376	-12.13
346.759	5.95
347.142	27.19
347.525	45.49
347.908	60.86
348.291	76.23
348.674	95.89
349.057	112.16
349.44	116.9
349.823	133.4
350.206	172.27
350.588	194.87
350.971	241.19
351.354	236.22
351.737	255.21
352.119	256.34
352.502	268.31
352.884	276.22
353.267	294.07
353.65	288.42
354.032	310.57
354.414	312.15
354.797	330.23
355.179	313.06
355.562	311.47
355.944	311.7
356.326	330.68
356.709	366.84
357.091	341.98
357.473	337.91
357.855	334.53
358.238	350.8
358.62	348.99
359.002	331.59
359.384	332.94
359.766	363.68
360.148	379.5
360.53	334.75
360.912	328.2
361.294	356.45
361.676	335.2
362.057	336.11
362.439	343.11
362.821	339.95
363.203	351.47
363.584	341.53
363.966	341.08
364.348	323.23
364.729	338.59
365.111	340.17
365.493	329.55
365.874	304.24
366.256	341.98
366.637	328.42
367.019	301.76
367.4	331.14
367.781	338.82
368.163	313.96
368.544	317.35
368.925	307.41
369.306	309.44
369.688	309.67
370.069	309.22
370.45	303.57
370.831	308.54
371.212	325.71
371.593	321.87
371.974	334.3
372.355	337.01
372.736	334.3
373.117	331.59
373.498	320.97
373.879	318.25
374.26	324.13
374.641	323.23
375.021	330.68
375.402	323
375.783	320.06
376.163	349.44
376.544	358.03
376.925	341.53
377.305	343.34
377.686	345.37
378.066	345.82
378.447	350.34
378.827	354.41
379.208	341.53
379.588	343.79
379.968	355.54
380.349	329.55
380.729	357.12
381.109	366.84
381.489	356.67
381.87	369.1
382.25	350.57
382.63	330.23
383.01	362.09
383.39	380.85
383.77	372.26
384.15	349.44
384.53	356.45
384.91	388.53
385.29	375.43
385.67	377.24
386.049	371.59
386.429	380.85
386.809	375.43
387.189	378.82
387.568	374.07
387.948	400.29
388.328	361.42
388.707	388.53
389.087	398.03
389.466	394.64
389.846	399.16
390.225	397.57
390.605	419.95
390.984	398.93
391.363	407.07
391.743	420.85
392.122	410
392.501	420.85
392.881	406.84
393.26	420.4
393.639	440.51
394.018	434.86
394.397	433.28
394.776	406.84
395.155	443.9
395.534	447.97
395.913	428.53
396.292	423.11
396.671	437.35
397.05	445.26
397.429	433.05
397.808	445.93
398.186	457.23
398.565	468.31
398.944	460.17
399.323	457.23
399.701	474.63
400.08	489.1
400.458	478.02
400.837	476.22
401.215	499.04
401.594	486.39
401.972	483
402.351	484.58
402.729	516.44
403.107	493.84
403.486	497.23
403.864	502.43
404.242	513.96
404.62	527.97
404.999	518.25
405.377	511.7
405.755	546.04
406.133	543.33
406.511	558.02
406.889	551.47
407.267	573.39
407.645	568.64
408.023	590.79
408.401	595.76
408.779	596.67
409.156	608.19
409.534	605.7
409.912	638.02
410.29	628.3
410.667	648.64
411.045	659.71
411.422	683.44
411.8	698.36
412.178	689.32
412.555	709.43
412.933	705.14
413.31	754.4
413.687	754.4
414.065	783.78
414.442	793.04
414.819	812.93
415.197	819.94
415.574	828.3
415.951	831.46
416.328	863.32
416.705	871.23
417.082	906.26
417.46	922.31
417.837	932.02
418.214	936.32
418.591	968.41
418.967	955.98
419.344	993.94
419.721	1013.38
420.098	1023.32
420.475	1045.24
420.852	1065.13
421.228	1064.45
421.605	1091.57
421.982	1093.6
422.358	1111.45
422.735	1131.57
423.111	1147.84
423.488	1190.1
423.864	1180.15
424.241	1211.79
424.617	1219.93
424.994	1243.43
425.37	1261.28
425.746	1273.48
426.123	1270.77
426.499	1286.14
426.875	1303.99
427.251	1357.32
427.627	1380.6
428.003	1383.31
428.379	1407.04
428.756	1453.37
429.132	1438.9
429.507	1482.07
429.883	1467.38
430.259	1499.69
430.635	1520.03
431.011	1546.02
431.387	1594.6
431.763	1613.14
432.138	1599.8
432.514	1633.7
432.89	1660.14
433.265	1669.18
433.641	1729.52
434.016	1719.57
434.392	1750.31
434.767	1787.59
435.143	1838.44
435.518	1827.59
435.894	1828.72
436.269	1875.95
436.644	1872.56
437.02	1931.32
437.395	1922.28
437.77	1969.28
438.145	1973.35
438.52	1951.88
438.895	2017.19
439.271	2028.94
439.646	2076.4
440.021	2099
440.395	2083.63
440.77	2054.03
441.145	2131.99
441.52	2139
441.895	2150.07
442.27	2155.27
442.645	2164.76
443.019	2201.82
443.394	2204.31
443.769	2226.45
444.143	2205.21
444.518	2224.19
444.892	2271.42
445.267	2236.85
445.641	2313.91
446.016	2297.86
446.39	2316.85
446.764	2327.47
447.139	2336.73
447.513	2378.77
447.887	2375.83
448.262	2416.28
448.636	2411.31
449.01	2456.28
449.384	2489.04
449.758	2463.06
450.132	2523.17
450.506	2478.42
450.88	2547.8
451.254	2496.05
451.628	2591.41
452.002	2591.87
452.376	2632.09
452.75	2636.39
453.123	2673.67
453.497	2702.82
453.871	2716.16
454.244	2762.26
454.618	2826.21
454.992	2828.47
455.365	2767
455.739	2888.58
456.112	2939.65
456.486	2920.22
456.859	2957.28
457.232	3044.06
457.606	3008.35
457.979	3044.74
458.352	3131.29
458.725	3148.69
459.099	3181.68
459.472	3241.57
459.845	3242.92
460.218	3303.71
460.591	3327.89
460.964	3334.9
461.337	3400.66
461.71	3465.06
462.083	3469.58
462.456	3510.03
462.829	3526.31
463.201	3588
463.574	3576.25
463.947	3651.5
464.32	3736.92
464.692	3750.03
465.065	3762.68
465.438	3842.23
465.81	3913.64
466.183	3970.36
466.555	4004.49
466.928	3981.66
467.3	4052.85
467.672	4101.21
468.045	4194.99
468.417	4199.73
468.789	4257.13
469.161	4289.9
469.534	4345.49
469.906	4486.05
470.278	4533.28
470.65	4572.15
471.022	4637.91
471.394	4708.65
471.766	4724.24
472.138	4758.82
472.51	4894.63
472.882	4974.63
473.253	5025.02
473.625	5072.93
473.997	5197.67
474.369	5183.44
474.74	5264.11
475.112	5379.14
475.484	5431.11
475.855	5516.31
476.227	5621.17
476.598	5744.1
476.97	5777.09
477.341	5888.28
477.713	5980.25
478.084	5998.33
478.455	6197.2
478.827	6222.51
479.198	6404.42
479.569	6410.75
479.94	6626.11
480.311	6646.9
480.682	6822.72
481.053	6894.8
481.424	7078.75
481.795	7138.19
482.166	7219.54
482.537	7319.88
482.908	7407.79
483.279	7533.21
483.65	7706.99
484.021	7820.88
484.391	7920.54
484.762	8030.82
485.133	8104.72
485.503	8152.62
485.874	8320.98
486.244	8406.86
486.615	8533.86
486.985	8682.33
487.356	8801.87
487.726	9012.49
488.097	9129.77
488.467	9101.07
488.837	9249.77
489.207	9390.33
489.578	9581.51
489.948	9631.46
490.318	9770.89
490.688	9893.82
491.058	9961.62
491.428	10159.35
491.798	10231.89
492.168	10383.53
492.538	10490.19
492.908	10546.91
493.278	10741.94
493.648	10780.58
494.017	10849.95
494.387	10997.52
494.757	11095.6
495.126	11212.21
495.496	11305.08
495.866	11337.63
496.235	11467.34
496.605	11651.74
496.974	11757.5
497.344	11768.57
497.713	11876.82
498.082	11983.71
498.452	12023.26
498.821	12143.93
499.19	12206.98
499.559	12353.42
499.928	12371.27
500.298	12493.08
500.667	12637.03
501.036	12539.85
501.405	12788.43
501.774	12773.29
502.143	12905.27
502.512	12916.12
502.88	13023.01
503.249	12991.14
503.618	13248.31
503.987	13258.71
504.356	13350.45
504.724	13488.53
505.093	13622.31
505.462	13671.8
505.83	13727.17
506.199	13820.05
506.567	13980.95
506.936	13983.88
507.304	14222.52
507.672	14295.97
508.041	14347.72
508.409	14378.9
508.777	14583.42
509.145	14660.93
509.514	14653.92
509.882	14810.75
510.25	14876.74
510.618	15025.44
510.986	15101.37
511.354	15230.86
511.722	15427.46
512.09	15518.53
512.458	15498.42
512.826	15708.36
513.193	15800.56
513.561	15754.68
513.929	16075.58
514.297	16185.63
514.664	16359.41
515.032	16345.86
515.4	16436.93
515.767	16592.63
516.135	16631.95
516.502	16629.69
516.869	16951.49
517.237	16999.4
517.604	16933.64
517.972	17247.98
518.339	17351.7
518.706	17340.63
519.073	17460.4
519.44	17634.64
519.808	17787.4
520.175	17848.64
520.542	18123.44
520.909	18206.37
521.276	18218.8
521.643	18479.13
522.009	18545.8
522.376	18752.12
522.743	18815.85
523.11	18967.26
523.477	19115.5
523.843	19322.5
524.21	19452.21
524.577	19620.12
524.943	19718.87
525.31	19929.94
525.676	20060.33
526.043	20219.2
526.409	20254.68
526.776	20599.53
527.142	20531.96
527.508	20696.02
527.874	20929.92
528.241	21009.69
528.607	21058.27
528.973	21242.9
529.339	21316.57
529.705	21572.38
530.071	21747.3
530.437	21829.55
530.803	21903.68
531.169	22128.98
531.535	22164.46
531.901	22153.16
532.267	22426.15
532.632	22548.4
532.998	22594.28
533.364	22783.2
533.73	22905.68
534.095	22950.88
534.461	23092.57
534.826	23161.04
535.192	23268.61
535.557	23401.72
535.923	23410.08
536.288	23604.87
536.653	23690.52
537.019	23626.79
537.384	23806.45
537.749	23896.17
538.114	24056.39
538.479	24048.25
538.845	24152.66
539.21	24158.31
539.575	24365.98
539.94	24408.02
540.305	24605.75
540.67	24558.75
541.034	24734.79
541.399	24770.94
541.764	24876.48
542.129	24887.55
542.494	24964.61
542.858	25146.53
543.223	25157.83
543.587	25447.54
543.952	25297.48
544.316	25440.76
544.681	25489.12
545.045	25664.25
545.41	25824.48
545.774	25884.14
546.138	25742.9
546.503	25937.02
546.867	26056.11
547.231	26341.75
547.595	26257.91
547.959	26455.42
548.324	26402.99
548.688	26446.61
549.052	26533.16
549.416	26760.72
549.779	26694.51
550.143	26763.66
550.507	26881.4
550.871	27131.79
551.235	27190.32
551.599	27302.63
551.962	27349.41
552.326	27534.71
552.689	27660.81
553.053	27529.97
553.417	27630.08
553.78	27996.17
554.143	27988.04
554.507	28071.65
554.87	28156.84
555.234	28335.14
555.597	28384.86
555.96	28460.11
556.323	28527.91
556.686	28762.48
557.05	28896.03
557.413	29066.2
557.776	29031.4
558.139	29206.99
558.502	29181.22
558.865	29411.95
559.228	29530.59
559.59	29628.22
559.953	29797.03
560.316	30070.24
560.679	30065.49
561.041	30225.04
561.404	30388.88
561.767	30627.97
562.129	30539.61
562.492	30977.79
562.854	30890.78
563.217	30925.81
563.579	31063.21
563.941	31208.29
564.304	31399.25
564.666	31570.09
565.028	31643.76
565.39	31817.99
565.753	31887.59
566.115	31992.9
566.477	32231.77
566.839	32316.51
567.201	32468.82
567.563	32514.92
567.925	32860.22
568.287	32902.26
568.648	32890.28
569.01	33171.63
569.372	33316.26
569.734	33209.37
570.095	33325.3
570.457	33524.16
570.819	33685.74
571.18	33686.64
571.542	33823.36
571.903	33991.27
572.265	34111.49
572.626	34181.54
572.987	34354.2
573.349	34342.44
573.71	34434.65
574.071	34582.89
574.432	34653.85
574.794	34882.77
575.155	34884.58
575.516	34793.96
575.877	35087.51
576.238	35214.06
576.599	35064.69
576.96	35178.35
577.32	35219.94
577.681	35387.61
578.042	35473.04
578.403	35439.59
578.763	35501.96
579.124	35492.24
579.485	35567.05
579.845	35786.7
580.206	35611.79
580.566	35767.49
580.927	35854.95
581.287	35906.47
581.648	35729.75
582.008	35978.33
582.368	35960.71
582.728	35961.84
583.089	35966.81
583.449	36000.48
583.809	36056.98
584.169	36066.47
584.529	35981.05
584.889	36287.03
585.249	36006.36
585.609	35893.59
585.969	36282.05
586.329	36086.35
586.688	36229.63
587.048	36108.27
587.408	36090.42
587.768	36026.24
588.127	36057.65
588.487	36040.48
588.846	36365.22
589.206	36080.03
589.565	36054.49
589.925	36401.83
590.284	36205.22
590.643	36289.06
591.003	36270.08
591.362	36365.67
591.721	36346.01
592.08	36308.95
592.44	36302.39
592.799	36432.56
593.158	36307.36
593.517	36327.03
593.876	36419.45
594.235	36357.53
594.593	36270.08
594.952	36407.93
595.311	36307.82
595.67	36397.31
596.029	36667.58
596.387	36760.46
596.746	36691.08
597.104	36437.76
597.463	36362.96
597.822	36678.88
598.18	36503.52
598.538	36508.49
598.897	36708.48
599.255	36257.2
599.613	36999.32
599.972	36689.28
600.33	36833
600.688	36628.49
601.046	36908.25
601.404	36933.56
601.762	36886.78
602.12	37131.3
602.478	37080.23
602.836	37111.64
603.194	36961.36
603.552	37046.1
603.91	36920.46
604.268	37126.1
604.625	36903.96
604.983	37051.53
605.341	37023.5
605.698	37158.87
606.056	37315.02
606.413	37254.68
606.771	37332.65
607.128	37363.16
607.485	37249.71
607.843	37287.9
608.2	37562.92
608.557	37606.54
608.914	37498.97
609.272	37705.97
609.629	37653.54
609.986	37835.69
610.343	37669.81
610.7	37988.9
611.057	37763.6
611.414	37779.64
611.771	37880.66
612.127	37912.52
612.484	37959.98
612.841	38079.52
613.198	37957.49
613.554	37955.68
613.911	38216.92
614.267	38152.51
614.624	38223.02
614.98	38235.22
615.337	38356.12
615.693	38273.41
616.05	38178.5
616.406	38470.25
616.762	38412.17
617.118	38388.89
617.475	38422.11
617.831	38446.07
618.187	38492.62
618.543	38570.81
618.899	38727.41
619.255	38609.22
619.611	38504.59
619.967	38637.47
620.323	38792.72
620.678	38552.73
621.034	38480.19
621.39	38556.12
621.746	38366.97
622.101	38868.88
622.457	38471.6
622.812	38555.22
623.168	38747.3
623.523	38799.28
623.879	38874.3
624.234	38699.39
624.589	38773.74
624.945	38674.53
625.3	38870.24
625.655	38763.35
626.01	38736
626.365	38675.21
626.72	38640.64
627.075	38721.31
627.43	38632.5
627.785	38561.77
628.14	38612.84
628.495	38703.46
628.85	38618.72
629.205	38530.81
629.559	38736.23
629.914	38557.7
630.269	38580.75
630.623	38452.17
630.978	38291.49
631.332	38396.35
631.687	38622.33
632.041	38336.24
632.396	38519.06
632.75	38183.93
633.104	38399.51
633.459	38092.18
633.813	38175.34
634.167	38105.51
634.521	38120.88
634.875	38049.01
635.229	38075.23
635.583	37820.32
635.937	37837.72
636.291	37884.27
636.645	37913.65
636.999	37744.84
637.352	37742.13
637.706	37590.49
638.06	37713.66
638.413	37662.13
638.767	37614
639.121	37581.46
639.474	37324.96
639.828	37405.19
640.181	37391.4
640.534	37376.71
640.888	37330.16
641.241	37019.44
641.594	37190.96
641.947	37282.03
642.301	37105.76
642.654	37145.99
643.007	37164.74
643.36	37101.02
643.713	37009.49
644.066	37055.59
644.419	36885.65
644.771	36630.29
645.124	36395.27
645.477	36296.07
645.83	36045.22
646.182	35848.62
646.535	35736.08
646.888	35790.09
647.24	35577.44
647.593	35776.31
647.945	35698.34
648.298	35546.48
648.65	35254.74
649.002	35351.91
649.355	35415.18
649.707	35462.87
650.059	35536.31
650.411	35851.56
650.763	35909.41
651.115	36351.43
651.467	36149.18
651.819	36104.21
652.171	36001.61
652.523	35896.08
652.875	35953.48
653.227	35763.88
653.578	35992.57
653.93	35855.17
654.282	35629.87
654.633	35684.78
654.985	35830.09
655.337	35771.79
655.688	35642.52
656.039	35827.15
656.391	35553.94
656.742	35499.93
657.094	35493.6
657.445	35684.78
657.796	35697.66
658.147	35483.21
658.498	35470.32
658.849	35555.97
659.2	35522.98
659.551	35411.57
659.902	35431
660.253	35460.83
660.604	35379.71
660.955	35228.07
661.306	35277.11
661.656	35203.44
662.007	35285.7
662.358	35262.42
662.708	35231.91
663.059	35242.08
663.409	34979.72
663.76	35303.32
664.11	35195.98
664.461	35187.62
664.811	35148.07
665.161	35212.93
665.511	35103.55
665.862	35107.85
666.212	35163.21
666.562	35235.53
666.912	35089.32
667.262	35097
667.612	34994.63
667.962	35135.64
668.312	34904.24
668.662	35103.33
669.011	35020.84
669.361	34984.46
669.711	34940.85
670.06	34928.64
670.41	34698.37
670.76	34651.59
671.109	34802.55
671.459	34747.63
671.808	34695.66
672.157	34763.45
672.507	34559.39
672.856	34458.15
673.205	34626.96
673.554	34621.53
673.904	34561.42
674.253	34813.17
674.602	34475.1
674.951	34165.27
675.3	33923.7
675.649	34445.49
675.998	34413.4
676.346	34401.65
676.695	34587.18
677.044	34279.62
677.393	34332.05
677.741	34300.19
678.09	34180.41
678.438	34153.75
678.787	34191.26
679.135	34268.1
679.484	33951.49
679.832	34091.15
680.181	33804.61
680.529	34026.52
680.877	33835.57
681.225	33704.72
681.573	33944.71
681.922	33770.03
682.27	33663.82
682.618	33685.29
682.966	33606.42
683.314	33739.97
683.661	33557.61
684.009	33404.62
684.357	33340.89
684.705	33334.34
685.053	33457.27
685.4	33269.7
685.748	33123.04
686.095	33057.96
686.443	33118.75
686.79	32953.33
687.138	33011.41
687.485	32845.99
687.832	32791.75
688.18	32783.84
688.527	32676.5
688.874	32598.54
689.221	32487.8
689.568	32410.97
689.915	32366
690.262	32317.86
690.609	32213.91
690.956	32049.17
691.303	32130.07
691.65	31963.3
691.997	31979.79
692.344	31720.82
692.69	31647.83
693.037	31684.89
693.383	31400.15
693.73	31580.03
694.077	31448.28
694.423	31387.49
694.769	31285.58
695.116	31202.19
695.462	31059.82
695.808	31070.67
696.155	31065.02
696.501	30874.97
696.847	30854.85
697.193	30607.85
697.539	30738.92
697.885	30631.13
698.231	30331.93
698.577	30413.28
698.923	30466.39
699.269	30245.83
699.614	30062.33
699.96	30067.75
700.306	30047.19
700.651	29832.28
700.997	29713.41
701.342	29769.68
701.688	29605.85
702.033	29623.7
702.379	29513.19
702.724	29440.88
703.069	29446.53
703.415	29139.42
703.76	29183.26
704.105	29217.83
704.45	29011.06
704.795	28968.12
705.14	28918.18
705.485	28898.75
705.83	28824.4
706.175	28817.62
706.52	28554.57
706.865	28511.64
707.209	28400.91
707.554	28458.53
707.899	28386.89
708.243	28274.58
708.588	28251.53
708.932	28044.98
709.277	28006.11
709.621	28028.49
709.966	27878.89
710.31	27931.09
710.654	27650.42
710.998	27724.54
711.342	27667.59
711.687	27565
712.031	27484.09
712.375	27428.95
712.719	27409.07
713.063	27400.71
713.407	27485.9
713.75	27299.92
714.094	27245.23
714.438	27095.4
714.782	27209.75
715.125	27130.43
715.469	27143.31
715.812	26946.93
716.156	26798.01
716.499	26811.34
716.843	26886.6
717.186	26598.92
717.53	26710.1
717.873	26741.97
718.216	26625.13
718.559	26570.45
718.902	26429.21
719.246	26439.6
719.589	26426.49
719.932	26177.46
720.275	26204.13
720.617	26231.92
720.96	26272.37
721.303	26144.24
721.646	26099.27
721.989	25827.64
722.331	26117.58
722.674	25931.14
723.016	25965.49
723.359	25873.06
723.701	25835.1
724.044	25769.56
724.386	25630.81
724.729	25642.56
725.071	25621.54
725.413	25575.9
725.755	25463.81
726.097	25364.38
726.439	25351.27
726.782	25379.06
727.124	25517.82
727.465	25318.73
727.807	25245.51
728.149	25139.97
728.491	25153.76
728.833	25193.76
729.175	25003.93
729.516	24985.18
729.858	24984.27
730.199	25071.05
730.541	24941.79
730.882	24859.08
731.224	24892.75
731.565	24674
731.906	24757.39
732.248	24725.75
732.589	24631.51
732.93	24535.24
733.271	24440.78
733.612	24612.76
733.953	24651.63
734.294	24528.47
734.635	24372.09
734.976	24347
735.317	24268.59
735.658	24285.53
735.999	24189.72
736.339	24147.01
736.68	24311.75
737.021	24130.51
737.361	24074.24
737.702	24165.99
738.042	24030.63
738.383	23984.52
738.723	24074.69
739.063	23939.55
739.404	23942.49
739.744	23826.11
740.084	23711.54
740.424	23886.22
740.764	23803.96
741.104	23835.6
741.444	23743.85
741.784	23597.19
742.124	23597.42
742.464	23584.08
742.804	23529.4
743.143	23420.7
743.483	23440.36
743.823	23276.75
744.162	23287.14
744.502	23401.04
744.841	23322.4
745.181	23313.13
745.52	23155.17
745.86	23217.31
746.199	23151.55
746.538	23069.07
746.877	23170.99
747.216	23048.5
747.556	23032.46
747.895	22950.65
748.234	22789.08
748.573	22938.45
748.911	22766.48
749.25	22853.93
749.589	22700.94
749.928	22744.11
750.267	22562.19
750.605	22618.68
750.944	22606.48
751.283	22598.8
751.621	22492.36
751.96	22374.62
752.298	22416.66
752.636	22368.07
752.975	22318.58
753.313	22155.65
753.651	22248.3
753.989	22186.83
754.327	22128.08
754.666	22009.44
755.004	22049.21
755.342	22079.26
755.679	21869.78
756.017	21802.89
756.355	21932.83
756.693	21860.06
757.031	21684.7
757.368	21575.77
757.706	21561.76
758.044	21546.62
758.381	21535.55
758.719	21439.05
759.056	21523.35
759.394	21349.57
759.731	21200.87
760.068	21294.88
760.405	21058.95
760.743	21058.73
761.08	21078.39
761.417	20962.01
761.754	20954.55
762.091	20806.53
762.428	20848.56
762.765	20751.62
763.102	20740.32
763.438	20627.32
763.775	20438.4
764.112	20561.11
764.449	20483.83
764.785	20333.55
765.122	20216.04
765.458	20243.83
765.795	20155.47
766.131	20127.68
766.467	20031.86
766.804	19927.91
767.14	19807.01
767.476	19788.25
767.812	19655.15
768.148	19748.03
768.485	19648.37
768.821	19567.24
769.157	19466.45
769.492	19462.38
769.828	19476.17
770.164	19176.06
770.5	19121.15
770.836	19193.46
771.171	19032.79
771.507	19020.36
771.842	18860.37
772.178	18874.15
772.513	18833.25
772.849	18765.68
773.184	18593.48
773.519	18654.72
773.855	18481.84
774.19	18462.18
774.525	18401.62
774.86	18314.62
775.195	18320.72
775.53	18352.36
775.865	18094.28
776.2	18109.65
776.535	17944.91
776.87	17909.43
777.205	17928.41
777.539	17833.05
777.874	17783.56
778.209	17618.82
778.543	17629.89
778.878	17512.83
779.212	17549.44
779.547	17427.41
779.881	17426.96
780.215	17250.92
780.55	17380.4
780.884	17211.82
781.218	17128.21
781.552	17087.76
781.886	17078.49
782.22	16923.92
782.554	16921.21
782.888	16743.13
783.222	16667.43
783.556	16683.02
783.889	16620.88
784.223	16516.25
784.557	16377.04
784.89	16503.37
785.224	16368.68
785.557	16301.56
785.891	16240.32
786.224	16284.84
786.558	16247.1
786.891	16011.4
787.224	16046.2
787.557	16002.59
787.891	15925.08
788.224	15892.08
788.557	15895.02
788.89	15800.11
789.223	15779.99
789.556	15624.52
789.888	15653.22
790.221	15624.97
790.554	15423.17
790.887	15496.61
791.219	15344.07
791.552	15418.2
791.884	15236.28
792.217	15260.69
792.549	15173.68
792.882	15125.1
793.214	15022.05
793.546	15110.41
793.879	15050.3
794.211	14864.54
794.543	14885.55
794.875	14899.57
795.207	15014.82
795.539	14808.27
795.871	14772.11
796.203	14692.79
796.535	14569.63
796.867	14584.32
797.198	14520.82
797.53	14490.09
797.862	14387.71
798.193	14480.82
798.525	14267.94
798.856	14424.55
799.188	14182.3
799.519	14144.56
799.85	14082.86
800.182	14088.74
800.513	14055.75
800.844	13908.86
801.175	13988.18
801.506	13969.65
801.837	13861.18
802.168	13820.95
802.499	13698.47
802.83	13663.44
803.161	13693.72
803.491	13591.8
803.822	13582.09
804.153	13475.2
804.483	13451.24
804.814	13394.07
805.145	13376.89
805.475	13401.98
805.805	13321.98
806.136	13353.17
806.466	13300.74
806.796	13230.01
807.126	13159.95
807.457	13129.22
807.787	13162.89
808.117	13052.83
808.447	13023.68
808.777	13073.4
809.107	12992.95
809.436	12980.07
809.766	12891.48
810.096	12924.25
810.426	12865.04
810.755	12872.05
811.085	12806.97
811.414	12769.23
811.744	12622.11
812.073	12642
812.403	12579.4
812.732	12587.76
813.061	12489.01
813.39	12537.82
813.719	12491.04
814.049	12504.37
814.378	12416.24
814.707	12322.23
815.036	12399.97
815.365	12305.74
815.693	12231.84
816.022	12221.22
816.351	12216.02
816.68	12148.68
817.008	12245.85
817.337	12044.95
817.665	12066.87
817.994	12069.81
818.322	12080.88
818.651	12055.8
818.979	11909.81
819.307	11981.22
819.636	11936.93
819.964	11903.03
820.292	11971.96
820.62	11859.19
820.948	11893.54
821.276	11925.18
821.604	11790.5
821.932	11797.95
822.259	11865.52
822.587	11827.33
822.915	11738.97
823.243	11869.36
823.57	11760.44
823.898	11777.84
824.225	11769.03
824.553	11761.8
824.88	11751.63
825.207	11835.92
825.535	11787.11
825.862	11773.55
826.189	11699.65
826.516	11754.56
826.843	11818.06
827.17	11822.58
827.497	11723.83
827.824	11799.53
828.151	11813.55
828.478	11797.05
828.805	11831.62
829.131	11689.48
829.458	11752.98
829.785	11717.5
830.111	11755.02
830.438	11786.65
830.764	11718.18
831.09	11778.29
831.417	11664.4
831.743	11738.07
832.069	11712.76
832.395	11684.28
832.722	11718.63
833.048	11645.64
833.374	11651.97
833.7	11596.15
834.026	11626.21
834.351	11668.01
834.677	11637.73
835.003	11637.28
835.329	11603.83
835.654	11630.05
835.98	11473.22
836.306	11531.29
836.631	11455.36
836.956	11454.91
837.282	11514.34
837.607	11418.3
837.932	11373.1
838.258	11369.49
838.583	11402.93
838.908	11340.34
839.233	11341.69
839.558	11314.12
839.883	11288.81
840.208	11252.43
840.533	11242.94
840.858	11238.65
841.182	11246.33
841.507	11204.07
841.832	11110.74
842.156	11165.65
842.481	11110.29
842.805	11109.83
843.13	11105.77
843.454	11056.28
843.778	11045.88
844.103	11035.03
844.427	11023.28
844.751	10976.96
845.075	10889.28
845.399	10894.02
845.723	10889.73
846.047	10811.31
846.371	10739
846.695	10823.51
847.019	10620.36
847.343	10641.37
847.666	10559.12
847.99	10631.2
848.313	10488.16
848.637	10493.35
848.96	10470.3
849.284	10404.54
849.607	10393.7
849.931	10396.18
850.254	10169.07
850.577	10177.2
850.9	10153.25
851.223	10141.5
851.546	10115.06
851.869	10075.06
852.192	10047.94
852.515	9949.19
852.838	9894.05
853.161	9941.28
853.483	9922.52
853.806	9843.2
854.129	9882.07
854.451	9750.77
854.774	9730.44
855.096	9712.36
855.419	9687.5
855.741	9680.49
856.063	9620.16
856.385	9589.42
856.708	9529.09
857.03	9515.3
857.352	9563.21
857.674	9501.74
857.996	9456.77
858.318	9377.9
858.64	9399.37
858.961	9337.68
859.283	9366.15
859.605	9288.87
859.926	9353.72
860.248	9231.01
860.57	9277.57
860.891	9299.04
861.212	9213.39
861.534	9205.25
861.855	9193.28
862.176	9137.68
862.498	9108.08
862.819	9119.6
863.14	9085.48
863.461	9086.84
863.782	9034.86
864.103	9082.77
864.424	9038.48
864.745	9045.48
865.065	8974.52
865.386	8953.51
865.707	8907.18
866.027	8963.22
866.348	8949.89
866.668	8911.25
866.989	8835.77
867.309	8795.77
867.63	8805.26
867.95	8797.13
868.27	8726.62
868.59	8793.06
868.91	8808.43
869.23	8750.35
869.55	8725.72
869.87	8772.27
870.19	8668.09
870.51	8697.24
870.83	8726.85
871.15	8635.78
871.469	8694.53
871.789	8662.22
872.109	8631.93
872.428	8575.21
872.748	8574.31
873.067	8565.72
873.386	8587.42
873.706	8618.6
874.025	8534.08
874.344	8490.24
874.663	8530.69
874.982	8495.44
875.301	8497.93
875.62	8420.64
875.939	8401.66
876.258	8506.74
876.577	8389
876.896	8424.26
877.214	8368.21
877.533	8440.07
877.852	8380.19
878.17	8386.06
878.489	8374.09
878.807	8337.93
879.125	8353.98
879.444	8299.51
879.762	8269.91
880.08	8320.53
880.398	8244.37
880.716	8248.44
881.034	8188.78
881.352	8224.94
881.67	8259.06
881.988	8158.73
882.306	8163.02
882.624	8223.36
882.941	8090.48
883.259	8084.15
883.577	8081.67
883.894	8067.2
884.212	8078.28
884.529	7982.69
884.846	8020.88
885.164	8016.81
885.481	7963.7
885.798	7948.11
886.115	7978.17
886.432	7910.37
886.75	7870.82
887.067	7842.58
887.383	7868.34
887.7	7802.58
888.017	7812.97
888.334	7857.04
888.651	7848.68
888.967	7802.58
889.284	7787.44
889.6	7729.13
889.917	7706.08
890.233	7660.66
890.55	7678.29
890.866	7682.81
891.182	7588.12
891.498	7542.02
891.815	7600.55
892.131	7556.48
892.447	7483.26
892.763	7466.09
893.079	7450.5
893.395	7467.44
893.71	7444.39
894.026	7413.66
894.342	7401.46
894.657	7284.4
894.973	7305.87
895.289	7324.17
895.604	7297.51
895.92	7196.27
896.235	7233.78
896.55	7210.5
896.865	7187
897.181	7172.09
897.496	7119.21
897.811	7137.28
898.126	7091.64
898.441	7070.85
898.756	7068.36
899.071	7039.89
899.386	6962.15
899.7	6944.75
900.015	6906.78
900.33	6858.2
900.644	6855.94
900.959	6878.31
901.273	6831.53
901.588	6831.53
901.902	6761.25
902.216	6750.63
902.531	6755.15
902.845	6688.03
903.159	6696.84
903.473	6641.03
903.787	6633.79
904.101	6546.57
904.415	6571.65
904.729	6556.28
905.042	6502.95
905.356	6483.06
905.67	6526.23
905.984	6494.14
906.297	6451.2
906.611	6433.12
906.924	6384.76
907.237	6350.64
907.551	6336.85
907.864	6335.72
908.177	6298.66
908.491	6281.49
908.804	6255.27
909.117	6211.88
909.43	6191.55
909.743	6214.14
910.056	6147.71
910.368	6120.36
910.681	6135.95
910.994	6037.65
911.307	6024.54
911.619	6067.48
911.932	6050.31
912.244	6014.38
912.557	5982.06
912.869	5946.35
913.181	5882.63
913.494	5848.96
913.806	5840.82
914.118	5850.54
914.43	5787.04
914.742	5832.46
915.054	5796.53
915.366	5719.47
915.678	5729.19
915.99	5693.03
916.302	5640.6
916.613	5674.05
916.925	5620.26
917.236	5618.68
917.548	5618.45
917.859	5591.11
918.171	5547.95
918.482	5542.75
918.794	5530.32
919.105	5500.72
919.416	5427.72
919.727	5464.79
920.038	5429.76
920.349	5394.51
920.66	5368.74
920.971	5369.87
921.282	5312.02
921.593	5319.03
921.903	5266.15
922.214	5224.57
922.525	5218.69
922.835	5211.68
923.146	5190.22
923.456	5185.92
923.767	5171.46
924.077	5105.7
924.387	5145.7
924.697	5089.43
925.008	5069.09
925.318	5086.72
925.628	5057.79
925.938	5031.58
926.248	4972.37
926.558	4965.82
926.867	4932.82
927.177	4933.5
927.487	4864.8
927.796	4861.19
928.106	4856.21
928.416	4866.38
928.725	4843.56
929.034	4790.23
929.344	4804.46
929.653	4789.78
929.962	4761.98
930.271	4721.53
930.581	4685.6
930.89	4714.07
931.199	4649.89
931.508	4654.64
931.817	4656.67
932.125	4677.69
932.434	4585.71
932.743	4543.23
933.051	4540.06
933.36	4513.17
933.669	4488.77
933.977	4493.96
934.286	4453.96
934.594	4441.31
934.902	4408.99
935.21	4412.84
935.519	4418.49
935.827	4433.4
936.135	4339.84
936.443	4291.48
936.751	4319.73
937.059	4293.52
937.367	4260.98
937.674	4271.14
937.982	4254.65
938.29	4237.02
938.597	4196.12
938.905	4147.08
939.213	4138.94
939.52	4171.71
939.827	4171.94
940.135	4118.15
940.442	4103.24
940.749	4112.05
941.056	4093.97
941.363	4030.25
941.67	4015.33
941.977	4024.37
942.284	3930.59
942.591	3973.75
942.898	3963.58
943.205	3962
943.511	3946.41
943.818	3922.45
944.125	3931.04
944.431	3915.67
944.738	3865.28
945.044	3840.42
945.35	3803.81
945.657	3793.42
945.963	3815.11
946.269	3798.84
946.575	3777.6
946.881	3786.64
947.187	3748.9
947.493	3748.9
947.799	3715.91
948.105	3674.32
948.41	3689.92
948.716	3653.31
949.022	3636.36
949.327	3613.08
949.633	3618.73
949.938	3597.04
950.244	3602.46
950.549	3579.64
950.854	3545.06
951.16	3553.42
951.465	3471.84
951.77	3508.45
952.075	3523.37
952.38	3488.79
952.685	3476.59
952.99	3453.54
953.294	3431.39
953.599	3452.18
953.904	3440.66
954.209	3412.18
954.513	3382.35
954.818	3370.83
955.122	3358.4
955.426	3344.39
955.731	3322.47
956.035	3308.01
956.339	3311.85
956.643	3309.81
956.948	3259.87
957.252	3257.61
957.556	3296.71
957.86	3284.28
958.163	3253.09
958.467	3186.88
958.771	3197.05
959.075	3197.95
959.378	3173.09
959.682	3146.88
959.985	3146.65
960.289	3134
960.592	3144.17
960.896	3096.71
961.199	3092.19
961.502	3109.37
961.805	3110.5
962.108	3052.19
962.411	3039.99
962.714	3054.68
963.017	3021.91
963.32	3017.84
963.623	2989.6
963.926	3005.64
964.228	2971.29
964.531	2964.06
964.833	2955.02
965.136	2891.29
965.438	2900.79
965.741	2886.32
966.043	2892.42
966.345	2846.55
966.648	2879.77
966.95	2892.42
967.252	2828.02
967.554	2813.33
967.856	2819.66
968.158	2790.51
968.46	2805.19
968.761	2792.99
969.063	2775.36
969.365	2774.46
969.666	2754.35
969.968	2735.37
970.269	2733.11
970.571	2714.58
970.872	2668.48
971.174	2703.05
971.475	2681.13
971.776	2687.46
972.077	2634.13
972.378	2634.58
972.679	2662.37
972.98	2614.69
973.281	2629.83
973.582	2640.45
973.883	2578.08
974.183	2560
974.484	2551.42
974.785	2526.56
975.085	2491.3
975.386	2541.02
975.686	2521.81
975.986	2525.2
976.287	2509.61
976.587	2496.5
976.887	2476.16
977.187	2470.97
977.487	2448.37
977.787	2465.77
978.087	2445.2
978.387	2475.03
978.687	2463.96
978.987	2414.47
979.286	2384.41
979.586	2396.39
979.885	2375.38
980.185	2369.05
980.484	2395.49
980.784	2356.39
981.083	2346.22
981.382	2320.46
981.682	2315.94
981.981	2310.52
982.28	2286.79
982.579	2294.25
982.878	2313
983.177	2280.24
983.475	2275.94
983.774	2252.44
984.073	2233.46
984.372	2241.37
984.67	2229.16
984.969	2226.9
985.267	2196.17
985.566	2188.94
985.864	2167.02
986.162	2148.04
986.461	2153.01
986.759	2145.55
987.057	2153.69
987.355	2151.88
987.653	2119.56
987.951	2125.66
988.249	2105.55
988.547	2099
988.844	2120.01
989.142	2079.56
989.44	2059
989.737	2050.86
990.035	2037.76
990.332	2040.69
990.63	2034.59
990.927	2058.55
991.224	1981.26
991.521	2005.22
991.819	2007.25
992.116	2003.18
992.413	1958.21
992.71	1961.37
993.006	1956.4
993.303	1988.94
993.6	1950.98
993.897	1964.99
994.193	1946.46
994.49	1893.35
994.787	1917.99
995.083	1910.75
995.379	1900.81
995.676	1860.13
995.972	1882.73
996.268	1887.93
996.565	1848.84
996.861	1843.41
997.157	1856.29
997.453	1839.57
997.749	1816.75
998.044	1800.25
998.34	1819.46
998.636	1809.51
998.932	1790.76
999.227	1806.8
999.523	1762.96
999.818	1737.43
1000.114	1713.92
1000.409	1762.28
1000.704	1738.33
1001	1700.14
1001.295	1716.64
1001.59	1724.32
1001.885	1707.82
1002.18	1711.21
1002.475	1672.79
1002.77	1661.72
1003.065	1679.12
1003.359	1655.62
1003.654	1663.3
1003.949	1651.33
1004.243	1639.35
1004.538	1628.95
1004.832	1613.36
1005.127	1590.54
1005.421	1604.1
1005.715	1627.6
1006.009	1590.99
1006.304	1549.41
1006.598	1579.01
1006.892	1551.89
1007.186	1528.62
1007.48	1522.52
1007.773	1530.43
1008.067	1516.87
1008.361	1542.63
1008.655	1494.27
1008.948	1501.05
1009.242	1492.91
1009.535	1481.61
1009.829	1490.2
1010.122	1440.26
1010.415	1472.35
1010.708	1439.13
1011.001	1441.84
1011.295	1449.98
1011.588	1425.12
1011.881	1394.38
1012.173	1414.95
1012.466	1414.72
1012.759	1391.67
1013.052	1392.8
1013.344	1364.78
1013.637	1364.55
1013.93	1392.12
1014.222	1320.94
1014.514	1372.24
1014.807	1334.95
1015.099	1329.75
1015.391	1340.15
1015.683	1329.75
1015.976	1350.54
1016.268	1306.25
1016.56	1286.59
1016.851	1305.57
1017.143	1280.94
1017.435	1263.54
1017.727	1264.9
1018.018	1267.83
1018.31	1256.53
1018.602	1244.11
1018.893	1254.73
1019.185	1207.27
1019.476	1211.79
1019.767	1234.61
1020.058	1218.57
1020.35	1181.28
1020.641	1205.01
1020.932	1194.16
1021.223	1170.89
1021.514	1162.75
1021.804	1181.06
1022.095	1169.08
1022.386	1150.32
1022.677	1133.6
1022.967	1146.03
1023.258	1122.98
1023.548	1099.25
1023.839	1095.64
1024.129	1126.37
1024.419	1108.74
1024.709	1095.41
1025	1099.7
1025.29	1085.69
1025.58	1081.17
1025.87	1060.16
1026.16	1032.59
1026.449	1059.93
1026.739	1056.99
1027.029	1047.5
1027.319	1040.95
1027.608	1061.29
1027.898	1044.79
1028.187	1020.61
1028.477	1020.16
1028.766	1009.08
1029.055	994.85
1029.344	997.11
1029.634	980.61
1029.923	982.19
1030.212	997.78
1030.501	969.76
1030.79	952.36
1031.078	991.46
1031.367	980.38
1031.656	956.43
1031.945	941.29
1032.233	961.18
1032.522	922.31
1032.81	922.98
1033.099	916.2
1033.387	916.66
1033.675	907.17
1033.963	885.25
1034.251	927.96
1034.54	906.26
1034.828	902.65
1035.116	912.14
1035.403	878.24
1035.691	889.09
1035.979	867.39
1036.267	866.04
1036.554	856.32
1036.842	873.27
1037.129	841.18
1037.417	852.93
1037.704	822.42
1037.992	815.87
1038.279	820.39
1038.566	840.95
1038.853	840.95
1039.14	840.95
