Data from white_steel_sheet_FLMS001491_016.txt Node
Date: Tue Feb 07 10:57:28 GMT 2017
User: dcchb
Spectrometer: FLMS00149
Trigger mode: 0
Integration Time (sec): 2.000000E-2
Scans to average: 10
Electric dark correction enabled: true
Nonlinearity correction enabled: false
Boxcar width: 0
XAxis mode: Wavelengths
Number of Pixels in Spectrum: 2048
>>>>>Begin Spectral Data<<<<<
341.393	-25.52
341.776	-25.52
342.16	-25.52
342.543	-67.1
342.927	-73.88
343.31	-67.33
343.693	-71.62
344.077	-72.75
344.46	-53.54
344.843	-49.7
345.226	-22.58
345.61	-44.05
345.993	-19.65
346.376	-4.05
346.759	-6.09
347.142	33.46
347.525	33.69
347.908	53.12
348.291	78.66
348.674	120.69
349.057	91.76
349.44	135.15
349.823	123.4
350.206	157.75
350.588	200.69
350.971	193.68
351.354	232.78
351.737	235.71
352.119	247.92
352.502	274.36
352.884	286.56
353.267	291.53
353.65	303.06
354.032	305.32
354.414	300.12
354.797	313.45
355.179	340.12
355.562	326.33
355.944	340.34
356.326	349.16
356.709	327.01
357.091	356.61
357.473	340.8
357.855	322.04
358.238	338.31
358.62	348.25
359.002	360.91
359.384	360.68
359.766	339.21
360.148	329.95
360.53	344.64
360.912	337.41
361.294	337.63
361.676	335.82
362.057	329.5
362.439	333.11
362.821	334.24
363.203	329.72
363.584	319.78
363.966	333.34
364.348	345.77
364.729	330.63
365.111	324.07
365.493	319.33
365.874	318.65
366.256	335.15
366.637	317.75
367.019	325.88
367.4	317.97
367.781	320.46
368.163	328.82
368.544	322.72
368.925	323.62
369.306	305.32
369.688	341.47
370.069	330.4
370.45	314.58
370.831	311.64
371.212	322.72
371.593	291.53
371.974	310.97
372.355	327.46
372.736	326.33
373.117	330.17
373.498	326.79
373.879	335.82
374.26	325.88
374.641	329.5
375.021	319.1
375.402	328.37
375.783	323.85
376.163	332.89
376.544	341.7
376.925	334.92
377.305	345.09
377.686	339.67
378.066	349.84
378.447	336.95
378.827	326.33
379.208	351.42
379.588	351.42
379.968	338.76
380.349	345.77
380.729	366.11
381.109	352.32
381.489	334.02
381.87	354.36
382.25	374.47
382.63	377.86
383.01	363.17
383.39	355.94
383.77	348.93
384.15	366.56
384.53	376.05
384.91	386.44
385.29	371.08
385.67	375.37
386.049	419.89
386.429	371.3
386.809	389.38
387.189	384.64
387.568	385.99
387.948	389.83
388.328	383.28
388.707	413.11
389.087	403.62
389.466	418.31
389.846	401.59
390.225	409.72
390.605	419.66
390.984	427.8
391.363	414.01
391.743	435.93
392.122	428.25
392.501	449.72
392.881	435.26
393.26	427.8
393.639	430.51
394.018	447.46
394.397	441.81
394.776	436.61
395.155	457.63
395.534	467.57
395.913	492.66
396.292	490.17
396.671	470.28
397.05	497.85
397.429	488.14
397.808	494.01
398.186	487.23
398.565	502.15
398.944	519.55
399.323	509.15
399.701	541.47
400.08	531.75
400.458	546.67
400.837	535.37
401.215	541.92
401.594	559.32
401.972	582.15
402.351	564.29
402.729	570.62
403.107	565.87
403.486	583.95
403.864	592.77
404.242	620.79
404.62	620.34
404.999	630.73
405.377	633.22
405.755	647.68
406.133	666.66
406.511	668.02
406.889	686.78
407.267	686.1
407.645	667.57
408.023	704.4
408.401	700.33
408.779	721.58
409.156	737.62
409.534	743.5
409.912	759.99
410.29	759.32
410.667	775.59
411.045	799.32
411.422	788.02
411.8	796.83
412.178	829.6
412.555	824.85
412.933	819.43
413.31	872.99
413.687	869.6
414.065	875.92
414.442	899.88
414.819	881.12
415.197	928.35
415.574	927.22
415.951	941.23
416.328	916.37
416.705	948.24
417.082	941.01
417.46	970.38
417.837	991.17
418.214	981.01
418.591	995.47
418.967	992.76
419.344	1002.25
419.721	1021
420.098	1037.95
420.475	1020.78
420.852	1072.08
421.228	1075.92
421.605	1059.2
421.982	1116.59
422.358	1113.88
422.735	1116.37
423.111	1108.23
423.488	1141
423.864	1138.52
424.241	1155.46
424.617	1160.66
424.994	1155.24
425.37	1181.45
425.746	1217.61
426.123	1247.66
426.499	1231.17
426.875	1220.32
427.251	1256.93
427.627	1303.71
428.003	1277.27
428.379	1301.9
428.756	1312.75
429.132	1331.73
429.507	1366.98
429.883	1360.66
430.259	1375.8
430.635	1416.25
431.011	1391.16
431.387	1445.85
431.763	1480.88
432.138	1496.7
432.514	1476.13
432.89	1503.25
433.265	1531.5
433.641	1543.02
434.016	1594.77
434.392	1591.84
434.767	1608.33
435.143	1636.81
435.518	1661.44
435.894	1661.44
436.269	1702.34
436.644	1718.84
437.02	1756.58
437.395	1737.82
437.77	1750.25
438.145	1765.62
438.52	1800.19
438.895	1812.17
439.271	1813.75
439.646	1864.6
440.021	1863.24
440.395	1884.26
440.77	1904.82
441.145	1896.46
441.52	1944.6
441.895	1928.78
442.27	1988.21
442.645	1935.78
443.019	2000.41
443.394	1985.27
443.769	2032.28
444.143	2015.33
444.518	2067.08
444.892	2070.69
445.267	2043.35
445.641	2093.97
446.016	2105.72
446.39	2139.84
446.764	2132.16
447.139	2132.16
447.513	2164.03
447.887	2169.9
448.262	2208.09
448.636	2213.97
449.01	2222.55
449.384	2248.09
449.758	2274.3
450.132	2292.16
450.506	2340.97
450.88	2328.54
451.254	2311.37
451.628	2365.6
452.002	2396.34
452.376	2414.19
452.75	2427.75
453.123	2470.68
453.497	2495.99
453.871	2504.36
454.244	2609.21
454.618	2575.77
454.992	2625.03
455.365	2603.79
455.739	2700.06
456.112	2658.02
456.486	2720.17
456.859	2735.31
457.232	2806.27
457.606	2790
457.979	2872.25
458.352	2927.62
458.725	2931.01
459.099	2949.32
459.472	3057.56
459.845	3056.66
460.218	3069.09
460.591	3103.66
460.964	3075.64
461.337	3193.15
461.71	3240.38
462.083	3231.12
462.456	3277.22
462.829	3286.26
463.201	3340.72
463.574	3380.49
463.947	3411.22
464.32	3487.15
464.692	3513.14
465.065	3498.45
465.438	3580.71
465.81	3650.54
466.183	3625.91
466.555	3757.66
466.928	3769.63
467.3	3753.14
467.672	3804.66
468.045	3936.86
468.417	3891.66
468.789	3972.57
469.161	3999.23
469.534	4109.74
469.906	4152.67
470.278	4199
470.65	4221.6
471.022	4341.59
471.394	4410.29
471.766	4448.26
472.138	4485.32
472.51	4551.08
472.882	4656.16
473.253	4707.46
473.625	4801.92
473.997	4907.68
474.369	4902.26
474.74	4981.13
475.112	5025.42
475.484	5091.86
475.855	5218.18
476.227	5284.17
476.598	5405.07
476.97	5410.49
477.341	5582.92
477.713	5620.66
478.084	5702.92
478.455	5806.19
478.827	5881.89
479.198	6054.32
479.569	6046.86
479.94	6209.57
480.311	6292.5
480.682	6425.16
481.053	6523.46
481.424	6663.79
481.795	6728.65
482.166	6862.66
482.537	6901.75
482.908	7027.63
483.279	7122.09
483.65	7245.02
484.021	7367.96
484.391	7434.85
484.762	7598.23
485.133	7598.91
485.503	7778.57
485.874	7912.8
486.244	8007.71
486.615	8196.18
486.985	8278.44
487.356	8441.37
487.726	8439.57
488.097	8630.07
488.467	8667.13
488.837	8828.48
489.207	8931.3
489.578	9144.18
489.948	9178.98
490.318	9323.16
490.688	9293.78
491.058	9465.53
491.428	9615.35
491.798	9760.21
492.168	9849.47
492.538	9928.57
492.908	10071.61
493.278	10151.39
493.648	10191.38
494.017	10413.07
494.387	10338.27
494.757	10549.12
495.126	10588.89
495.496	10738.26
495.866	10757.7
496.235	10875.89
496.605	10941.65
496.974	11102.1
497.344	11201.53
497.713	11217.8
498.082	11342.54
498.452	11478.81
498.821	11528.98
499.19	11561.97
499.559	11756.09
499.928	11845.35
500.298	11881.74
500.667	11928.97
501.036	12022.97
501.405	12112.46
501.774	12159.69
502.143	12288.05
502.512	12319.69
502.88	12424.55
503.249	12497.09
503.618	12643.52
503.987	12618.89
504.356	12801.26
504.724	12872.22
505.093	12961.71
505.462	13015.72
505.83	13132.1
506.199	13214.81
506.567	13413.45
506.936	13413.9
507.304	13540.45
507.672	13718.98
508.041	13693.44
508.409	13808.46
508.777	13978.4
509.145	14014.33
509.514	14019.08
509.882	14134.33
510.25	14213.43
510.618	14372.52
510.986	14380.43
511.354	14596.69
511.722	14735.45
512.09	14808.89
512.458	14891.6
512.826	15018.6
513.193	15110.58
513.561	15147.19
513.929	15346.73
514.297	15400.51
514.664	15539.27
515.032	15628.98
515.4	15785.81
515.767	15858.35
516.135	15889.31
516.502	15946.04
516.869	16190.55
517.237	16226.71
517.604	16328.4
517.972	16440.94
518.339	16587.6
518.706	16616.3
519.073	16756.18
519.44	16889.74
519.808	17049.74
520.175	17088.6
520.542	17377.18
520.909	17423.74
521.276	17454.92
521.643	17644.75
522.009	17904.4
522.376	18002.7
522.743	18189.37
523.11	18239.99
523.477	18493.54
523.843	18546.65
524.21	18772.63
524.577	18956.35
524.943	19027.99
525.31	19159.74
525.676	19362.89
526.043	19475.43
526.409	19540.29
526.776	19721.76
527.142	19835.42
527.508	19928.08
527.874	20166.94
528.241	20301.4
528.607	20323.1
528.973	20498.01
529.339	20524.22
529.705	20706.59
530.071	20883.08
530.437	21065.45
530.803	21051.44
531.169	21158.33
531.535	21281.49
531.901	21406.46
532.267	21435.38
532.632	21657.52
532.998	21723.96
533.364	21874.24
533.73	22014.35
534.095	22146.55
534.461	22220.22
534.826	22389.26
535.192	22446.88
535.557	22537.95
535.923	22548.8
536.288	22618.4
536.653	22776.59
537.019	22801.22
537.384	22861.11
537.749	23041.22
538.114	23179.74
538.479	23093.64
538.845	23249.35
539.21	23298.16
539.575	23434.2
539.94	23490.02
540.305	23643.01
540.67	23772.72
541.034	23880.52
541.399	23913.74
541.764	23888.65
542.129	24026.73
542.494	23998.03
542.858	24230.79
543.223	24235.31
543.587	24462.42
543.952	24364.35
544.316	24576.54
544.681	24619.25
545.045	24705.81
545.41	24865.12
545.774	24849.53
546.138	24936.31
546.503	25035.29
546.867	25070.09
547.231	25245.23
547.595	25277.99
547.959	25345.79
548.324	25351.44
548.688	25549.4
549.052	25672.79
549.416	25578.78
549.779	25637.31
550.143	25861.48
550.507	25938.77
550.871	26056.05
551.235	26095.6
551.599	26327.46
551.962	26277.74
552.326	26395.03
552.689	26374.24
553.053	26382.15
553.417	26502.82
553.78	26869.36
554.143	26825.75
554.507	27129.7
554.87	27102.35
555.234	27308.67
555.597	27187.77
555.96	27367.2
556.323	27443.59
556.686	27519.29
557.05	27663.02
557.413	27708.89
557.776	27825.27
558.139	27966.74
558.502	28115.43
558.865	28141.65
559.228	28382.32
559.59	28460.96
559.953	28473.84
560.316	28831.35
560.679	28847.62
561.041	28974.85
561.404	29105.24
561.767	29235.86
562.129	29199.25
562.492	29505.9
562.854	29530.09
563.217	29530.54
563.579	29744.77
563.941	29945.67
564.304	29980.69
564.666	30103.18
565.028	30214.36
565.39	30298.2
565.753	30440.12
566.115	30567.57
566.477	30748.58
566.839	30829.71
567.201	31017.96
567.563	31151.29
567.925	31309.7
568.287	31274.22
568.648	31376.36
569.01	31501.56
569.372	31715.56
569.734	31652.74
570.095	31804.38
570.457	32003.69
570.819	32095.67
571.18	32168.89
571.542	32280.75
571.903	32403.23
572.265	32444.13
572.626	32644.35
572.987	32597.58
573.349	32716.89
573.71	32781.98
574.071	32856.1
574.432	32917.57
574.794	33176.32
575.155	33057.22
575.516	33032.59
575.877	33294.28
576.238	33222.87
576.599	33296.99
576.96	33337.89
577.32	33427.84
577.681	33610.43
578.042	33600.26
578.403	33643.88
578.763	33618.79
579.124	33650.65
579.485	33879.12
579.845	33828.73
580.206	33896.75
580.566	33736.08
580.927	33855.62
581.287	34049.29
581.648	33835.96
582.008	34053.58
582.368	33976.75
582.728	34098.1
583.089	33978.1
583.449	33956.64
583.809	34027.37
584.169	34138.33
584.529	34011.1
584.889	34309.62
585.249	34151.88
585.609	34000.02
585.969	34160.47
586.329	34129.96
586.688	34008.16
587.048	34128.38
587.408	34026.69
587.768	34107.59
588.127	34145.56
588.487	34109.85
588.846	34191.21
589.206	34120.25
589.565	34144.43
589.925	34308.49
590.284	34218.78
590.643	34078.89
591.003	34165.22
591.362	34372.9
591.721	34230.07
592.08	34268.49
592.44	34282.95
592.799	34207.02
593.158	34237.53
593.517	34179.91
593.876	34169.29
594.235	34114.37
594.593	34127.7
594.952	34328.38
595.311	34213.8
595.67	34230.75
596.029	34589.61
596.387	34404.31
596.746	34490.63
597.104	34237.98
597.463	34119.79
597.822	34329.51
598.18	34242.96
598.538	34241.15
598.897	34538.99
599.255	34198.66
599.613	34691.08
599.972	34418.54
600.33	34562.04
600.688	34275.05
601.046	34461.48
601.404	34656.05
601.762	34586.68
602.12	34551.87
602.478	34594.81
602.836	34656.05
603.194	34553
603.552	34535.38
603.91	34317.98
604.268	34616.96
604.625	34446.79
604.983	34649.27
605.341	34505.32
605.698	34796.84
606.056	34806.56
606.413	34724.07
606.771	34818.08
607.128	34772.66
607.485	34657.18
607.843	34703.28
608.2	34877.97
608.557	34905.31
608.914	34778.53
609.272	34879.77
609.629	34987.57
609.986	35032.09
610.343	34896.72
610.7	35183.72
611.057	35211.29
611.414	35123.61
611.771	35202.48
612.127	35325.64
612.484	35348.46
612.841	35396.37
613.198	35285.64
613.554	35405.64
613.911	35374.68
614.267	35383.26
614.624	35446.09
614.98	35605.63
615.337	35722.69
615.693	35664.39
616.05	35636.82
616.406	35839.75
616.762	35689.92
617.118	35625.07
617.475	35702.8
617.831	35844.72
618.187	35741.9
618.543	35956.81
618.899	36008.11
619.255	35982.57
619.611	35987.77
619.967	36199.97
620.323	36063.25
620.678	35958.62
621.034	36010.82
621.39	35990.03
621.746	35966.3
622.101	36444.48
622.457	36054.21
622.812	36181.89
623.168	36190.93
623.523	36204.49
623.879	36309.34
624.234	36072.51
624.589	36251.72
624.945	36225.28
625.3	36298.49
625.655	36123.36
626.01	36267.54
626.365	36294.88
626.72	36144.15
627.075	36221.89
627.43	36156.8
627.785	36112.96
628.14	36230.47
628.495	36113.87
628.85	36018.95
629.205	35931.95
629.559	36162
629.914	35996.36
630.269	36004.72
630.623	36009.24
630.978	35882.69
631.332	36019.41
631.687	36066.64
632.041	35851.05
632.396	36022.12
632.75	35822.12
633.104	35912.97
633.459	35759.75
633.813	35650.6
634.167	35668
634.521	35648.12
634.875	35685.63
635.229	35621.22
635.583	35421.68
635.937	35358.86
636.291	35397.73
636.645	35366.09
636.999	35228.47
637.352	35358.63
637.706	35124.29
638.06	35254.91
638.413	35054.69
638.767	35171.52
639.121	35234.34
639.474	34903.28
639.828	34908.25
640.181	34916.84
640.534	34904.63
640.888	34884.75
641.241	34677.07
641.594	34822.6
641.947	34716.16
642.301	34548.48
642.654	34712.32
643.007	34631.87
643.36	34612.66
643.713	34543.51
644.066	34616.05
644.419	34332.9
644.771	34148.72
645.124	33774.04
645.477	33713.7
645.83	33436.42
646.182	33277.78
646.535	33360.04
646.888	33435.52
647.24	33134.74
647.593	33350.1
647.945	33460.38
648.298	33098.13
648.65	33194.85
649.002	33054.96
649.355	33150.33
649.707	33079.14
650.059	33111.01
650.411	33557.32
650.763	33584.67
651.115	33889.97
651.467	33736.53
651.819	33707.38
652.171	33799.13
652.523	33771.33
652.875	33608.85
653.227	33491.79
653.578	33621.5
653.93	33559.13
654.282	33457.21
654.633	33352.13
654.985	33412.47
655.337	33577.21
655.688	33394.62
656.039	33583.99
656.391	33264.22
656.742	33303.32
657.094	33288.63
657.445	33251.8
657.796	33284.79
658.147	33217.67
658.498	33169.76
658.849	33239.37
659.2	33002.99
659.551	33128.18
659.902	33151.91
660.253	33006.83
660.604	33004.12
660.955	32784.46
661.306	33005.7
661.656	32887.96
662.007	32868.3
662.358	32888.87
662.708	32689.78
663.059	32832.15
663.409	32506.05
663.76	32779.72
664.11	32689.32
664.461	32661.08
664.811	32582.66
665.161	32588.54
665.511	32352.38
665.862	32344.25
666.212	32321.42
666.562	32358.94
666.912	32177.02
667.262	32146.74
667.612	32045.27
667.962	32029.91
668.312	31935.9
668.662	32110.13
669.011	31845.5
669.361	31854.32
669.711	31652.97
670.06	31609.13
670.41	31489.36
670.76	31374.78
671.109	31474.67
671.459	31348.57
671.808	31169.14
672.157	31349.02
672.507	30999.65
672.856	31022.7
673.205	31174.56
673.554	31105.18
673.904	30992.42
674.253	31085.75
674.602	30958.52
674.951	30450.74
675.3	30351.08
675.649	30852.54
675.998	30725.99
676.346	30740.9
676.695	30772.31
677.044	30485.54
677.393	30662.71
677.741	30669.26
678.09	30494.58
678.438	30489.61
678.787	30500.91
679.135	30510.4
679.484	30306.79
679.832	30574.8
680.181	30337.52
680.529	30341.14
680.877	30437.41
681.225	30360.35
681.573	30388.59
681.922	30322.38
682.27	30270.86
682.618	30405.54
682.966	30264.53
683.314	30362.15
683.661	30269.27
684.009	30244.19
684.357	30128.94
684.705	30265.66
685.053	30206
685.4	30223.17
685.748	30055.5
686.095	30140.92
686.443	30147.02
686.79	30210.07
687.138	30056.17
687.485	30264.53
687.832	30080.13
688.18	30267.01
688.527	30048.72
688.874	30086.45
689.221	30123.29
689.568	30017.3
689.915	29896.4
690.262	29973.46
690.609	29804.2
690.956	29972.33
691.303	29787.71
691.65	29791.55
691.997	29735.05
692.344	29748.61
692.69	29691.89
693.037	29632.68
693.383	29491.89
693.73	29678.1
694.077	29557.2
694.423	29519.46
694.769	29430.2
695.116	29371.22
695.462	29343.88
695.808	29348.85
696.155	29396.3
696.501	29285.35
696.847	29095.97
697.193	29009.87
697.539	29145.46
697.885	28916.77
698.231	28845.36
698.577	28814.4
698.923	28729.88
699.269	28685.14
699.614	28585.7
699.96	28583.22
700.306	28584.57
700.651	28412.83
700.997	28325.82
701.342	28312.94
701.688	28267.97
702.033	28131.48
702.379	28076.56
702.724	28140.74
703.069	28088.77
703.415	27793.86
703.76	27771.94
704.105	27817.59
704.45	27739.4
704.795	27548.89
705.14	27508.44
705.485	27475.45
705.83	27377.6
706.175	27433.42
706.52	27343.93
706.865	27187.1
707.209	27160.66
707.554	27126.98
707.899	27138.28
708.243	26932.64
708.588	26962.02
708.932	26627.34
709.277	26743.72
709.621	26782.36
709.966	26642.25
710.31	26694
710.654	26452.65
710.998	26547.56
711.342	26541.92
711.687	26325.42
712.031	26398.87
712.375	26284.07
712.719	26306.44
713.063	26218.76
713.407	26323.16
713.75	26074.58
714.094	26051.08
714.438	25986.68
714.782	26027.8
715.125	25852.67
715.469	25849.05
715.812	25779.22
716.156	25714.82
716.499	25662.16
716.843	25722.5
717.186	25528.83
717.53	25507.82
717.873	25562.05
718.216	25580.36
718.559	25386.92
718.902	25209.75
719.246	25370.65
719.589	25127.26
719.932	25112.57
720.275	25278.67
720.617	25189.41
720.96	25029.41
721.303	24930.66
721.646	25026.93
721.989	24917.78
722.331	25000.03
722.674	24850.21
723.016	24873.03
723.359	24899.02
723.701	24884.11
724.044	24718.91
724.386	24578.8
724.729	24598.24
725.071	24600.95
725.413	24556.43
725.755	24501.74
726.097	24478.92
726.439	24378.13
726.782	24329.09
727.124	24372.71
727.465	24224.24
727.807	24282.31
728.149	24190.11
728.491	24178.59
728.833	24177.23
729.175	23960.06
729.516	24016.78
729.858	23981.3
730.199	24059.72
730.541	23936.79
730.882	24040.96
731.224	23994.19
731.565	23748.77
731.906	23830.35
732.248	23806.85
732.589	23674.19
732.93	23577.25
733.271	23604.37
733.612	23616.34
733.953	23611.14
734.294	23415.67
734.635	23431.49
734.976	23457.48
735.317	23360.3
735.658	23363.69
735.999	23229.01
736.339	23273.98
736.68	23271.04
737.021	23147.2
737.361	23094.1
737.702	23283.92
738.042	23104.72
738.383	23022.46
738.723	23120.54
739.063	23084.38
739.404	23092.97
739.744	23007.77
740.084	22952.4
740.424	22923.48
740.764	22848
741.104	22872.41
741.444	22770.26
741.784	22648.91
742.124	22653.2
742.464	22751.28
742.804	22610.95
743.143	22636.48
743.483	22619.53
743.823	22424.06
744.162	22544.28
744.502	22489.14
744.841	22397.84
745.181	22474.45
745.52	22395.58
745.86	22377.73
746.199	22374.57
746.538	22268.58
746.877	22187.68
747.216	22170.28
747.556	22192.2
747.895	22095.03
748.234	22126.44
748.573	21933.22
748.911	21987.91
749.25	21935.71
749.589	21936.84
749.928	21918.76
750.267	21824.75
750.605	21795.83
750.944	21767.58
751.283	21682.61
751.621	21762.83
751.96	21510.41
752.298	21564.87
752.636	21646
752.975	21500.24
753.313	21371.2
753.651	21529.62
753.989	21307.7
754.327	21360.81
754.666	21256.63
755.004	21263.86
755.342	21257.99
755.679	21152.68
756.017	21051.89
756.355	21055.51
756.693	20979.58
757.031	20958.33
757.368	20881.95
757.706	20782.29
758.044	20667.27
758.381	20734.38
758.719	20620.49
759.056	20605.8
759.394	20616.65
759.731	20477.67
760.068	20380.95
760.405	20229.09
760.743	20231.8
761.08	20293.27
761.417	20174.17
761.754	20002.43
762.091	20066.15
762.428	19930.56
762.765	19894.18
763.102	19872.26
763.438	19804.92
763.775	19657.58
764.112	19683.34
764.449	19511.14
764.785	19526.05
765.122	19385.27
765.458	19390.46
765.795	19381.65
766.131	19349.79
766.467	19247.19
766.804	19182.79
767.14	19060.08
767.476	19003.81
767.812	18935.11
768.148	19019.4
768.485	18862.12
768.821	18772.4
769.157	18682.91
769.492	18762.46
769.828	18702.12
770.164	18494.44
770.5	18587.77
770.836	18530.37
771.171	18378.74
771.507	18321.11
771.842	18197.28
772.178	18150.27
772.513	18188.91
772.849	18091.97
773.184	18004.51
773.519	18039.31
773.855	17887.68
774.19	17758.87
774.525	17784.18
774.86	17760.45
775.195	17619.21
775.53	17660.79
775.865	17467.13
776.2	17339.9
776.535	17249.73
776.87	17217.19
777.205	17186.45
777.539	17177.19
777.874	17211.76
778.209	16969.29
778.543	16984.2
778.878	16876.18
779.212	16901.49
779.547	16732.68
779.881	16756.18
780.215	16614.94
780.55	16677.99
780.884	16500.15
781.218	16527.72
781.552	16530.2
781.886	16354.84
782.22	16231.9
782.554	16272.81
782.888	16128.63
783.222	16061.74
783.556	15984
783.889	15979.25
784.223	15796.89
784.557	15798.02
784.89	15825.13
785.224	15727.28
785.557	15635.31
785.891	15612.48
786.224	15558.02
786.558	15645.48
786.891	15448.2
787.224	15477.57
787.557	15340.85
787.891	15304.7
788.224	15259.73
788.557	15270.35
788.89	15198.48
789.223	15194.19
789.556	14989.9
789.888	15078.94
790.221	14995.33
790.554	14867.42
790.887	14875.78
791.219	14759.85
791.552	14673.3
791.884	14680.31
792.217	14626.75
792.549	14613.19
792.882	14504.27
793.214	14403.7
793.546	14507.66
793.879	14404.16
794.211	14321.9
794.543	14335.23
794.875	14289.13
795.207	14253.2
795.539	14181.11
795.871	14151.28
796.203	14031.51
796.535	13946.99
796.867	13922.36
797.198	13932.3
797.53	13865.64
797.862	13800.1
798.193	13843.72
798.525	13754
798.856	13702.25
799.188	13566.66
799.519	13507
799.85	13465.65
800.182	13455.48
800.513	13454.58
800.844	13313.56
801.175	13399.89
801.506	13378.87
801.837	13379.1
802.168	13282.38
802.499	13267.69
802.83	13225.2
803.161	13123.06
803.491	13050.97
803.822	13063.85
804.153	12990.41
804.483	12918.09
804.814	12902.5
805.145	12859.79
805.475	12864.99
805.805	12839.22
806.136	12825.44
806.466	12723.07
806.796	12690.3
807.126	12613.92
807.457	12619.57
807.787	12551.32
808.117	12498.67
808.447	12432
808.777	12518.1
809.107	12407.15
809.436	12382.74
809.766	12406.24
810.096	12399.24
810.426	12369.41
810.755	12269.97
811.085	12276.08
811.414	12172.35
811.744	12133.71
812.073	12067.72
812.403	12134.16
812.732	12114.5
813.061	12060.94
813.39	11981.39
813.719	11981.85
814.049	12031.79
814.378	11957.44
814.707	11881.06
815.036	11898.46
815.365	11762.64
815.693	11729.2
816.022	11800.38
816.351	11710.44
816.68	11651.46
817.008	11572.59
817.337	11584.79
817.665	11551.35
817.994	11562.2
818.322	11572.14
818.651	11458.02
818.979	11429.77
819.307	11469.77
819.636	11425.25
819.964	11399.49
820.292	11463.44
820.62	11450.79
820.948	11382.77
821.276	11388.64
821.604	11347.74
821.932	11352.71
822.259	11409.21
822.587	11312.49
822.915	11294.86
823.243	11307.97
823.57	11337.12
823.898	11293.05
824.225	11289.89
824.553	11308.87
824.88	11247.63
825.207	11303.45
825.535	11283.11
825.862	11281.53
826.189	11254.63
826.516	11358.36
826.843	11283.79
827.17	11268.19
827.497	11335.54
827.824	11255.31
828.151	11267.74
828.478	11244.01
828.805	11203.56
829.131	11205.6
829.458	11226.84
829.785	11189.55
830.111	11197.23
830.438	11273.62
830.764	11233.17
831.09	11276.78
831.417	11208.53
831.743	11219.61
832.069	11233.17
832.395	11166.5
832.722	11127.63
833.048	11177.35
833.374	11114.07
833.7	11122.43
834.026	11087.86
834.351	11173.73
834.677	11148.65
835.003	11161.53
835.329	11051.7
835.654	11101.64
835.98	11087.63
836.306	11060.97
836.631	11023.23
836.956	11007.86
837.282	11085.37
837.607	10959.27
837.932	10933.96
838.258	10930.57
838.583	10908.88
838.908	10835.66
839.233	10842.67
839.558	10891.25
839.883	10787.08
840.208	10780.3
840.533	10788.21
840.858	10818.71
841.182	10791.37
841.507	10724.48
841.832	10674.76
842.156	10687.42
842.481	10690.13
842.805	10701.43
843.13	10621.66
843.454	10608.1
843.778	10496.91
844.103	10482.45
844.427	10499.85
844.751	10486.07
845.075	10424.15
845.399	10400.19
845.723	10349.12
846.047	10349.57
846.371	10298.95
846.695	10319.97
847.019	10178.73
847.343	10180.31
847.666	10160.42
847.99	10086.75
848.313	10091.05
848.637	10040.65
848.96	10030.03
849.284	9990.03
849.607	9925.85
849.931	9845.4
850.254	9845.63
850.577	9780.1
850.9	9682.47
851.223	9738.74
851.546	9646.31
851.869	9595.92
852.192	9641.57
852.515	9494.91
852.838	9487.45
853.161	9467.11
853.483	9453.55
853.806	9469.14
854.129	9426.88
854.451	9340.79
854.774	9294.46
855.096	9254.01
855.419	9259.43
855.741	9140.79
856.063	9221.47
856.385	9181.69
856.708	9183.28
857.03	9085.42
857.352	9099.89
857.674	9063.73
857.996	9052.88
858.318	9017.63
858.64	9018.31
858.961	8985.09
859.283	8974.02
859.605	8938.31
859.926	8918.42
860.248	8884.98
860.57	8824.19
860.891	8905.09
861.212	8839.78
861.534	8776.28
861.855	8830.06
862.176	8755.94
862.498	8828.48
862.819	8775.6
863.14	8701.93
863.461	8669.39
863.782	8613.35
864.103	8628.26
864.424	8661.71
864.745	8683.18
865.065	8530.19
865.386	8547.36
865.707	8630.75
866.027	8567.25
866.348	8549.85
866.668	8578.09
866.989	8524.54
867.309	8409.96
867.63	8462.62
867.95	8537.19
868.27	8424.43
868.59	8382.84
868.91	8443.41
869.23	8366.35
869.55	8376.74
869.87	8411.54
870.19	8328.83
870.51	8295.62
870.83	8369.74
871.15	8251.77
871.469	8305.11
871.789	8342.85
872.109	8268.05
872.428	8215.62
872.748	8242.74
873.067	8242.74
873.386	8273.24
873.706	8248.84
874.025	8175.62
874.344	8139.46
874.663	8135.85
874.982	8080.03
875.301	8164.09
875.62	8140.82
875.939	8057.66
876.258	8119.12
876.577	8059.92
876.896	8065.79
877.214	7963.87
877.533	8057.66
877.852	8020.59
878.17	8041.84
878.489	7981.05
878.807	7947.38
879.125	8010.42
879.444	8000.03
879.762	7968.62
880.08	7981.05
880.398	7909.41
880.716	7911.67
881.034	7908.05
881.352	7885.23
881.67	7762.3
881.988	7782.41
882.306	7773.37
882.624	7792.13
882.941	7772.92
883.259	7762.07
883.577	7722.52
883.894	7652.92
884.212	7738.57
884.529	7679.13
884.846	7603.2
885.164	7646.37
885.481	7668.06
885.798	7646.14
886.115	7578.57
886.432	7572.92
886.75	7531.34
887.067	7551.23
887.383	7532.92
887.7	7537.67
888.017	7414.51
888.334	7494.05
888.651	7412.25
888.967	7413.38
889.284	7383.77
889.6	7380.84
889.917	7296.77
890.233	7371.8
890.55	7340.61
890.866	7300.16
891.182	7282.31
891.498	7263.33
891.815	7175.19
892.131	7172.93
892.447	7162.31
892.763	7075.76
893.079	7169.32
893.395	7090
893.71	7091.58
894.026	7066.95
894.342	7064.69
894.657	7017
894.973	7014.07
895.289	6992.6
895.604	6992.82
895.92	6963.9
896.235	6942.43
896.55	6921.87
896.865	6871.02
897.181	6907.4
897.496	6933.84
897.811	6833.73
898.126	6810
898.441	6772.94
898.756	6741.08
899.071	6716.45
899.386	6706.28
899.7	6637.35
900.015	6641.42
900.33	6547.41
900.644	6570.91
900.959	6561.2
901.273	6521.65
901.588	6577.24
901.902	6482.78
902.216	6498.37
902.531	6484.36
902.845	6451.6
903.159	6381.99
903.473	6362.56
903.787	6369.11
904.101	6242.56
904.415	6325.27
904.729	6300.87
905.042	6273.75
905.356	6281.66
905.67	6238.27
905.984	6197.14
906.297	6164.37
906.611	6100.64
906.924	6117.59
907.237	6128.67
907.551	6045.73
907.864	6061.32
908.177	6051.61
908.491	6041.66
908.804	5949.24
909.117	5942.46
909.43	5951.5
909.743	5888.45
910.056	5886.86
910.368	5892.74
910.681	5810.03
910.994	5830.82
911.307	5770.71
911.619	5732.97
911.932	5783.14
912.244	5749.02
912.557	5721.9
912.869	5682.12
913.181	5664.95
913.494	5650.94
913.806	5631.28
914.118	5607.32
914.43	5549.25
914.742	5569.59
915.054	5485.52
915.366	5540.89
915.678	5486.2
915.99	5480.55
916.302	5461.11
916.613	5413.21
916.925	5427.44
917.236	5408.01
917.548	5349.03
917.859	5384.51
918.171	5326.2
918.482	5288.46
918.794	5241.91
919.105	5285.07
919.416	5167.34
919.727	5203.04
920.038	5241.68
920.349	5145.87
920.66	5117.17
920.971	5134.79
921.282	5086.21
921.593	5065.64
921.903	5064.74
922.214	5024.97
922.525	4973.89
922.835	5021.13
923.146	4966.66
923.456	4954.46
923.767	4933.22
924.077	4895.7
924.387	4890.96
924.697	4891.86
925.008	4871.52
925.318	4852.99
925.628	4852.32
925.938	4816.38
926.248	4756.27
926.558	4734.13
926.867	4735.03
927.177	4730.29
927.487	4657.29
927.796	4671.53
928.106	4650.06
928.416	4627.01
928.725	4593.11
929.034	4552.66
929.344	4611.19
929.653	4521.03
929.962	4517.64
930.271	4517.64
930.581	4461.37
930.89	4455.72
931.199	4411.2
931.508	4456.39
931.817	4432.44
932.125	4408.71
932.434	4424.3
932.743	4374.81
933.051	4359.9
933.36	4310.86
933.669	4263.18
933.977	4253.01
934.286	4261.37
934.594	4291.43
934.902	4218.66
935.21	4169.62
935.519	4169.4
935.827	4214.14
936.135	4199.45
936.443	4097.53
936.751	4099.79
937.059	4072
937.367	4066.12
937.674	4049.4
937.982	4051.88
938.29	4046.24
938.597	4036.97
938.905	3985.45
939.213	3956.75
939.52	3983.19
939.827	3978.89
940.135	3946.8
940.442	3928.27
940.749	3892.79
941.056	3940.7
941.363	3854.38
941.67	3914.71
941.977	3808.5
942.284	3805.34
942.591	3811.21
942.898	3752.46
943.205	3789.52
943.511	3770.08
943.818	3757.43
944.125	3687.15
944.431	3703.87
944.738	3683.99
945.044	3702.74
945.35	3646.02
945.657	3661.61
945.963	3658.45
946.269	3645.34
946.575	3611.67
946.881	3578
947.187	3569.64
947.493	3578.23
947.799	3546.14
948.105	3538.9
948.41	3525.35
948.716	3500.04
949.022	3459.36
949.327	3498
949.633	3461.39
949.938	3432.01
950.244	3411.68
950.549	3410.77
950.854	3336.88
951.16	3366.71
951.465	3344.56
951.77	3365.35
952.075	3327.61
952.38	3302.07
952.685	3323.99
952.99	3279.02
953.294	3299.36
953.599	3287.39
953.904	3298.46
954.209	3266.59
954.513	3240.61
954.818	3205.58
955.122	3210.55
955.426	3182.08
955.731	3177.11
956.035	3135.75
956.339	3138.91
956.643	3134.85
956.948	3134.17
957.252	3099.82
957.556	3097.79
957.86	3023.21
958.163	3075.19
958.467	3081.29
958.771	3029.09
959.075	3013.04
959.378	2980.73
959.682	3023.66
959.985	2978.69
960.289	2998.58
960.592	2961.07
960.896	2977.56
961.199	2982.53
961.502	2936.43
961.805	2914.06
962.108	2885.36
962.411	2889.66
962.714	2857.79
963.017	2831.13
963.32	2807.62
963.623	2837.45
963.926	2855.98
964.228	2813.27
964.531	2798.58
964.833	2817.12
965.136	2788.64
965.438	2731.02
965.741	2776.89
966.043	2741.64
966.345	2705.25
966.648	2714.29
966.95	2735.76
967.252	2693.73
967.554	2683.79
967.856	2686.05
968.158	2638.59
968.46	2641.75
968.761	2629.32
969.063	2617.8
969.365	2655.31
969.666	2578.25
969.968	2587.97
970.269	2547.52
970.571	2570.57
970.872	2546.39
971.174	2550.23
971.475	2555.65
971.776	2571.25
972.077	2556.78
972.378	2519.04
972.679	2510
972.98	2510.46
973.281	2491.7
973.582	2456.67
973.883	2465.49
974.183	2425.26
974.484	2430.91
974.785	2397.92
975.085	2431.36
975.386	2416.67
975.686	2370.35
975.986	2390.69
976.287	2392.04
976.587	2357.69
976.887	2337.13
977.187	2362.66
977.487	2334.19
977.787	2341.42
978.087	2299.39
978.387	2325.15
978.687	2295.1
978.987	2281.76
979.286	2272.95
979.586	2275.66
979.885	2250.8
980.185	2205.83
980.484	2183.01
980.784	2226.62
981.083	2229.79
981.382	2220.52
981.682	2211.48
981.981	2188.43
982.28	2167.87
982.579	2200.41
982.878	2169.9
983.177	2139.39
983.475	2160.86
983.774	2140.75
984.073	2132.61
984.372	2079.51
984.67	2107.76
984.969	2109.56
985.267	2103.91
985.566	2065.72
985.864	2079.96
986.162	2022.79
986.461	2062.78
986.759	2039.28
987.057	2050.81
987.355	2001.77
987.653	2012.84
987.951	2010.13
988.249	1979.17
988.547	2015.33
988.844	2001.32
989.142	1956.57
989.44	1960.41
989.737	1930.58
990.035	1943.47
990.332	1931.71
990.63	1931.49
990.927	1946.4
991.224	1918.83
991.521	1873.64
991.819	1913.41
992.116	1872.73
992.413	1866.63
992.71	1857.59
993.006	1874.32
993.303	1868.67
993.6	1837.93
993.897	1829.34
994.193	1808.33
994.49	1829.34
994.787	1799.97
995.083	1799.74
995.379	1795.67
995.676	1784.6
995.972	1763.58
996.268	1772.17
996.565	1781.89
996.861	1750.02
997.157	1734.88
997.453	1697.6
997.749	1704.83
998.044	1734.88
998.34	1700.99
998.636	1711.38
998.932	1665.51
999.227	1679.97
999.523	1687.65
999.818	1645.62
1000.114	1633.87
1000.409	1653.3
1000.704	1627.99
1001	1637.26
1001.295	1612.4
1001.59	1636.81
1001.885	1624.38
1002.18	1590.71
1002.475	1607.43
1002.77	1566.75
1003.065	1572.63
1003.359	1565.85
1003.654	1561.1
1003.949	1552.52
1004.243	1570.37
1004.538	1517.49
1004.832	1515.45
1005.127	1524.04
1005.421	1524.49
1005.715	1489.24
1006.009	1490.6
1006.304	1527.88
1006.598	1475
1006.892	1471.39
1007.186	1470.48
1007.48	1460.77
1007.773	1439.07
1008.067	1424.16
1008.361	1445.85
1008.655	1421.22
1008.948	1418.96
1009.242	1416.93
1009.535	1409.47
1009.829	1380.54
1010.122	1368.11
1010.415	1356.81
1010.708	1372.41
1011.001	1379.41
1011.295	1375.12
1011.588	1385.74
1011.881	1328.79
1012.173	1335.35
1012.466	1332.18
1012.759	1320.21
1013.052	1341
1013.344	1313.88
1013.637	1310.04
1013.93	1293.99
1014.222	1294.9
1014.514	1303.03
1014.807	1253.09
1015.099	1274.1
1015.391	1239.76
1015.683	1223.26
1015.976	1252.18
1016.268	1242.69
1016.56	1209.7
1016.851	1224.84
1017.143	1205.18
1017.435	1195.69
1017.727	1197.72
1018.018	1189.59
1018.31	1166.76
1018.602	1202.47
1018.893	1167.89
1019.185	1159.53
1019.476	1184.16
1019.767	1171.06
1020.058	1164.28
1020.35	1161.34
1020.641	1117.5
1020.932	1140.32
1021.223	1115.92
1021.514	1098.52
1021.804	1097.61
1022.095	1091.28
1022.386	1089.25
1022.677	1086.09
1022.967	1075.47
1023.258	1070.27
1023.548	1079.99
1023.839	1045.18
1024.129	1074.11
1024.419	1039.53
1024.709	1070.49
1025	1026.88
1025.29	1033.89
1025.58	1014.45
1025.87	1007.45
1026.16	994.56
1026.449	983.04
1026.739	1011.51
1027.029	1020.55
1027.319	971.06
1027.608	957.28
1027.898	968.35
1028.187	951.4
1028.477	936.49
1028.766	928.8
1029.055	934.68
1029.344	948.01
1029.634	929.03
1029.923	932.87
1030.212	929.93
1030.501	918.41
1030.79	908.46
1031.078	906.88
1031.367	883.15
1031.656	916.6
1031.945	892.42
1032.233	913.66
1032.522	895.13
1032.81	909.82
1033.099	869.37
1033.387	868.24
1033.675	860.56
1033.963	861.23
1034.251	861.91
1034.54	844.29
1034.828	828.69
1035.116	845.64
1035.403	853.55
1035.691	837.05
1035.979	828.47
1036.267	805.19
1036.554	797.06
1036.842	813.1
1037.129	802.93
1037.417	798.86
1037.704	771.75
1037.992	793.44
1038.279	776.72
1038.566	781.46
1038.853	781.46
1039.14	781.46
