Data from White_reflection_standard_FLMS001491_091.txt Node
Date: Tue Feb 07 10:32:13 GMT 2017
User: dcchb
Spectrometer: FLMS00149
Trigger mode: 0
Integration Time (sec): 2.000000E-2
Scans to average: 10
Electric dark correction enabled: true
Nonlinearity correction enabled: false
Boxcar width: 0
XAxis mode: Wavelengths
Number of Pixels in Spectrum: 2048
>>>>>Begin Spectral Data<<<<<
341.393	-18.09
341.776	-18.09
342.16	-18.09
342.543	-39.11
342.927	-63.97
343.31	-66
343.693	-47.7
344.077	-66.23
344.46	-41.37
344.843	-37.3
345.226	-52.67
345.61	-45.44
345.993	-39.34
346.376	12.87
346.759	-7.47
347.142	23.04
347.525	24.84
347.908	65.07
348.291	80.44
348.674	93.32
349.057	103.94
349.44	123.6
349.823	138.51
350.206	191.17
350.588	237.49
350.971	249.92
351.354	268.91
351.737	289.47
352.119	317.49
352.502	299.41
352.884	308.23
353.267	315.23
353.65	349.13
354.032	331.5
354.414	362.01
354.797	354.1
355.179	355.91
355.562	371.73
355.944	369.69
356.326	383.25
356.709	408.79
357.091	398.17
357.473	409.69
357.855	412.63
358.238	409.24
358.62	401.56
359.002	389.35
359.384	411.73
359.766	400.65
360.148	412.86
360.53	408.11
360.912	414.89
361.294	421.22
361.676	394.78
362.057	403.37
362.439	392.29
362.821	418.96
363.203	427.32
363.584	421.9
363.966	394.1
364.348	395
364.729	394.55
365.111	420.54
365.493	411.05
365.874	398.62
366.256	416.25
366.637	414.89
367.019	420.99
367.4	411.73
367.781	420.77
368.163	399.3
368.544	411.5
368.925	429.58
369.306	459.18
369.688	438.84
370.069	425.74
370.45	452.86
370.831	442.23
371.212	444.27
371.593	435.91
371.974	440.2
372.355	427.32
372.736	436.58
373.117	462.35
373.498	469.13
373.879	454.21
374.26	438.62
374.641	430.26
375.021	452.86
375.402	445.62
375.783	496.47
376.163	528.11
376.544	509.13
376.925	492.63
377.305	496.7
377.686	494.89
378.066	496.24
378.447	503.02
378.827	516.36
379.208	512.97
379.588	497.83
379.968	525.62
380.349	531.5
380.729	533.31
381.109	517.94
381.489	541.67
381.87	542.8
382.25	538.95
382.63	567.65
383.01	543.02
383.39	576.92
383.77	588.9
384.15	575.79
384.53	596.13
384.91	614.21
385.29	602.46
385.67	621.89
386.049	615.11
386.429	616.69
386.809	625.73
387.189	615.56
387.568	638.84
387.948	642.68
388.328	649.46
388.707	663.25
389.087	669.35
389.466	666.41
389.846	689.23
390.225	693.98
390.605	677.93
390.984	702.34
391.363	719.06
391.743	710.25
392.122	730.59
392.501	738.05
392.881	735.79
393.26	737.37
393.639	764.03
394.018	763.58
394.397	804.71
394.776	766.52
395.155	787.31
395.534	790.25
395.913	798.83
396.292	808.1
396.671	822.34
397.05	847.2
397.429	814.2
397.808	859.17
398.186	855.1
398.565	877.25
398.944	884.03
399.323	878.83
399.701	883.58
400.08	887.65
400.458	911.15
400.837	924.03
401.215	931.03
401.594	921.32
401.972	952.28
402.351	949.57
402.729	952.5
403.107	962.67
403.486	989.34
403.864	1011.26
404.242	1003.8
404.62	1021.2
404.999	1026.63
405.377	1033.41
405.755	1065.27
406.133	1064.36
406.511	1073.86
406.889	1090.13
407.267	1120.18
407.645	1105.95
408.023	1160.86
408.401	1153.18
408.779	1173.74
409.156	1198.15
409.534	1175.32
409.912	1208.09
410.29	1261.42
410.667	1256.22
411.045	1267.52
411.422	1282.89
411.8	1322.66
412.178	1327.63
412.555	1351.14
412.933	1345.94
413.31	1394.07
413.687	1383.45
414.065	1401.08
414.442	1420.06
414.819	1446.28
415.197	1468.2
415.574	1492.38
415.951	1500.29
416.328	1516.78
416.705	1534.63
417.082	1537.35
417.46	1543.9
417.837	1626.38
418.214	1612.82
418.591	1625.93
418.967	1617.8
419.344	1630.23
419.721	1668.64
420.098	1665.7
420.475	1680.17
420.852	1720.39
421.228	1720.62
421.605	1741.18
421.982	1754.97
422.358	1785.02
422.735	1791.13
423.111	1811.69
423.488	1838.58
423.864	1877.22
424.241	1884.68
424.617	1900.95
424.994	1906.38
425.37	1922.42
425.746	1958.58
426.123	1990.67
426.499	2015.53
426.875	2027.05
427.251	2084.22
427.627	2095.3
428.003	2131.91
428.379	2141.17
428.756	2165.35
429.132	2214.16
429.507	2267.95
429.883	2267.72
430.259	2319.02
430.635	2325.35
431.011	2353.37
431.387	2407.15
431.763	2452.8
432.138	2457.77
432.514	2473.59
432.89	2514.95
433.265	2550.88
433.641	2613.25
434.016	2625
434.392	2652.57
434.767	2722.85
435.143	2732.57
435.518	2759.46
435.894	2803.53
436.269	2812.79
436.644	2883.75
437.02	2895.5
437.395	2893.7
437.77	2954.03
438.145	3000.13
438.52	3060.47
438.895	3011.21
439.271	3085.55
439.646	3141.82
440.021	3128.72
440.395	3159.45
440.77	3113.35
441.145	3192.22
441.52	3266.57
441.895	3271.54
442.27	3273.12
442.645	3293.23
443.019	3351.31
443.394	3349.73
443.769	3449.84
444.143	3377.98
444.518	3450.29
444.892	3453.23
445.267	3500.46
445.641	3538.2
446.016	3562.38
446.39	3567.35
446.764	3633.11
447.139	3648.25
447.513	3687.35
447.887	3708.59
448.262	3685.54
448.636	3745.42
449.01	3756.5
449.384	3807.34
449.758	3901.13
450.132	3931.41
450.506	3928.7
450.88	3980.67
451.254	3956.49
451.628	4050.95
452.002	4065.42
452.376	4131.18
452.75	4146.77
453.123	4174.34
453.497	4240.55
453.871	4292.75
454.244	4390.38
454.618	4405.07
454.992	4470.6
455.365	4488.23
455.739	4596.02
456.112	4589.02
456.486	4681.9
456.859	4727.55
457.232	4790.59
457.606	4816.13
457.979	4870.37
458.352	4976.35
458.725	5029.01
459.099	5018.38
459.472	5192.17
459.845	5259.06
460.218	5284.37
460.591	5334.99
460.964	5378.15
461.337	5463.12
461.71	5572.95
462.083	5649.78
462.456	5603.23
462.829	5695.43
463.201	5794.64
463.574	5865.59
463.947	5922.09
464.32	6028.98
464.692	6101.52
465.065	6144.23
465.438	6243.66
465.81	6329.54
466.183	6419.93
466.555	6501.74
466.928	6542.86
467.3	6548.06
467.672	6708.96
468.045	6880.48
468.417	6878
468.789	6932.91
469.161	7068.27
469.534	7160.02
469.906	7372.45
470.278	7328.83
470.65	7458.55
471.022	7619.45
471.394	7759.33
471.766	7834.36
472.138	7918.87
472.51	8093.33
472.882	8214.23
473.253	8317.51
473.625	8459.2
473.997	8638.4
474.369	8610.15
474.74	8777.38
475.112	8926.08
475.484	9083.59
475.855	9184.38
476.227	9301.21
476.598	9560.19
476.97	9632.27
477.341	9960.85
477.713	10055.54
478.084	10102.77
478.455	10367.62
478.827	10535.3
479.198	10847.16
479.569	10812.81
479.94	11116.08
480.311	11226.81
480.682	11503.64
481.053	11722.16
481.424	11898.66
481.795	12038.09
482.166	12238.76
482.537	12349.49
482.908	12676.04
483.279	12821.8
483.65	13041.45
484.021	13307.66
484.391	13301.56
484.762	13621.77
485.133	13687.08
485.503	13935.44
485.874	14280.06
486.244	14380.4
486.615	14671.92
486.985	14789.65
487.356	15117.55
487.726	15184.45
488.097	15550.99
488.467	15472.35
488.837	15909.17
489.207	16087.47
489.578	16361.14
489.948	16497.18
490.318	16699.43
490.688	16877.73
491.058	17048.13
491.428	17248.12
491.798	17433.88
492.168	17793.42
492.538	17901.44
492.908	18105.05
493.278	18378.71
493.648	18329
494.017	18541.42
494.387	18828.19
494.757	18889.88
495.126	19158.8
495.496	19214.62
495.866	19338.01
496.235	19590.88
496.605	19803.98
496.974	19854.38
497.344	20038.1
497.713	20164.88
498.082	20376.17
498.452	20707.46
498.821	20678.99
499.19	20802.83
499.559	20919.89
499.928	21246.88
500.298	21219.54
500.667	21495.01
501.036	21509.25
501.405	21751.05
501.774	21813.42
502.143	21997.15
502.512	22056.81
502.88	22254.99
503.249	22346.74
503.618	22479.62
503.987	22675.55
504.356	22791.93
504.724	22973.62
505.093	23038.48
505.462	23193.05
505.83	23488.18
506.199	23570.44
506.567	23895.18
506.936	23861.05
507.304	24200.25
507.672	24318.67
508.041	24471.66
508.409	24626.46
508.777	24781.26
509.145	25035.71
509.514	25044.53
509.882	25299.21
510.25	25329.49
510.618	25479.54
510.986	25618.52
511.354	25955.46
511.722	26270.48
512.09	26380.76
512.458	26386.86
512.826	26763.35
513.193	26813.52
513.561	26986.39
513.929	27059.16
514.297	27411.92
514.664	27688.75
515.032	27742.31
515.4	27938.23
515.767	28143.2
516.135	28311.33
516.502	28225.01
516.869	28682.17
517.237	28802.17
517.604	28886.68
517.972	29209.84
518.339	29378.87
518.706	29450.06
519.073	29657.96
519.44	29807.34
519.808	30229.47
520.175	30250.04
520.542	30604.83
520.909	30760.76
521.276	30864.71
521.643	31249.79
522.009	31516.45
522.376	31783.78
522.743	31899.49
523.11	32214.73
523.477	32494.05
523.843	32619.69
524.21	33057.42
524.577	33330.63
524.943	33479.78
525.31	33622.83
525.676	34087.45
526.043	34205.19
526.409	34137.62
526.776	34719.07
527.142	34822.57
527.508	35013.08
527.874	35203.13
528.241	35498.94
528.607	35657.81
528.973	35967.4
529.339	35979.38
529.705	36325.58
530.071	36691.22
530.437	36886.7
530.803	37079.24
531.169	37258.89
531.535	37203.53
531.901	37464.76
532.267	37696.62
532.632	37873.57
532.998	37980.23
533.364	38290.73
533.73	38263.39
534.095	38673.09
534.461	38713.77
534.826	38855.91
535.192	38985.85
535.557	39492.05
535.923	39340.65
536.288	39534.77
536.653	39700.64
537.019	39746.96
537.384	39991.48
537.749	40114.19
538.114	40202.32
538.479	40360.51
538.845	40529.99
539.21	40626.94
539.575	40695.64
539.94	40798.69
540.305	41159.13
540.67	41023.99
541.034	41418.56
541.399	41553.24
541.764	41523.87
542.129	41792.56
542.494	41835.04
542.858	41956.17
543.223	42127.92
543.587	42360.68
543.952	42267.8
544.316	42490.17
544.681	42393
545.045	42675.25
545.41	42875.24
545.774	43018.74
546.138	43080.44
546.503	43373.31
546.867	43359.98
547.231	43761.55
547.595	43742.56
547.959	43945.05
548.324	43969.45
548.688	44109.56
549.052	44374.86
549.416	44284.7
549.779	44502.09
550.143	44554.75
550.507	44829.99
550.871	45015.3
551.235	45023.66
551.599	45261.39
551.962	45403.99
552.326	45512.91
552.689	45779.57
553.053	45576.19
553.417	45744.09
553.78	46376.62
554.143	46097.3
554.507	46454.58
554.87	46482.61
555.234	46975.25
555.597	46682.83
555.96	46819.55
556.323	47014.12
556.686	47271.74
557.05	47551.96
557.413	47633.08
557.776	47577.49
558.139	47946.52
558.502	48104.48
558.865	48020.42
559.228	48488.2
559.59	48593.96
559.953	48476.68
560.316	49068.98
560.679	49139.94
561.041	49282.53
561.404	49470.32
561.767	49609.3
562.129	49505.8
562.492	49951.44
562.854	50029.4
563.217	50012.68
563.579	50239.79
563.941	50508.04
564.304	50500.13
564.666	50724.3
565.028	50785.09
565.39	50926.1
565.753	51077.96
566.115	51218.3
566.477	51479.54
566.839	51493.1
567.201	51719.76
567.563	51760.66
567.925	51955.68
568.287	52051.27
568.648	52016.02
569.01	52227.09
569.372	52405.61
569.734	52406.74
570.095	52640.18
570.457	52646.29
570.819	52872.72
571.18	52794.53
571.542	53022.55
571.903	53052.38
572.265	53163.79
572.626	53258.92
572.987	53332.59
573.349	53370.33
573.71	53508.18
574.071	53555.64
574.432	53708.4
574.794	53805.12
575.155	53927.16
575.516	53808.06
575.877	53956.99
576.238	53992.69
576.599	54086.47
576.96	54168.05
577.32	54094.16
577.681	54268.84
578.042	54312.46
578.403	54271.1
578.763	54403.3
579.124	54300.48
579.485	54502.06
579.845	54507.03
580.206	54521.72
580.566	54536.18
580.927	54603.52
581.287	54654.14
581.648	54673.35
582.008	54746.12
582.368	54674.48
582.728	54636.06
583.089	54694.82
583.449	54760.13
583.809	54704.31
584.169	54782.05
584.529	54701.6
584.889	54988.14
585.249	54799.45
585.609	54654.82
585.969	54845.55
586.329	54738.89
586.688	54850.07
587.048	54800.35
587.408	54796.96
587.768	54831.54
588.127	54826.11
588.487	54786.79
588.846	54988.82
589.206	54822.27
589.565	54795.83
589.925	54893.46
590.284	54841.71
590.643	54866.34
591.003	54990.63
591.362	55074.7
591.721	54928.94
592.08	54967.35
592.44	55095.49
592.799	55063.62
593.158	54955.38
593.517	54989.73
593.876	55108.59
594.235	54936.17
594.593	54991.76
594.952	55060.46
595.311	54924.19
595.67	54990.86
596.029	55168.93
596.387	55228.36
596.746	55247.12
597.104	55121.7
597.463	55139.55
597.822	55212.77
598.18	55137.29
598.538	55084.41
598.897	55275.59
599.255	55043.51
599.613	55357.17
599.972	55321.92
600.33	55324.86
600.688	55185.65
601.046	55344.97
601.404	55471.75
601.762	55428.13
602.12	55474.23
602.478	55533.44
602.836	55506.32
603.194	55367.12
603.552	55390.85
603.91	55383.16
604.268	55532.31
604.625	55498.41
604.983	55608.92
605.341	55481.46
605.698	55583.38
606.056	55670.39
606.413	55620.9
606.771	55762.36
607.128	55718.75
607.485	55627
607.843	55739.99
608.2	55894.56
608.557	55887.33
608.914	55784.96
609.272	55944.05
609.629	55985.41
609.986	56041.22
610.343	55900.89
610.7	56057.04
611.057	56099.53
611.414	56058.17
611.771	56129.13
612.127	56178.85
612.484	56193.99
612.841	56188.34
613.198	56085.74
613.554	56176.36
613.911	56291.61
614.267	56216.81
614.624	56180.88
614.98	56275.34
615.337	56419.29
615.693	56382.68
616.05	56301.56
616.406	56471.04
616.762	56422.01
617.118	56334.32
617.475	56409.12
617.831	56478.27
618.187	56458.61
618.543	56512.4
618.899	56673.07
619.255	56597.14
619.611	56571.15
619.967	56645.73
620.323	56624.49
620.678	56514.88
621.034	56466.52
621.39	56511.27
621.746	56484.38
622.101	56783.8
622.457	56494.09
622.812	56598.5
623.168	56699.29
623.523	56581.1
623.879	56697.93
624.234	56564.37
624.589	56612.06
624.945	56653.41
625.3	56634.2
625.655	56595.56
626.01	56632.4
626.365	56697.25
626.72	56561.44
627.075	56578.39
627.43	56581.77
627.785	56520.99
628.14	56610.47
628.495	56602.79
628.85	56564.83
629.205	56442.34
629.559	56633.98
629.914	56458.39
630.269	56502.68
630.623	56414.32
630.978	56405.06
631.332	56434.66
631.687	56492.74
632.041	56329.35
632.396	56454.55
632.75	56268.79
633.104	56355.11
633.459	56212.75
633.813	56214.55
634.167	56134.56
634.521	56162.12
634.875	56225.4
635.229	56078.96
635.583	55982.24
635.937	56048
636.291	55986.31
636.645	55943.15
636.999	55921
637.352	55902.47
637.706	55868.35
638.06	55964.62
638.413	55841
638.767	55765.98
639.121	55828.12
639.474	55632.87
639.828	55618.86
640.181	55676.49
640.534	55675.36
640.888	55610.05
641.241	55460.45
641.594	55489.37
641.947	55488.02
642.301	55412.54
642.654	55514.23
643.007	55413.9
643.36	55376.83
643.713	55311.07
644.066	55426.55
644.419	55166.9
644.771	55036.96
645.124	54701.37
645.477	54669.28
645.83	54487.59
646.182	54348.16
646.535	54274.27
646.888	54295.28
647.24	54105.68
647.593	54383.19
647.945	54327.6
648.298	54162.86
648.65	54115.63
649.002	54009.64
649.355	54168.51
649.707	54039.92
650.059	54114.95
650.411	54494.6
650.763	54477.42
651.115	54765.78
651.467	54713.12
651.819	54656.85
652.171	54531.43
652.523	54516.52
652.875	54525.11
653.227	54333.7
653.578	54540.47
653.93	54483.98
654.282	54298.9
654.633	54291.89
654.985	54248.95
655.337	54296.64
655.688	54288.28
656.039	54364.66
656.391	54059.81
656.742	54105.23
657.094	54134.16
657.445	54285.11
657.796	54110.88
658.147	54090.32
658.498	54102.74
658.849	54138.9
659.2	54074.5
659.551	53947.27
659.902	54138.22
660.253	53970.77
660.604	53969.19
660.955	53878.8
661.306	53975.74
661.656	53857.78
662.007	53889.87
662.358	53879.93
662.708	53949.08
663.059	53837.44
663.409	53650.78
663.76	53856.87
664.11	53804.9
664.461	53855.07
664.811	53880.38
665.161	53791.11
665.511	53687.61
665.862	53666.15
666.212	53761.74
666.562	53796.76
666.912	53632.25
667.262	53634.96
667.612	53642.87
667.962	53632.47
668.312	53560.16
668.662	53646.26
669.011	53600.61
669.361	53622.98
669.711	53516.32
670.06	53479.94
670.41	53411.24
670.76	53366.04
671.109	53517
671.459	53383.21
671.808	53327.62
672.157	53443.78
672.507	53246.27
672.856	53247.85
673.205	53326.04
673.554	53317.23
673.904	53206.5
674.253	53332.37
674.602	53204.69
674.951	52856.45
675.3	52625.95
675.649	53115.88
675.998	53126.27
676.346	53017.8
676.695	53164.69
677.044	52945.26
677.393	52942.32
677.741	52932.15
678.09	52913.4
678.438	52831.59
678.787	52932.15
679.135	52851.25
679.484	52671.82
679.832	52794.76
680.181	52543.01
680.529	52644.93
680.877	52596.12
681.225	52580.98
681.573	52656.68
681.922	52473.86
682.27	52428.66
682.618	52394.54
682.966	52342.34
683.314	52302.34
683.661	52195
684.009	52118.16
684.357	51930.15
684.705	52005.85
685.053	51949.13
685.4	51866.19
685.748	51775.35
686.095	51823.93
686.443	51639.98
686.79	51515.02
687.138	51619.87
687.485	51507.56
687.832	51402.7
688.18	51457.62
688.527	51360.9
688.874	51211.07
689.221	51196.61
689.568	51123.61
689.915	51002.71
690.262	50957.06
690.609	50926.78
690.956	50724.53
691.303	50739.89
691.65	50565.66
691.997	50475.49
692.344	50248.61
692.69	50361.37
693.037	50339.45
693.383	49969.07
693.73	50129.52
694.077	49841.39
694.423	49914.38
694.769	49707.61
695.116	49642.3
695.462	49646.14
695.808	49488.18
696.155	49477.1
696.501	49276.2
696.847	49239.82
697.193	48977.91
697.539	49055.19
697.885	48921.41
698.231	48658.59
698.577	48709.21
698.923	48530.24
699.269	48523.23
699.614	48210.47
699.96	48315.78
700.306	48239.4
700.651	48008.89
700.997	47839.18
701.342	47927.09
701.688	47756.7
702.033	47785.17
702.379	47615.01
702.724	47579.3
703.069	47591.05
703.415	47114.23
703.76	47189.25
704.105	47076.26
704.45	47006.21
704.795	46709.27
705.14	46656.61
705.485	46715.59
705.83	46547.01
706.175	46495.03
706.52	46294.36
706.865	46192.67
707.209	46235.61
707.554	45929.63
707.899	46048.72
708.243	45848.5
708.588	45822.06
708.932	45502.74
709.277	45568.28
709.621	45526.92
709.966	45261.17
710.31	45366.93
710.654	45029.76
710.998	45048.97
711.342	45074.28
711.687	45008.29
712.031	44749.77
712.375	44554.97
712.719	44545.71
713.063	44593.39
713.407	44691.01
713.75	44456.67
714.094	44284.7
714.438	44201.08
714.782	44175.77
715.125	44104.81
715.469	44087.41
715.812	43914.31
716.156	43560.65
716.499	43692.62
716.843	43651.49
717.186	43458.5
717.53	43609.69
717.873	43522.01
718.216	43398.39
718.559	43280.2
718.902	43018.06
719.246	43082.69
719.589	42990.27
719.932	42667.56
720.275	42934
720.617	42828.01
720.96	42695.59
721.303	42706.43
721.646	42593.44
721.989	42336.27
722.331	42545.76
722.674	42319.1
723.016	42291.3
723.359	42257.41
723.701	42132.44
724.044	41942.39
724.386	41908.49
724.729	42000.01
725.071	41870.98
725.413	41883.18
725.755	41768.61
726.097	41589.63
726.439	41476.18
726.782	41325.45
727.124	41725.89
727.465	41134.72
727.807	41361.38
728.149	41184.67
728.491	41009.76
728.833	41220.14
729.175	40910.77
729.516	40922.98
729.858	40806.14
730.199	40906.71
730.541	40745.13
730.882	40646.83
731.224	40673.49
731.565	40533.38
731.906	40497.68
732.248	40452.03
732.589	40232.37
732.93	40223.34
733.271	40132.94
733.612	40261.53
733.953	40226.72
734.294	40068.08
734.635	40044.13
734.976	40091.14
735.317	39762.1
735.658	39774.76
735.999	39700.18
736.339	39561.43
736.68	39705.38
737.021	39523.69
737.361	39375
737.702	39595.55
738.042	39463.81
738.383	39429.46
738.723	39264.72
739.063	39231.95
739.404	39189.69
739.744	39126.87
740.084	38923.48
740.424	39020.2
740.764	38812.3
741.104	39019.07
741.444	38732.98
741.784	38642.13
742.124	38668.12
742.464	38708.8
742.804	38517.62
743.143	38538.41
743.483	38360.79
743.823	38269.94
744.162	38170.28
744.502	38265.19
744.841	38193.78
745.181	38259.09
745.52	37937.52
745.86	38113.79
746.199	37901.14
746.538	37907.01
746.877	37961.93
747.216	37838.31
747.556	37740.91
747.895	37759.22
748.234	37542.28
748.573	37461.15
748.911	37445.33
749.25	37319.68
749.589	37235.62
749.928	37166.92
750.267	37236.97
750.605	37269.29
750.944	36959.24
751.283	36977.77
751.621	36904.33
751.96	36775.97
752.298	36834.72
752.636	36740.26
752.975	36547.5
753.313	36344.11
753.651	36595.86
753.989	36290.56
754.327	36274.96
754.666	35934.63
755.004	36126.95
755.342	36039.26
755.679	36031.35
756.017	35677.92
756.355	35863
756.693	35670.91
757.031	35678.37
757.368	35423.01
757.706	35399.96
758.044	35177.37
758.381	35307.98
758.719	35140.76
759.056	35086.97
759.394	34976.69
759.731	34773.76
760.068	34778.51
760.405	34529.7
760.743	34468.23
761.08	34409.02
761.417	34325.41
761.754	34143.49
762.091	34222.14
762.428	34105.53
762.765	33929.04
763.102	33994.35
763.438	33750.96
763.775	33555.49
764.112	33603.62
764.449	33642.72
764.785	33380.35
765.122	33103.3
765.458	33012.45
765.795	33074.37
766.131	33035.5
766.467	32898.33
766.804	32562.52
767.14	32503.31
767.476	32589.41
767.812	32365.01
768.148	32428.29
768.485	32124.34
768.821	32021.06
769.157	31981.52
769.492	31966.15
769.828	31792.14
770.164	31462.66
770.5	31450.68
770.836	31456.79
771.171	31229.45
771.507	31122.33
771.842	31039.17
772.178	30988.55
772.513	30951.26
772.849	30749.01
773.184	30651.61
773.519	30629.46
773.855	30480.09
774.19	30391.05
774.525	30168.23
774.86	30236.03
775.195	30041
775.53	30019.76
775.865	29887.34
776.2	29591.75
776.535	29495.26
776.87	29382.94
777.205	29354.24
777.539	29205.32
777.874	29270.18
778.209	28941.37
778.543	28911.54
778.878	28785.67
779.212	28770.53
779.547	28485.79
779.881	28674.49
780.215	28448.28
780.55	28407.37
780.884	28255.74
781.218	28130.09
781.552	28168.28
781.886	27957.22
782.22	27786.15
782.554	27656.21
782.888	27489.88
783.222	27403.56
783.556	27283.56
783.889	27286.5
784.223	27137.58
784.557	27058.71
784.89	27049.67
785.224	26958.37
785.557	26698.04
785.891	26695.56
786.224	26626.86
786.558	26587.54
786.891	26362.46
787.224	26346.64
787.557	26162.69
787.891	26178.28
788.224	26125.4
788.557	26047.89
788.89	25927.21
789.223	25864.62
789.556	25736.03
789.888	25625.3
790.221	25466.21
790.554	25240.45
790.887	25309.6
791.219	25235.25
791.552	25067.8
791.884	25023.06
792.217	24954.58
792.549	24877.07
792.882	24715.95
793.214	24604.54
793.546	24624.42
793.879	24576.06
794.211	24278.44
794.543	24410.87
794.875	24403.64
795.207	24428.72
795.539	24064.44
795.871	24122.06
796.203	23913.03
796.535	23883.43
796.867	23808.4
797.198	23692.7
797.53	23672.58
797.862	23559.59
798.193	23600.72
798.525	23389.43
798.856	23348.75
799.188	23149.43
799.519	23113.73
799.85	22947.86
800.182	23041.19
800.513	22993.73
800.844	22899.5
801.175	22972.49
801.506	22943.56
801.837	22796.67
802.168	22654.76
802.499	22591.93
802.83	22430.13
803.161	22353.07
803.491	22431.26
803.822	22414.76
804.153	22242.79
804.483	22146.75
804.814	22082.12
805.145	22061.78
805.475	21895.91
805.805	21958.28
806.136	21828.56
806.466	21841.67
806.796	21860.88
807.126	21640.77
807.457	21477.84
807.787	21527.1
808.117	21458.63
808.447	21277.84
808.777	21417.5
809.107	21325.98
809.436	21164.85
809.766	21144.97
810.096	21060.45
810.426	21032.2
810.755	21041.69
811.085	20912.2
811.414	20836.27
811.744	20692.32
812.073	20641.48
812.403	20722.6
812.732	20492.33
813.061	20585.89
813.39	20447.58
813.719	20367.59
814.049	20483.97
814.378	20366.91
814.707	20341.37
815.036	20237.65
815.365	20160.59
815.693	19922.17
816.022	20012.57
816.351	19938.44
816.68	19802.63
817.008	19897.99
817.337	19712.01
817.665	19805.57
817.994	19837.66
818.322	19717.21
818.651	19561.96
818.979	19510.66
819.307	19643.99
819.636	19590.88
819.964	19481.96
820.292	19440.6
820.62	19465.24
820.948	19330.78
821.276	19431.34
821.604	19318.35
821.932	19366.93
822.259	19354.73
822.587	19351.34
822.915	19274.06
823.243	19290.1
823.57	19382.98
823.898	19237.45
824.225	19220.27
824.553	19233.15
824.88	19279.93
825.207	19400.61
825.535	19321.96
825.862	19319.48
826.189	19193.15
826.516	19328.07
826.843	19360.61
827.17	19316.09
827.497	19239.48
827.824	19436.99
828.151	19284.9
828.478	19202.19
828.805	19256.2
829.131	19163.1
829.458	19161.06
829.785	19141.4
830.111	19153.83
830.438	19265.24
830.764	19223.21
831.09	19137.34
831.417	19050.78
831.743	19236.54
832.069	19181.63
832.395	18974.63
832.722	19212.59
833.048	19077
833.374	18990.45
833.7	18995.19
834.026	19042.87
834.351	19077.22
834.677	18970.11
835.003	18985.02
835.329	18950.67
835.654	19006.49
835.98	18864.8
836.306	18883.11
836.631	18811.47
836.956	18825.48
837.282	18870
837.607	18769.66
837.932	18706.16
838.258	18695.99
838.583	18711.81
838.908	18559.5
839.233	18481.08
839.558	18503.45
839.883	18475.66
840.208	18498.93
840.533	18305.72
840.858	18385.27
841.182	18437.47
841.507	18446.73
841.832	18290.13
842.156	18265.49
842.481	18222.56
842.805	18113.86
843.13	18188.66
843.454	18033.86
843.778	17948.89
844.103	18022.79
844.427	17885.84
844.751	17920.42
845.075	17864.15
845.399	17788.67
845.723	17755.23
846.047	17656.92
846.371	17581.9
846.695	17641.78
847.019	17459.41
847.343	17389.36
847.666	17319.76
847.99	17221.91
848.313	17227.33
848.637	17103.04
848.96	17030.05
849.284	17054.45
849.607	16777.17
849.931	16794.8
850.254	16626.67
850.577	16680.23
850.9	16509.61
851.223	16465.77
851.546	16395.04
851.869	16312.55
852.192	16398.88
852.515	16241.14
852.838	16205.66
853.161	16164.08
853.483	16109.84
853.806	16071.2
854.129	16015.61
854.451	15986.23
854.774	15812.45
855.096	15791.66
855.419	15805.67
855.741	15706.69
856.063	15598.67
856.385	15620.82
856.708	15547.83
857.03	15490.2
857.352	15485.68
857.674	15357.32
857.996	15422.18
858.318	15286.14
858.64	15330.88
858.961	15244.56
859.283	15243.65
859.605	15070.78
859.926	15167.95
860.248	15082.08
860.57	15043.66
860.891	15061.28
861.212	14938.35
861.534	14892.25
861.855	14901.29
862.176	14924.79
862.498	14905.36
862.819	14854.51
863.14	14804.34
863.461	14759.6
863.782	14751.24
864.103	14750.11
864.424	14701.75
864.745	14692.93
865.065	14626.04
865.386	14599.38
865.707	14599.83
866.027	14549.89
866.348	14431.47
866.668	14497.68
866.989	14400.96
867.309	14343.56
867.63	14399.83
867.95	14359.16
868.27	14244.81
868.59	14327.07
868.91	14219.05
869.23	14181.08
869.55	14088.43
869.87	14224.7
870.19	14187.18
870.51	14211.14
870.83	14217.92
871.15	13974.99
871.469	14101.99
871.789	14146.73
872.109	14016.79
872.428	14018.15
872.748	14119.16
873.067	13996.91
873.386	14007.3
873.706	13962.33
874.025	13807.98
874.344	13906.51
874.663	13917.81
874.982	13836.01
875.301	13859.06
875.62	13728.66
875.939	13746.74
876.258	13738.16
876.577	13696.12
876.896	13671.94
877.214	13659.74
877.533	13631.72
877.852	13683.02
878.17	13648.44
878.489	13556.69
878.807	13634.43
879.125	13529.12
879.444	13504.72
879.762	13501.33
880.08	13446.64
880.398	13438.5
880.716	13398.28
881.034	13309.69
881.352	13345.4
881.67	13265.17
881.988	13316.47
882.306	13268.11
882.624	13238.06
882.941	13227.21
883.259	13200.54
883.577	13180.43
883.894	13114.22
884.212	13074.9
884.529	13093.88
884.846	13092.07
885.164	13066.99
885.481	12901.57
885.798	12955.13
886.115	12849.14
886.432	12827.9
886.75	12861.57
887.067	12811.4
887.383	12683.95
887.7	12766.43
888.017	12684.17
888.334	12621.8
888.651	12708.35
888.967	12598.75
889.284	12518.75
889.6	12532.31
889.917	12489.6
890.233	12416.38
890.55	12369.38
890.866	12425.2
891.182	12380.9
891.498	12284.86
891.815	12317.18
892.131	12153.34
892.447	12195.82
892.763	12149.95
893.079	12148.14
893.395	12045.54
893.71	12081.25
894.026	12015.04
894.342	12047.13
894.657	11893.01
894.973	11871.76
895.289	11976.17
895.604	11791.31
895.92	11826.34
896.235	11714.71
896.55	11691.43
896.865	11624.09
897.181	11628.61
897.496	11570.3
897.811	11517.42
898.126	11490.76
898.441	11464.32
898.756	11469.29
899.071	11450.08
899.386	11387.03
899.7	11329.18
900.015	11199.69
900.33	11122.41
900.644	11251.44
900.959	11137.32
901.273	11070.88
901.588	11039.7
901.902	10997.44
902.216	10916.53
902.531	10904.78
902.845	10860.27
903.159	10843.54
903.473	10807.61
903.787	10719.7
904.101	10730.1
904.415	10654.85
904.729	10658.46
905.042	10575.75
905.356	10472.03
905.67	10553.38
905.984	10518.81
906.297	10496.66
906.611	10400.84
906.924	10396.32
907.237	10388.87
907.551	10342.54
907.864	10271.58
908.177	10216.89
908.491	10230.23
908.804	10128.53
909.117	10074.3
909.43	10072.94
909.743	9987.97
910.056	9995.2
910.368	9964.24
910.681	9881.53
910.994	9870.69
911.307	9785.72
911.619	9745.72
911.932	9724.48
912.244	9680.64
912.557	9658.49
912.869	9626.63
913.181	9564.03
913.494	9525.16
913.806	9401.55
914.118	9422.11
914.43	9436.8
914.742	9389.34
915.054	9293.3
915.366	9259.4
915.678	9262.57
915.99	9199.74
916.302	9156.58
916.613	9100.54
916.925	9094.66
917.236	9037.04
917.548	8982.35
917.859	9006.75
918.171	8939.64
918.482	8880.66
918.794	8833.2
919.105	8878.85
919.416	8763.82
919.727	8712.07
920.038	8674.33
920.349	8666.2
920.66	8632.3
920.971	8560.89
921.282	8538.07
921.593	8517.5
921.903	8456.94
922.214	8427.79
922.525	8351.86
922.835	8380.56
923.146	8308.02
923.456	8293.1
923.767	8292.2
924.077	8286.77
924.387	8197.74
924.697	8097.85
925.008	8161.58
925.318	8125.65
925.628	8083.62
925.938	8053.56
926.248	7943.28
926.558	7910.96
926.867	7901.7
927.177	7834.13
927.487	7797.29
927.796	7779.44
928.106	7762.95
928.416	7720.69
928.725	7707.13
929.034	7650.63
929.344	7692.44
929.653	7622.61
929.962	7602.72
930.271	7501.94
930.581	7456.06
930.89	7427.81
931.199	7416.97
931.508	7440.02
931.817	7409.28
932.125	7327.25
932.434	7292.45
932.743	7248.38
933.051	7240.02
933.36	7266.46
933.669	7123.19
933.977	7129.74
934.286	7097.65
934.594	7101.72
934.902	6999.12
935.21	6955.28
935.519	7006.13
935.827	6938.11
936.135	6925.91
936.443	6851.11
936.751	6841.61
937.059	6826.47
937.367	6800.71
937.674	6756.64
937.982	6760.71
938.29	6736.08
938.597	6666.25
938.905	6590.1
939.213	6633.48
939.52	6572.69
939.827	6578.12
940.135	6518.23
940.442	6511.23
940.749	6456.09
941.056	6521.4
941.363	6396.65
941.67	6410.44
941.977	6293.83
942.284	6297.67
942.591	6275.75
942.898	6309.2
943.205	6229.2
943.511	6187.39
943.818	6183.1
944.125	6142.2
944.431	6108.07
944.738	6167.96
945.044	6109.88
945.35	6044.8
945.657	6003.9
945.963	5991.92
946.269	5987.4
946.575	5989.43
946.881	5916.89
947.187	5901.53
947.493	5837.8
947.799	5807.06
948.105	5791.92
948.41	5771.36
948.716	5789.66
949.022	5749.67
949.327	5703.11
949.633	5637.58
949.938	5678.48
950.244	5630.57
950.549	5610.01
950.854	5545.6
951.16	5558.71
951.465	5495.89
951.77	5455.66
952.075	5459.05
952.38	5462.67
952.685	5423.35
952.99	5371.37
953.294	5400.75
953.599	5369.11
953.904	5327.53
954.209	5358.49
954.513	5311.26
954.818	5283.46
955.122	5291.37
955.426	5252.73
955.731	5200.75
956.035	5149
956.339	5171.83
956.643	5158.72
956.948	5085.95
957.252	5070.36
957.556	5088.89
957.86	5015.22
958.163	4996.01
958.467	5030.14
958.771	4965.28
959.075	4965.28
959.378	4953.53
959.682	4931.16
959.985	4864.26
960.289	4861.1
960.592	4844.38
960.896	4790.82
961.199	4765.74
961.502	4734.78
961.805	4743.36
962.108	4717.15
962.411	4728.68
962.714	4661.78
963.017	4676.25
963.32	4673.54
963.623	4586.08
963.926	4626.3
964.228	4586.08
964.531	4596.48
964.833	4503.37
965.136	4523.93
965.438	4482.58
965.741	4491.39
966.043	4426.99
966.345	4434.67
966.648	4388.57
966.95	4397.16
967.252	4343.15
967.554	4366.42
967.856	4385.63
968.158	4298.63
968.46	4317.39
968.761	4256.15
969.063	4273.32
969.365	4271.06
969.666	4252.98
969.968	4179.99
970.269	4208.69
970.571	4190.16
970.872	4155.36
971.174	4147
971.475	4105.41
971.776	4079.43
972.077	4067.45
972.378	4049.6
972.679	4039.65
972.98	4038.07
973.281	4010.73
973.582	4015.47
973.883	3975.02
974.183	3938.64
974.484	3913.1
974.785	3887.34
975.085	3887.79
975.386	3876.49
975.686	3789.04
975.986	3836.27
976.287	3835.14
976.587	3781.58
976.887	3805.31
977.187	3763.73
977.487	3781.13
977.787	3734.58
978.087	3702.49
978.387	3735.71
978.687	3709.94
978.987	3686.67
979.286	3634.01
979.586	3635.82
979.885	3617.74
980.185	3573.23
980.484	3570.97
980.784	3580.46
981.083	3546.11
981.382	3521.48
981.682	3515.83
981.981	3507.01
982.28	3473.34
982.579	3462.72
982.878	3472.44
983.177	3445.77
983.475	3421.36
983.774	3405.77
984.073	3392.21
984.372	3336.4
984.67	3401.03
984.969	3354.02
985.267	3317.86
985.566	3316.28
985.864	3314.47
986.162	3319.9
986.461	3280.8
986.759	3262.27
987.057	3238.77
987.355	3220.69
987.653	3203.29
987.951	3208.04
988.249	3182.5
988.547	3166.46
988.844	3176.4
989.142	3158.32
989.44	3126.68
989.737	3092.56
990.035	3115.84
990.332	3059.79
990.63	3054.37
990.927	3037.87
991.224	3018.66
991.521	3012.34
991.819	3008.95
992.116	2984.31
992.413	2969.85
992.71	2961.72
993.006	2986.12
993.303	2917.42
993.6	2959.91
993.897	2905.45
994.193	2899.34
994.49	2895.95
994.787	2860.48
995.083	2825.67
995.379	2813.7
995.676	2839.69
995.972	2793.81
996.268	2808.05
996.565	2787.94
996.861	2735.51
997.157	2761.5
997.453	2707.26
997.749	2730.54
998.044	2679.46
998.34	2721.95
998.636	2682.18
998.932	2665.45
999.227	2661.16
999.523	2648.28
999.818	2580.93
1000.114	2596.75
1000.409	2568.96
1000.704	2550.65
1001	2558.11
1001.295	2549.07
1001.59	2531.22
1001.885	2526.7
1002.18	2509.52
1002.475	2527.38
1002.77	2478.11
1003.065	2455.06
1003.359	2483.76
1003.654	2439.02
1003.949	2405.8
1004.243	2378.91
1004.538	2387.27
1004.832	2382.75
1005.127	2346.82
1005.421	2334.61
1005.715	2332.13
1006.009	2330.55
1006.304	2304.33
1006.598	2264.79
1006.892	2278.34
1007.186	2283.99
1007.48	2237.22
1007.773	2216.2
1008.067	2206.26
1008.361	2223.66
1008.655	2223.66
1008.948	2185.24
1009.242	2181.62
1009.535	2169.87
1009.829	2153.6
1010.122	2152.25
1010.415	2120.83
1010.708	2086.94
1011.001	2095.75
1011.295	2072.02
1011.588	2086.94
1011.881	2074.96
1012.173	2028.63
1012.466	2030.44
1012.759	2036.32
1013.052	2013.27
1013.344	2001.29
1013.637	2001.97
1013.93	2002.42
1014.222	1954.74
1014.514	1934.17
1014.807	1922.87
1015.099	1928.97
1015.391	1930.33
1015.683	1894.4
1015.976	1915.64
1016.268	1874.96
1016.56	1843.78
1016.851	1841.75
1017.143	1849.43
1017.435	1862.31
1017.727	1846.94
1018.018	1832.93
1018.31	1808.98
1018.602	1780.5
1018.893	1772.82
1019.185	1792.48
1019.476	1755.19
1019.767	1745.02
1020.058	1720.84
1020.35	1753.39
1020.641	1705.93
1020.932	1715.87
1021.223	1670.68
1021.514	1666.61
1021.804	1639.72
1022.095	1623.22
1022.386	1610.34
1022.677	1622.99
1022.967	1616.44
1023.258	1609.44
1023.548	1582.32
1023.839	1574.41
1024.129	1549.32
1024.419	1569.66
1024.709	1557.69
1025	1541.87
1025.29	1515.2
1025.58	1516.78
1025.87	1502.55
1026.16	1493.73
1026.449	1481.08
1026.739	1465.03
1027.029	1475.65
1027.319	1460.06
1027.608	1442.43
1027.898	1457.8
1028.187	1409.21
1028.477	1372.38
1028.766	1399.72
1029.055	1399.05
1029.344	1420.29
1029.634	1349.33
1029.923	1354.3
1030.212	1365.15
1030.501	1375.09
1030.79	1350.23
1031.078	1312.72
1031.367	1309.33
1031.656	1301.19
1031.945	1319.27
1032.233	1312.27
1032.522	1281.31
1032.81	1258.94
1033.099	1253.06
1033.387	1240.86
1033.675	1239.73
1033.963	1224.13
1034.251	1248.77
1034.54	1190.01
1034.828	1213.29
1035.116	1210.8
1035.403	1212.16
1035.691	1168.09
1035.979	1177.36
1036.267	1189.33
1036.554	1210.58
1036.842	1153.18
1037.129	1155.44
1037.417	1157.7
1037.704	1128.09
1037.992	1130.35
1038.279	1097.36
1038.566	1111.82
1038.853	1111.82
1039.14	1111.82
