Data from white_wall_FLMS001491_071.txt Node
Date: Tue Feb 07 11:05:45 GMT 2017
User: dcchb
Spectrometer: FLMS00149
Trigger mode: 0
Integration Time (sec): 2.000000E-2
Scans to average: 10
Electric dark correction enabled: true
Nonlinearity correction enabled: false
Boxcar width: 0
XAxis mode: Wavelengths
Number of Pixels in Spectrum: 2048
>>>>>Begin Spectral Data<<<<<
341.393	-14.84
341.776	-14.84
342.16	-14.84
342.543	-63.43
342.927	-64.33
343.31	-79.02
343.693	-70.66
344.077	-57.33
344.46	-41.51
344.843	-60.27
345.226	-27.95
345.61	-30.44
345.993	-11
346.376	-14.39
346.759	1.2
347.142	38.49
347.525	44.59
347.908	41.88
348.291	73.52
348.674	77.81
349.057	115.1
349.44	94.08
349.823	165.94
350.206	158.71
350.588	211.14
350.971	239.84
351.354	224.92
351.737	238.71
352.119	243.68
352.502	291.81
352.884	288.88
353.267	299.72
353.65	314.19
354.032	324.81
354.414	311.93
354.797	336.33
355.179	337.69
355.562	338.37
355.944	340.63
356.326	351.7
356.709	360.06
357.091	361.42
357.473	354.41
357.855	381.3
358.238	329.1
358.62	355.09
359.002	354.41
359.384	375.88
359.766	348.76
360.148	338.59
360.53	355.99
360.912	350.8
361.294	371.59
361.676	332.72
362.057	361.42
362.439	346.05
362.821	322.32
363.203	348.99
363.584	334.75
363.966	338.37
364.348	345.6
364.729	363
365.111	339.95
365.493	348.54
365.874	326.39
366.256	331.81
366.637	332.49
367.019	333.85
367.4	318.03
367.781	349.67
368.163	316.45
368.544	325.03
368.925	330.91
369.306	333.85
369.688	325.94
370.069	332.49
370.45	338.37
370.831	326.62
371.212	327.75
371.593	331.14
371.974	345.37
372.355	337.91
372.736	327.07
373.117	351.47
373.498	360.97
373.879	359.16
374.26	325.94
374.641	351.25
375.021	336.56
375.402	357.8
375.783	366.84
376.163	361.19
376.544	342.89
376.925	360.97
377.305	371.36
377.686	368.2
378.066	344.92
378.447	376.78
378.827	349.44
379.208	350.57
379.588	348.76
379.968	352.6
380.349	352.38
380.729	354.64
381.109	389.21
381.489	347.41
381.87	358.48
382.25	363.45
382.63	359.16
383.01	379.5
383.39	400.51
383.77	385.37
384.15	380.85
384.53	372.72
384.91	405.03
385.29	392.38
385.67	388.53
386.049	404.13
386.429	419.27
386.809	416.78
387.189	412.49
387.568	391.25
387.948	403.68
388.328	398.25
388.707	414.52
389.087	410.46
389.466	417.23
389.846	432.6
390.225	422.88
390.605	431.7
390.984	447.97
391.363	461.75
391.743	452.04
392.122	451.13
392.501	471.92
392.881	471.7
393.26	470.79
393.639	470.79
394.018	485.48
394.397	513.5
394.776	503.79
395.155	506.5
395.534	521.41
395.913	541.07
396.292	525.71
396.671	536.78
397.05	548.08
397.429	555.08
397.808	560.96
398.186	571.36
398.565	572.94
398.944	602.99
399.323	593.05
399.701	583.56
400.08	612.48
400.458	629.66
400.837	647.96
401.215	634.86
401.594	638.02
401.972	685.02
402.351	678.7
402.729	692.71
403.107	715.53
403.486	686.38
403.864	711.69
404.242	727.51
404.62	745.59
404.999	758.92
405.377	767.73
405.755	799.15
406.133	786.26
406.511	818.81
406.889	817.45
407.267	859.26
407.645	827.62
408.023	855.42
408.401	878.69
408.779	888.18
409.156	925.02
409.534	926.37
409.912	933.61
410.29	958.69
410.667	951.01
411.045	979.03
411.422	993.26
411.8	1018.8
412.178	1039.59
412.555	1038.46
412.933	1076.2
413.31	1072.36
413.687	1078.91
414.065	1098.57
414.442	1117.1
414.819	1146.26
415.197	1122.53
415.574	1168.63
415.951	1189.42
416.328	1183.77
416.705	1214.05
417.082	1234.39
417.46	1231.22
417.837	1258.12
418.214	1228.29
418.591	1279.81
418.967	1270.32
419.344	1278.46
419.721	1317.78
420.098	1334.27
420.475	1353.71
420.852	1337.44
421.228	1360.94
421.605	1380.6
421.982	1395.06
422.358	1413.59
422.735	1445.46
423.111	1453.14
423.488	1459.02
423.864	1485.68
424.241	1468.28
424.617	1519.35
424.994	1516.19
425.37	1527.94
425.746	1552.12
426.123	1546.02
426.499	1608.84
426.875	1622.4
427.251	1638.45
427.627	1663.76
428.003	1680.03
428.379	1721.83
428.756	1699.23
429.132	1736.3
429.507	1754.15
429.883	1772.45
430.259	1810.87
430.635	1837.54
431.011	1841.15
431.387	1892.68
431.763	1935.16
432.138	1916.4
432.514	1990.75
432.89	1948.72
433.265	2028.72
433.641	2049.28
434.016	2071.65
434.392	2098.09
434.767	2155.49
435.143	2079.79
435.518	2151.65
435.894	2160.24
436.269	2194.14
436.644	2236.17
437.02	2293.12
437.395	2271.42
437.77	2297.19
438.145	2354.36
438.52	2385.09
438.895	2413.79
439.271	2421.25
439.646	2454.7
440.021	2465.09
440.395	2508.25
440.77	2492.66
441.145	2521.13
441.52	2529.5
441.895	2538.08
442.27	2585.77
442.645	2585.54
443.019	2629.15
443.394	2630.51
443.769	2637.52
444.143	2661.02
444.518	2697.4
444.892	2724.07
445.267	2711.86
445.641	2770.17
446.016	2774.23
446.39	2807.45
446.764	2824.18
447.139	2819.88
447.513	2874.57
447.887	2903.5
448.262	2938.98
448.636	2943.04
449.01	3010.16
449.384	2983.95
449.758	3001.57
450.132	3060.1
450.506	3085.19
450.88	3116.37
451.254	3129.71
451.628	3151.63
452.002	3206.31
452.376	3196.14
452.75	3282.7
453.123	3287.89
453.497	3297.39
453.871	3369.47
454.244	3430.04
454.618	3442.47
454.992	3529.7
455.365	3500.54
455.739	3638.62
456.112	3653.53
456.486	3635.91
456.859	3683.36
457.232	3747.77
457.606	3772.85
457.979	3830.25
458.352	3897.14
458.725	3964.26
459.099	3968.33
459.472	4077.25
459.845	4119.28
460.218	4172.62
460.591	4150.92
460.964	4199.28
461.337	4270.47
461.71	4338.49
462.083	4429.33
462.456	4438.6
462.829	4471.37
463.201	4566.05
463.574	4575.32
463.947	4636.78
464.32	4708.2
464.692	4780.28
465.065	4775.99
465.438	4905.48
465.81	4924.23
466.183	5016.44
466.555	5129.2
466.928	5122.87
467.3	5139.6
467.672	5268.41
468.045	5382.08
468.417	5389.76
468.789	5429.53
469.161	5477.89
469.534	5605.57
469.906	5747.26
470.278	5733.71
470.65	5855.28
471.022	5990.42
471.394	6108.61
471.766	6077.42
472.138	6238.1
472.51	6341.82
472.882	6417.3
473.253	6514.25
473.625	6637.86
473.997	6797.86
474.369	6852.77
474.74	6937.29
475.112	7003.05
475.484	7154.46
475.855	7283.49
476.227	7367.33
476.598	7608.23
476.97	7608.23
477.341	7843.03
477.713	7927.32
478.084	8012.97
478.455	8244.83
478.827	8299.29
479.198	8550.35
479.569	8545.16
479.94	8771.14
480.311	8882.1
480.682	9041.64
481.053	9287.51
481.424	9431.24
481.795	9494.96
482.166	9676.65
482.537	9839.81
482.908	10042.07
483.279	10176.98
483.65	10364.77
484.021	10559.79
484.391	10596.85
484.762	10755.95
485.133	10928.37
485.503	11004.3
485.874	11305.08
486.244	11389.38
486.615	11689.71
486.985	11783.72
487.356	12005.63
487.726	12085.4
488.097	12301.22
488.467	12368.56
488.837	12648.1
489.207	12798.6
489.578	12962.89
489.948	13137.8
490.318	13344.8
490.688	13391.81
491.058	13641.07
491.428	13835.64
491.798	13981.4
492.168	14284.21
492.538	14290.77
492.908	14484.89
493.278	14656.18
493.648	14704.99
494.017	14815.05
494.387	15064.08
494.757	15176.85
495.126	15344.75
495.496	15426.33
495.866	15496.39
496.235	15682.82
496.605	15870.84
496.974	16001.46
497.344	16211.85
497.713	16286.2
498.082	16407.55
498.452	16488.9
498.821	16703.81
499.19	16657.03
499.559	16983.58
499.928	17069.23
500.298	17233.52
500.667	17439.61
501.036	17384.47
501.405	17610.91
501.774	17629.21
502.143	17728.19
502.512	17850.22
502.88	18188.52
503.249	18165.92
503.618	18306.26
503.987	18359.81
504.356	18551.9
504.724	18689.07
505.093	18741.95
505.462	18905.56
505.83	19087.48
506.199	19275.72
506.567	19505.09
506.936	19460.35
507.304	19727.01
507.672	19773.79
508.041	19981.24
508.409	20065.31
508.777	20272.98
509.145	20425.07
509.514	20428.01
509.882	20671.84
510.25	20769.02
510.618	20898.73
510.986	21042.46
511.354	21280.64
511.722	21395.67
512.09	21588.2
512.458	21674.08
512.826	21947.06
513.193	22025.93
513.561	22121.3
513.929	22280.84
514.297	22456.43
514.664	22679.02
515.032	22686.93
515.4	22982.29
515.767	23114.27
516.135	23242.62
516.502	23131.44
516.869	23639
517.237	23769.84
517.604	23732.1
517.972	24002.38
518.339	24152.66
518.706	24170.96
519.073	24417.96
519.44	24573.44
519.808	24899.53
520.175	24913.54
520.542	25243.93
520.909	25440.31
521.276	25487.54
521.643	25693.18
522.009	25828.77
522.376	26039.84
522.743	26247.52
523.11	26554.17
523.477	26701.52
523.843	26940.83
524.21	27156.19
524.577	27334.04
524.943	27423.53
525.31	27665.56
525.676	27908.49
526.043	28030.52
526.409	28185.54
526.776	28503.73
527.142	28598.41
527.508	28876.6
527.874	29047.44
528.241	29223.03
528.607	29297.15
528.973	29463.48
529.339	29506.19
529.705	29868.66
530.071	30042.9
530.437	30173.74
530.803	30369.67
531.169	30592.26
531.535	30355.43
531.901	30781.18
532.267	30815.08
532.632	31124.45
532.998	31145.01
533.364	31403.54
533.73	31397.21
534.095	31665.68
534.461	31868.39
534.826	32078.32
535.192	32168.04
535.557	32297.98
535.923	32303.4
536.288	32538.88
536.653	32637.18
537.019	32662.94
537.384	32874.91
537.749	33093.66
538.114	33182.47
538.479	33217.28
538.845	33358.52
539.21	33384.28
539.575	33589.7
539.94	33722.8
540.305	33896.58
540.67	33865.62
541.034	34074.2
541.399	34213.86
541.764	34331.6
542.129	34423.12
542.494	34586.51
542.858	34799.16
543.223	34739.72
543.587	35048.41
543.952	35073.05
544.316	35235.08
544.681	35112.14
545.045	35461.96
545.41	35543.32
545.774	35654.27
546.138	35875.96
546.503	36067.6
546.867	36074.15
547.231	36340.58
547.595	36407.7
547.959	36405.44
548.324	36495.16
548.688	36639.33
549.052	36851.31
549.416	36974.92
549.779	36968.14
550.143	37167.45
550.507	37408.58
550.871	37460.55
551.235	37656.26
551.599	38030.26
551.962	38018.05
552.326	38251.27
552.689	38460.08
553.053	38338.27
553.417	38508.89
553.78	39017.12
554.143	38827.98
554.507	39164.69
554.87	39287.63
555.234	39746.82
555.597	39519.71
555.96	39761.29
556.323	39939.36
556.686	39991.56
557.05	40170.99
557.413	40354.49
557.776	40452.11
558.139	40883.29
558.502	40859.34
558.865	41024.3
559.228	41380.45
559.59	41377.29
559.953	41426.55
560.316	41967.1
560.679	42047.78
561.041	42307.88
561.404	42412.06
561.767	42739.06
562.129	42629.23
562.492	43061.54
562.854	43108.77
563.217	42969.79
563.579	43373.17
563.941	43621.07
564.304	43799.6
564.666	44111.45
565.028	44130.21
565.39	44232.35
565.753	44469.41
566.115	44587.82
566.477	44618.56
566.839	44758.22
567.201	45235.04
567.563	45211.99
567.925	45426.22
568.287	45362.49
568.648	45649.72
569.01	45765.19
569.372	46039.31
569.734	45981.01
570.095	46278.63
570.457	46412.41
570.819	46444.95
571.18	46509.36
571.542	46807.2
571.903	46884.94
572.265	46983.24
572.626	47075.22
572.987	47167.87
573.349	47260.97
573.71	47365.6
574.071	47518.6
574.432	47593.17
574.794	47868.19
575.155	47931.47
575.516	47815.76
575.877	47956.78
576.238	48031.8
576.599	48111.57
576.96	48366.26
577.32	48338.01
577.681	48346.37
578.042	48489.19
578.403	48485.8
578.763	48476.31
579.124	48555.86
579.485	48688.73
579.845	48738
580.206	48614.16
580.566	48716.08
580.927	48826.36
581.287	48920.59
581.648	48809.86
582.008	48984.55
582.368	48832.68
582.728	48952
583.089	48982.06
583.449	49059.35
583.809	49003.08
584.169	49072.68
584.529	49014.15
584.889	49261.6
585.249	49010.99
585.609	48948.16
585.969	49210.08
586.329	49097.99
586.688	49136.63
587.048	49150.64
587.408	49066.35
587.768	49125.11
588.127	49083.98
588.487	49048.95
588.846	49454.82
589.206	49143.19
589.565	49138.89
589.925	49304.08
590.284	49313.35
590.643	49321.03
591.003	49387.92
591.362	49489.16
591.721	49323.07
592.08	49347.25
592.44	49392.22
592.799	49333.91
593.158	49315.16
593.517	49288.72
593.876	49446.91
594.235	49343.18
594.593	49426.57
594.952	49432.22
595.311	49250.3
595.67	49474.25
596.029	49655.49
596.387	49667.24
596.746	49619.33
597.104	49555.38
597.463	49511.09
597.822	49735.03
598.18	49445.32
598.538	49523.29
598.897	49714.24
599.255	49449.17
599.613	50015.7
599.972	49727.12
600.33	49870.17
600.688	49653.45
601.046	49863.62
601.404	49976.16
601.762	49962.6
602.12	49992.88
602.478	50137.51
602.836	50174.8
603.194	49909.94
603.552	49982.26
603.91	49869.49
604.268	50102.93
604.625	49960.79
604.983	50100.67
605.341	49961.92
605.698	50205.3
606.056	50319.88
606.413	50281.23
606.771	50399.2
607.128	50445.98
607.485	50229.03
607.843	50399.42
608.2	50517.39
608.557	50600.1
608.914	50402.36
609.272	50546.31
609.629	50678.96
609.986	50753.54
610.343	50688.91
610.7	50902.01
611.057	50740.21
611.414	50792.63
611.771	50789.47
612.127	50859.75
612.484	50857.72
612.841	51023.14
613.198	50949.24
613.554	50895
613.911	51107.43
614.267	50990.59
614.624	51129.12
614.98	51147.2
615.337	51256.35
615.693	51196.24
616.05	51232.62
616.406	51377.7
616.762	51240.98
617.118	51232.17
617.475	51272.62
617.831	51399.4
618.187	51467.87
618.543	51507.19
618.899	51721.42
619.255	51588.09
619.611	51524.59
619.967	51741.31
620.323	51786.73
620.678	51575.66
621.034	51547.64
621.39	51663.57
621.746	51563.23
622.101	51947.41
622.457	51612.27
622.812	51661.99
623.168	51718.48
623.523	51751.25
623.879	51876.67
624.234	51645.04
624.589	51807.07
624.945	51859.05
625.3	51839.39
625.655	51723.68
626.01	51785.6
626.365	51803.91
626.72	51701.54
627.075	51727.98
627.43	51677.58
627.785	51682.33
628.14	51744.47
628.495	51816.56
628.85	51674.42
629.205	51613.4
629.559	51794.64
629.914	51591.26
630.269	51680.75
630.623	51514.42
630.978	51509.9
631.332	51647.75
631.687	51591.93
632.041	51488.66
632.396	51681.65
632.75	51388.1
633.104	51450.92
633.459	51264.94
633.813	51296.12
634.167	51339.51
634.521	51353.75
634.875	51372.96
635.229	51180.42
635.583	51060.2
635.937	51158.73
636.291	51034.89
636.645	51096.35
636.999	50980.43
637.352	51090.03
637.706	50909.47
638.06	51053.64
638.413	50992.18
638.767	50872.41
639.121	50863.82
639.474	50663.82
639.828	50599.42
640.181	50715.12
640.534	50767.1
640.888	50524.17
641.241	50484.17
641.594	50592.86
641.947	50688.68
642.301	50372.76
642.654	50472.42
643.007	50444.85
643.36	50417.5
643.713	50303.83
644.066	50554.67
644.419	50223.38
644.771	50058.19
645.124	49714.92
645.477	49589.95
645.83	49364.65
646.182	49326.01
646.535	49112.45
646.888	49257.98
647.24	48906.13
647.593	49128.27
647.945	49128.72
648.298	48926.02
648.65	48923.76
649.002	48778.9
649.355	48949.52
649.707	48807.37
650.059	48963.08
650.411	49347.25
650.763	49306.12
651.115	49714.47
651.467	49755.15
651.819	49644.87
652.171	49507.24
652.523	49515.38
652.875	49575.26
653.227	49337.76
653.578	49579.11
653.93	49401.94
654.282	49398.32
654.633	49074.03
654.985	49322.16
655.337	49293.69
655.688	49292.33
656.039	49324.88
656.391	48921.95
656.742	49121.49
657.094	49208.72
657.445	49274.03
657.796	49117.2
658.147	49024.77
658.498	49054.83
658.849	49040.36
659.2	48952.23
659.551	48913.81
659.902	49006.47
660.253	48918.33
660.604	48993.58
660.955	48800.6
661.306	48839.92
661.656	48803.53
662.007	48795.17
662.358	48750.2
662.708	48689.19
663.059	48686.02
663.409	48500.04
663.76	48746.36
664.11	48596.53
664.461	48661.39
664.811	48747.72
665.161	48695.74
665.511	48497.1
665.862	48635.18
666.212	48692.58
666.562	48679.92
666.912	48544.56
667.262	48469.76
667.612	48512.69
667.962	48529.42
668.312	48532.35
668.662	48669.75
669.011	48512.92
669.361	48424.33
669.711	48345.92
670.06	48238.58
670.41	48324.22
670.76	48237.22
671.109	48402.64
671.459	48338.46
671.808	48223.89
672.157	48306.6
672.507	48001.07
672.856	48035.19
673.205	48035.19
673.554	48274.06
673.904	47937.34
674.253	48254.4
674.602	48038.36
674.951	47493.51
675.3	47316.34
675.649	47832.71
675.998	47713.39
676.346	47810.11
676.695	47858.93
677.044	47671.13
677.393	47848.98
677.741	47777.35
678.09	47615.77
678.438	47477.01
678.787	47611.47
679.135	47642.89
679.484	47477.47
679.832	47459.39
680.181	47261.88
680.529	47457.13
680.877	47353.18
681.225	47237.7
681.573	47245.16
681.922	47158.15
682.27	46869.57
682.618	47010.81
682.966	46889.46
683.314	46928.1
683.661	46829.8
684.009	46581.67
684.357	46561.56
684.705	46392.3
685.053	46398.4
685.4	46338.06
685.748	46165.86
686.095	46300.32
686.443	45996.15
686.79	46004.74
687.138	46038.18
687.485	46079.09
687.832	45838.41
688.18	45884.51
688.527	45501.25
688.874	45602.26
689.221	45461.93
689.568	45351.87
689.915	45281.37
690.262	45320.69
690.609	45107.36
690.956	45001.15
691.303	45125.44
691.65	44771.77
691.997	44689.97
692.344	44590.54
692.69	44480.93
693.037	44476.87
693.383	44200.94
693.73	44295.4
694.077	44169.53
694.423	44009.08
694.769	43935.64
695.116	43732.03
695.462	43857
695.808	43696.1
696.155	43773.61
696.501	43482.09
696.847	43482.32
697.193	43010.24
697.539	43264.47
697.885	42972.27
698.231	42926.4
698.577	42844.14
698.923	42806.18
699.269	42560.99
699.614	42457.94
699.96	42330.48
700.306	42327.32
700.651	42250.49
700.997	41951.06
701.342	41861.79
701.688	41919.87
702.033	41683.27
702.379	41726.88
702.724	41563.27
703.069	41734.79
703.415	41220.23
703.76	41292.09
704.105	41197.41
704.45	41173.23
704.795	40820.24
705.14	40799.68
705.485	40734.14
705.83	40654.14
706.175	40592.45
706.52	40527.59
706.865	40353.13
707.209	40383.42
707.554	40308.84
707.899	40273.81
708.243	40048.74
708.588	39988.85
708.932	39924.44
709.277	39748.86
709.621	39907.95
709.966	39643.55
710.31	39644.23
710.654	39306.16
710.998	39419.6
711.342	39515.87
711.687	39121.75
712.031	39159.72
712.375	39027.29
712.719	39040.85
713.063	38884.25
713.407	39173.96
713.75	38783.01
714.094	38694.19
714.438	38717.7
714.782	38557.93
715.125	38425.73
715.469	38574.65
715.812	38295.33
716.156	38150.93
716.499	38154.1
716.843	38199.07
717.186	37850.83
717.53	38162.01
717.873	38128.11
718.216	38060.31
718.559	37734.45
718.902	37573.77
719.246	37755.91
719.589	37562.92
719.932	37411.52
720.275	37414.23
720.617	37441.57
720.96	37176.27
721.303	37196.61
721.646	37240
721.989	36998.19
722.331	37193.67
722.674	36952.77
723.016	36999.55
723.359	36973.11
723.701	36938.31
724.044	36752.78
724.386	36585.32
724.729	36863.28
725.071	36617.19
725.413	36667.58
725.755	36573.35
726.097	36458.77
726.439	36334.26
726.782	36434.14
727.124	36398.89
727.465	36280.7
727.807	36244.99
728.149	36057.2
728.491	36021.5
728.833	36120.93
729.175	35812.91
729.516	35786.25
729.858	35774.27
730.199	35780.15
730.541	35796.19
730.882	35691.34
731.224	35735.18
731.565	35426.48
731.906	35470.78
732.248	35539.48
732.589	35198.24
732.93	35253.83
733.271	35207.51
733.612	35267.62
733.953	35212.48
734.294	35040.05
734.635	34837.35
734.976	35040.28
735.317	34830.57
735.658	34866.5
735.999	34946.27
736.339	34786.27
736.68	34808.42
737.021	34670.12
737.361	34577.69
737.702	34763.68
738.042	34503.12
738.383	34546.73
738.723	34650.23
739.063	34405.04
739.404	34495.89
739.744	34430.8
740.084	34202.11
740.424	34208.89
740.764	34056.8
741.104	34213.63
741.444	33936.58
741.784	33861.55
742.124	33993.3
742.464	34061.55
742.804	33966.86
743.143	33734.1
743.483	33819.75
743.823	33653.87
744.162	33738.17
744.502	33651.16
744.841	33451.62
745.181	33633.54
745.52	33405.52
745.86	33504.95
746.199	33411.62
746.538	33200.55
746.877	33363.49
747.216	33247.78
747.556	33285.07
747.895	33103.83
748.234	33148.8
748.573	32929.6
748.911	32940.9
749.25	32956.04
749.589	32751.07
749.928	32794.91
750.267	32776.16
750.605	32731.19
750.944	32609.38
751.283	32367.81
751.621	32519.44
751.96	32344.08
752.298	32336.17
752.636	32427.92
752.975	32216.4
753.313	32014.14
753.651	32158.77
753.989	31947.48
754.327	31958.55
754.666	31848.95
755.004	31788.16
755.342	31827.71
755.679	31643.53
756.017	31589.52
756.355	31628.39
756.693	31353.6
757.031	31535.51
757.368	31205.13
757.706	31409.41
758.044	31160.38
758.381	31065.24
758.719	30976.21
759.056	31069.76
759.394	30943.44
759.731	30791.58
760.068	30671.13
760.405	30569.44
760.743	30526.95
761.08	30531.47
761.417	30378.48
761.754	30215.32
762.091	30341.19
762.428	30009
762.765	30037.92
763.102	30006.29
763.438	29856.69
763.775	29665.28
764.112	29727.88
764.449	29682.68
764.785	29456.7
765.122	29358.62
765.458	29220.09
765.795	29392.07
766.131	29186.87
766.467	29055.8
766.804	29011.06
767.14	28868.24
767.476	28870.27
767.812	28645.42
768.148	28657.17
768.485	28490.17
768.821	28339.44
769.157	28406.33
769.492	28213.11
769.828	28149.61
770.164	27902.39
770.5	27973.12
770.836	27837.08
771.171	27631.21
771.507	27679.79
771.842	27442.51
772.178	27378.56
772.513	27382.4
772.849	27376.3
773.184	27158.23
773.519	27164.55
773.855	26986.71
774.19	26876.2
774.525	26824.68
774.86	26708.75
775.195	26627.62
775.53	26551.24
775.865	26405.25
776.2	26217.69
776.535	26200.96
776.87	26003.91
777.205	26070.35
777.539	25925.72
777.874	25886.85
778.209	25666.51
778.543	25704.25
778.878	25403.24
779.212	25434.88
779.547	25372.06
779.881	25516.24
780.215	25191.05
780.55	25115.12
780.884	25087.32
781.218	24996.93
781.552	24859.98
781.886	24809.81
782.22	24761.45
782.554	24577.5
782.888	24368.7
783.222	24303.84
783.556	24156.72
783.889	24254.8
784.223	23925.77
784.557	23927.13
784.89	24022.49
785.224	23783.4
785.557	23779.11
785.891	23684.42
786.224	23545.67
786.558	23531.88
786.891	23345.9
787.224	23310.19
787.557	23232.68
787.891	23216.41
788.224	23130.31
788.557	23210.53
788.89	23008.96
789.223	23023.65
789.556	22725.35
789.888	22770.55
790.221	22768.29
790.554	22507.28
790.887	22522.87
791.219	22450.1
791.552	22401.97
791.884	22260.73
792.217	22237.68
792.549	22210.11
792.882	21985.71
793.214	21792.94
793.546	21961.98
793.879	21787.07
794.211	21666.85
794.543	21709.33
794.875	21515.89
795.207	21628.65
795.539	21445.83
795.871	21562.89
796.203	21226.18
796.535	21180.53
796.867	21147.31
797.198	21035.22
797.53	21054.88
797.862	20938.05
798.193	20858.28
798.525	20821.67
798.856	20885.85
799.188	20546.87
799.519	20502.13
799.85	20525.41
800.182	20486.54
800.513	20506.65
800.844	20208.8
801.175	20399.76
801.506	20300.1
801.837	20112.99
802.168	20118.41
802.499	20036.83
802.83	19903.73
803.161	19855.82
803.491	19874.58
803.822	19861.24
804.153	19793.22
804.483	19630.97
804.814	19578.76
805.145	19512.33
805.475	19535.15
805.805	19444.08
806.136	19413.57
806.466	19331.09
806.796	19342.84
807.126	19144.65
807.457	19181.71
807.787	19109.17
808.117	19012.68
808.447	18988.05
808.777	18984.88
809.107	18860.59
809.436	18894.26
809.766	18899.69
810.096	18795.51
810.426	18709.64
810.755	18771.55
811.085	18604.78
811.414	18707.6
811.744	18419.47
812.073	18454.73
812.403	18375.86
812.732	18326.82
813.061	18337.22
813.39	18200.95
813.719	18215.41
814.049	18258.12
814.378	18116.66
814.707	17997.56
815.036	18118.92
815.365	17966.6
815.693	17800.96
816.022	17816.1
816.351	17722.77
816.68	17617.91
817.008	17656.33
817.337	17480.29
817.665	17505.83
817.994	17568.65
818.322	17555.32
818.651	17405.94
818.979	17409.33
819.307	17485.26
819.636	17393.96
819.964	17346.96
820.292	17346.96
820.62	17257.92
820.948	17255.89
821.276	17299.05
821.604	17238.71
821.932	17291.82
822.259	17214.08
822.587	17220.41
822.915	17134.54
823.243	17206.85
823.57	17088.21
823.898	17238.94
824.225	17052.5
824.553	17165.49
824.88	17096.12
825.207	17183.35
825.535	17089.79
825.862	17159.39
826.189	17127.08
826.516	17171.6
826.843	17178.6
827.17	17147.64
827.497	17124.59
827.824	17161.65
828.151	17157.81
828.478	17112.39
828.805	17239.62
829.131	17169.56
829.458	17101.09
829.785	17049.34
830.111	17033.3
830.438	17116
830.764	17119.85
831.09	17100.64
831.417	16954.88
831.743	17036.01
832.069	17024.26
832.395	16905.16
832.722	17048.44
833.048	16932.05
833.374	16890.25
833.7	16950.59
834.026	16907.42
834.351	16956.69
834.677	16925.73
835.003	17016.8
835.329	17007.76
835.654	16939.74
835.98	16739.74
836.306	16815.9
836.631	16754.88
836.956	16729.57
837.282	16773.64
837.607	16714.66
837.932	16659.52
838.258	16629.69
838.583	16576.13
838.908	16557.15
839.233	16519.41
839.558	16532.07
839.883	16439.19
840.208	16415.91
840.533	16437.6
840.858	16412.52
841.182	16363.71
841.507	16355.35
841.832	16222.02
842.156	16119.42
842.481	16245.97
842.805	16242.81
843.13	16191.74
843.454	16152.64
843.778	16060.21
844.103	16040.1
844.427	16068.57
844.751	15952.65
845.075	16004.62
845.399	15853.44
845.723	15748.58
846.047	15838.98
846.371	15748.81
846.695	15747.68
847.019	15564.86
847.343	15532.32
847.666	15360.57
847.99	15288.26
848.313	15401.93
848.637	15243.96
848.96	15227.92
849.284	15143.85
849.607	15075.38
849.931	15051.88
850.254	14831.77
850.577	14959.9
850.9	14726.01
851.223	14729.4
851.546	14614.38
851.869	14543.42
852.192	14672
852.515	14429.07
852.838	14463.19
853.161	14452.35
853.483	14306.36
853.806	14319.24
854.129	14286.47
854.451	14163.31
854.774	14121.96
855.096	14099.59
855.419	14144.11
855.741	14070.21
856.063	14001.28
856.385	13920.16
856.708	13851.91
857.03	13864.34
857.352	13841.29
857.674	13868.41
857.996	13666.6
858.318	13638.36
858.64	13749.54
858.961	13639.94
859.283	13617.79
859.605	13549.09
859.926	13573.27
860.248	13560.84
860.57	13357.69
860.891	13447.17
861.212	13381.41
861.534	13329.21
861.855	13315.2
862.176	13253.28
862.498	13336.44
862.819	13310.23
863.14	13155.2
863.461	13211.7
863.782	13092.16
864.103	13140.06
864.424	13021.88
864.745	13102.32
865.065	13025.94
865.386	12961.54
865.707	12969.67
866.027	12965.15
866.348	12926.06
866.668	12925.15
866.989	12909.34
867.309	12877.92
867.63	12843.8
867.95	12762.67
868.27	12781.66
868.59	12783.46
868.91	12707.99
869.23	12714.99
869.55	12665.95
869.87	12822.78
870.19	12734.2
870.51	12719.28
870.83	12657.14
871.15	12582.56
871.469	12618.5
871.789	12600.19
872.109	12576.24
872.428	12441.55
872.748	12512.96
873.067	12411.72
873.386	12503.02
873.706	12405.39
874.025	12413.98
874.344	12357.94
874.663	12383.02
874.982	12349.8
875.301	12274.55
875.62	12242.69
875.939	12261.44
876.258	12310.03
876.577	12224.83
876.896	12204.04
877.214	12108
877.533	12157.94
877.852	12141.9
878.17	12218.73
878.489	12190.03
878.807	12142.12
879.125	12023.26
879.444	12069.13
879.762	12081.11
880.08	12082.92
880.398	11973.54
880.716	12069.36
881.034	11940.55
881.352	11969.02
881.67	11872.53
881.988	11890.83
882.306	11881.11
882.624	11854
882.941	11807.9
883.259	11688.58
883.577	11705.75
883.894	11740.33
884.212	11655.36
884.529	11630.05
884.846	11584.17
885.164	11661.23
885.481	11516.15
885.798	11523.16
886.115	11496.49
886.432	11543.95
886.75	11379.66
887.067	11471.86
887.383	11325.2
887.7	11333.11
888.017	11353.9
888.334	11333.56
888.651	11320.68
888.967	11306.44
889.284	11138.53
889.6	11174.47
889.917	11148.03
890.233	11033.45
890.55	11065.99
890.866	11055.83
891.182	11087.01
891.498	10976.28
891.815	10968.6
892.131	10875.26
892.447	10917.75
892.763	10828.26
893.079	10743.52
893.395	10781.48
893.71	10765.21
894.026	10719.56
894.342	10684.99
894.657	10603.18
894.973	10635.27
895.289	10600.7
895.604	10571.77
895.92	10425.56
896.235	10522.96
896.55	10520.7
896.865	10409.51
897.181	10513.01
897.496	10391.66
897.811	10376.29
898.126	10335.84
898.441	10313.25
898.756	10218.56
899.071	10212.46
899.386	10196.19
899.7	10096.3
900.015	10054.72
900.33	9955.74
900.644	9962.97
900.959	10021.5
901.273	9973.82
901.588	9861.73
901.902	9861.73
902.216	9774.05
902.531	9749.19
902.845	9720.94
903.159	9746.26
903.473	9660.38
903.787	9611.34
904.101	9565.47
904.415	9536.32
904.729	9545.36
905.042	9534.74
905.356	9448.18
905.67	9390.56
905.984	9448.86
906.297	9392.82
906.611	9278.24
906.924	9324.57
907.237	9285.25
907.551	9202.54
907.864	9166.61
908.177	9138.36
908.491	9088.65
908.804	9026.95
909.117	9046.61
909.43	8953.51
909.743	8911.7
910.056	8915.77
910.368	8904.92
910.681	8809.56
910.994	8849.1
911.307	8836.22
911.619	8750.57
911.932	8715.32
912.244	8680.97
912.557	8677.58
912.869	8537.25
913.181	8596.23
913.494	8548.77
913.806	8436.91
914.118	8440.53
914.43	8440.75
914.742	8447.98
915.054	8379.96
915.366	8345.16
915.678	8271.49
915.99	8210.48
916.302	8155.79
916.613	8174.77
916.925	8126.18
917.236	8099.07
917.548	8043.25
917.859	8083.25
918.171	8085.28
918.482	7971.61
918.794	7900.88
919.105	7901.56
919.416	7842.35
919.727	7788.34
920.038	7815.23
920.349	7727.33
920.66	7729.13
920.971	7727.1
921.282	7668.12
921.593	7631.28
921.903	7594.9
922.214	7571.62
922.525	7484.39
922.835	7523.04
923.146	7506.31
923.456	7427.67
923.767	7396.26
924.077	7305.42
924.387	7385.64
924.697	7280.78
925.008	7275.59
925.318	7233.1
925.628	7285.98
925.938	7234.46
926.248	7136.15
926.558	7140.67
926.867	7111.3
927.177	7055.48
927.487	7034.01
927.796	6977.97
928.106	6983.39
928.416	6972.32
928.725	6926.67
929.034	6896.84
929.344	6884.86
929.653	6835.15
929.962	6822.26
930.271	6735.49
930.581	6768.93
930.89	6618.88
931.199	6686
931.508	6660.46
931.817	6689.16
932.125	6631.99
932.434	6506.34
932.743	6501.59
933.051	6526.23
933.36	6473.8
933.669	6452.56
933.977	6386.57
934.286	6422.5
934.594	6398.55
934.902	6313.8
935.21	6288.04
935.519	6343.18
935.827	6259.57
936.135	6213.47
936.443	6187.25
936.751	6167.59
937.059	6154.26
937.367	6102.74
937.674	6160.36
937.982	6045.34
938.29	6047.37
938.597	6085.56
938.905	6012.79
939.213	5956.07
939.52	5896.41
939.827	5914.04
940.135	5891.89
940.442	5852.35
940.749	5852.57
941.056	5764.21
941.363	5814.83
941.67	5764.44
941.977	5734.38
942.284	5695.06
942.591	5682.63
942.898	5665.91
943.205	5653.26
943.511	5603.31
943.818	5556.53
944.125	5564.22
944.431	5511.34
944.738	5531.68
945.044	5506.59
945.35	5470.44
945.657	5430.44
945.963	5406.03
946.269	5380.04
946.575	5372.36
946.881	5298.01
947.187	5324.45
947.493	5313.83
947.799	5264.79
948.105	5222.53
948.41	5223.89
948.716	5234.28
949.022	5166.04
949.327	5161.06
949.633	5122.87
949.938	5045.59
950.244	5100.28
950.549	5053.5
950.854	5041.75
951.16	5037.45
951.465	5006.49
951.77	4984.12
952.075	4945.7
952.38	4932.82
952.685	4894.63
952.99	4818.93
953.294	4864.8
953.599	4835.2
953.904	4785.03
954.209	4774.41
954.513	4758.59
954.818	4715.2
955.122	4704.58
955.426	4741.87
955.731	4649.89
956.035	4702.32
956.339	4660.51
956.643	4632.04
956.948	4608.09
957.252	4594.07
957.556	4608.99
957.86	4562.21
958.163	4551.36
958.467	4580.06
958.771	4492.16
959.075	4537.35
959.378	4434.76
959.682	4437.24
959.985	4428.2
960.289	4423.68
960.592	4404.47
960.896	4348.43
961.199	4308.88
961.502	4342.78
961.805	4308.88
962.108	4278.38
962.411	4283.57
962.714	4216.91
963.017	4216.46
963.32	4273.63
963.623	4228.43
963.926	4189.34
964.228	4164.48
964.531	4124.48
964.833	4158.83
965.136	4071.83
965.438	4108.89
965.741	4060.53
966.043	4078.83
966.345	4039.51
966.648	4015.11
966.95	3993.86
967.252	3952.74
967.554	3968.1
967.856	3964.26
968.158	3912.06
968.46	3930.14
968.761	3880.87
969.063	3813.3
969.365	3827.54
969.666	3824.6
969.968	3796.13
970.269	3810.82
970.571	3796.58
970.872	3776.47
971.174	3726.07
971.475	3745.73
971.776	3719.29
972.077	3696.02
972.378	3650.37
972.679	3685.62
972.98	3632.29
973.281	3646.3
973.582	3598.62
973.883	3607.21
974.183	3582.8
974.484	3579.41
974.785	3532.63
975.085	3557.49
975.386	3557.27
975.686	3485.85
975.986	3513.2
976.287	3470.94
976.587	3421.45
976.887	3468
977.187	3430.04
977.487	3436.59
977.787	3395.91
978.087	3381.45
978.387	3353.88
978.687	3379.19
978.987	3336.48
979.286	3297.39
979.586	3319.31
979.885	3301.68
980.185	3261.68
980.484	3230.04
980.784	3240.89
981.083	3229.59
981.382	3223.04
981.682	3213.09
981.981	3185.98
982.28	3194.34
982.579	3162.47
982.878	3153.43
983.177	3136.03
983.475	3154.79
983.774	3116.15
984.073	3119.31
984.372	3060.1
984.67	3073.21
984.969	3060.78
985.267	3030.5
985.566	3029.37
985.864	2987.56
986.162	3004.96
986.461	2955.02
986.759	2972.65
987.057	2923.61
987.355	2933.55
987.653	2924.29
987.951	2903.72
988.249	2908.24
988.547	2902.37
988.844	2901.92
989.142	2836.61
989.44	2856.04
989.737	2843.39
990.035	2821.69
990.332	2775.36
990.63	2771.07
990.927	2773.56
991.224	2772.43
991.521	2756.83
991.819	2706.67
992.116	2725.42
992.413	2710.96
992.71	2723.84
993.006	2653.33
993.303	2715.93
993.6	2640.45
993.897	2673.67
994.193	2645.88
994.49	2616.05
994.787	2627.8
995.083	2586.9
995.379	2601.13
995.676	2574.69
995.972	2563.39
996.268	2560.68
996.565	2540.12
996.861	2524.07
997.157	2531.98
997.453	2507.8
997.749	2480.68
998.044	2467.12
998.34	2454.7
998.636	2442.04
998.932	2425.09
999.227	2407.24
999.523	2406.11
999.818	2408.14
1000.114	2372.66
1000.409	2357.97
1000.704	2369.73
1001	2364.3
1001.295	2336.05
1001.59	2324.3
1001.885	2311.42
1002.18	2282.27
1002.475	2286.11
1002.77	2253.34
1003.065	2237.53
1003.359	2235.04
1003.654	2227.58
1003.949	2213.57
1004.243	2205.66
1004.538	2186
1004.832	2188.26
1005.127	2157.53
1005.421	2143.29
1005.715	2169.51
1006.009	2129.51
1006.304	2084.76
1006.598	2124.53
1006.892	2110.52
1007.186	2088.15
1007.48	2068.04
1007.773	2066.68
1008.067	2034.59
1008.361	1987.36
1008.655	2031.2
1008.948	2025.55
1009.242	1990.75
1009.535	1982.84
1009.829	1951.21
1010.122	1961.6
1010.415	1946.23
1010.708	1963.86
1011.001	1945.78
1011.295	1929.51
1011.588	1912.56
1011.881	1894.48
1012.173	1884.54
1012.466	1886.57
1012.759	1889.51
1013.052	1875.5
1013.344	1849.51
1013.637	1823.53
1013.93	1831.43
1014.222	1774.94
1014.514	1797.31
1014.807	1795.96
1015.099	1801.83
1015.391	1783.98
1015.683	1776.07
1015.976	1746.47
1016.268	1759.35
1016.56	1688.84
1016.851	1713.02
1017.143	1709.86
1017.435	1717.99
1017.727	1696.75
1018.018	1676.18
1018.31	1651.78
1018.602	1646.81
1018.893	1640.93
1019.185	1649.29
1019.476	1641.16
1019.767	1619.01
1020.058	1580.14
1020.35	1588.05
1020.641	1589.18
1020.932	1577.88
1021.223	1556.87
1021.514	1551.44
1021.804	1499.47
1022.095	1535.85
1022.386	1528.84
1022.677	1496.3
1022.967	1487.04
1023.258	1472.12
1023.548	1462.86
1023.839	1459.69
1024.129	1439.58
1024.419	1448.85
1024.709	1445.68
1025	1417.21
1025.29	1406.59
1025.58	1411.33
1025.87	1380.6
1026.16	1370.66
1026.449	1394.84
1026.739	1355.29
1027.029	1358.68
1027.319	1358.23
1027.608	1324.78
1027.898	1330.43
1028.187	1328.62
1028.477	1331.34
1028.766	1283.65
1029.055	1299.02
1029.344	1288.17
1029.634	1285.69
1029.923	1278.23
1030.212	1280.71
1030.501	1251.56
1030.79	1258.34
1031.078	1238.91
1031.367	1217.44
1031.656	1235.97
1031.945	1222.19
1032.233	1198.23
1032.522	1196.2
1032.81	1208.4
1033.099	1185.12
1033.387	1183.99
1033.675	1160.72
1033.963	1127.95
1034.251	1140.15
1034.54	1133.83
1034.828	1120.27
1035.116	1124.33
1035.403	1128.4
1035.691	1127.5
1035.979	1117.56
1036.267	1086.14
1036.554	1089.53
1036.842	1091.34
1037.129	1078.01
1037.417	1067.39
1037.704	1048.4
1037.992	1055.18
1038.279	1056.77
1038.566	1047.95
1038.853	1047.95
1039.14	1047.95
