Data from white_wall_FLMS001491_057.txt Node
Date: Tue Feb 07 11:04:58 GMT 2017
User: dcchb
Spectrometer: FLMS00149
Trigger mode: 0
Integration Time (sec): 2.000000E-2
Scans to average: 10
Electric dark correction enabled: true
Nonlinearity correction enabled: false
Boxcar width: 0
XAxis mode: Wavelengths
Number of Pixels in Spectrum: 2048
>>>>>Begin Spectral Data<<<<<
341.393	-4.53
341.776	-4.53
342.16	-4.53
342.543	-60.58
342.927	-79.33
343.31	-59.67
343.693	-64.42
344.077	-64.65
344.46	-61.48
344.843	-65.55
345.226	-47.24
345.61	-15.83
345.993	-16.28
346.376	-15.61
346.759	9.7
347.142	29.36
347.525	45.63
347.908	49.48
348.291	63.71
348.674	105.75
349.057	107.1
349.44	121.79
349.823	159.53
350.206	149.13
350.588	192.52
350.971	209.47
351.354	216.48
351.737	240.21
352.119	242.24
352.502	250.37
352.884	284.05
353.267	293.76
353.65	289.7
354.032	294.44
354.414	316.14
354.797	318.4
355.179	322.24
355.562	317.49
355.944	339.86
356.326	321.56
356.709	329.24
357.091	340.54
357.473	348.9
357.855	339.41
358.238	349.13
358.62	345.06
359.002	345.29
359.384	338.51
359.766	325.18
360.148	337.15
360.53	342.58
360.912	318.4
361.294	332.41
361.676	334.21
362.057	335.12
362.439	333.31
362.821	329.47
363.203	327.21
363.584	323.59
363.966	336.47
364.348	316.81
364.729	324.95
365.111	323.82
365.493	340.77
365.874	293.76
366.256	331.28
366.637	315.23
367.019	333.08
367.4	330.6
367.781	313.2
368.163	327.89
368.544	287.66
368.925	327.43
369.306	307.1
369.688	313.65
370.069	319.53
370.45	312.97
370.831	314.33
371.212	302.35
371.593	318.62
371.974	327.21
372.355	305.51
372.736	319.75
373.117	304.84
373.498	311.16
373.879	324.27
374.26	318.4
374.641	312.75
375.021	320.88
375.402	324.27
375.783	333.99
376.163	331.73
376.544	324.05
376.925	313.42
377.305	349.81
377.686	318.85
378.066	340.77
378.447	330.37
378.827	331.95
379.208	332.18
379.588	338.73
379.968	350.26
380.349	368.34
380.729	362.24
381.109	335.34
381.489	338.51
381.87	342.58
382.25	319.3
382.63	365.85
383.01	339.41
383.39	344.38
383.77	345.51
384.15	372.63
384.53	363.14
384.91	377.83
385.29	371.95
385.67	351.39
386.049	358.85
386.429	360.65
386.809	362.69
387.189	383.48
387.568	374.44
387.948	387.77
388.328	373.76
388.707	389.35
389.087	419.18
389.466	394.78
389.846	386.19
390.225	409.47
390.605	401.33
390.984	388.68
391.363	410.6
391.743	396.81
392.122	429.13
392.501	424.38
392.881	426.64
393.26	406.3
393.639	432.97
394.018	453.08
394.397	434.55
394.776	425.06
395.155	439.97
395.534	456.92
395.913	446.98
396.292	465.06
396.671	470.03
397.05	485.17
397.429	474.55
397.808	480.43
398.186	496.47
398.565	489.92
398.944	531.5
399.323	501.67
399.701	514.77
400.08	515.9
400.458	521.55
400.837	564.94
401.215	539.86
401.594	562.68
401.972	586.86
402.351	569.91
402.729	527.88
403.107	563.59
403.486	562.91
403.864	606.98
404.242	614.66
404.62	590.25
404.999	630.25
405.377	624.6
405.755	630.7
406.133	658.73
406.511	658.27
406.889	691.72
407.267	683.58
407.645	686.07
408.023	708.44
408.401	718.61
408.779	697.59
409.156	732.4
409.534	740.98
409.912	758.16
410.29	778.27
410.667	773.3
411.045	803.81
411.422	783.24
411.8	805.39
412.178	834.99
412.555	843.13
412.933	857.36
413.31	851.49
413.687	828.21
414.065	890.81
414.442	872.51
414.819	907.98
415.197	920.87
415.574	917.25
415.951	927.87
416.328	929.9
416.705	944.59
417.082	950.47
417.46	971.03
417.837	983.46
418.214	971.03
418.591	1021.88
418.967	1022.78
419.344	1025.72
419.721	1036.12
420.098	1050.58
420.475	1035.21
420.852	1065.27
421.228	1070.01
421.605	1086.06
421.982	1096.23
422.358	1077.7
422.735	1104.14
423.111	1128.09
423.488	1152.5
423.864	1150.46
424.241	1156.34
424.617	1164.93
424.994	1190.92
425.37	1212.38
425.746	1204.25
426.123	1200.63
426.499	1233.4
426.875	1256.9
427.251	1275.66
427.627	1286.96
428.003	1285.83
428.379	1308.43
428.756	1327.63
429.132	1334.64
429.507	1387.75
429.883	1371.25
430.259	1397.92
430.635	1409.44
431.011	1412.15
431.387	1464.35
431.763	1487.4
432.138	1472.04
432.514	1477.46
432.89	1526.27
433.265	1571.02
433.641	1553.17
434.016	1605.14
434.392	1585.93
434.767	1604.01
435.143	1636.55
435.518	1651.24
435.894	1662.77
436.269	1679.26
436.644	1708.42
437.02	1700.05
437.395	1757
437.77	1756.32
438.145	1780.73
438.52	1818.47
438.895	1809.88
439.271	1807.4
439.646	1883.1
440.021	1878.81
440.395	1891.91
440.77	1864.12
441.145	1900.73
441.52	1920.16
441.895	1945.7
442.27	1951.57
442.645	1974.85
443.019	2018.01
443.394	1999.93
443.769	1993.61
444.143	2011.46
444.518	2060.5
444.892	2023.89
445.267	2079.03
445.641	2086.94
446.016	2134.39
446.39	2124.22
446.764	2111.34
447.139	2125.13
447.513	2189.53
447.887	2174.62
448.262	2160.83
448.636	2207.16
449.01	2210.32
449.384	2227.27
449.758	2267.5
450.132	2250.77
450.506	2290.55
450.88	2282.64
451.254	2320.15
451.628	2347.27
452.002	2387.72
452.376	2421.17
452.75	2428.62
453.123	2429.07
453.497	2479.02
453.871	2493.48
454.244	2568.05
454.618	2563.31
454.992	2585
455.365	2605.57
455.739	2641.72
456.112	2701.61
456.486	2722.4
456.859	2739.12
457.232	2809.63
457.606	2779.8
457.979	2807.14
458.352	2935.05
458.725	2927.59
459.099	2985.22
459.472	3003.3
459.845	3030.87
460.218	3048.04
460.591	3089.17
460.964	3116.06
461.337	3215.72
461.71	3236.74
462.083	3260.92
462.456	3315.15
462.829	3263.63
463.201	3319.22
463.574	3389.5
463.947	3447.58
464.32	3507.01
464.692	3535.26
465.065	3589.95
465.438	3603.28
465.81	3651.64
466.183	3678.53
466.555	3778.87
466.928	3805.31
467.3	3811.64
467.672	3885.31
468.045	3968.24
468.417	4017.73
468.789	4054.79
469.161	4041.46
469.534	4119.88
469.906	4223.15
470.278	4261.57
470.65	4311.96
471.022	4365.52
471.394	4487.33
471.766	4537.72
472.138	4562.35
472.51	4679.64
472.882	4699.98
473.253	4773.42
473.625	4896.81
473.997	4985.62
474.369	4950.59
474.74	5071.49
475.112	5189.23
475.484	5235.1
475.855	5314.65
476.227	5339.05
476.598	5535.43
476.97	5574.3
477.341	5681.87
477.713	5768.2
478.084	5789.21
478.455	5940.39
478.827	6004.57
479.198	6242.31
479.569	6274.17
479.94	6365.47
480.311	6419.7
480.682	6562.98
481.053	6762.52
481.424	6840.71
481.795	6920.03
482.166	6998.9
482.537	7152.57
482.908	7295.16
483.279	7361.15
483.65	7462.39
484.021	7678.65
484.391	7722.72
484.762	7759.78
485.133	7873.23
485.503	7991.64
485.874	8169.94
486.244	8316.15
486.615	8432.53
486.985	8539.65
487.356	8643.37
487.726	8722.02
488.097	8947.55
488.467	8935.34
488.837	9149.35
489.207	9337.14
489.578	9438.38
489.948	9491.49
490.318	9676.79
490.688	9701.65
491.058	9905.04
491.428	9962.21
491.798	10091.47
492.168	10328.3
492.538	10394.51
492.908	10473.16
493.278	10614.85
493.648	10620.95
494.017	10857.55
494.387	10898.91
494.757	10946.14
495.126	11093.25
495.496	11229.3
495.866	11304.1
496.235	11320.82
496.605	11578.66
496.974	11570.76
497.344	11689.4
497.713	11708.38
498.082	11831.77
498.452	12020.01
498.821	12108.59
499.19	12111.53
499.559	12253.67
499.928	12238.76
500.298	12457.96
500.667	12546.55
501.036	12614.34
501.405	12681.46
501.774	12740.67
502.143	12956.48
502.512	12940.66
502.88	13056.37
503.249	13182.92
503.618	13233.76
503.987	13317.83
504.356	13438.28
504.724	13553.75
505.093	13521.21
505.462	13592.4
505.83	13737.25
506.199	13938.6
506.567	14110.8
506.936	14077.81
507.304	14257.46
507.672	14391.7
508.041	14372.26
508.409	14492.26
508.777	14643.89
509.145	14803.89
509.514	14772.93
509.882	14951.01
510.25	15058.35
510.618	15035.97
510.986	15204.56
511.354	15286.59
511.722	15396.19
512.09	15661.95
512.458	15646.35
512.826	15763.87
513.193	15852.45
513.561	15954.14
513.929	16136.74
514.297	16246.34
514.664	16392.1
515.032	16373.79
515.4	16654.92
515.767	16685.65
516.135	16758.42
516.502	16736.72
516.869	17062.36
517.237	17091.29
517.604	17189.36
517.972	17419.64
518.339	17492.63
518.706	17540.99
519.073	17645.85
519.44	17810.82
519.808	18002.9
520.175	17969.91
520.542	18209.9
520.909	18316.34
521.276	18328.09
521.643	18574.64
522.009	18709.32
522.376	18870.9
522.743	18931.24
523.11	19086.04
523.477	19332.13
523.843	19438.12
524.21	19556.76
524.577	19690.09
524.943	19811.44
525.31	19951.1
525.676	20074.94
526.043	20285.55
526.409	20341.37
526.776	20616.62
527.142	20639.9
527.508	20710.18
527.874	20967.34
528.241	21191.97
528.607	21154.01
528.973	21383.38
529.339	21390.61
529.705	21611.85
530.071	21777.94
530.437	21697.27
530.803	22075.11
531.169	22098.84
531.535	22171.15
531.901	22244.37
532.267	22346.97
532.632	22528.89
532.998	22651.82
533.364	22738.37
533.73	22884.36
534.095	23007.06
534.461	23107.63
534.826	23226.04
535.192	23302.2
535.557	23600.5
535.923	23445.92
536.288	23616.99
536.653	23719.81
537.019	23673.49
537.384	23810.89
537.749	23890.66
538.114	24090.88
538.479	24144.44
538.845	24206.58
539.21	24208.84
539.575	24348.27
539.94	24444.99
540.305	24519.34
540.67	24492.9
541.034	24759.56
541.399	24900.8
541.764	24958.43
542.129	24987.13
542.494	25046.33
542.858	25238.42
543.223	25180.57
543.587	25477.73
543.952	25295.14
544.316	25477.28
544.681	25720.21
545.045	25754.79
545.41	25880.21
545.774	25950.26
546.138	26072.52
546.503	26268
546.867	26084.5
547.231	26316.36
547.595	26485.39
547.959	26582.34
548.324	26596.12
548.688	26754.76
549.052	26818.49
549.416	26889
549.779	26950.46
550.143	26993.17
550.507	27293.51
550.871	27343
551.235	27436.78
551.599	27664.8
551.962	27671.12
552.326	27841.97
552.689	28006.93
553.053	27927.16
553.417	28077.89
553.78	28587.03
554.143	28306.81
554.507	28503.42
554.87	28567.14
555.234	28951.99
555.597	28762.39
555.96	28974.59
556.323	28949.06
556.686	29230.63
557.05	29420.23
557.413	29499.1
557.776	29589.94
558.139	29668.81
558.502	29774.34
558.865	29909.26
559.228	30211.17
559.59	30309.7
559.953	30298.62
560.316	30626.53
560.679	30792.62
561.041	30868.78
561.404	31003.69
561.767	31196.45
562.129	31191.71
562.492	31409.78
562.854	31471.47
563.217	31516.45
563.579	31791.01
563.941	31907.85
564.304	31981.07
564.666	32234.84
565.028	32264.22
565.39	32399.81
565.753	32553.93
566.115	32735.17
566.477	32840.03
566.839	32889.52
567.201	33268.04
567.563	33204.99
567.925	33428.26
568.287	33483.63
568.648	33565.66
569.01	33825.99
569.372	34037.51
569.734	33985.08
570.095	34120.67
570.457	34279.76
570.819	34426.65
571.18	34349.82
571.542	34555.46
571.903	34627.78
572.265	34748.68
572.626	34866.19
572.987	34769.24
573.349	35064.37
573.71	35178.04
574.071	35200.64
574.432	35260.3
574.794	35544.36
575.155	35592.5
575.516	35380.3
575.877	35546.4
576.238	35696.9
576.599	35750.23
576.96	35739.39
577.32	35909.55
577.681	36033.16
578.042	36077
578.403	36042.2
578.763	36185.93
579.124	36197.23
579.485	36327.84
579.845	36407.84
580.206	36337.56
580.566	36342.99
580.927	36401.51
581.287	36471.8
581.648	36322.42
582.008	36624.56
582.368	36483.09
582.728	36602.41
583.089	36522.64
583.449	36638.57
583.809	36731.22
584.169	36687.61
584.529	36594.73
584.889	36885.12
585.249	36681.96
585.609	36560.15
585.969	36874.27
586.329	36729.87
586.688	36858.45
587.048	36664.56
587.408	36725.57
587.768	36762.64
588.127	36633.15
588.487	36627.72
588.846	36980.48
589.206	36635.18
589.565	36714.05
589.925	37040.82
590.284	36782.97
590.643	36860.94
591.003	36973.03
591.362	37101.16
591.721	36928.05
592.08	36846.7
592.44	37129.63
592.799	37025
593.158	36878.56
593.517	36968.96
593.876	37221.38
594.235	36954.27
594.593	36880.6
594.952	37142.29
595.311	36879.92
595.67	37040.14
596.029	37162.85
596.387	37257.76
596.746	37288.27
597.104	37159.69
597.463	37117.88
597.822	37304.77
598.18	37207.82
598.538	37139.57
598.897	37441.94
599.255	37219.57
599.613	37710.18
599.972	37380.25
600.33	37455.05
600.688	37347.7
601.046	37292.56
601.404	37523.07
601.762	37603.06
602.12	37708.82
602.478	37687.13
602.836	37656.17
603.194	37424.99
603.552	37641.26
603.91	37555.16
604.268	37723.06
604.625	37704.08
604.983	37852.32
605.341	37570.52
605.698	37915.83
606.056	37897.29
606.413	37985.2
606.771	37948.82
607.128	38072.88
607.485	38029.27
607.843	37957.41
608.2	38123.5
608.557	38278.53
608.914	37988.82
609.272	38262.48
609.629	38327.34
609.986	38447.11
610.343	38312.42
610.7	38541.8
611.057	38425.87
611.414	38516.94
611.771	38545.87
612.127	38542.7
612.484	38584.96
612.841	38643.49
613.198	38634.45
613.554	38618.63
613.911	38715.8
614.267	38822.02
614.624	38805.97
614.98	38717.16
615.337	38998.73
615.693	38972.29
616.05	38816.82
616.406	39070.6
616.762	38884.84
617.118	38924.16
617.475	39029.24
617.831	39037.83
618.187	39061.11
618.543	39127.09
618.899	39294.09
619.255	39224.72
619.611	39155.34
619.967	39370.7
620.323	39431.27
620.678	39276.47
621.034	39113.76
621.39	39245.51
621.746	39235.34
622.101	39639.4
622.457	39255.9
622.812	39491.15
623.168	39586.06
623.523	39607.31
623.879	39543.35
624.234	39334.32
624.589	39506.74
624.945	39426.75
625.3	39581.77
625.655	39516.69
626.01	39526.4
626.365	39564.14
626.72	39412.51
627.075	39440.08
627.43	39437.14
627.785	39417.71
628.14	39452.73
628.495	39561.66
628.85	39438.5
629.205	39418.38
629.559	39734.31
629.914	39378.61
630.269	39543.58
630.623	39199.63
630.978	39166.64
631.332	39391.49
631.687	39450.25
632.041	39167.54
632.396	39395.11
632.75	39135.91
633.104	39258.61
633.459	39034.67
633.813	39048
634.167	39044.16
634.521	39142.01
634.875	39167.09
635.229	39086.19
635.583	38847.78
635.937	38829.47
636.291	38932.3
636.645	38790.15
636.999	38731.85
637.352	38721
637.706	38654.79
638.06	38725.97
638.413	38598.97
638.767	38477.84
639.121	38655.24
639.474	38410.28
639.828	38386.55
640.181	38384.74
640.534	38427.45
640.888	38370.05
641.241	38262.03
641.594	38158.53
641.947	38282.37
642.301	38224.97
642.654	38175.71
643.007	38288.92
643.36	38048.93
643.713	38037.18
644.066	38168.93
644.419	37913.11
644.771	37579.79
645.124	37390.64
645.477	37210.76
645.83	37051.44
646.182	37006.7
646.535	36921.5
646.888	36897.55
647.24	36723.09
647.593	36866.59
647.945	36791.79
648.298	36524
648.65	36531.45
649.002	36396.32
649.355	36651.45
649.707	36555.18
650.059	36616.2
650.411	37120.14
650.763	37091.44
651.115	37486.01
651.467	37312.9
651.819	37170.99
652.171	37212.11
652.523	37135.05
652.875	37139.57
653.227	36945.23
653.578	37161.27
653.93	37131.66
654.282	36967.83
654.633	36791.33
654.985	36963.99
655.337	36780.49
655.688	36975.96
656.039	37099.12
656.391	36706.37
656.742	36736.87
657.094	36680.38
657.445	36963.53
657.796	36794.5
658.147	36678.57
658.498	36767.83
658.849	36788.62
659.2	36660.26
659.551	36568.74
659.902	36698.91
660.253	36537.78
660.604	36560.83
660.955	36417.11
661.306	36624.33
661.656	36466.37
662.007	36578.23
662.358	36581.62
662.708	36446.71
663.059	36412.59
663.409	36168.07
663.76	36505.01
664.11	36269.54
664.461	36400.16
664.811	36449.65
665.161	36429.54
665.511	36266.6
665.862	36326.94
666.212	36303.44
666.562	36312.93
666.912	36268.41
667.262	36298.69
667.612	36231.35
667.962	36313.38
668.312	36132.82
668.662	36296.43
669.011	36311.35
669.361	36094.18
669.711	36155.87
670.06	36046.5
670.41	36032.03
670.76	35871.59
671.109	36150.67
671.459	36093.27
671.808	35965.59
672.157	35935.76
672.507	35729.67
672.856	35805.82
673.205	35821.42
673.554	35797.46
673.904	35747.97
674.253	36003.11
674.602	35744.13
674.951	35391.6
675.3	35154.77
675.649	35678.14
675.998	35603.34
676.346	35522.89
676.695	35651.03
677.044	35369.45
677.393	35597.02
677.741	35592.5
678.09	35365.84
678.438	35244.03
678.787	35466.17
679.135	35360.86
679.484	35046.07
679.832	35243.35
680.181	34981.21
680.529	35127.2
680.877	34936.24
681.225	34988.67
681.573	35135.11
681.922	34751.39
682.27	34837.71
682.618	34815.34
682.966	34717.04
683.314	34773.08
683.661	34649.92
684.009	34498.51
684.357	34394.34
684.705	34447.89
685.053	34528.57
685.4	34408.57
685.748	34181.91
686.095	34228.92
686.443	33948.47
686.79	33961.35
687.138	34041.35
687.485	33972.2
687.832	33834.35
688.18	33863.95
688.527	33631.64
688.874	33676.84
689.221	33559.78
689.568	33562.27
689.915	33512.55
690.262	33460.8
690.609	33314.59
690.956	33019.46
691.303	33138.78
691.65	32955.05
691.997	33077.76
692.344	32827.37
692.69	32707.83
693.037	32747.6
693.383	32473.26
693.73	32717.09
694.077	32439.58
694.423	32483.88
694.769	32285.01
695.116	32243.21
695.462	32242.98
695.808	31958.47
696.155	32098.12
696.501	31756.44
696.847	31942.42
697.193	31757.79
697.539	31742.43
697.885	31546.05
698.231	31452.04
698.577	31513.96
698.923	31424.24
699.269	31367.3
699.614	31022.22
699.96	31046.63
700.306	30934.54
700.651	31006.63
700.997	30791.49
701.342	30840.3
701.688	30677.6
702.033	30694.77
702.379	30653.87
702.724	30517.15
703.069	30437.83
703.415	30175.46
703.76	30262.47
704.105	30198.97
704.45	30111.74
704.795	30046.88
705.14	29942.02
705.485	29936.15
705.83	29744.74
706.175	29729.83
706.52	29646.66
706.865	29597.4
707.209	29521.7
707.554	29376.39
707.899	29456.39
708.243	29360.12
708.588	29096.62
708.932	28972.78
709.277	29058.88
709.621	29100.46
709.966	28909.06
710.31	28949.96
710.654	28675.84
710.998	28764.88
711.342	28744.99
711.687	28662.28
712.031	28590.65
712.375	28472.68
712.719	28530.76
713.063	28408.28
713.407	28549.29
713.75	28314.27
714.094	28373.48
714.438	28256.19
714.782	28293.48
715.125	27928.52
715.469	28061.85
715.812	27934.17
716.156	27786.6
716.499	27799.71
716.843	27888.97
717.186	27713.61
717.53	27834.06
717.873	27828.63
718.216	27702.31
718.559	27620.28
718.902	27462.31
719.246	27434.07
719.589	27310
719.932	27231.81
720.275	27261.87
720.617	27252.6
720.96	27294.18
721.303	27321.08
721.646	27284.92
721.989	27033.85
722.331	27158.37
722.674	27077.69
723.016	27088.31
723.359	27034.08
723.701	26976.23
724.044	26829.79
724.386	26723.58
724.729	26778.94
725.071	26751.15
725.413	26830.01
725.755	26577.59
726.097	26493.07
726.439	26441.32
726.782	26334.21
727.124	26493.75
727.465	26376.47
727.807	26281.55
728.149	26275.68
728.491	26219.18
728.833	26243.59
729.175	26175.12
729.516	26158.17
729.858	26000.43
730.199	26040.88
730.541	25905.29
730.882	25976.93
731.224	25947.78
731.565	25816.93
731.906	25889.25
732.248	25809.48
732.589	25618.07
732.93	25644.51
733.271	25607
733.612	25736.03
733.953	25585.53
734.294	25637.28
734.635	25541.46
734.976	25550.05
735.317	25441.58
735.658	25376.95
735.999	25334.23
736.339	25280.9
736.68	25476.38
737.021	25176.05
737.361	25064.86
737.702	25356.38
738.042	25142.83
738.383	25155.26
738.723	25191.41
739.063	25078.2
739.404	25143.96
739.744	25023.73
740.084	24915.26
740.424	24906.45
740.764	24923.4
741.104	24974.92
741.444	24744.19
741.784	24856.06
742.124	24803.85
742.464	24701.71
742.804	24715.95
743.143	24682.5
743.483	24571.09
743.823	24493.35
744.162	24486.35
744.502	24536.06
744.841	24404.09
745.181	24424.65
745.52	24377.2
745.86	24335.39
746.199	24223.76
746.538	24307.82
746.877	24297.88
747.216	24235.51
747.556	24129.07
747.895	24198.22
748.234	24077.32
748.573	24003.2
748.911	24046.59
749.25	24005.46
749.589	23841.17
749.928	23944.44
750.267	23892.92
750.605	23809.08
750.944	23679.59
751.283	23538.8
751.621	23674.17
751.96	23461.97
752.298	23509.42
752.636	23598.46
752.975	23342.2
753.313	23373.61
753.651	23398.69
753.989	23247.28
754.327	23295.42
754.666	23130
755.004	23121.19
755.342	23225.59
755.679	23065.37
756.017	22994.18
756.355	23029.44
756.693	22893.17
757.031	22856.33
757.368	22777.01
757.706	22715.55
758.044	22584.93
758.381	22705.15
758.719	22578.83
759.056	22554.42
759.394	22554.42
759.731	22263.13
760.068	22206.86
760.405	22316.91
760.743	22164.83
761.08	22095.45
761.417	22176.8
761.754	22000.09
762.091	21951.05
762.428	21862.24
762.765	21724.16
763.102	21827.43
763.438	21651.17
763.775	21649.81
764.112	21625.86
764.449	21535.92
764.785	21450.27
765.122	21304.96
765.458	21288.01
765.795	21249.82
766.131	21267.68
766.467	21101.35
766.804	21043.05
767.14	20938.64
767.476	20865.2
767.812	20877.18
768.148	20813
768.485	20674.24
768.821	20565.09
769.157	20551.31
769.492	20512.89
769.828	20514.47
770.164	20335.72
770.5	20303.63
770.836	20247.36
771.171	20193.81
771.507	20148.83
771.842	19963.08
772.178	19903.64
772.513	19875.4
772.849	19899.12
773.184	19712.01
773.519	19790.2
773.855	19692.35
774.19	19533.48
774.525	19371
774.86	19433.6
775.195	19404.9
775.53	19262.53
775.865	19136.66
776.2	19045.36
776.535	18978.7
776.87	18918.13
777.205	18833.16
777.539	18662.32
777.874	18755.42
778.209	18695.77
778.543	18613.51
778.878	18505.26
779.212	18439.95
779.547	18390.24
779.881	18450.35
780.215	18285.61
780.55	18268.66
780.884	18217.36
781.218	18098.95
781.552	18116.35
781.886	17937.59
782.22	17843.13
782.554	17817.37
782.888	17665.74
783.222	17644.49
783.556	17519.07
783.889	17555.91
784.223	17457.61
784.557	17365.86
784.89	17433.43
785.224	17298.29
785.557	17228.69
785.891	17220.1
786.224	17129.93
786.558	17145.52
786.891	16978.75
787.224	16874.12
787.557	16788.7
787.891	16779.88
788.224	16757.51
788.557	16781.69
788.89	16723.39
789.223	16608.14
789.556	16484.75
789.888	16465.99
790.221	16498.54
790.554	16324.98
790.887	16342.38
791.219	16164.76
791.552	16200.24
791.884	16073.46
792.217	16091.09
792.549	15990.98
792.882	15986.01
793.214	15855.16
793.546	15853.58
793.879	15786.46
794.211	15595.73
794.543	15802.73
794.875	15626.69
795.207	15577.2
795.539	15603.87
795.871	15483.87
796.203	15361.16
796.535	15341.96
796.867	15400.48
797.198	15283.2
797.53	15194.16
797.862	15122.3
798.193	15168.4
798.525	15078.01
798.856	15121.17
799.188	14934.51
799.519	14865.36
799.85	14863.1
800.182	14821.74
800.513	14906.03
800.844	14685.93
801.175	14685.25
801.506	14813.38
801.837	14592.6
802.168	14628.75
802.499	14628.53
802.83	14504.24
803.161	14433.28
803.491	14448.19
803.822	14467.85
804.153	14257.69
804.483	14271.7
804.814	14216.79
805.145	14265.37
805.475	14209.1
805.805	14151.25
806.136	14150.57
806.466	14066.51
806.796	14026.74
807.126	13882.78
807.457	13891.15
807.787	13913.52
808.117	13808.21
808.447	13789.23
808.777	13818.15
809.107	13744.26
809.436	13705.61
809.766	13642.79
810.096	13631.72
810.426	13600.98
810.755	13579.06
811.085	13541.32
811.414	13498.39
811.744	13393.08
812.073	13375.45
812.403	13337.26
812.732	13345.17
813.061	13245.51
813.39	13212.52
813.719	13204.16
814.049	13281.44
814.378	13190.15
814.707	13113.99
815.036	13083.48
815.365	13019.98
815.693	12886.88
816.022	12902.02
816.351	12962.81
816.68	12885.75
817.008	12797.62
817.337	12780.89
817.665	12717.84
817.994	12827.9
818.322	12784.96
818.651	12755.13
818.979	12612.54
819.307	12733.44
819.636	12709.26
819.964	12578.41
820.292	12647.79
820.62	12608.69
820.948	12563.05
821.276	12535.25
821.604	12476.04
821.932	12585.87
822.259	12526.89
822.587	12535.25
822.915	12473.78
823.243	12563.27
823.57	12503.16
823.898	12465.65
824.225	12417.51
824.553	12466.55
824.88	12443.5
825.207	12433.78
825.535	12431.98
825.862	12518.53
826.189	12422.26
826.516	12390.85
826.843	12514.46
827.17	12556.49
827.497	12582.25
827.824	12519.43
828.151	12526.44
828.478	12439.66
828.805	12503.61
829.131	12431.75
829.458	12389.72
829.785	12328.48
830.111	12361.47
830.438	12466.1
830.764	12442.82
831.09	12397.17
831.417	12358.53
831.743	12423.39
832.069	12358.76
832.395	12328.93
832.722	12376.16
833.048	12328.48
833.374	12366.67
833.7	12270.17
834.026	12243.05
834.351	12258.42
834.677	12304.3
835.003	12316.27
835.329	12307.01
835.654	12279.44
835.98	12216.39
836.306	12316.05
836.631	12196.73
836.956	12182.72
837.282	12285.31
837.607	12172.1
837.932	12140.46
838.258	12068.14
838.583	12060.01
838.908	12012.1
839.233	12028.37
839.558	11965.77
839.883	11992.89
840.208	11879.67
840.533	11959.9
840.858	11972.55
841.182	11863.85
841.507	11980.24
841.832	11736.63
842.156	11819.11
842.481	11769.62
842.805	11843.06
843.13	11722.39
843.454	11726.91
843.778	11668.15
844.103	11624.99
844.427	11594.94
844.751	11631.32
845.075	11579.34
845.399	11499.34
845.723	11487.82
846.047	11477.88
846.371	11429.97
846.695	11382.29
847.019	11347.48
847.343	11269.52
847.666	11227.94
847.99	11188.17
848.313	11207.15
848.637	11100.48
848.96	11056.64
849.284	11023.2
849.607	10921.96
849.931	10848.06
850.254	10794.05
850.577	10820.94
850.9	10649.42
851.223	10710.66
851.546	10608.75
851.869	10544.79
852.192	10628.18
852.515	10524.91
852.838	10507.73
853.161	10548.41
853.483	10417.34
853.806	10422.76
854.129	10410.56
854.451	10346.61
854.774	10297.12
855.096	10250.56
855.419	10253.05
855.741	10259.38
856.063	10222.32
856.385	10152.71
856.708	10055.09
857.03	10084.69
857.352	10100.74
857.674	10062.55
857.996	9963.57
858.318	9987.52
858.64	9986.16
858.961	9912.49
859.283	9884.02
859.605	9855.09
859.926	9846.28
860.248	9802.21
860.57	9787.07
860.891	9804.25
861.212	9768.99
861.534	9698.26
861.855	9688.54
862.176	9658.71
862.498	9646.51
862.819	9705.04
863.14	9603.35
863.461	9537.59
863.782	9582.78
864.103	9546.85
864.424	9579.62
864.745	9534.2
865.065	9503.69
865.386	9455.1
865.707	9415.11
866.027	9462.11
866.348	9364.49
866.668	9415.11
866.989	9376.91
867.309	9311.15
867.63	9412.62
867.95	9341.89
868.27	9326.29
868.59	9263.92
868.91	9262.79
869.23	9243.81
869.55	9225.05
869.87	9298.27
870.19	9198.84
870.51	9238.39
870.83	9192.96
871.15	9159.75
871.469	9163.81
871.789	9172.63
872.109	9160.42
872.428	9093.08
872.748	9082.23
873.067	9077.49
873.386	9075
873.706	9026.87
874.025	9080.88
874.344	9049.92
874.663	9086.3
874.982	9041.1
875.301	9041.1
875.62	8973.54
875.939	8884.5
876.258	8957.04
876.577	8852.86
876.896	8924.5
877.214	8852.63
877.533	8836.36
877.852	8861.9
878.17	8915.46
878.489	8882.69
878.807	8877.27
879.125	8767.66
879.444	8804.27
879.762	8754.78
880.08	8764.95
880.398	8727.67
880.716	8806.53
881.034	8706.2
881.352	8708.91
881.67	8689.47
881.988	8722.24
882.306	8666.42
882.624	8630.72
882.941	8604.51
883.259	8597.95
883.577	8563.15
883.894	8544.39
884.212	8537.84
884.529	8516.82
884.846	8454.45
885.164	8421.69
885.481	8510.04
885.798	8434.79
886.115	8429.82
886.432	8393.89
886.75	8392.76
887.067	8297.39
887.383	8261.92
887.7	8313.89
888.017	8289.26
888.334	8274.12
888.651	8294.68
888.967	8214.01
889.284	8251.29
889.6	8154.57
889.917	8120.45
890.233	8119.09
890.55	8072.09
890.866	8103.05
891.182	8083.62
891.498	8049.04
891.815	8046.1
892.131	7943.05
892.447	7947.12
892.763	7966.33
893.079	7926.78
893.395	7826.9
893.71	7834.13
894.026	7887.46
894.342	7801.14
894.657	7814.47
894.973	7742.38
895.289	7769.05
895.604	7748.03
895.92	7651.31
896.235	7606.11
896.55	7644.76
896.865	7658.32
897.181	7546.45
897.496	7632.78
897.811	7583.06
898.126	7532.44
898.441	7458.55
898.756	7479.79
899.071	7408.83
899.386	7398.21
899.7	7391.43
900.015	7359.57
900.33	7288.16
900.644	7354.82
900.959	7249.29
901.273	7253.35
901.588	7260.81
901.902	7221.72
902.216	7200.02
902.531	7125.9
902.845	7128.39
903.159	7045.22
903.473	7058.33
903.787	7042.06
904.101	6987.6
904.415	7033.02
904.729	7017.65
905.042	6943.76
905.356	6919.13
905.67	6924.1
905.984	6856.75
906.297	6824.67
906.611	6774.05
906.924	6727.27
907.237	6797.55
907.551	6688.85
907.864	6664.44
908.177	6666.7
908.491	6647.27
908.804	6617.44
909.117	6592.58
909.43	6567.5
909.743	6558.91
910.056	6545.35
910.368	6521.4
910.681	6505.8
910.994	6447.27
911.307	6436.65
911.619	6336.77
911.932	6388.74
912.244	6326.83
912.557	6335.86
912.869	6308.07
913.181	6309.2
913.494	6244.12
913.806	6161.18
914.118	6157.34
914.43	6218.58
914.742	6181.29
915.054	6111.01
915.366	6108.98
915.678	6037.12
915.99	6080.96
916.302	5980.85
916.613	5992.14
916.925	5938.81
917.236	5928.64
917.548	5919.38
917.859	5858.14
918.171	5842.54
918.482	5855.88
918.794	5773.39
919.105	5766.39
919.416	5806.16
919.727	5768.42
920.038	5743.34
920.349	5737.46
920.66	5674.19
920.971	5690.91
921.282	5642.78
921.593	5601.19
921.903	5584.92
922.214	5585.38
922.525	5492.5
922.835	5476.45
923.146	5476
923.456	5499.95
923.767	5458.83
924.077	5438.03
924.387	5407.98
924.697	5393.74
925.008	5410.47
925.318	5326.4
925.628	5391.48
925.938	5310.13
926.248	5256.12
926.558	5244.37
926.867	5242.11
927.177	5218.15
927.487	5207.08
927.796	5136.8
928.106	5133.41
928.416	5166.86
928.725	5111.72
929.034	5060.87
929.344	5069.23
929.653	5028.78
929.962	4989.01
930.271	5051.6
930.581	4956.47
930.89	4913.98
931.199	4987.88
931.508	4951.04
931.817	4920.31
932.125	4864.04
932.434	4881.44
932.743	4800.54
933.051	4811.16
933.36	4755.12
933.669	4688.22
933.977	4772.06
934.286	4752.86
934.594	4695.23
934.902	4653.87
935.21	4725.06
935.519	4639.86
935.827	4610.49
936.135	4548.79
936.443	4509.25
936.751	4544.73
937.059	4596.25
937.367	4524.84
937.674	4491.39
937.982	4528.91
938.29	4479.19
938.597	4427.67
938.905	4385.18
939.213	4445.29
939.52	4422.69
939.827	4381.11
940.135	4350.15
940.442	4294.56
940.749	4336.14
941.056	4314.67
941.363	4270.61
941.67	4250.72
941.977	4222.25
942.284	4247.56
942.591	4172.31
942.898	4174.57
943.205	4210.27
943.511	4159.88
943.818	4140.22
944.125	4140.44
944.431	4112.19
944.738	4083.72
945.044	4061.12
945.35	4024.51
945.657	4018.64
945.963	4032.2
946.269	3975.7
946.575	4008.69
946.881	3957.85
947.187	3930.28
947.493	3899.09
947.799	3914.01
948.105	3892.99
948.41	3844.18
948.716	3881.01
949.022	3841.92
949.327	3872.88
949.633	3813.67
949.938	3790.17
950.244	3797.4
950.549	3787.68
950.854	3722.37
951.16	3748.14
951.465	3769.15
951.77	3709.27
952.075	3693.67
952.38	3676.95
952.685	3669.72
952.99	3619.55
953.294	3667.46
953.599	3605.77
953.904	3562.83
954.209	3525.77
954.513	3577.07
954.818	3545.2
955.122	3518.54
955.426	3568.93
955.731	3500.23
956.035	3518.54
956.339	3467.69
956.643	3469.73
956.948	3438.31
957.252	3434.47
957.556	3445.54
957.86	3390.86
958.163	3400.35
958.467	3366.45
958.771	3378.88
959.075	3391.31
959.378	3377.07
959.682	3327.13
959.985	3305.44
960.289	3281.26
960.592	3296.62
960.896	3249.17
961.199	3250.07
961.502	3242.16
961.805	3200.13
962.108	3177.98
962.411	3188.6
962.714	3149.51
963.017	3136.4
963.32	3157.42
963.623	3156.51
963.926	3087.36
964.228	3101.37
964.531	3108.38
964.833	3074.26
965.136	3098.44
965.438	3049.85
965.741	3044.65
966.043	3064.31
966.345	3038.1
966.648	3027.02
966.95	2996.29
967.252	2959
967.554	2971.66
967.856	2966.01
968.158	2923.75
968.46	2893.92
968.761	2888.05
969.063	2928.27
969.365	2925.33
969.666	2881.04
969.968	2855.73
970.269	2829.74
970.571	2834.71
970.872	2826.8
971.174	2822.06
971.475	2821.83
971.776	2821.15
972.077	2790.87
972.378	2797.65
972.679	2752.91
972.98	2735.96
973.281	2715.62
973.582	2710.88
973.883	2725.11
974.183	2700.03
974.484	2693.93
974.785	2687.6
975.085	2679.92
975.386	2681.95
975.686	2645.57
975.986	2605.12
976.287	2631.33
976.587	2592.46
976.887	2625
977.187	2624.1
977.487	2574.16
977.787	2569.18
978.087	2572.12
978.387	2554.95
978.687	2506.36
978.987	2544.55
979.286	2493.25
979.586	2498
979.885	2474.05
980.185	2462.97
980.484	2484.67
980.784	2458.68
981.083	2440.15
981.382	2459.36
981.682	2460.94
981.981	2394.95
982.28	2389.3
982.579	2414.84
982.878	2443.99
983.177	2399.02
983.475	2345.46
983.774	2349.08
984.073	2352.47
984.372	2321.73
984.67	2306.14
984.969	2335.29
985.267	2300.26
985.566	2300.72
985.864	2245.35
986.162	2283.77
986.461	2268.17
986.759	2243.32
987.057	2226.37
987.355	2214.39
987.653	2214.16
987.951	2229.76
988.249	2225.69
988.547	2195.86
988.844	2183.21
989.142	2159.25
989.44	2129.65
989.737	2169.87
990.035	2155.41
990.332	2119.93
990.63	2100.95
990.927	2128.29
991.224	2127.61
991.521	2114.96
991.819	2088.07
992.116	2073.83
992.413	2041.29
992.71	2061.4
993.006	2031.34
993.303	2065.02
993.6	2029.54
993.897	2021.85
994.193	2016.66
994.49	2004.45
994.787	1987.5
995.083	1997.22
995.379	1953.61
995.676	1963.55
995.972	1935.3
996.268	1951.12
996.565	1942.99
996.861	1920.84
997.157	1939.37
997.453	1858.69
997.749	1915.64
998.044	1909.77
998.34	1901.18
998.636	1862.76
998.932	1876.32
999.227	1809.88
999.523	1859.6
999.818	1828.64
1000.114	1828.19
1000.409	1839.26
1000.704	1844.23
1001	1774.85
1001.295	1787.28
1001.59	1786.38
1001.885	1784.35
1002.18	1766.95
1002.475	1766.04
1002.77	1775.31
1003.065	1725.59
1003.359	1733.5
1003.654	1713.61
1003.949	1711.58
1004.243	1673.16
1004.538	1695.76
1004.832	1649.43
1005.127	1671.13
1005.421	1657.57
1005.715	1644.91
1006.009	1631.36
1006.304	1642.43
1006.598	1632.03
1006.892	1587.51
1007.186	1601.75
1007.48	1579.83
1007.773	1579.38
1008.067	1617.34
1008.361	1578.48
1008.655	1552.26
1008.948	1569.44
1009.242	1549.55
1009.535	1530.34
1009.829	1508.87
1010.122	1543.45
1010.415	1546.39
1010.708	1488.31
1011.001	1494.18
1011.295	1511.36
1011.588	1498.7
1011.881	1463
1012.173	1475.43
1012.466	1452.38
1012.759	1458.93
1013.052	1416.9
1013.344	1448.31
1013.637	1416.22
1013.93	1429.55
1014.222	1415.32
1014.514	1409.21
1014.807	1366.5
1015.099	1391.81
1015.391	1374.64
1015.683	1374.64
1015.976	1377.12
1016.268	1340.74
1016.56	1332.83
1016.851	1332.83
1017.143	1330.12
1017.435	1347.52
1017.727	1307.07
1018.018	1325.37
1018.31	1302.78
1018.602	1290.8
1018.893	1288.54
1019.185	1280.63
1019.476	1273.62
1019.767	1274.3
1020.058	1248.31
1020.35	1232.72
1020.641	1215.1
1020.932	1217.58
1021.223	1224.36
1021.514	1206.96
1021.804	1215.32
1022.095	1198.37
1022.386	1198.6
1022.677	1171.71
1022.967	1169.22
1023.258	1192.04
1023.548	1153.4
1023.839	1145.72
1024.129	1142.33
1024.419	1155.66
1024.709	1144.59
1025	1113.85
1025.29	1109.11
1025.58	1101.65
1025.87	1082.22
1026.16	1129.9
1026.449	1091.93
1026.739	1058.94
1027.029	1062.33
1027.319	1059.17
1027.608	1058.04
1027.898	1056
1028.187	1041.09
1028.477	1036.34
1028.766	1007.87
1029.055	1050.35
1029.344	1036.79
1029.634	1023.24
1029.923	997.02
1030.212	1015.33
1030.501	1023.46
1030.79	1009.9
1031.078	996.12
1031.367	991.82
1031.656	990.92
1031.945	957.93
1032.233	953.41
1032.522	948.89
1032.81	942.33
1033.099	959.51
1033.387	944.14
1033.675	950.02
1033.963	932.16
1034.251	936.68
1034.54	914.09
1034.828	895.56
1035.116	903.01
1035.403	904.37
1035.691	892.84
1035.979	880.19
1036.267	877.48
1036.554	865.05
1036.842	870.92
1037.129	862.34
1037.417	871.83
1037.704	879.28
1037.992	861.66
1038.279	862.34
1038.566	846.29
1038.853	846.29
1039.14	846.29
