Data from White_paper_FLMS001491_038.txt Node
Date: Tue Feb 07 10:35:01 GMT 2017
User: dcchb
Spectrometer: FLMS00149
Trigger mode: 0
Integration Time (sec): 2.000000E-2
Scans to average: 10
Electric dark correction enabled: true
Nonlinearity correction enabled: false
Boxcar width: 0
XAxis mode: Wavelengths
Number of Pixels in Spectrum: 2048
>>>>>Begin Spectral Data<<<<<
341.393	-20.93
341.776	-20.93
342.16	-20.93
342.543	-72.91
342.927	-76.07
343.31	-67.71
343.693	-62.51
344.077	-66.13
344.46	-69.52
344.843	-62.51
345.226	-44.89
345.61	-22.97
345.993	-22.06
346.376	12.51
346.759	3.47
347.142	25.85
347.525	46.41
347.908	55
348.291	82.34
348.674	87.77
349.057	104.94
349.44	130.93
349.823	143.81
350.206	173.41
350.588	211.15
350.971	253.64
351.354	258.61
351.737	253.41
352.119	275.33
352.502	311.94
352.884	318.72
353.267	324.6
353.65	318.27
354.032	317.82
354.414	337.48
354.797	337.25
355.179	351.94
355.562	367.08
355.944	354.88
356.326	343.13
356.709	363.47
357.091	360.98
357.473	387.19
357.855	364.14
358.238	385.16
358.62	375.89
359.002	374.99
359.384	391.49
359.766	379.51
360.148	365.95
360.53	381.54
360.912	377.02
361.294	370.47
361.676	391.94
362.057	368.89
362.439	371.6
362.821	369.11
363.203	372.05
363.584	351.49
363.966	395.33
364.348	372.96
364.729	379.51
365.111	355.33
365.493	379.51
365.874	361.43
366.256	363.24
366.637	357.82
367.019	363.47
367.4	363.01
367.781	388.78
368.163	382.9
368.544	373.86
368.925	375.67
369.306	372.28
369.688	363.92
370.069	361.66
370.45	374.76
370.831	363.24
371.212	389
371.593	353.97
371.974	382.67
372.355	359.4
372.736	377.93
373.117	367.53
373.498	360.98
373.879	386.74
374.26	375.22
374.641	375.89
375.021	379.74
375.402	365.95
375.783	400.3
376.163	374.99
376.544	398.27
376.925	381.09
377.305	380.64
377.686	408.44
378.066	400.07
378.447	377.48
378.827	398.04
379.208	403.46
379.588	419.73
379.968	399.17
380.349	420.86
380.729	415.22
381.109	419.96
381.489	403.01
381.87	408.44
382.25	413.41
382.63	425.38
383.01	452.5
383.39	414.31
383.77	444.14
384.15	454.76
384.53	450.02
384.91	459.06
385.29	443.69
385.67	440.07
386.049	454.99
386.429	455.21
386.809	466.51
387.189	478.26
387.568	459.51
387.948	483.46
388.328	468.1
388.707	483.46
389.087	494.99
389.466	479.17
389.846	506.06
390.225	495.89
390.605	527.3
390.984	508.32
391.363	514.2
391.743	523.46
392.122	519.62
392.501	540.64
392.881	516.23
393.26	534.31
393.639	556.68
394.018	556.45
394.397	554.65
394.776	554.87
395.155	595.1
395.534	575.66
395.913	563.46
396.292	591.03
396.671	593.29
397.05	612.5
397.429	587.41
397.808	614.08
398.186	609.79
398.565	634.19
398.944	621.76
399.323	632.84
399.701	624.02
400.08	648.88
400.458	647.3
400.837	660.63
401.215	668.99
401.594	665.15
401.972	686.39
402.351	696.11
402.729	705.15
403.107	720.52
403.486	718.03
403.864	736.11
404.242	738.6
404.62	749.9
404.999	758.48
405.377	776.79
405.755	775.21
406.133	822.21
406.511	843.45
406.889	862.21
407.267	875.99
407.645	873.28
408.023	918.7
408.401	944.24
408.779	950.12
409.156	976.78
409.534	987.86
409.912	1015.88
410.29	1045.48
410.667	1044.13
411.045	1083.67
411.422	1121.64
411.8	1120.73
412.178	1153.73
412.555	1197.79
412.933	1228.3
413.31	1256.32
413.687	1290.22
414.065	1309.43
414.442	1313.95
414.819	1347.17
415.197	1357.56
415.574	1417.9
415.951	1417.45
416.328	1466.71
416.705	1465.81
417.082	1503.32
417.46	1527.5
417.837	1591.23
418.214	1599.36
418.591	1628.06
418.967	1647.73
419.344	1675.97
419.721	1706.93
420.098	1713.26
420.475	1760.04
420.852	1781.51
421.228	1798
421.605	1839.58
421.982	1863.31
422.358	1866.48
422.735	1899.92
423.111	1920.49
423.488	1974.95
423.864	1984.21
424.241	2009.3
424.617	2009.3
424.994	2057.43
425.37	2070.99
425.746	2110.09
426.123	2151.67
426.499	2151.67
426.875	2162.97
427.251	2208.84
427.627	2256.52
428.003	2264.21
428.379	2273.02
428.756	2378.33
429.132	2435.73
429.507	2430.08
429.883	2454.71
430.259	2501.26
430.635	2496.52
431.011	2549.85
431.387	2626.68
431.763	2676.62
432.138	2671.43
432.514	2705.32
432.89	2767.02
433.265	2852.89
433.641	2834.59
434.016	2877.3
434.392	2958.88
434.767	2964.3
435.143	2992.1
435.518	3037.97
435.894	3085.65
436.269	3096.5
436.644	3152.54
437.02	3174.92
437.395	3184.41
437.77	3268.93
438.145	3298.53
438.52	3330.62
438.895	3356.38
439.271	3389.15
439.646	3450.16
440.021	3490.84
440.395	3508.24
440.77	3472.08
441.145	3525.42
441.52	3578.52
441.895	3611.74
442.27	3637.5
442.645	3649.93
443.019	3689.93
443.394	3680.89
443.769	3725.18
444.143	3658.07
444.518	3782.13
444.892	3737.61
445.267	3804.05
445.641	3811.74
446.016	3869.59
446.39	3892.19
446.764	3885.86
447.139	3896.71
447.513	3951.39
447.887	3975.8
448.262	3996.59
448.636	4013.76
449.01	4030.94
449.384	4142.12
449.758	4119.07
450.132	4184.83
450.506	4220.54
450.88	4235
451.254	4276.58
451.628	4251.27
452.002	4384.83
452.376	4390.7
452.75	4442
453.123	4420.08
453.497	4516.12
453.871	4560.64
454.244	4692.84
454.618	4691.49
454.992	4744.37
455.365	4732.62
455.739	4821.2
456.112	4882.22
456.486	4948.2
456.859	5007.41
457.232	5081.08
457.606	5081.08
457.979	5129.89
458.352	5297.8
458.725	5297.35
459.099	5314.52
459.472	5492.82
459.845	5496.89
460.218	5527.85
460.591	5616.43
460.964	5634.29
461.337	5762.65
461.71	5873.6
462.083	5935.07
462.456	5931.91
462.829	5988.18
463.201	6060.72
463.574	6084.9
463.947	6236.76
464.32	6339.81
464.692	6365.57
465.065	6464.1
465.438	6537.31
465.81	6640.36
466.183	6690.53
466.555	6817.76
466.928	6862.96
467.3	6923.97
467.672	7013.01
468.045	7157.64
468.417	7214.81
468.789	7250.74
469.161	7390.62
469.534	7532.77
469.906	7563.73
470.278	7647.12
470.65	7813.44
471.022	7889.37
471.394	8095.69
471.766	8168.68
472.138	8199.64
472.51	8435.8
472.882	8515.12
473.253	8679.63
473.625	8736.13
473.997	8954.43
474.369	8966.18
474.74	9073.97
475.112	9267.41
475.484	9426.05
475.855	9547.4
476.227	9672.15
476.598	9956.66
476.97	10011.12
477.341	10220.16
477.713	10359.36
478.084	10541.5
478.455	10779.24
478.827	10800.25
479.198	11108.72
479.569	11160.7
479.94	11497.64
480.311	11615.82
480.682	11782.15
481.053	12110.27
481.424	12274.11
481.795	12350.72
482.166	12521.79
482.537	12789.35
482.908	13069.8
483.279	13091.49
483.65	13433.63
484.021	13609.44
484.391	13723.79
484.762	13881.75
485.133	14048.08
485.503	14237.68
485.874	14549.31
486.244	14690.55
486.615	14929.86
486.985	15009.18
487.356	15404.43
487.726	15429.28
488.097	15690.52
488.467	15789.05
488.837	16128.93
489.207	16301.8
489.578	16580.67
489.948	16663.6
490.318	16911.96
490.688	17028.34
491.058	17284.6
491.428	17525.73
491.798	17603.46
492.168	17949.44
492.538	18048.88
492.908	18263.33
493.278	18391.24
493.648	18509.88
494.017	18762.53
494.387	18865.35
494.757	19116.64
495.126	19227.83
495.496	19329.07
495.866	19496.97
496.235	19702.39
496.605	19819.68
496.974	19957.53
497.344	20192.32
497.713	20312.09
498.082	20408.59
498.452	20655.81
498.821	20752.31
499.19	20668.92
499.559	21046.31
499.928	21188.91
500.298	21229.36
500.667	21370.6
501.036	21494.66
501.405	21778.27
501.774	21768.1
502.143	21865.5
502.512	22033.4
502.88	22179.61
503.249	22231.59
503.618	22371.93
503.987	22431.36
504.356	22765.59
504.724	22815.98
505.093	22935.53
505.462	23098.23
505.83	23140.95
506.199	23336.42
506.567	23735.28
506.936	23689.41
507.304	23986.35
507.672	23952.45
508.041	24135.5
508.409	24305.89
508.777	24553.34
509.145	24720.56
509.514	24724.63
509.882	24994
510.25	24999.88
510.618	25224.51
510.986	25299.98
511.354	25620.2
511.722	25868.78
512.09	25984.49
512.458	25885.73
512.826	26153.75
513.193	26359.39
513.561	26355.55
513.929	26593.28
514.297	26938.13
514.664	27003.89
515.032	27143.1
515.4	27326.37
515.767	27502.86
516.135	27719.58
516.502	27485.46
516.869	28049.74
517.237	28187.14
517.604	28124.32
517.972	28343.75
518.339	28632.55
518.706	28639.33
519.073	28863.51
519.44	29002.49
519.808	29288.58
520.175	29367.22
520.542	29704.84
520.909	29783.93
521.276	29871.16
521.643	30198.84
522.009	30402.22
522.376	30581.2
522.743	30792.27
523.11	31133.5
523.477	31358.36
523.843	31578.92
524.21	31803.32
524.577	31963.54
524.943	32174.61
525.31	32320.36
525.676	32652.11
526.043	32820.69
526.409	32978.88
526.776	33361.24
527.142	33360.11
527.508	33625.19
527.874	33735.47
528.241	33853.43
528.607	34250.48
528.973	34348.11
529.339	34417.26
529.705	34828.55
530.071	35081.65
530.437	35192.83
530.803	35398.93
531.169	35560.73
531.535	35590.34
531.901	35795.98
532.267	35955.75
532.632	36232.35
532.998	36295.18
533.364	36536.07
533.73	36550.31
534.095	36884.31
534.461	37035.04
534.826	37169.73
535.192	37330.4
535.557	37552.09
535.923	37469.83
536.288	37811.29
536.653	37944.62
537.019	37892.2
537.384	38176.03
537.749	38371.05
538.114	38411.73
538.479	38493.99
538.845	38751.16
539.21	38637.71
539.575	38932.17
539.94	39027.53
540.305	39234.31
540.67	39246.74
541.034	39414.42
541.399	39510.91
541.764	39736.67
542.129	39920.17
542.494	40021.63
542.858	40086.94
543.223	40272.02
543.587	40374.16
543.952	40313.6
544.316	40743.42
544.681	40639.69
545.045	40892.79
545.41	41063.86
545.774	41214.14
546.138	41135.05
546.503	41326.23
546.867	41488.26
547.231	41812.77
547.595	41762.38
547.959	41940.9
548.324	41980.45
548.688	42090.28
549.052	42267
549.416	42266.54
549.779	42465.86
550.143	42624.05
550.507	42768.23
550.871	42983.36
551.235	43020.65
551.599	43277.59
551.962	43338.83
552.326	43454.76
552.689	43851.36
553.053	43547.19
553.417	43890
553.78	44329.31
554.143	44004.35
554.507	44175.42
554.87	44485.92
555.234	44893.14
555.597	44571.57
555.96	44892.69
556.323	45098.56
556.686	45100.59
557.05	45353.24
557.413	45513.01
557.776	45420.36
558.139	45764.31
558.502	45914.81
558.865	45891.31
559.228	46316.83
559.59	46359.09
559.953	46396.83
560.316	46793.66
560.679	46830.72
561.041	46990.04
561.404	47161.78
561.767	47490.59
562.129	47301.21
562.492	47757.7
562.854	47733.74
563.217	47819.17
563.579	47879.28
563.941	48220.74
564.304	48346.61
564.666	48552.25
565.028	48626.6
565.39	48620.73
565.753	49075.18
566.115	49079.25
566.477	49222.29
566.839	49294.16
567.201	49587.26
567.563	49659.34
567.925	49837.19
568.287	49836.06
568.648	49926.68
569.01	50165.32
569.372	50455.93
569.734	50372.09
570.095	50602.82
570.457	50782.7
570.819	50820.9
571.18	50857.05
571.542	51103.37
571.903	51121.68
572.265	51323.48
572.626	51390.37
572.987	51414.78
573.349	51625.62
573.71	51643.02
574.071	51704.26
574.432	51754.66
574.794	52058.15
575.155	52074.65
575.516	51978.38
575.877	52235.32
576.238	52256.11
576.599	52322.55
576.96	52451.13
577.32	52424.7
577.681	52495.2
578.042	52741.75
578.403	52617.91
578.763	52684.8
579.124	52877.56
579.485	52988.75
579.845	53014.96
580.206	53004.34
580.566	52988.52
580.927	53076.88
581.287	53191.68
581.648	53070.33
582.008	53253.15
582.368	53312.81
582.728	53326.37
583.089	53317.78
583.449	53254.73
583.809	53335.63
584.169	53488.17
584.529	53335.86
584.889	53636.87
585.249	53357.33
585.609	53297.67
585.969	53495.63
586.329	53503.99
586.688	53553.7
587.048	53524.78
587.408	53473.71
587.768	53607.04
588.127	53637.32
588.487	53505.34
588.846	53813.36
589.206	53618.34
589.565	53567.49
589.925	53781.72
590.284	53643.42
590.643	53770.65
591.003	53810.65
591.362	53842.51
591.721	53879.57
592.08	53957.99
592.44	53936.52
592.799	53957.76
593.158	53840.25
593.517	53985.78
593.876	53882.74
594.235	53960.93
594.593	53984.43
594.952	54077.08
595.311	53957.99
595.67	54052.9
596.029	54227.81
596.387	54293.35
596.746	54238.43
597.104	54102.17
597.463	54224.42
597.822	54256.74
598.18	54126.8
598.538	54118.66
598.897	54230.52
599.255	54082.05
599.613	54573.57
599.972	54381.03
600.33	54438.88
600.688	54289.28
601.046	54431.42
601.404	54577.63
601.762	54461.03
602.12	54606.11
602.478	54585.77
602.836	54609.27
603.194	54464.87
603.552	54535.83
603.91	54455.83
604.268	54523.85
604.625	54502.38
604.983	54640
605.341	54492.44
605.698	54687.69
606.056	54688.59
606.413	54688.36
606.771	54737.18
607.128	54754.35
607.485	54752.32
607.843	54771.07
608.2	54935.36
608.557	54961.35
608.914	54882.94
609.272	55022.37
609.629	55053.55
609.986	55124.29
610.343	54978.98
610.7	55220.33
611.057	55128.8
611.414	55180.33
611.771	55155.02
612.127	55183.94
612.484	55148.92
612.841	55328.12
613.198	55172.19
613.554	55234.79
613.911	55449.25
614.267	55353.88
614.624	55347.56
614.98	55421.23
615.337	55589.36
615.693	55498.74
616.05	55352.98
616.406	55564.5
616.762	55426.2
617.118	55509.36
617.475	55600.43
617.831	55593.65
618.187	55545.74
618.543	55576.02
618.899	55758.17
619.255	55755.23
619.611	55658.96
619.967	55736.02
620.323	55795
620.678	55646.08
621.034	55631.62
621.39	55656.47
621.746	55623.48
622.101	55876.58
622.457	55691.5
622.812	55718.85
623.168	55834.55
623.523	55799.07
623.879	55911.38
624.234	55681.78
624.589	55766.08
624.945	55821.44
625.3	55887.2
625.655	55851.05
626.01	55822.57
626.365	55806.98
626.72	55792.52
627.075	55760.2
627.43	55820.31
627.785	55714.33
628.14	55755.91
628.495	55832.97
628.85	55820.54
629.205	55727.66
629.559	55920.42
629.914	55788
630.269	55789.13
630.623	55715.23
630.978	55691.73
631.332	55778.96
631.687	55856.24
632.041	55717.49
632.396	55728.79
632.75	55693.54
633.104	55650.82
633.459	55593.65
633.813	55565.86
634.167	55648.57
634.521	55587.1
634.875	55632.07
635.229	55579.87
635.583	55380.78
635.937	55475.46
636.291	55422.81
636.645	55457.16
636.999	55417.61
637.352	55475.91
637.706	55397.05
638.06	55468.91
638.413	55387.1
638.767	55397.05
639.121	55382.81
639.474	55226.66
639.828	55276.82
640.181	55295.35
640.534	55351.4
640.888	55286.09
641.241	55114.57
641.594	55154.11
641.947	55240.67
642.301	55138.75
642.654	55201.12
643.007	55183.72
643.36	55215.58
643.713	55077.28
644.066	55159.54
644.419	54996.6
644.771	54890.84
645.124	54624.86
645.477	54525.66
645.83	54404.76
646.182	54398.88
646.535	54276.17
646.888	54353.23
647.24	54175.84
647.593	54345.77
647.945	54237.08
648.298	54068.72
648.65	54103.29
649.002	53968.38
649.355	54070.75
649.707	54056.74
650.059	54248.83
650.411	54604.3
650.763	54545.09
651.115	54866.89
651.467	54838.42
651.819	54780.79
652.171	54686.33
652.523	54695.37
652.875	54711.87
653.227	54611.08
653.578	54780.34
653.93	54655.82
654.282	54610.17
654.633	54501.25
654.985	54607.24
655.337	54541.93
655.688	54568.59
656.039	54609.72
656.391	54346.9
656.742	54449.95
657.094	54471.65
657.445	54564.07
657.796	54474.81
658.147	54508.26
658.498	54483.4
658.849	54489.73
659.2	54459.22
659.551	54311.65
659.902	54490.18
660.253	54402.04
660.604	54432.33
660.955	54360.92
661.306	54395.49
661.656	54339.45
662.007	54417.64
662.358	54308.49
662.708	54317.53
663.059	54423.06
663.409	54157.3
663.76	54395.26
664.11	54284.53
664.461	54356.85
664.811	54316.17
665.161	54263.74
665.511	54121.6
665.862	54259
666.212	54298.54
666.562	54235.04
666.912	54183.74
667.262	54122.5
667.612	54167.7
667.962	54081.6
668.312	54106.68
668.662	54188.04
669.011	54106.01
669.361	54075.27
669.711	54050.41
670.06	53982.62
670.41	54005.67
670.76	53959.8
671.109	54018.78
671.459	53977.42
671.808	53873.24
672.157	53918.89
672.507	53831.44
672.856	53724.32
673.205	53869.18
673.554	53914.37
673.904	53745.11
674.253	53882.06
674.602	53766.13
674.951	53299.7
675.3	53203.66
675.649	53695.4
675.998	53680.03
676.346	53628.96
676.695	53706.24
677.044	53510.77
677.393	53635.96
677.741	53617.66
678.09	53555.74
678.438	53370.66
678.787	53394.39
679.135	53471.9
679.484	53223.77
679.832	53324.78
680.181	53126.82
680.529	53264.45
680.877	53088.41
681.225	53093.6
681.573	53294.95
681.922	53009.99
682.27	52936.09
682.618	52968.86
682.966	52854.29
683.314	52952.14
683.661	52793.95
684.009	52689.32
684.357	52599.38
684.705	52571.13
685.053	52672.82
685.4	52541.08
685.748	52305.83
686.095	52304.25
686.443	52190.8
686.79	52205.94
687.138	52154.19
687.485	52123.46
687.832	52055.44
688.18	52065.61
688.527	51878.04
688.874	51786.07
689.221	51706.52
689.568	51627.88
689.915	51635.56
690.262	51554.66
690.609	51502.69
690.956	51226.08
691.303	51283.71
691.65	51210.94
691.997	51109.93
692.344	50926.2
692.69	50823.38
693.037	50767.56
693.383	50571.86
693.73	50794
694.077	50546.1
694.423	50488.7
694.769	50410.51
695.116	50307.46
695.462	50211.19
695.808	50101.37
696.155	50227.46
696.501	49917.87
696.847	49895.5
697.193	49678.55
697.539	49794.48
697.885	49549.52
698.231	49436.98
698.577	49461.38
698.923	49269.98
699.269	49117.21
699.614	48933.94
699.96	49028.85
700.306	48888.97
700.651	48759.25
700.997	48613.95
701.342	48624.34
701.688	48496.89
702.033	48462.09
702.379	48352.03
702.724	48272.26
703.069	48291.24
703.415	47839.73
703.76	47884.02
704.105	47865.94
704.45	47738.72
704.795	47588.66
705.14	47484.94
705.485	47574.2
705.83	47272.29
706.175	47391.38
706.52	47222.57
706.865	47058.51
707.209	47014.89
707.554	46789.59
707.899	46885.18
708.243	46661.68
708.588	46751.4
708.932	46367.45
709.277	46364.74
709.621	46449.48
709.966	46190.28
710.31	46284.97
710.654	45871.87
710.998	46101.25
711.342	46008.37
711.687	45752.55
712.031	45630.75
712.375	45605.44
712.719	45564.99
713.063	45478.21
713.407	45664.87
713.75	45357.54
714.094	45424.43
714.438	45228.27
714.782	45222.85
715.125	44950.77
715.469	45056.75
715.812	44812.69
716.156	44720.94
716.499	44745.35
716.843	44689.53
717.186	44492.02
717.53	44517.33
717.873	44555.52
718.216	44492.93
718.559	44268.75
718.902	44108.3
719.246	44218.58
719.589	43906.27
719.932	43910.12
720.275	43889.1
720.617	43848.65
720.96	43693.63
721.303	43758.03
721.646	43740.4
721.989	43449.34
722.331	43600.75
722.674	43446.17
723.016	43512.39
723.359	43453.18
723.701	43406.18
724.044	43137.93
724.386	42994.89
724.729	43139.52
725.071	42932.97
725.413	42854.33
725.755	42888.45
726.097	42691.84
726.439	42575.46
726.782	42576.59
727.124	42728
727.465	42492.75
727.807	42493.43
728.149	42253.21
728.491	42325.3
728.833	42327.11
729.175	42175.92
729.516	42015.93
729.858	42061.8
730.199	42257.5
730.541	42043.05
730.882	41951.3
731.224	42062.03
731.565	41723.06
731.906	41694.36
732.248	41723.73
732.589	41546.34
732.93	41591.31
733.271	41595.6
733.612	41573.45
733.953	41625.66
734.294	41456.17
734.635	41226.57
734.976	41332.33
735.317	41189.51
735.658	41037.88
735.999	41145.44
736.339	40849.18
736.68	41128.04
737.021	40963.3
737.361	40764.21
737.702	41029.29
738.042	40855.51
738.383	40747.26
738.723	40794.72
739.063	40611.9
739.404	40658.22
739.744	40529.41
740.084	40464.56
740.424	40447.83
740.764	40321.96
741.104	40342.07
741.444	40151.8
741.784	40141.18
742.124	40150.22
742.464	40203.32
742.804	40055.53
743.143	40092.82
743.483	40020.95
743.823	39748.19
744.162	39642.21
744.502	39913.61
744.841	39590.46
745.181	39835.2
745.52	39680.17
745.86	39657.57
746.199	39550.68
746.538	39556.11
746.877	39540.74
747.216	39546.16
747.556	39332.38
747.895	39407.64
748.234	39175.55
748.573	39079.28
748.911	39016.91
749.25	39199.96
749.589	38914.54
749.928	38932.39
750.267	38863.47
750.605	38818.95
750.944	38689.91
751.283	38732.63
751.621	38704.6
751.96	38471.62
752.298	38498.06
752.636	38522.46
752.975	38366.76
753.313	38132.19
753.651	38411.05
753.989	38066.65
754.327	37926.09
754.666	37825.98
755.004	37831.41
755.342	38004.28
755.679	37785.31
756.017	37719.32
756.355	37714.12
756.693	37489.72
757.031	37461.02
757.368	37251.53
757.706	37296.96
758.044	37221.48
758.381	37186.68
758.719	36876.18
759.056	36974.48
759.394	36936.97
759.731	36659.91
760.068	36610.2
760.405	36513.02
760.743	36289.07
761.08	36388.05
761.417	36245.01
761.754	36176.31
762.091	36073.03
762.428	35918.01
762.765	35741.07
763.102	35831.91
763.438	35648.86
763.775	35491.13
764.112	35516.44
764.449	35561.86
764.785	35367.06
765.122	34991.93
765.458	34981.31
765.795	34908.77
766.131	34990.35
766.467	34756.91
766.804	34553.98
767.14	34354.21
767.476	34504.49
767.812	34262.23
768.148	34323.48
768.485	34069.47
768.821	33893.88
769.157	33872.87
769.492	33739.31
769.828	33755.36
770.164	33481.24
770.5	33336.38
770.836	33233.34
771.171	33106.11
771.507	33144.98
771.842	32897.07
772.178	33064.75
772.513	32798.09
772.849	32715.38
773.184	32500.93
773.519	32551.77
773.855	32467.71
774.19	32244.21
774.525	32102.97
774.86	32128.73
775.195	31965.12
775.53	31882.18
775.865	31684.45
776.2	31554.96
776.535	31264.8
776.87	31300.28
777.205	31126.72
777.539	31099.61
777.874	31122.2
778.209	30821.87
778.543	30773.96
778.878	30583.91
779.212	30633.4
779.547	30344.37
779.881	30486.74
780.215	30273.19
780.55	30246.3
780.884	30011.5
781.218	30025.51
781.552	29964.49
781.886	29858.28
782.22	29621.45
782.554	29537.16
782.888	29364.06
783.222	29219.2
783.556	29174.23
783.889	29197.06
784.223	28805.2
784.557	28800.46
784.89	28795.49
785.224	28665.09
785.557	28541.48
785.891	28503.97
786.224	28360.02
786.558	28403.86
786.891	28209.29
787.224	28108.27
787.557	27886.81
787.891	27855.62
788.224	27898.33
788.557	27821.73
788.89	27697.21
789.223	27646.36
789.556	27411.34
789.888	27299.03
790.221	27292.7
790.554	27029.43
790.887	27077.34
791.219	27007.06
791.552	26965.25
791.884	26828.31
792.217	26788.31
792.549	26507.86
792.882	26340.18
793.214	26345.61
793.546	26269.22
793.879	26141.54
794.211	26064.94
794.543	26073.52
794.875	26027.87
795.207	25967.99
795.539	25852.74
795.871	25885.96
796.203	25701.78
796.535	25472.64
796.867	25490.04
797.198	25294.79
797.53	25274.22
797.862	25132.98
798.193	25238.97
798.525	25027.22
798.856	25103.61
799.188	24886.21
799.519	24857.28
799.85	24637.63
800.182	24648.93
800.513	24594.01
800.844	24416.17
801.175	24594.47
801.506	24523.73
801.837	24329.84
802.168	24299.78
802.499	24167.81
802.83	24057.53
803.161	24000.36
803.491	24052.79
803.822	24005.33
804.153	23904.09
804.483	23573.93
804.814	23538
805.145	23547.94
805.475	23539.58
805.805	23526.92
806.136	23416.87
806.466	23386.36
806.796	23232.92
807.126	23185.46
807.457	23101.4
807.787	23096.65
808.117	23112.7
808.447	22883.32
808.777	22997.67
809.107	22817.56
809.436	22733.95
809.766	22642.88
810.096	22600.85
810.426	22606.27
810.755	22479.27
811.085	22471.58
811.414	22449.21
811.744	22166.96
812.073	22188.43
812.403	22286.05
812.732	22076.79
813.061	22058.04
813.39	21909.57
813.719	21984.59
814.049	22056.68
814.378	21851.71
814.707	21689.68
815.036	21699.63
815.365	21655.56
815.693	21465.51
816.022	21491.95
816.351	21387.09
816.68	21391.39
817.008	21365.85
817.337	21260.77
817.665	21099.87
817.994	21204.05
818.322	21157.04
818.651	21035.24
818.979	20976.71
819.307	21000.89
819.636	20941.91
819.964	20906.43
820.292	20927.67
820.62	20883.6
820.948	20867.33
821.276	20870.5
821.604	20786.88
821.932	20863.04
822.259	20865.52
822.587	20802.7
822.915	20736.26
823.243	20732.42
823.57	20738.97
823.898	20845.64
824.225	20655.81
824.553	20649.26
824.88	20621.92
825.207	20751.63
825.535	20718.41
825.862	20760.22
826.189	20677.06
826.516	20719.77
826.843	20770.39
827.17	20744.62
827.497	20650.39
827.824	20760.67
828.151	20721.57
828.478	20624.85
828.805	20745.3
829.131	20616.72
829.458	20733.55
829.785	20453.78
830.111	20598.19
830.438	20647.9
830.764	20537.4
831.09	20621.46
831.417	20426.44
831.743	20608.13
832.069	20590.28
832.395	20490.39
832.722	20467.8
833.048	20516.16
833.374	20419.89
833.7	20345.76
834.026	20336.95
834.351	20571.07
834.677	20450.39
835.003	20424.63
835.329	20455.14
835.654	20348.7
835.98	20264.86
836.306	20283.39
836.631	20176.96
836.956	20265.77
837.282	20216.05
837.607	20094.7
837.932	20224.64
838.258	20115.04
838.583	20082.27
838.908	20007.92
839.233	19961.59
839.558	19996.62
839.883	19842.95
840.208	19823.74
840.533	19799.79
840.858	19764.08
841.182	19804.08
841.507	19733.58
841.832	19530.64
842.156	19632.56
842.481	19549.63
842.805	19598.21
843.13	19470.99
843.454	19436.86
843.778	19421.04
844.103	19234.38
844.427	19283.65
844.751	19289.07
845.075	19224.44
845.399	19140.15
845.723	19017.66
846.047	19129.3
846.371	18892.02
846.695	18920.04
847.019	18839.82
847.343	18650.44
847.666	18601.86
847.99	18507.39
848.313	18577
848.637	18404.35
848.96	18345.14
849.284	18285.03
849.607	18212.04
849.931	18093.85
850.254	17968.65
850.577	17970.01
850.9	17725.72
851.223	17788.77
851.546	17705.38
851.869	17619.06
852.192	17720.75
852.515	17543.35
852.838	17506.29
853.161	17426.29
853.483	17359.18
853.806	17260.65
854.129	17250.03
854.451	17210.25
854.774	17049.13
855.096	17050.71
855.419	16996.47
855.741	16934.33
856.063	16909.47
856.385	16794.22
856.708	16721.68
857.03	16693.88
857.352	16669.93
857.674	16658.86
857.996	16577.95
858.318	16540.67
858.64	16469.03
858.961	16474.23
859.283	16356.49
859.605	16278.75
859.926	16287.34
860.248	16262.48
860.57	16208.7
860.891	16256.61
861.212	16100
861.534	16142.26
861.855	16048.48
862.176	16182.26
862.498	16141.13
862.819	16003.73
863.14	16010.74
863.461	15818.2
863.782	15893.23
864.103	15894.81
864.424	15815.26
864.745	15817.97
865.065	15707.92
865.386	15617.3
865.707	15635.83
866.027	15734.13
866.348	15708.82
866.668	15592.44
866.989	15563.29
867.309	15474.03
867.63	15491.2
867.95	15465.44
868.27	15396.97
868.59	15371.88
868.91	15395.61
869.23	15388.15
869.55	15283.52
869.87	15382.73
870.19	15310.64
870.51	15311.55
870.83	15199.91
871.15	15159.23
871.469	15129.4
871.789	15151.55
872.109	15104.09
872.428	15096.18
872.748	15147.71
873.067	15127.82
873.386	15081.95
873.706	14999.01
874.025	14967.37
874.344	14900.26
874.663	14948.84
874.982	15022.29
875.301	14973.93
875.62	14872.91
875.939	14845.12
876.258	14775.52
876.577	14788.62
876.896	14797.66
877.214	14716.31
877.533	14720.15
877.852	14607.84
878.17	14718.34
878.489	14703.43
878.807	14601.73
879.125	14599.93
879.444	14598.8
879.762	14480.83
880.08	14582.07
880.398	14404.9
880.716	14519.93
881.034	14325.13
881.352	14405.58
881.67	14391.12
881.988	14386.37
882.306	14276.77
882.624	14266.83
882.941	14247.85
883.259	14092.37
883.577	14196.1
883.894	14095.99
884.212	14105.02
884.529	14070.45
884.846	14048.08
885.164	13995.42
885.481	14002.88
885.798	13965.14
886.115	13834.3
886.432	13869.78
886.75	13846.73
887.067	13690.8
887.383	13766.05
887.7	13779.84
888.017	13679.5
888.334	13692.15
888.651	13643.12
888.967	13577.81
889.284	13565.83
889.6	13551.37
889.917	13446.28
890.233	13437.92
890.55	13377.13
890.866	13440.64
891.182	13315.89
891.498	13267.08
891.815	13213.75
892.131	13221.21
892.447	13188.21
892.763	13161.09
893.079	13057.59
893.395	12997.94
893.71	13007.2
894.026	12942.34
894.342	12922.46
894.657	12867.09
894.973	12797.04
895.289	12825.28
895.604	12779.18
895.92	12648.34
896.235	12689.69
896.55	12714.33
896.865	12664.16
897.181	12554.33
897.496	12503.94
897.811	12470.49
898.126	12427.78
898.441	12348.91
898.756	12347.78
899.071	12270.27
899.386	12321.34
899.7	12222.81
900.015	12163.83
900.33	12045.42
900.644	12023.05
900.959	12019.66
901.273	11962.26
901.588	11909.83
901.902	11873.9
902.216	11887.23
902.531	11798.87
902.845	11800
903.159	11675.26
903.473	11610.85
903.787	11556.84
904.101	11563.85
904.415	11576.96
904.729	11407.92
905.042	11472.78
905.356	11344.87
905.67	11378.99
905.984	11347.81
906.297	11263.52
906.611	11242.95
906.924	11219
907.237	11189.62
907.551	11111.21
907.864	11110.3
908.177	11099.91
908.491	11003.86
908.804	10895.84
909.117	10837.31
909.43	10818.11
909.743	10852.91
910.056	10771.33
910.368	10712.57
910.681	10645.68
910.994	10546.02
911.307	10576.53
911.619	10418.12
911.932	10523.88
912.244	10376.99
912.557	10408.4
912.869	10376.08
913.181	10327.5
913.494	10251.57
913.806	10153.04
914.118	10228.29
914.43	10116.2
914.742	10018.58
915.054	10020.84
915.366	10012.7
915.678	9993.27
915.99	9880.95
916.302	9900.39
916.613	9785.14
916.925	9800.96
917.236	9758.25
917.548	9652.94
917.859	9656.55
918.171	9620.17
918.482	9568.42
918.794	9545.6
919.105	9492.49
919.416	9464.47
919.727	9436.22
920.038	9370.91
920.349	9300.18
920.66	9292.27
920.971	9280.07
921.282	9229.9
921.593	9146.74
921.903	9068.77
922.214	9051.6
922.525	9068.77
922.835	8960.98
923.146	8993.07
923.456	8922.11
923.767	8892.51
924.077	8862.9
924.387	8854.32
924.697	8787.42
925.008	8767.99
925.318	8768.22
925.628	8677.14
925.938	8648.22
926.248	8575.68
926.558	8541.78
926.867	8496.13
927.177	8457.04
927.487	8428.56
927.796	8401.22
928.106	8427.21
928.416	8308.57
928.725	8324.61
929.034	8265.86
929.344	8223.37
929.653	8180.43
929.962	8120.78
930.271	8118.52
930.581	8066.54
930.89	8013.43
931.199	7941.57
931.508	7991.51
931.817	7996.71
932.125	7916.03
932.434	7904.51
932.743	7871.06
933.051	7776.6
933.36	7734.8
933.669	7760.11
933.977	7677.4
934.286	7647.57
934.594	7590.39
934.902	7550.17
935.21	7535.93
935.519	7575.25
935.827	7534.35
936.135	7456.39
936.443	7337.29
936.751	7312.43
937.059	7393.79
937.367	7287.58
937.674	7291.42
937.982	7304.98
938.29	7215.71
938.597	7208.03
938.905	7126.45
939.213	7146.34
939.52	7051.2
939.827	7078.54
940.135	7083.06
940.442	6976.85
940.749	6940.24
941.056	6992.9
941.363	6925.33
941.67	6951.09
941.977	6843.29
942.284	6806.01
942.591	6763.75
942.898	6758.33
943.205	6751.32
943.511	6715.39
943.818	6697.08
944.125	6616.86
944.431	6582.28
944.738	6548.39
945.044	6560.36
945.35	6537.99
945.657	6511.55
945.963	6434.94
946.269	6403.08
946.575	6442.85
946.881	6356.08
947.187	6271.78
947.493	6256.64
947.799	6293.93
948.105	6212.8
948.41	6235.85
948.716	6216.42
949.022	6146.36
949.327	6166.48
949.633	6133.26
949.938	6110.66
950.244	6098
950.549	5987.5
950.854	5959.93
951.16	6077.89
951.465	5912.25
951.77	5914.96
952.075	5875.18
952.38	5915.18
952.685	5849.65
952.99	5791.8
953.294	5768.97
953.599	5745.24
953.904	5756.09
954.209	5686.71
954.513	5680.61
954.818	5661.18
955.122	5633.83
955.426	5587.51
955.731	5595.42
956.035	5523.33
956.339	5520.39
956.643	5518.13
956.948	5461.86
957.252	5465.03
957.556	5395.88
957.86	5396.33
958.163	5406.72
958.467	5410.79
958.771	5317.69
959.075	5316.78
959.378	5278.82
959.682	5278.82
959.985	5293.73
960.289	5190.46
960.592	5186.39
960.896	5170.12
961.199	5150.68
961.502	5143
961.805	5060.74
962.108	5048.99
962.411	5076.79
962.714	5007.18
963.017	5023.46
963.32	5003.34
963.623	4975.32
963.926	4919.5
964.228	4929.9
964.531	4908.88
964.833	4915.21
965.136	4830.69
965.438	4846.06
965.741	4817.13
966.043	4785.5
966.345	4722.22
966.648	4716.34
966.95	4737.81
967.252	4639.74
967.554	4648.32
967.856	4691.94
968.158	4640.87
968.46	4614.65
968.761	4590.25
969.063	4554.32
969.365	4574.65
969.666	4552.06
969.968	4466.63
970.269	4467.54
970.571	4417.14
970.872	4457.59
971.174	4425.28
971.475	4397.94
971.776	4370.82
972.077	4362.91
972.378	4352.51
972.679	4326.3
972.98	4298.73
973.281	4309.12
973.582	4259.63
973.883	4263.7
974.183	4293.53
974.484	4204.95
974.785	4217.15
975.085	4129.92
975.386	4189.81
975.686	4155.23
975.986	4086.53
976.287	4092.41
976.587	4014.89
976.887	4061.45
977.187	4028.68
977.487	4026.19
977.787	3977.16
978.087	3987.55
978.387	3981.9
978.687	3963.82
978.987	3908.46
979.286	3897.61
979.586	3885.18
979.885	3898.29
980.185	3874.56
980.484	3819.87
980.784	3846.09
981.083	3804.28
981.382	3789.36
981.682	3769.03
981.981	3712.76
982.28	3760.89
982.579	3709.37
982.878	3729.48
983.177	3656.71
983.475	3619.2
983.774	3637.96
984.073	3639.31
984.372	3607.45
984.67	3629.82
984.969	3566.09
985.267	3575.36
985.566	3533.55
985.864	3507.11
986.162	3543.04
986.461	3479.09
986.759	3456.27
987.057	3444.74
987.355	3473.21
987.653	3447
987.951	3418.98
988.249	3388.7
988.547	3378.3
988.844	3375.82
989.142	3388.47
989.44	3332.43
989.737	3316.38
990.035	3291.98
990.332	3277.96
990.63	3263.95
990.927	3250.17
991.224	3222.6
991.521	3257.85
991.819	3205.88
992.116	3181.92
992.413	3223.73
992.71	3150.06
993.006	3162.71
993.303	3157.74
993.6	3108.93
993.897	3134.92
994.193	3069.61
994.49	3069.38
994.787	3045.88
995.083	3053.56
995.379	3017.18
995.676	3007.69
995.972	2988.71
996.268	2978.31
996.565	2929.05
996.861	2934.02
997.157	2951.42
997.453	2887.01
997.749	2879.78
998.044	2863.06
998.34	2912.55
998.636	2870.97
998.932	2888.82
999.227	2829.61
999.523	2809.73
999.818	2787.36
1000.114	2764.76
1000.409	2777.64
1000.704	2727.7
1001	2754.59
1001.295	2728.6
1001.59	2722.95
1001.885	2705.78
1002.18	2682.27
1002.475	2654.25
1002.77	2649.51
1003.065	2627.81
1003.359	2599.34
1003.654	2588.72
1003.949	2589.4
1004.243	2589.4
1004.538	2547.14
1004.832	2563.41
1005.127	2541.71
1005.421	2500.36
1005.715	2472.11
1006.009	2454.03
1006.304	2435.95
1006.598	2431.43
1006.892	2431.66
1007.186	2351.21
1007.48	2418.33
1007.773	2370.87
1008.067	2373.13
1008.361	2352.11
1008.655	2329.74
1008.948	2338.55
1009.242	2307.14
1009.535	2302.62
1009.829	2311.66
1010.122	2270.08
1010.415	2246.35
1010.708	2242.74
1011.001	2235.51
1011.295	2213.59
1011.588	2219.91
1011.881	2175.62
1012.173	2172.23
1012.466	2176.3
1012.759	2143.98
1013.052	2163.19
1013.344	2120.48
1013.637	2103.31
1013.93	2099.01
1014.222	2106.02
1014.514	2092.91
1014.807	2059.47
1015.099	2031.22
1015.391	2034.61
1015.683	2032.35
1015.976	2029.86
1016.268	1980.82
1016.56	1979.69
1016.851	1966.81
1017.143	1936.98
1017.435	1955.06
1017.727	1915.29
1018.018	1936.98
1018.31	1910.77
1018.602	1929.75
1018.893	1895.85
1019.185	1888.4
1019.476	1840.94
1019.767	1834.39
1020.058	1835.97
1020.35	1818.79
1020.641	1805.24
1020.932	1786.25
1021.223	1767.04
1021.514	1760.26
1021.804	1749.19
1022.095	1739.7
1022.386	1723.43
1022.677	1713.94
1022.967	1722.75
1023.258	1692.02
1023.548	1695.41
1023.839	1678.91
1024.129	1673.71
1024.419	1652.47
1024.709	1638.91
1025	1641.17
1025.29	1610.44
1025.58	1574.05
1025.87	1579.93
1026.16	1571.57
1026.449	1567.5
1026.739	1577.9
1027.029	1529.76
1027.319	1548.07
1027.608	1544.22
1027.898	1532.02
1028.187	1510.55
1028.477	1487.73
1028.766	1485.47
1029.055	1459.03
1029.344	1468.75
1029.634	1428.97
1029.923	1460.39
1030.212	1422.87
1030.501	1434.85
1030.79	1454.96
1031.078	1414.51
1031.367	1398.92
1031.656	1356.43
1031.945	1353.04
1032.233	1378.81
1032.522	1341.07
1032.81	1347.17
1033.099	1347.17
1033.387	1330.45
1033.675	1326.6
1033.963	1349.43
1034.251	1313.5
1034.54	1294.51
1034.828	1285.47
1035.116	1289.09
1035.403	1266.04
1035.691	1246.15
1035.979	1265.59
1036.267	1234.85
1036.554	1209.77
1036.842	1243.44
1037.129	1226.27
1037.417	1189.88
1037.704	1208.87
1037.992	1189.66
1038.279	1150.34
1038.566	1151.01
1038.853	1151.01
1039.14	1151.01
