Data from White_reflection_standard_FLMS001491_060.txt Node
Date: Tue Feb 07 10:32:07 GMT 2017
User: dcchb
Spectrometer: FLMS00149
Trigger mode: 0
Integration Time (sec): 2.000000E-2
Scans to average: 10
Electric dark correction enabled: true
Nonlinearity correction enabled: false
Boxcar width: 0
XAxis mode: Wavelengths
Number of Pixels in Spectrum: 2048
>>>>>Begin Spectral Data<<<<<
341.393	-5.23
341.776	-5.23
342.16	-5.23
342.543	-38.67
342.927	-64.89
343.31	-68.05
343.693	-64.66
344.077	-45.68
344.46	-57.65
344.843	-64.89
345.226	-60.82
345.61	-28.5
345.993	-17.88
346.376	0.2
346.759	23.47
347.142	18.5
347.525	38.39
347.908	62.34
348.291	72.29
348.674	84.72
349.057	108.22
349.44	118.84
349.823	151.15
350.206	178.72
350.588	240.19
350.971	263.02
351.354	283.81
351.737	273.64
352.119	301.66
352.502	301.21
352.884	327.65
353.267	349.12
353.65	329.68
354.032	365.39
354.414	361.09
354.797	361.09
355.179	391.83
355.562	383.92
355.944	392.5
356.326	384.59
356.709	377.81
357.091	391.6
357.473	416.46
357.855	382.79
358.238	422.11
358.62	396.8
359.002	413.75
359.384	415.55
359.766	401.09
360.148	414.42
360.53	403.8
360.912	397.48
361.294	409.23
361.676	413.97
362.057	409
362.439	406.51
362.821	416.01
363.203	404.25
363.584	420.53
363.966	402.45
364.348	418.72
364.729	422.56
365.111	409.23
365.493	413.97
365.874	432.73
366.256	423.46
366.637	433.63
367.019	418.72
367.4	416.46
367.781	420.98
368.163	426.85
368.544	423.24
368.925	436.57
369.306	431.6
369.688	435.89
370.069	434.54
370.45	434.54
370.831	443.8
371.212	431.82
371.593	444.48
371.974	441.54
372.355	427.53
372.736	445.61
373.117	463.01
373.498	470.02
373.879	455.78
374.26	442.67
374.641	425.95
375.021	467.98
375.402	475.89
375.783	486.06
376.163	500.75
376.544	507.53
376.925	492.16
377.305	507.76
377.686	486.96
378.066	521.09
378.447	506.4
378.827	529.9
379.208	528.55
379.588	513.4
379.968	513.86
380.349	505.72
380.729	533.07
381.109	526.29
381.489	550.24
381.87	538.71
382.25	541.2
382.63	564.93
383.01	565.61
383.39	553.18
383.77	556.12
384.15	550.92
384.53	575.55
384.91	581.65
385.29	593.18
385.67	594.08
386.049	631.59
386.429	625.49
386.809	627.75
387.189	626.85
387.568	638.37
387.948	677.24
388.328	667.75
388.707	662.78
389.087	668.2
389.466	670.01
389.846	688.09
390.225	684.93
390.605	678.37
390.984	700.74
391.363	702.1
391.743	727.41
392.122	735.09
392.501	740.97
392.881	748.65
393.26	771.25
393.639	764.92
394.018	765.6
394.397	761.31
394.776	816.45
395.155	803.34
395.534	810.12
395.913	829.1
396.292	797.01
396.671	845.37
397.05	820.74
397.429	785.49
397.808	837.92
398.186	860.97
398.565	860.97
398.944	879.72
399.323	903.9
399.701	874.53
400.08	894.64
400.458	904.35
400.837	908.42
401.215	934.18
401.594	923.79
401.972	947.74
402.351	945.26
402.729	955.88
403.107	999.27
403.486	982.32
403.864	1015.09
404.242	1023.67
404.62	1031.36
404.999	1016.89
405.377	1044.69
405.755	1060.06
406.133	1092.6
406.511	1102.32
406.889	1071.13
407.267	1133.73
407.645	1149.32
408.023	1172.82
408.401	1137.57
408.779	1194.52
409.156	1201.3
409.534	1219.15
409.912	1214.86
410.29	1283.55
410.667	1249.88
411.045	1282.2
411.422	1312.03
411.8	1317.45
412.178	1289.43
412.555	1379.37
412.933	1377.34
413.31	1411.01
413.687	1403.1
414.065	1422.08
414.442	1430.67
414.819	1431.12
415.197	1470.44
415.574	1501.4
415.951	1506.37
416.328	1542.98
416.705	1544.11
417.082	1528.07
417.46	1560.16
417.837	1571.68
418.214	1602.64
418.591	1625.24
418.967	1618.46
419.344	1626.6
419.721	1658.23
420.098	1695.07
420.475	1707.5
420.852	1699.81
421.228	1700.49
421.605	1768.06
421.982	1736.65
422.358	1771.22
422.735	1812.58
423.111	1799.25
423.488	1844.44
423.864	1860.04
424.241	1895.29
424.617	1927.83
424.994	1902.97
425.37	1962.86
425.746	1979.13
426.123	1987.26
426.499	2033.82
426.875	2010.31
427.251	2089.63
427.627	2103.42
428.003	2162.63
428.379	2148.84
428.756	2177.54
429.132	2215.05
429.507	2262.06
429.883	2258.44
430.259	2304.77
430.635	2328.27
431.011	2377.99
431.387	2421.38
431.763	2461.38
432.138	2458.66
432.514	2504.09
432.89	2534.82
433.265	2599.23
433.641	2622.5
434.016	2648.72
434.392	2703.4
434.767	2736.62
435.143	2708.6
435.518	2762.16
435.894	2790.41
436.269	2864.98
436.644	2835.15
437.02	2889.84
437.395	2881.25
437.77	2977.75
438.145	2998.31
438.52	3051.87
438.895	3091.19
439.271	3075.37
439.646	3141.13
440.021	3167.57
440.395	3181.13
440.77	3185.88
441.145	3208.25
441.52	3252.32
441.895	3292.54
442.27	3325.99
442.645	3301.35
443.019	3317.62
443.394	3337.51
443.769	3384.74
444.143	3416.83
444.518	3467
444.892	3458.64
445.267	3516.26
445.641	3537.05
446.016	3589.71
446.39	3604.85
446.764	3652.53
447.139	3630.16
447.513	3684.62
447.887	3702.7
448.262	3726.43
448.636	3715.13
449.01	3813.66
449.384	3836.71
449.758	3832.41
450.132	3917.16
450.506	3942.24
450.88	3950.83
451.254	3950.38
451.628	4018.17
452.002	4066.08
452.376	4094.1
452.75	4150.15
453.123	4180.88
453.497	4266.53
453.871	4305.4
454.244	4360.54
454.618	4386.75
454.992	4519.4
455.365	4476.46
455.739	4644.14
456.112	4653.41
456.486	4687.76
456.859	4758.94
457.232	4835.78
457.606	4814.76
457.979	4877.81
458.352	4998.71
458.725	5099.27
459.099	5085.94
459.472	5198.71
459.845	5235.54
460.218	5262.66
460.591	5344.92
460.964	5334.97
461.337	5503.1
461.71	5558.92
462.083	5627.17
462.456	5669.65
462.829	5690.67
463.201	5739.26
463.574	5833.72
463.947	5900.16
464.32	6099.47
464.692	6131.56
465.065	6134.95
465.438	6275.29
465.81	6290.88
466.183	6398.45
466.555	6508.05
466.928	6585.34
467.3	6582.17
467.672	6698.33
468.045	6877.76
468.417	6913.24
468.789	6903.52
469.161	7094.02
469.534	7204.3
469.906	7344.19
470.278	7347.35
470.65	7523.62
471.022	7589.15
471.394	7771.97
471.766	7819.88
472.138	7957.95
472.51	8097.84
472.882	8202.24
473.253	8320.43
473.625	8433.65
473.997	8607.43
474.369	8678.16
474.74	8769.46
475.112	8933.3
475.484	9102.33
475.855	9239.5
476.227	9347.97
476.598	9611.24
476.97	9647.63
477.341	9966.94
477.713	10001.97
478.084	10169.2
478.455	10396.31
478.827	10446.93
479.198	10796.07
479.569	10854.15
479.94	11109.51
480.311	11208.72
480.682	11445.09
481.053	11687.35
481.424	11887.57
481.795	12019.54
482.166	12283.72
482.537	12452.3
482.908	12733.2
483.279	12801.44
483.65	13072.4
484.021	13368.21
484.391	13417.25
484.762	13675.54
485.133	13789.44
485.503	13887.74
485.874	14208.64
486.244	14357.56
486.615	14613.82
486.985	14860.82
487.356	15024.66
487.726	15208.16
488.097	15511.43
488.467	15548.49
488.837	15898.08
489.207	16022.38
489.578	16355.7
489.948	16465.98
490.318	16793.88
490.688	16831.85
491.058	17062.57
491.428	17254.89
491.798	17409.68
492.168	17957.01
492.538	17884.47
492.908	18009.22
493.278	18335.31
493.648	18317.23
494.017	18636.09
494.387	18844.67
494.757	18886.48
495.126	19170.99
495.496	19221.61
495.866	19345.9
496.235	19555.84
496.605	19723.75
496.974	19790.41
497.344	19972.1
497.713	20178.88
498.082	20296.61
498.452	20616.38
498.821	20688.47
499.19	20758.3
499.559	20923.26
499.928	21242.13
500.298	21304.27
500.667	21486.86
501.036	21577.48
501.405	21642.79
501.774	21739.29
502.143	22035.1
502.512	22077.13
502.88	22303.34
503.249	22343.11
503.618	22503.79
503.987	22682.54
504.356	22764.8
504.724	22860.39
505.093	23047.28
505.462	23164.11
505.83	23421.73
506.199	23618.33
506.567	23941.72
506.936	23886.12
507.304	24171.31
507.672	24235.72
508.041	24400.23
508.409	24658.76
508.777	24823.27
509.145	25074.11
509.514	25108.46
509.882	25274.11
510.25	25380.32
510.618	25587.55
510.986	25633.65
511.354	25939.85
511.722	26128.1
512.09	26415.1
512.458	26455.77
512.826	26617.58
513.193	26805.14
513.561	26941.86
513.929	27172.14
514.297	27415.97
514.664	27648.28
515.032	27659.58
515.4	28046.01
515.767	28071.32
516.135	28284.65
516.502	28120.59
516.869	28741.36
517.237	28766.22
517.604	28774.81
517.972	29172.31
518.339	29384.28
518.706	29564.39
519.073	29727.78
519.44	29926.42
519.808	30250.02
520.175	30286.63
520.542	30676
520.909	30817.69
521.276	30984.92
521.643	31262.65
522.009	31608.63
522.376	31648.18
522.743	32026.25
523.11	32217.66
523.477	32501.26
523.843	32760.69
524.21	33099.21
524.577	33220.34
524.943	33489.94
525.31	33498.98
525.676	33848.35
526.043	34226.19
526.409	34345.51
526.776	34746.18
527.142	34862.33
527.508	35045.6
527.874	35311.13
528.241	35620.05
528.607	35620.96
528.973	35962.42
529.339	35956.99
529.705	36314.95
530.071	36697.31
530.437	36685.33
530.803	36889.17
531.169	37296.39
531.535	37208.71
531.901	37385.2
532.267	37547.69
532.632	37842.14
532.998	37986.09
533.364	38251.4
533.73	38339.08
534.095	38644.83
534.461	38757.37
534.826	38859.74
535.192	39009.34
535.557	39364.81
535.923	39357.58
536.288	39618.59
536.653	39777
537.019	39774.29
537.384	39892.48
537.749	40184.45
538.114	40196.88
538.479	40352.58
538.845	40628.73
539.21	40538.79
539.575	40756.87
539.94	40852
540.305	41192.56
540.67	41114.14
541.034	41263.29
541.399	41562.72
541.764	41526.79
542.129	41803.84
542.494	41769.49
542.858	42059.88
543.223	42029.83
543.587	42407.44
543.952	42313.21
544.316	42473.88
544.681	42429.14
545.045	42685.4
545.41	42872.97
545.774	43032.29
546.138	43104.83
546.503	43431.15
546.867	43314.54
547.231	43760.4
547.595	43736
547.959	43824.81
548.324	43892.38
548.688	44046.05
549.052	44182.76
549.416	44344.12
549.779	44339.14
550.143	44602.19
550.507	44857.32
550.871	44912.46
551.235	44909.98
551.599	45316.07
551.962	45340.47
552.326	45545.21
552.689	45760.58
553.053	45556.97
553.417	45773.23
553.78	46289.6
554.143	46243.73
554.507	46245.99
554.87	46539.54
555.234	46840.55
555.597	46636.71
555.96	46926.65
556.323	47226.3
556.686	47226.3
557.05	47484.82
557.413	47530.7
557.776	47722.33
558.139	47954.87
558.502	48020.18
558.865	48165.26
559.228	48435.76
559.59	48457.45
559.953	48477.34
560.316	48954.84
560.679	49028.97
561.041	49246.59
561.404	49414.49
561.767	49712.34
562.129	49516.18
562.492	49885.21
562.854	49972.9
563.217	50008.83
563.579	50182.38
563.941	50402.94
564.304	50538.98
564.666	50841.35
565.028	50822.14
565.39	50927.67
565.753	51126.99
566.115	51282.69
566.477	51390.26
566.839	51507.32
567.201	51763.13
567.563	51780.53
567.925	51919.28
568.287	51966.29
568.648	52114.99
569.01	52179.84
569.372	52448.76
569.734	52432.04
570.095	52547.97
570.457	52735.99
570.819	52811.92
571.18	52860.05
571.542	52975.08
571.903	53052.81
572.265	53175.97
572.626	53292.13
572.987	53300.94
573.349	53387.95
573.71	53480.6
574.071	53609.86
574.432	53694.15
574.794	53814.83
575.155	53798.33
575.516	53854.6
575.877	54000.13
576.238	54025.9
576.599	54136.85
576.96	54105.89
577.32	54162.39
577.681	54234.7
578.042	54283.97
578.403	54347.24
578.763	54414.59
579.124	54389.28
579.485	54513.79
579.845	54576.16
580.206	54457.3
580.566	54521.7
580.927	54637.18
581.287	54634.02
581.648	54587.91
582.008	54810.96
582.368	54723.28
582.728	54705.65
583.089	54619.55
583.449	54734.35
583.809	54719.89
584.169	54792.88
584.529	54792.43
584.889	55024.97
585.249	54788.59
585.609	54729.61
585.969	54862.26
586.329	54704.52
586.688	54790.4
587.048	54830.62
587.408	54758.98
587.768	54778.87
588.127	54779.77
588.487	54731.87
588.846	54942.71
589.206	54693.67
589.565	54670.85
589.925	54950.62
590.284	54855.25
590.643	54940.22
591.003	54983.61
591.362	55072.65
591.721	54906.32
592.08	54999.88
592.44	55003.95
592.799	55015.93
593.158	54914.91
593.517	54897.96
593.876	54999.66
594.235	54953.1
594.593	54977.74
594.952	55075.13
595.311	54978.64
595.67	55009.37
596.029	55095.7
596.387	55247.33
596.746	55303.6
597.104	55092.08
597.463	55170.05
597.822	55215.02
598.18	55168.46
598.538	55155.58
598.897	55292.98
599.255	55061.12
599.613	55481.9
599.972	55298.86
600.33	55396.48
600.688	55205.07
601.046	55336.82
601.404	55394.9
601.762	55374.33
602.12	55445.07
602.478	55458.17
602.836	55501.34
603.194	55380.44
603.552	55521.68
603.91	55371.85
604.268	55531.84
604.625	55485.52
604.983	55591.73
605.341	55450.72
605.698	55629.7
606.056	55690.71
606.413	55640.99
606.771	55783.59
607.128	55731.61
607.485	55578.17
607.843	55706.53
608.2	55794.21
608.557	55873.98
608.914	55708.79
609.272	55926.41
609.629	55929.12
609.986	55966.64
610.343	55935.22
610.7	56094.77
611.057	56035.11
611.414	56052.96
611.771	56057.48
612.127	56231.71
612.484	56190.58
612.841	56245.95
613.198	56117.59
613.554	56130.02
613.911	56261.54
614.267	56232.17
614.624	56298.38
614.98	56321.88
615.337	56404.82
615.693	56307.87
616.05	56292.5
616.406	56458.37
616.762	56324.37
617.118	56396
617.475	56351.48
617.831	56475.1
618.187	56530.24
618.543	56492.27
618.899	56607.97
619.255	56566.85
619.611	56465.61
619.967	56618.6
620.323	56681.19
620.678	56571.14
621.034	56554.19
621.39	56553.06
621.746	56480.97
622.101	56796.44
622.457	56572.27
622.812	56606.62
623.168	56722.1
623.523	56663.79
623.879	56732.49
624.234	56514.42
624.589	56609.33
624.945	56640.29
625.3	56673.96
625.655	56619.27
626.01	56660.18
626.365	56660.85
626.72	56551.25
627.075	56569.33
627.43	56583.34
627.785	56492.72
628.14	56617.24
628.495	56559.16
628.85	56514.87
629.205	56450.24
629.559	56636
629.914	56470.8
630.269	56471.48
630.623	56369.56
630.978	56388.77
631.332	56510.35
631.687	56491.82
632.041	56259.51
632.396	56434.42
632.75	56288.66
633.104	56330.24
633.459	56173.41
633.813	56218.15
634.167	56172.96
634.521	56166.86
634.875	56193.3
635.229	56129.34
635.583	55971.16
635.937	55951.04
636.291	55909.24
636.645	55933.42
636.999	55863.59
637.352	55991.72
637.706	55776.81
638.06	55896.36
638.413	55827.43
638.767	55629.47
639.121	55704.27
639.474	55608.23
639.828	55605.29
640.181	55670.82
640.534	55694.55
640.888	55555.8
641.241	55420.21
641.594	55428.12
641.947	55527.1
642.301	55371.85
642.654	55464.28
643.007	55385.41
643.36	55363.49
643.713	55336.37
644.066	55397.84
644.419	55217.73
644.771	54979.09
645.124	54695.71
645.477	54716.05
645.83	54537.97
646.182	54391.54
646.535	54287.36
646.888	54369.16
647.24	54167.14
647.593	54316.51
647.945	54268.38
648.298	54136.4
648.65	54050.3
649.002	53924.2
649.355	54146.57
649.707	54003.3
650.059	54127.81
650.411	54442.38
650.763	54488.26
651.115	54736.84
651.467	54675.6
651.819	54592.21
652.171	54547.01
652.523	54559.67
652.875	54488.71
653.227	54358.77
653.578	54526.9
653.93	54383.17
654.282	54329.62
654.633	54246.91
654.985	54302.05
655.337	54334.59
655.688	54262.5
656.039	54364.64
656.391	54094.82
656.742	54142.95
657.094	54159.68
657.445	54174.37
657.796	54231.09
658.147	54157.42
658.498	53989.06
658.849	54122.16
659.2	54037.42
659.551	54046.01
659.902	54042.84
660.253	53952.23
660.604	54074.48
660.955	53936.86
661.306	54035.39
661.656	53928.72
662.007	53891.21
662.358	53906.58
662.708	53921.49
663.059	53829.52
663.409	53650.76
663.76	53895.73
664.11	53860.93
664.461	53843.75
664.811	53809.86
665.161	53773.02
665.511	53671.78
665.862	53655.96
666.212	53714.27
666.562	53695.28
666.912	53656.19
667.262	53674.49
667.612	53598.79
667.962	53662.52
668.312	53653.7
668.662	53723.98
669.011	53638.34
669.361	53546.36
669.711	53543.87
670.06	53435.4
670.41	53382.52
670.76	53425.23
671.109	53417.78
671.459	53393.82
671.808	53344.33
672.157	53387.95
672.507	53165.58
672.856	53303.2
673.205	53218.23
673.554	53298.68
673.904	53193.15
674.253	53377.1
674.602	53226.37
674.951	52788.19
675.3	52621.64
675.649	53143.43
675.998	53028.63
676.346	53059.82
676.695	53166.26
677.044	52887.85
677.393	52941.63
677.741	53051.68
678.09	52895.08
678.438	52881.07
678.787	52857.34
679.135	52866.83
679.484	52694.63
679.832	52822.99
680.181	52601.07
680.529	52760.62
680.877	52633.84
681.225	52594.97
681.573	52797.45
681.922	52422.77
682.27	52371.02
682.618	52475.43
682.966	52293.51
683.314	52398.82
683.661	52277.02
684.009	52051.26
684.357	52005.61
684.705	51934.65
685.053	52013.29
685.4	51950.92
685.748	51784.82
686.095	51719.74
686.443	51655.56
686.79	51565.85
687.138	51727.65
687.485	51571.05
687.832	51463.48
688.18	51431.39
688.527	51283.82
688.874	51260.32
689.221	51195.69
689.568	51094.22
689.915	51016.71
690.262	51005.41
690.609	50885.87
690.956	50666.44
691.303	50752.99
691.65	50526.55
691.997	50558.64
692.344	50256.96
692.69	50344.86
693.037	50220.57
693.383	49929.73
693.73	50134.92
694.077	49929.73
694.423	49870.07
694.769	49853.8
695.116	49760.92
695.462	49540.14
695.808	49484.09
696.155	49621.94
696.501	49192.58
696.847	49256.3
697.193	49000.49
697.539	49080.26
697.885	48769.31
698.231	48635.53
698.577	48682.08
698.923	48595.98
699.269	48443.44
699.614	48217.69
699.96	48341.07
700.306	48310.11
700.651	48050.69
700.997	47974.3
701.342	47988.54
701.688	47741.32
702.033	47810.24
702.379	47618.61
702.724	47499.06
703.069	47493.86
703.415	47003.93
703.76	47116.7
704.105	47027.44
704.45	46888.23
704.795	46732.3
705.14	46655.24
705.485	46744.28
705.83	46528.24
706.175	46518.97
706.52	46331.18
706.865	46276.72
707.209	46112.43
707.554	46020.91
707.899	46003.28
708.243	45625.21
708.588	45718.32
708.932	45556.06
709.277	45489.62
709.621	45590.19
709.966	45342.73
710.31	45421.6
710.654	44959.24
710.998	45122.85
711.342	44909.07
711.687	44928.96
712.031	44688.06
712.375	44694.16
712.719	44667.5
713.063	44621.85
713.407	44644.45
713.75	44367.84
714.094	44342.31
714.438	44206.04
714.782	44173.5
715.125	44096.67
715.469	44035.42
715.812	43893.51
716.156	43661.42
716.499	43738.26
716.843	43801.76
717.186	43433.18
717.53	43589.79
717.873	43601.31
718.216	43418.04
718.559	43218.5
718.902	43006.3
719.246	43168.1
719.589	43029.35
719.932	42814.44
720.275	42756.59
720.617	42713.2
720.96	42579.64
721.303	42641.11
721.646	42699.19
721.989	42435.92
722.331	42489.25
722.674	42399.53
723.016	42367.9
723.359	42289.26
723.701	42362.25
724.044	41839.55
724.386	41806.78
724.729	42010.17
725.071	41820.12
725.413	41832.77
725.755	41833.22
726.097	41701.7
726.439	41405.21
726.782	41539.67
727.124	41365.89
727.465	41316.17
727.807	41368.6
728.149	41165.67
728.491	41017.42
728.833	41178.78
729.175	40945.34
729.516	40885.22
729.858	40849.52
730.199	40839.12
730.541	40743.53
730.882	40730.43
731.224	40790.09
731.565	40507.38
731.906	40531.11
732.248	40396.65
732.589	40312.13
732.93	40095.41
733.271	40144.68
733.612	40338.8
733.953	40249.76
734.294	40080.5
734.635	39931.58
734.976	39958.7
735.317	39797.57
735.658	39781.98
735.999	39624.69
736.339	39606.61
736.68	39879.83
737.021	39527.29
737.361	39435.09
737.702	39525.26
738.042	39307.64
738.383	39311.71
738.723	39264.7
739.063	39185.16
739.404	39222.44
739.744	39172.95
740.084	39029.45
740.424	38959.85
740.764	38738.16
741.104	38939.51
741.444	38695.23
741.784	38528.68
742.124	38728.44
742.464	38671.5
742.804	38557.6
743.143	38451.39
743.483	38452.75
743.823	38257.27
744.162	38185.86
744.502	38151.96
744.841	38072.42
745.181	38157.84
745.52	38094.79
745.86	38074.9
746.199	37891.18
746.538	37796.04
746.877	37872.2
747.216	37733.67
747.556	37776.83
747.895	37679.43
748.234	37603.95
748.573	37462.04
748.911	37410.74
749.25	37355.6
749.589	37219.78
749.928	37192.89
750.267	37357.63
750.605	37155.6
750.944	37082.84
751.283	36859.34
751.621	36890.53
751.96	36757.65
752.298	36751.55
752.636	36642.17
752.975	36516.3
753.313	36382.52
753.651	36595.62
753.989	36399.92
754.327	36291.67
754.666	36043.09
755.004	36146.14
755.342	36029.53
755.679	35938.46
756.017	35771.91
756.355	35928.29
756.693	35591.58
757.031	35636.1
757.368	35293.96
757.706	35351.58
758.044	35365.37
758.381	35239.05
758.719	35127.41
759.056	35201.53
759.394	34971.93
759.731	34780.75
760.068	34544.83
760.405	34461.44
760.743	34273.19
761.08	34401.33
761.417	34353.19
761.754	34164.95
762.091	34159.75
762.428	33968.57
762.765	33840.89
763.102	33881.79
763.438	33798.41
763.775	33540.78
764.112	33639.54
764.449	33573.55
764.785	33322.71
765.122	33188.25
765.458	33124.07
765.795	33067.35
766.131	33148.03
766.467	32841.82
766.804	32570.41
767.14	32599.34
767.476	32602.05
767.812	32380.82
768.148	32382.85
768.485	32222.18
768.821	32038.68
769.157	32076.19
769.492	31852.92
769.828	31925.46
770.164	31630.78
770.5	31478.47
770.836	31445.25
771.171	31321.63
771.507	31269.66
771.842	31086.39
772.178	30996.44
772.513	30890.23
772.849	30815.21
773.184	30746.28
773.519	30576.79
773.855	30427.42
774.19	30308.55
774.525	30201.21
774.86	30230.82
775.195	30144.49
775.53	29936.81
775.865	29774.33
776.2	29583.37
776.535	29401.46
776.87	29422.47
777.205	29248.69
777.539	29279.88
777.874	29206.21
778.209	28989.27
778.543	28876.95
778.878	28791.98
779.212	28781.14
779.547	28550.41
779.881	28613.23
780.215	28443.52
780.55	28451.43
780.884	28107.03
781.218	28222.05
781.552	28248.04
781.886	27949.97
782.22	27897.54
782.554	27742.07
782.888	27537.78
783.222	27498.46
783.556	27330.1
783.889	27219.37
784.223	26995.65
784.557	26981.64
784.89	27036.55
785.224	26804.46
785.557	26833.62
785.891	26732.6
786.224	26634.07
786.558	26578.03
786.891	26426.62
787.224	26276.57
787.557	26158.38
787.891	26074.31
788.224	25938.27
788.557	26062.11
788.89	25922.91
789.223	25943.47
789.556	25718.62
789.888	25698.05
790.221	25389.59
790.554	25341.68
790.887	25379.87
791.219	25208.57
791.552	25148.01
791.884	25028.01
792.217	24920.22
792.549	24871.63
792.882	24640.45
793.214	24653.11
793.546	24735.59
793.879	24451.08
794.211	24337.86
794.543	24469.38
794.875	24260.35
795.207	24325.43
795.539	24152.33
795.871	24124.54
796.203	24021.49
796.535	23801.15
796.867	23722.74
797.198	23727.48
797.53	23703.53
797.862	23548.28
798.193	23585.34
798.525	23355.52
798.856	23389.41
799.188	23194.16
799.519	23103.09
799.85	23026.48
800.182	23061.29
800.513	22940.84
800.844	22771.8
801.175	22896.09
801.506	22808.64
801.837	22672.82
802.168	22676.89
802.499	22527.06
802.83	22518.48
803.161	22411.81
803.491	22295.66
803.822	22444.58
804.153	22303.11
804.483	22110.8
804.814	22001.65
805.145	21964.14
805.475	21927.3
805.805	21857.02
806.136	21889.34
806.466	21895.22
806.796	21765.5
807.126	21646.41
807.457	21459.75
807.787	21549.24
808.117	21425.17
808.447	21363.25
808.777	21410.71
809.107	21215.23
809.436	21232.41
809.766	21170.94
810.096	21026.54
810.426	21097.95
810.755	21057.5
811.085	20893.21
811.414	20963.71
811.744	20743.38
812.073	20648.92
812.403	20717.62
812.732	20516.04
813.061	20489.83
813.39	20369.38
813.719	20299.55
814.049	20518.98
814.378	20293.9
814.707	20274.47
815.036	20252.32
815.365	20152.44
815.693	19949.05
816.022	20070.63
816.351	19966.68
816.68	19816.17
817.008	19867.25
817.337	19844.65
817.665	19682.84
817.994	19770.3
818.322	19785.67
818.651	19630.64
818.979	19611.66
819.307	19639.91
819.636	19548.61
819.964	19439.46
820.292	19436.3
820.62	19462.28
820.948	19264.1
821.276	19446.01
821.604	19406.47
821.932	19474.49
822.259	19423.64
822.587	19437.65
822.915	19289.41
823.243	19349.07
823.57	19233.82
823.898	19263.65
824.225	19216.19
824.553	19264.55
824.88	19222.97
825.207	19321.27
825.535	19220.94
825.862	19321.27
826.189	19246.02
826.516	19344.77
826.843	19280.59
827.17	19274.95
827.497	19299.58
827.824	19275.4
828.151	19322.85
828.478	19298.67
828.805	19375.51
829.131	19237.21
829.458	19214.16
829.785	19108.62
830.111	19232.69
830.438	19145.23
830.764	19217.09
831.09	19209.86
831.417	19059.81
831.743	19194.04
832.069	19059.36
832.395	19017.55
832.722	19173.93
833.048	19053.71
833.374	19046.48
833.7	19080.6
834.026	19091.45
834.351	19090.09
834.677	19033.6
835.003	19123.31
835.329	18912.47
835.654	18975.29
835.98	18793.83
836.306	18899.14
836.631	18704.11
836.956	18891
837.282	18796.31
837.607	18759.93
837.932	18718.58
838.258	18790.66
838.583	18673.83
838.908	18547.28
839.233	18538.24
839.558	18584.57
839.883	18536.21
840.208	18484.68
840.533	18398.13
840.858	18387.96
841.182	18449.43
841.507	18360.39
841.832	18315.87
842.156	18221.19
842.481	18183.45
842.805	18123.34
843.13	18092.6
843.454	18061.19
843.778	17928.09
844.103	18010.8
844.427	17928.77
844.751	17994.3
845.075	17888.99
845.399	17846.96
845.723	17705.04
846.047	17724.25
846.371	17571.26
846.695	17661.65
847.019	17428.44
847.343	17390.93
847.666	17209.69
847.99	17165.62
848.313	17197.26
848.637	17102.12
848.96	16944.38
849.284	17037.26
849.607	16859.87
849.931	16796.37
850.254	16677.27
850.577	16546.2
850.9	16506.2
851.223	16455.58
851.546	16432.08
851.869	16376.26
852.192	16352.76
852.515	16200.68
852.838	16163.61
853.161	16227.12
853.483	16041.58
853.806	16142.82
854.129	15942.83
854.451	15932.66
854.774	15960.68
855.096	15846.56
855.419	15798.2
855.741	15735.6
856.063	15689.73
856.385	15611.76
856.708	15633.01
857.03	15483.63
857.352	15480.92
857.674	15412
857.996	15394.37
858.318	15289.29
858.64	15354.82
858.961	15271.21
859.283	15230.98
859.605	15174.71
859.926	15236.86
860.248	15092
860.57	15013.36
860.891	15075.73
861.212	14961.39
861.534	14971.78
861.855	14916.19
862.176	14980.37
862.498	14900.14
862.819	14896.76
863.14	14780.15
863.461	14775.4
863.782	14705.12
864.103	14741.28
864.424	14659.7
864.745	14630.55
865.065	14574.28
865.386	14544.22
865.707	14577.44
866.027	14648.4
866.348	14513.04
866.668	14473.49
866.989	14479.59
867.309	14373.61
867.63	14347.62
867.95	14334.74
868.27	14255.42
868.59	14279.82
868.91	14243.21
869.23	14226.94
869.55	14147.62
869.87	14171.35
870.19	14205.7
870.51	14256.77
870.83	14126.61
871.15	14052.94
871.469	14066.49
871.789	14080.96
872.109	14086.16
872.428	14012.94
872.748	14064.01
873.067	14104.91
873.386	14008.19
873.706	13910.11
874.025	13923.45
874.344	13887.29
874.663	13917.12
874.982	13831.25
875.301	13887.74
875.62	13830.12
875.939	13774.3
876.258	13733.4
876.577	13640.97
876.896	13731.14
877.214	13612.27
877.533	13640.07
877.852	13603.23
878.17	13600.52
878.489	13643.45
878.807	13660.63
879.125	13618.82
879.444	13560.07
879.762	13479.62
880.08	13496.34
880.398	13483.69
880.716	13422.67
881.034	13369.79
881.352	13372.05
881.67	13321.43
881.988	13339.28
882.306	13254.76
882.624	13216.57
882.941	13155.33
883.259	13180.42
883.577	13193.52
883.894	13036.24
884.212	13068.1
884.529	13033.75
884.846	13081.66
885.164	12979.52
885.481	12898.39
885.798	12973.64
886.115	12844.15
886.432	12787.66
886.75	12824.72
887.067	12799.64
887.383	12786.98
887.7	12793.76
888.017	12641
888.334	12714.21
888.651	12596.7
888.967	12651.62
889.284	12553.99
889.6	12545.18
889.917	12462.02
890.233	12465.41
890.55	12427.22
890.866	12358.29
891.182	12341.57
891.498	12313.09
891.815	12276.49
892.131	12203.49
892.447	12245.3
892.763	12135.25
893.079	12038.75
893.395	12063.84
893.71	12072.2
894.026	12005.31
894.342	11993.55
894.657	11906.78
894.973	11886.21
895.289	11935.93
895.604	11822.94
895.92	11761.7
896.235	11734.13
896.55	11718.53
896.865	11662.72
897.181	11568.03
897.496	11713.56
897.811	11528.48
898.126	11519.67
898.441	11411.42
898.756	11387.69
899.071	11400.12
899.386	11355.61
899.7	11276.74
900.015	11213.01
900.33	11211.65
900.644	11196.74
900.959	11164.88
901.273	11102.28
901.588	11006.24
901.902	11006.91
902.216	10992
902.531	10969.4
902.845	10849.63
903.159	10831.1
903.473	10720.14
903.787	10757.2
904.101	10671.1
904.415	10777.09
904.729	10609.86
905.042	10541.16
905.356	10576.19
905.67	10489.87
905.984	10525.57
906.297	10472.24
906.611	10422.97
906.924	10432.24
907.237	10334.84
907.551	10305.69
907.864	10294.16
908.177	10285.35
908.491	10210.1
908.804	10135.98
909.117	10112.7
909.43	10036.09
909.743	10024.11
910.056	9984.34
910.368	9938.02
910.681	9899.6
910.994	9843.33
911.307	9771.01
911.619	9668.42
911.932	9727.85
912.244	9682.66
912.557	9693.5
912.869	9608.08
913.181	9580.74
913.494	9543.22
913.806	9415.54
914.118	9389.1
914.43	9376.67
914.742	9344.58
915.054	9238.37
915.366	9325.15
915.678	9212.38
915.99	9209.22
916.302	9170.35
916.613	9103.69
916.925	9074.99
917.236	9117.02
917.548	8996.12
917.859	8980.98
918.171	8977.14
918.482	8849.23
918.794	8892.62
919.105	8830.7
919.416	8789.12
919.727	8750.02
920.038	8740.76
920.349	8682.46
920.66	8644.72
920.971	8596.81
921.282	8543.7
921.593	8555.23
921.903	8474.1
922.214	8503.7
922.525	8462.35
922.835	8364.72
923.146	8309.13
923.456	8364.27
923.767	8240.66
924.077	8209.47
924.387	8156.59
924.697	8143.49
925.008	8150.04
925.318	8035.47
925.628	8082.7
925.938	8014.22
926.248	7953.66
926.558	7957.5
926.867	7875.92
927.177	7868.69
927.487	7874.57
927.796	7763.16
928.106	7720.45
928.416	7718.19
928.725	7679.54
929.034	7603.61
929.344	7654.23
929.653	7633.22
929.962	7562.94
930.271	7507.57
930.581	7552.99
930.89	7473
931.199	7388.93
931.508	7385.54
931.817	7354.13
932.125	7369.72
932.434	7306.67
932.743	7242.49
933.051	7210.18
933.36	7196.17
933.669	7116.62
933.977	7130.18
934.286	7132.67
934.594	7028.71
934.902	7068.71
935.21	7010.86
935.519	7040.24
935.827	6919.79
936.135	6896.29
936.443	6843.86
936.751	6819.23
937.059	6759.34
937.367	6794.14
937.674	6803.86
937.982	6696.07
938.29	6661.72
938.597	6691.77
938.905	6614.26
939.213	6632.34
939.52	6532.68
939.827	6617.2
940.135	6571.78
940.442	6473.25
940.749	6469.86
941.056	6458.33
941.363	6337.66
941.67	6336.53
941.977	6343.08
942.284	6276.64
942.591	6264.44
942.898	6265.34
943.205	6250.88
943.511	6189.87
943.818	6223.99
944.125	6142.64
944.431	6138.57
944.738	6139.92
945.044	6036.88
945.35	6050.43
945.657	6010.21
945.963	5933.38
946.269	5935.63
946.575	5909.65
946.881	5890.89
947.187	5902.42
947.493	5863.77
947.799	5842.98
948.105	5831.68
948.41	5837.11
948.716	5772.02
949.022	5792.36
949.327	5767.73
949.633	5651.35
949.938	5665.81
950.244	5637.34
950.549	5599.6
950.854	5531.8
951.16	5544.01
951.465	5490.9
951.77	5472.37
952.075	5516.66
952.38	5410
952.685	5404.58
952.99	5406.38
953.294	5405.25
953.599	5403.67
953.904	5303.56
954.209	5347.4
954.513	5317.35
954.818	5273.73
955.122	5249.1
955.426	5229.21
955.731	5226.5
956.035	5213.17
956.339	5127.07
956.643	5125.71
956.948	5106.96
957.252	5083
957.556	5063.12
957.86	5067.18
958.163	5073.96
958.467	5000.29
958.771	4958.26
959.075	4952.61
959.378	4958.94
959.682	4942.67
959.985	4906.28
960.289	4819.28
960.592	4798.26
960.896	4829.68
961.199	4805.72
961.502	4772.73
961.805	4739.51
962.108	4723.01
962.411	4721.88
962.714	4670.36
963.017	4639.85
963.32	4691.83
963.623	4663.35
963.926	4639.62
964.228	4550.59
964.531	4566.63
964.833	4544.49
965.136	4549
965.438	4485.73
965.741	4505.39
966.043	4485.05
966.345	4456.13
966.648	4462.45
966.95	4385.39
967.252	4357.6
967.554	4402.34
967.856	4358.73
968.158	4290.25
968.46	4307.88
968.761	4269.69
969.063	4244.15
969.365	4231.27
969.666	4249.8
969.968	4160.09
970.269	4179.52
970.571	4172.29
970.872	4142.46
971.174	4144.5
971.475	4110.82
971.776	4072.86
972.077	4060.43
972.378	4038.06
972.679	4075.12
972.98	4023.59
973.281	4023.37
973.582	3987.44
973.883	3975.46
974.183	4000.77
974.484	3929.81
974.785	3926.2
975.085	3913.54
975.386	3910.83
975.686	3859.76
975.986	3841.45
976.287	3858.85
976.587	3788.8
976.887	3765.97
977.187	3818.4
977.487	3728.69
977.787	3716.71
978.087	3749.93
978.387	3713.32
978.687	3696.6
978.987	3717.84
979.286	3648.69
979.586	3601.46
979.885	3619.09
980.185	3619.76
980.484	3612.76
980.784	3590.39
981.083	3572.08
981.382	3535.7
981.682	3527.11
981.981	3561.46
982.28	3455.7
982.579	3442.37
982.878	3482.37
983.177	3451.63
983.475	3465.64
983.774	3433.33
984.073	3379.32
984.372	3366.21
984.67	3371.86
984.969	3359.88
985.267	3313.1
985.566	3335.93
985.864	3322.82
986.162	3287.79
986.461	3247.12
986.759	3274.46
987.057	3206.67
987.355	3227.23
987.653	3211.86
987.951	3219.55
988.249	3173.22
988.547	3169.38
988.844	3139.78
989.142	3151.3
989.44	3095.03
989.737	3103.17
990.035	3084.86
990.332	3095.71
990.63	3082.38
990.927	3047.58
991.224	3042.15
991.521	3038.08
991.819	3033.79
992.116	3021.14
992.413	2993.79
992.71	2970.74
993.006	2966.45
993.303	2910.18
993.6	2915.38
993.897	2943.17
994.193	2901.82
994.49	2883.29
994.787	2849.39
995.083	2870.86
995.379	2846.68
995.676	2808.71
995.972	2798.32
996.268	2775.94
996.565	2804.87
996.861	2725.55
997.157	2745.21
997.453	2758.54
997.749	2704.76
998.044	2692.33
998.34	2685.32
998.636	2685.32
998.932	2670.18
999.227	2623.86
999.523	2628.15
999.818	2608.72
1000.114	2613.91
1000.409	2600.36
1000.704	2603.52
1001	2580.69
1001.295	2527.59
1001.59	2537.53
1001.885	2523.75
1002.18	2498.44
1002.475	2486.91
1002.77	2467.93
1003.065	2448.49
1003.359	2464.09
1003.654	2407.59
1003.949	2444.88
1004.243	2443.3
1004.538	2375.5
1004.832	2374.6
1005.127	2370.53
1005.421	2338.89
1005.715	2351.55
1006.009	2318.78
1006.304	2333.47
1006.598	2309.06
1006.892	2306.58
1007.186	2291.66
1007.48	2236.98
1007.773	2224.09
1008.067	2235.85
1008.361	2206.02
1008.655	2196.75
1008.948	2173.47
1009.242	2189.07
1009.535	2157.88
1009.829	2151.55
1010.122	2145.68
1010.415	2147.71
1010.708	2114.27
1011.001	2106.13
1011.295	2046.25
1011.588	2062.74
1011.881	2021.16
1012.173	2052.35
1012.466	2034.49
1012.759	1990.88
1013.052	2000.82
1013.344	1989.07
1013.637	2010.09
1013.93	1982.97
1014.222	1952.24
1014.514	1972.12
1014.807	1947.72
1015.099	1927.38
1015.391	1925.8
1015.683	1909.3
1015.976	1888.74
1016.268	1886.25
1016.56	1850.77
1016.851	1877.66
1017.143	1877.66
1017.435	1833.37
1017.727	1832.92
1018.018	1838.57
1018.31	1811
1018.602	1777.33
1018.893	1768.29
1019.185	1785.24
1019.476	1724.22
1019.767	1722.64
1020.058	1728.97
1020.35	1706.37
1020.641	1727.16
1020.932	1679.02
1021.223	1683.09
1021.514	1661.85
1021.804	1646.26
1022.095	1628.86
1022.386	1646.26
1022.677	1631.79
1022.967	1611.45
1023.258	1603.32
1023.548	1608.97
1023.839	1577.56
1024.129	1577.78
1024.419	1546.37
1024.709	1549.99
1025	1519.03
1025.29	1509.76
1025.58	1522.64
1025.87	1519.25
1026.16	1493.27
1026.449	1476.32
1026.739	1465.02
1027.029	1468.86
1027.319	1482.64
1027.608	1437
1027.898	1425.25
1028.187	1424.34
1028.477	1384.34
1028.766	1423.44
1029.055	1400.61
1029.344	1378.24
1029.634	1372.59
1029.923	1385.47
1030.212	1381.18
1030.501	1327.17
1030.79	1329.88
1031.078	1325.59
1031.367	1334.17
1031.656	1289.88
1031.945	1299.6
1032.233	1296.89
1032.522	1308.64
1032.81	1259.37
1033.099	1266.83
1033.387	1256.44
1033.675	1268.64
1033.963	1252.82
1034.251	1258.92
1034.54	1218.47
1034.828	1222.76
1035.116	1207.62
1035.403	1228.64
1035.691	1179.83
1035.979	1155.42
1036.267	1212.82
1036.554	1177.57
1036.842	1159.94
1037.129	1146.61
1037.417	1141.64
1037.704	1134.18
1037.992	1136.44
1038.279	1076.78
1038.566	1117.91
1038.853	1117.91
1039.14	1117.91
