Data from white_steel_sheet_FLMS001491_063.txt Node
Date: Tue Feb 07 10:58:16 GMT 2017
User: dcchb
Spectrometer: FLMS00149
Trigger mode: 0
Integration Time (sec): 2.000000E-2
Scans to average: 10
Electric dark correction enabled: true
Nonlinearity correction enabled: false
Boxcar width: 0
XAxis mode: Wavelengths
Number of Pixels in Spectrum: 2048
>>>>>Begin Spectral Data<<<<<
341.393	-4.75
341.776	-4.75
342.16	-4.75
342.543	-64.86
342.927	-62.82
343.31	-50.62
343.693	-65.08
344.077	-72.99
344.46	-68.7
344.843	-66.44
345.226	-36.38
345.61	-25.31
345.993	-2.03
346.376	-14.46
346.759	1.58
347.142	40.68
347.525	32.99
347.908	65.31
348.291	67.79
348.674	95.59
349.057	98.08
349.44	122.26
349.823	130.39
350.206	161.13
350.588	183.05
350.971	215.14
351.354	230.5
351.737	244.06
352.119	256.94
352.502	261.91
352.884	256.26
353.267	308.69
353.65	301.01
354.032	278.86
354.414	328.35
354.797	317.96
355.179	328.35
355.562	318.41
355.944	317.28
356.326	344.4
356.709	333.1
357.091	327.45
357.473	342.82
357.855	340.56
358.238	357.05
358.62	341.91
359.002	341.46
359.384	329.26
359.766	328.35
360.148	353.44
360.53	350.05
360.912	354.57
361.294	332.65
361.676	323.38
362.057	346.88
362.439	329.93
362.821	338.3
363.203	336.04
363.584	333.78
363.966	321.8
364.348	313.44
364.729	337.84
365.111	336.94
365.493	325.19
365.874	313.89
366.256	323.38
366.637	318.41
367.019	335.36
367.4	312.76
367.781	320.22
368.163	329.93
368.544	317.05
368.925	325.42
369.306	341.23
369.688	307.79
370.069	348.01
370.45	323.16
370.831	332.65
371.212	320.44
371.593	326.32
371.974	330.61
372.355	345.98
372.736	331.29
373.117	332.19
373.498	321.57
373.879	319.99
374.26	329.03
374.641	326.32
375.021	308.24
375.402	333.78
375.783	328.35
376.163	303.72
376.544	343.49
376.925	358.63
377.305	356.83
377.686	343.04
378.066	351.4
378.447	359.31
378.827	345.3
379.208	347.56
379.588	366.09
379.968	356.15
380.349	345.53
380.729	358.18
381.109	366.09
381.489	375.81
381.87	346.21
382.25	381.01
382.63	348.01
383.01	377.17
383.39	361.57
383.77	371.74
384.15	357.28
384.53	367.45
384.91	374
385.29	370.16
385.67	387.56
386.049	403.61
386.429	399.54
386.809	404.28
387.189	392.31
387.568	384.4
387.948	394.11
388.328	376.94
388.707	382.14
389.087	416.49
389.466	421.23
389.846	412.19
390.225	407.45
390.605	395.47
390.984	416.49
391.363	408.35
391.743	442.47
392.122	419.65
392.501	447.45
392.881	448.8
393.26	429.37
393.639	449.48
394.018	443.6
394.397	439.54
394.776	454.23
395.155	476.37
395.534	475.47
395.913	476.6
396.292	488.35
396.671	470.5
397.05	490.83
397.429	479.76
397.808	474.11
398.186	505.52
398.565	500.78
398.944	525.18
399.323	532.64
399.701	524.28
400.08	509.82
400.458	552.3
400.837	535.81
401.215	554.56
401.594	551.62
401.972	565.18
402.351	568.8
402.729	566.99
403.107	588.69
403.486	591.85
403.864	636.59
404.242	618.06
404.62	633.43
404.999	622.36
405.377	655.12
405.755	659.42
406.133	672.98
406.511	670.49
406.889	684.95
407.267	702.35
407.645	696.48
408.023	743.94
408.401	729.47
408.779	726.08
409.156	751.84
409.534	775.12
409.912	757.27
410.29	779.19
410.667	767.66
411.045	804.5
411.422	801.79
411.8	816.25
412.178	829.36
412.555	858.28
412.933	859.64
413.31	860.77
413.687	882.24
414.065	882.01
414.442	905.74
414.819	926.08
415.197	926.76
415.574	935.57
415.951	933.08
416.328	939.41
416.705	950.94
417.082	979.18
417.46	985.06
417.837	985.28
418.214	979.41
418.591	1014.44
418.967	1009.92
419.344	1003.59
419.721	1016.02
420.098	1032.06
420.475	1057.6
420.852	1074.32
421.228	1078.84
421.605	1086.3
421.982	1100.54
422.358	1136.47
422.735	1117.94
423.111	1112.29
423.488	1152.06
423.864	1171.49
424.241	1164.49
424.617	1192.74
424.994	1215.79
425.37	1178.73
425.746	1218.95
426.123	1248.33
426.499	1245.39
426.875	1252.85
427.251	1289.68
427.627	1284.26
428.003	1273.41
428.379	1328.33
428.756	1325.84
429.132	1368.1
429.507	1345.28
429.883	1363.81
430.259	1404.71
430.635	1417.59
431.011	1428.66
431.387	1468.89
431.763	1474.99
432.138	1489
432.514	1509.34
432.89	1522.67
433.265	1596.79
433.641	1566.74
434.016	1575.1
434.392	1627.08
434.767	1655.78
435.143	1658.71
435.518	1653.97
435.894	1680.86
436.269	1707.3
436.644	1749.33
437.02	1767.19
437.395	1780.07
437.77	1807.18
438.145	1828.2
438.52	1821.42
438.895	1836.34
439.271	1894.87
439.646	1906.39
440.021	1882.44
440.395	1917.01
440.77	1916.11
441.145	1918.37
441.52	1956.33
441.895	1964.24
442.27	1990.46
442.645	2021.64
443.019	2028.42
443.394	2034.75
443.769	2059.83
444.143	2060.28
444.518	2105.48
444.892	2104.35
445.267	2123.79
445.641	2151.36
446.016	2139.15
446.39	2145.48
446.764	2187.74
447.139	2171.47
447.513	2210.79
447.887	2220.51
448.262	2254.86
448.636	2245.36
449.01	2286.72
449.384	2318.81
449.758	2315.87
450.132	2375.76
450.506	2334.18
450.88	2378.92
451.254	2382.76
451.628	2422.08
452.002	2447.17
452.376	2483.78
452.75	2477.45
453.123	2494.17
453.497	2565.13
453.871	2576.88
454.244	2622.3
454.618	2625.02
454.992	2672.7
455.365	2677.22
455.739	2733.26
456.112	2775.75
456.486	2821.85
456.859	2869.76
457.232	2851.22
457.606	2883.31
457.979	2921.51
458.352	2966.25
458.725	3010.54
459.099	3030.2
459.472	3095.74
459.845	3110.65
460.218	3123.08
460.591	3165.34
460.964	3210.09
461.337	3231.1
461.71	3288.95
462.083	3299.8
462.456	3351.55
462.829	3318.1
463.201	3396.07
463.574	3494.82
463.947	3491.66
464.32	3554.26
464.692	3554.26
465.065	3594.48
465.438	3680.36
465.81	3709.28
466.183	3749.73
466.555	3839.67
466.928	3831.99
467.3	3843.29
467.672	3874.02
468.045	4010.97
468.417	4017.3
468.789	4083.96
469.161	4116.5
469.534	4151.76
469.906	4283.96
470.278	4263.16
470.65	4311.98
471.022	4402.82
471.394	4481.69
471.766	4544.51
472.138	4601.91
472.51	4707.67
472.882	4711.97
473.253	4793.77
473.625	4893.88
473.997	4969.81
474.369	4984.5
474.74	5034.67
475.112	5168.9
475.484	5247.32
475.855	5276.25
476.227	5356.7
476.598	5511.72
476.97	5541.78
477.341	5685.5
477.713	5721.21
478.084	5817.47
478.455	5961.2
478.827	5957.13
479.198	6150.8
479.569	6236.45
479.94	6297.46
480.311	6386.05
480.682	6605.02
481.053	6685.25
481.424	6786.04
481.795	6870.33
482.166	6970.89
482.537	7029.87
482.908	7217.21
483.279	7288.62
483.65	7429.18
484.021	7573.81
484.391	7661.49
484.762	7721.38
485.133	7741.04
485.503	7930.86
485.874	8118.88
486.244	8139
486.615	8359.1
486.985	8386.22
487.356	8536.05
487.726	8647
488.097	8831.86
488.467	8871.86
488.837	9087.9
489.207	9223.71
489.578	9253.09
489.948	9379.19
490.318	9550.48
490.688	9510.03
491.058	9670.48
491.428	9766.07
491.798	9907.31
492.168	10167.42
492.538	10200.41
492.908	10234.99
493.278	10330.12
493.648	10512.27
494.017	10606.05
494.387	10754.75
494.757	10796.78
495.126	10914.74
495.496	10909.77
495.866	11028.41
496.235	11150.44
496.605	11318.57
496.974	11397.89
497.344	11436.08
497.713	11545.23
498.082	11639.24
498.452	11734.38
498.821	11831.78
499.19	11855.73
499.559	11953.13
499.928	12081.49
500.298	12164.88
500.667	12280.81
501.036	12385.66
501.405	12410.07
501.774	12542.5
502.143	12560.57
502.512	12640.8
502.88	12861.36
503.249	12819.55
503.618	12914.46
503.987	13019.54
504.356	13091.41
504.724	13184.96
505.093	13260.89
505.462	13289.59
505.83	13458.86
506.199	13469.93
506.567	13726.64
506.936	13626.31
507.304	13868.56
507.672	13918.28
508.041	13987.65
508.409	14122.57
508.777	14264.03
509.145	14384.71
509.514	14465.38
509.882	14488.21
510.25	14529.79
510.618	14714.42
510.986	14719.39
511.354	14874.19
511.722	15110.34
512.09	15184.69
512.458	15147.85
512.826	15322.76
513.193	15449.54
513.561	15504.9
513.929	15686.37
514.297	15836.19
514.664	15903.31
515.032	15970.88
515.4	16122.51
515.767	16274.37
516.135	16337.88
516.502	16263.98
516.869	16598.89
517.237	16618.55
517.604	16628.04
517.972	16847.47
518.339	16951.87
518.706	17010.17
519.073	17152.32
519.44	17260.56
519.808	17492.87
520.175	17442.48
520.542	17827.55
520.909	17913.2
521.276	17885.63
521.643	18137.38
522.009	18231.61
522.376	18338.27
522.743	18580.98
523.11	18735.1
523.477	18932.16
523.843	19048.09
524.21	19127.18
524.577	19321.98
524.943	19426.38
525.31	19499.6
525.676	19714.96
526.043	19849.87
526.409	19849.65
526.776	20247.83
527.142	20262.29
527.508	20434.26
527.874	20601.04
528.241	20691.43
528.607	20831.32
528.973	20975.27
529.339	20982.27
529.705	21289.61
530.071	21460
530.437	21488.02
530.803	21669.26
531.169	21743.16
531.535	21795.59
531.901	21899.76
532.267	22000.1
532.632	22189.47
532.998	22158.06
533.364	22407.55
533.73	22522.12
534.095	22723.47
534.461	22715.56
534.826	22861.32
535.192	22929.79
535.557	23129.56
535.923	23033.29
536.288	23217.24
536.653	23250.69
537.019	23391.48
537.384	23428.76
537.749	23620.62
538.114	23691.35
538.479	23786.95
538.845	23955.53
539.21	23892.48
539.575	23972.03
539.94	24115.52
540.305	24312.81
540.67	24238.68
541.034	24371.11
541.399	24574.5
541.764	24519.13
542.129	24657.88
542.494	24713.25
542.858	24849.74
543.223	24954.15
543.587	25027.59
543.952	24990.76
544.316	25085.89
544.681	25203.86
545.045	25364.98
545.41	25455.15
545.774	25406.56
546.138	25599.55
546.503	25581.93
546.867	25658.99
547.231	25861.92
547.595	26002.25
547.959	25960.9
548.324	26074.34
548.688	26093.78
549.052	26289.25
549.416	26336.48
549.779	26271.63
550.143	26431.62
550.507	26609.92
550.871	26670.71
551.235	26763.82
551.599	26989.8
551.962	26940.76
552.326	27102.34
552.689	27179.4
553.053	27072.73
553.417	27257.59
553.78	27565.6
554.143	27488.99
554.507	27621.19
554.87	27749.55
555.234	28031.58
555.597	27907.97
555.96	28015.99
556.323	28156.1
556.686	28290.1
557.05	28404
557.413	28525.8
557.776	28496.2
558.139	28716.99
558.502	28911.33
558.865	28956.53
559.228	29088.5
559.59	29134.83
559.953	29356.74
560.316	29502.95
560.679	29519
561.041	29782.72
561.404	29943.39
561.767	30117.4
562.129	29951.75
562.492	30251.18
562.854	30352.2
563.217	30347.45
563.579	30563.49
563.941	30736.14
564.304	30775.46
564.666	30986.08
565.028	30949.47
565.39	31139.07
565.753	31300.87
566.115	31410.47
566.477	31549.45
566.839	31728.66
567.201	31749.22
567.563	31925.26
567.925	32041.42
568.287	32049.33
568.648	32214.75
569.01	32228.08
569.372	32433.27
569.734	32383.78
570.095	32715.07
570.457	32798.23
570.819	32947.16
571.18	32964.78
571.542	33127.72
571.903	33130.65
572.265	33186.92
572.626	33367.26
572.987	33279.12
573.349	33441.61
573.71	33666.69
574.071	33574.71
574.432	33787.59
574.794	34026
575.155	33999.33
575.516	33940.58
575.877	34026.68
576.238	34024.87
576.599	34218.08
576.96	34353.9
577.32	34286.33
577.681	34397.74
578.042	34453.56
578.403	34397.06
578.763	34558.87
579.124	34609.94
579.485	34621.46
579.845	34730.84
580.206	34756.83
580.566	34804.96
580.927	34736.94
581.287	34967.44
581.648	34731.52
582.008	34901.23
582.368	34887.44
582.728	34898.97
583.089	34801.57
583.449	34889.7
583.809	34999.98
584.169	34929.93
584.529	34861.91
584.889	35173.31
585.249	34900.55
585.609	34874.34
585.969	35088.12
586.329	34966.76
586.688	34989.59
587.048	35020.1
587.408	34908.23
587.768	34998.18
588.127	34845.19
588.487	34993.88
588.846	35279.75
589.206	34832.98
589.565	34981.91
589.925	35052.41
590.284	35110.04
590.643	35192.52
591.003	35234.55
591.362	35321.56
591.721	35081.79
592.08	35158.85
592.44	35290.15
592.799	35165.4
593.158	35150.26
593.517	35081.79
593.876	35119.3
594.235	35027.1
594.593	35057.16
594.952	35143.71
595.311	34989.14
595.67	34994.33
596.029	35335.57
596.387	35212.41
596.746	35257.83
597.104	35057.61
597.463	35192.97
597.822	35194.1
598.18	35256.93
598.538	35096.03
598.897	35267.32
599.255	34973.54
599.613	35446.75
599.972	35299.64
600.33	35472.29
600.688	35200.43
601.046	35444.49
601.404	35436.36
601.762	35369.92
602.12	35575.79
602.478	35550.03
602.836	35518.16
603.194	35308.9
603.552	35426.41
603.91	35343.93
604.268	35592.74
604.625	35323.82
604.983	35321.56
605.341	35346.87
605.698	35504.6
606.056	35670.02
606.413	35506.19
606.771	35726.07
607.128	35831.83
607.485	35630.25
607.843	35616.01
608.2	35754.31
608.557	35960.64
608.914	35720.42
609.272	35945.5
609.629	36122.89
609.986	36058.03
610.343	35840.19
610.7	36286.5
611.057	36066.62
611.414	36137.58
611.771	36096
612.127	36275.66
612.484	36164.02
612.841	36309.33
613.198	36283.79
613.554	36253.51
613.911	36426.61
614.267	36283.57
614.624	36440.62
614.98	36499.83
615.337	36554.75
615.693	36625.7
616.05	36581.41
616.406	36678.36
616.762	36667.96
617.118	36638.13
617.475	36592.48
617.831	36846.49
618.187	36690.11
618.543	36788.64
618.899	36917
619.255	37047.16
619.611	36933.94
619.967	36999.03
620.323	36916.32
620.678	36915.64
621.034	36772.82
621.39	36825.25
621.746	36818.24
622.101	37225.01
622.457	36880.39
622.812	37091.91
623.168	37030.44
623.523	37025.24
623.879	37163.54
624.234	36883.78
624.589	37081.74
624.945	37049.65
625.3	37133.49
625.655	36996.99
626.01	37070.21
626.365	37133.03
626.72	37008.29
627.075	36966.71
627.43	37000.84
627.785	36920.39
628.14	36956.99
628.495	37031.12
628.85	36959.71
629.205	36825.47
629.559	37094.39
629.914	36711.13
630.269	36959.48
630.623	36734.18
630.978	36727.85
631.332	36888.75
631.687	36868.86
632.041	36679.49
632.396	36926.49
632.75	36699.6
633.104	36751.35
633.459	36511.36
633.813	36479.72
634.167	36525.59
634.521	36589.77
634.875	36584.8
635.229	36447.63
635.583	36249.67
635.937	36373.51
636.291	36263.45
636.645	36297.35
636.999	36148.65
637.352	36337.58
637.706	36041.54
638.06	36300.74
638.413	35990.01
638.767	35923.58
639.121	36005.61
639.474	35772.17
639.828	35791.6
640.181	35888.55
640.534	35709.57
640.888	35709.8
641.241	35450.14
641.594	35573.53
641.947	35689.23
642.301	35584.38
642.654	35604.71
643.007	35408.11
643.36	35331.27
643.713	35421.22
644.066	35356.58
644.419	35305.96
644.771	35061
645.124	34727.22
645.477	34508.47
645.83	34401.13
646.182	34282.04
646.535	34172.66
646.888	34307.8
647.24	34127.01
647.593	34246.33
647.945	34218.76
648.298	34126.33
648.65	33897.41
649.002	33887.02
649.355	34037.07
649.707	33884.08
650.059	34031.65
650.411	34377.85
650.763	34270.74
651.115	34726.77
651.467	34747.56
651.819	34607.9
652.171	34567.68
652.523	34473.22
652.875	34476.61
653.227	34367.23
653.578	34509.83
653.93	34455.59
654.282	34339.89
654.633	34226.67
654.985	34331.75
655.337	34206.56
655.688	34237.29
656.039	34387.57
656.391	33992.33
656.742	34010.41
657.094	34047.24
657.445	34219.89
657.796	34168.59
658.147	33976.06
658.498	33975.83
658.849	34067.8
659.2	33979.67
659.551	33915.49
659.902	33864.42
660.253	33845.89
660.604	33715.5
660.955	33572.22
661.306	33779.9
661.656	33572.68
662.007	33628.27
662.358	33541.49
662.708	33531.77
663.059	33482.51
663.409	33281.16
663.76	33395.05
664.11	33322.51
664.461	33384.88
664.811	33313.02
665.161	33370.65
665.511	33192.35
665.862	33038.45
666.212	33035.52
666.562	33121.84
666.912	33050.43
667.262	32866.25
667.612	32882.3
667.962	32760.72
668.312	32743.32
668.662	32789.87
669.011	32631.01
669.361	32516.21
669.711	32460.16
670.06	32434.63
670.41	32252.94
670.76	32257
671.109	32235.99
671.459	32151.25
671.808	32099.04
672.157	32178.36
672.507	31818.15
672.856	31890.46
673.205	31905.15
673.554	31922.55
673.904	31814.98
674.253	31927.75
674.602	31656.79
674.951	31376.58
675.3	31181.55
675.649	31602.78
675.998	31435.11
676.346	31457.48
676.695	31607.3
677.044	31361.21
677.393	31500.41
677.741	31473.75
678.09	31239.63
678.438	31183.13
678.787	31348.1
679.135	31478.49
679.484	31098.17
679.832	31240.08
680.181	31068.56
680.529	31254.55
680.877	31008.22
681.225	30975.46
681.573	31280.99
681.922	31142.23
682.27	30975.91
682.618	31116.47
682.966	31083.02
683.314	31249.57
683.661	31049.81
684.009	30857.27
684.357	30936.14
684.705	30827.89
685.053	31050.48
685.4	30925.97
685.748	30905.4
686.095	30894.55
686.443	30930.26
686.79	30883.48
687.138	30952.86
687.485	30869.7
687.832	30868.34
688.18	30867.44
688.527	30734.11
688.874	30893.2
689.221	30710.38
689.568	30701.34
689.915	30676.26
690.262	30627.9
690.609	30568.69
690.956	30514.23
691.303	30564.85
691.65	30487.56
691.997	30521.91
692.344	30340.9
692.69	30326.21
693.037	30335.7
693.383	30196.95
693.73	30249.15
694.077	30091.19
694.423	30257.51
694.769	30102.26
695.116	30123.05
695.462	30081.24
695.808	29988.36
696.155	30039.89
696.501	29833.79
696.847	29862.49
697.193	29695.72
697.539	29802.15
697.885	29481.94
698.231	29415.95
698.577	29422.73
698.923	29446.68
699.269	29343.18
699.614	29198.78
699.96	29130.76
700.306	29210.08
700.651	28970.99
700.997	28967.15
701.342	28957.2
701.688	28938
702.033	28850.31
702.379	28773.03
702.724	28735.74
703.069	28576.88
703.415	28458.01
703.76	28522.19
704.105	28327.16
704.45	28328.07
704.795	28265.25
705.14	28194.51
705.485	28176.43
705.83	27924.24
706.175	27956.55
706.52	27977.57
706.865	27804.01
707.209	27789.78
707.554	27688.76
707.899	27797.91
708.243	27573.51
708.588	27577.58
708.932	27420.07
709.277	27467.75
709.621	27383.46
709.966	27117.71
710.31	27258.72
710.654	26981.89
710.998	27172.62
711.342	27071.6
711.687	27082.45
712.031	26832.06
712.375	26891.27
712.719	26906.19
713.063	26768.34
713.407	26812.18
713.75	26740.77
714.094	26642.46
714.438	26597.27
714.782	26574.22
715.125	26471.17
715.469	26472.3
715.812	26362.02
716.156	26289.93
716.499	26257.84
716.843	26245.64
717.186	26122.03
717.53	26162.93
717.873	26190.72
718.216	26079.99
718.559	26033.44
718.902	25849.26
719.246	25931.3
719.589	25780.79
719.932	25799.1
720.275	25698.31
720.617	25648.59
720.96	25569.5
721.303	25646.33
721.646	25532.66
721.989	25437.75
722.331	25481.14
722.674	25411.31
723.016	25355.94
723.359	25321.14
723.701	25437.52
724.044	25285.89
724.386	25089.28
724.729	25210.86
725.071	25219.68
725.413	25093.35
725.755	24954.82
726.097	24878.22
726.439	24924.77
726.782	24863.53
727.124	24914.6
727.465	24820.14
727.807	24804.09
728.149	24708.28
728.491	24757.32
728.833	24732.46
729.175	24617.43
729.516	24559.58
729.858	24470.54
730.199	24494.95
730.541	24419.24
730.882	24533.14
731.224	24480.26
731.565	24291.34
731.906	24315.29
732.248	24254.96
732.589	24111.23
732.93	24148.97
733.271	24124.79
733.612	24146.94
733.953	24065.36
734.294	23955.98
734.635	23988.75
734.976	24077.78
735.317	23764.57
735.658	23802.09
735.999	23796.89
736.339	23805.25
736.68	23831.24
737.021	23779.04
737.361	23592.83
737.702	23780.17
738.042	23580.17
738.383	23435.54
738.723	23555.31
739.063	23419.95
739.404	23507.63
739.744	23327.07
740.084	23256.11
740.424	23355.32
740.764	23321.42
741.104	23368.88
741.444	23216.11
741.784	23250.24
742.124	23107.19
742.464	23116
742.804	23052.73
743.143	22953.97
743.483	23080.75
743.823	22872.62
744.162	22915.78
744.502	23034.2
744.841	22904.71
745.181	22883.47
745.52	22775.45
745.86	22841.89
746.199	22693.87
746.538	22763.02
746.877	22783.81
747.216	22688.67
747.556	22621.1
747.895	22604.6
748.234	22432.63
748.573	22455.23
748.911	22420.65
749.25	22463.36
749.589	22240.77
749.928	22282.13
750.267	22250.71
750.605	22144.5
750.944	22227.21
751.283	22125.75
751.621	22081.45
751.96	21975.02
752.298	21862.02
752.636	22039.42
752.975	21968.46
753.313	21764.4
753.651	21899.31
753.989	21752.42
754.327	21711.29
754.666	21554.01
755.004	21698.41
755.342	21653.89
755.679	21575.7
756.017	21452.54
756.355	21464.29
756.693	21378.42
757.031	21420.68
757.368	21263.4
757.706	21204.64
758.044	21134.81
758.381	21113.8
758.719	21003.52
759.056	21185.66
759.394	20907.92
759.731	20796.06
760.068	20797.65
760.405	20665.9
760.743	20653.47
761.08	20686.46
761.417	20592
761.754	20505.9
762.091	20531.44
762.428	20374.83
762.765	20230.88
763.102	20347.94
763.438	20197.89
763.775	20120.83
764.112	20145.68
764.449	20136.65
764.785	20089.19
765.122	19862.3
765.458	19803.55
765.795	19831.79
766.131	19802.87
766.467	19687.39
766.804	19647.62
767.14	19476.1
767.476	19428.42
767.812	19375.99
768.148	19311.81
768.485	19260.51
768.821	19167.63
769.157	19119.72
769.492	19185.94
769.828	18974.64
770.164	18779.39
770.5	18717.25
770.836	18731.03
771.171	18734.2
771.507	18715.21
771.842	18407.88
772.178	18516.58
772.513	18425.28
772.849	18460.08
773.184	18352.74
773.519	18311.16
773.855	18216.02
774.19	18135.34
774.525	18109.81
774.86	18115.68
775.195	18035.68
775.53	17959.53
775.865	17815.8
776.2	17688.57
776.535	17724.28
776.87	17595.02
777.205	17527.22
777.539	17502.82
777.874	17510.05
778.209	17346.44
778.543	17354.12
778.878	17221.47
779.212	17148.02
779.547	17065.09
779.881	17064.18
780.215	16901.93
780.55	17042.94
780.884	16829.61
781.218	16789.16
781.552	16722.27
781.886	16775.38
782.22	16621.94
782.554	16561.6
782.888	16364.54
783.222	16364.99
783.556	16219.23
783.889	16263.75
784.223	16127.26
784.557	16091.33
784.89	16174.49
785.224	16029.86
785.557	15911.9
785.891	15897.89
786.224	15938.34
786.558	15797.55
786.891	15760.26
787.224	15727.5
787.557	15610.66
787.891	15708.06
788.224	15670.55
788.557	15607.05
788.89	15504
789.223	15398.92
789.556	15382.19
789.888	15302.42
790.221	15239.37
790.554	15157.79
790.887	15155.99
791.219	15032.37
791.552	15043.22
791.884	14983.56
792.217	14892.49
792.549	14771.81
792.882	14739.5
793.214	14661.76
793.546	14668.31
793.879	14560.52
794.211	14556.68
794.543	14521.88
794.875	14469.45
795.207	14574.31
795.539	14401.88
795.871	14414.54
796.203	14287.31
796.535	14217.48
796.867	14117.37
797.198	14215.67
797.53	14093.19
797.862	14049.12
798.193	13998.73
798.525	14010.93
798.856	13966.86
799.188	13833.99
799.519	13779.3
799.85	13687.55
800.182	13741.56
800.513	13678.06
800.844	13538.18
801.175	13683.71
801.506	13561.45
801.837	13541.34
802.168	13511.28
802.499	13500.66
802.83	13471.51
803.161	13357.16
803.491	13383.6
803.822	13365.52
804.153	13302.93
804.483	13164.17
804.814	13075.81
805.145	13035.14
805.475	13080.33
805.805	13078.07
806.136	13068.58
806.466	12985.2
806.796	12924.63
807.126	12809.61
807.457	12785.88
807.787	12860.68
808.117	12784.07
808.447	12746.78
808.777	12742.72
809.107	12646.45
809.436	12662.04
809.766	12651.64
810.096	12549.95
810.426	12529.39
810.755	12506.79
811.085	12471.76
811.414	12479.67
811.744	12361.03
812.073	12376.62
812.403	12344.31
812.732	12283.74
813.061	12294.82
813.39	12247.81
813.719	12180.7
814.049	12253.01
814.378	12178.21
814.707	12034.49
815.036	12045.56
815.365	12056.41
815.693	11934.83
816.022	11933.25
816.351	11861.61
816.68	11871.55
817.008	11920.36
817.337	11746.36
817.665	11733.25
817.994	11777.09
818.322	11791.78
818.651	11669.75
818.979	11620.71
819.307	11663.65
819.636	11616.19
819.964	11511.56
820.292	11612.35
820.62	11622.07
820.948	11531
821.276	11581.84
821.604	11460.04
821.932	11608.96
822.259	11600.6
822.587	11556.08
822.915	11537.55
823.243	11488.29
823.57	11465.91
823.898	11478.57
824.225	11481.96
824.553	11468.62
824.88	11488.96
825.207	11522.86
825.535	11469.3
825.862	11536.65
826.189	11483.54
826.516	11513.6
826.843	11453.48
827.17	11511.79
827.497	11490.09
827.824	11445.12
828.151	11470.88
828.478	11447.61
828.805	11481.51
829.131	11368.51
829.458	11361.74
829.785	11309.31
830.111	11393.6
830.438	11379.36
830.764	11451.22
831.09	11423.65
831.417	11405.8
831.743	11400.83
832.069	11355.63
832.395	11353.15
832.722	11389.31
833.048	11350.89
833.374	11348.4
833.7	11358.35
834.026	11360.15
834.351	11359.02
834.677	11346.59
835.003	11333.71
835.329	11335.97
835.654	11271.12
835.98	11234.73
836.306	11159.71
836.631	11180.27
836.956	11201.06
837.282	11226.15
837.607	11151.35
837.932	11124.68
838.258	11124.91
838.583	11158.35
838.908	11043.55
839.233	11054.85
839.558	11016.43
839.883	10919.71
840.208	10952.25
840.533	10967.62
840.858	10881.3
841.182	10964.01
841.507	10931.92
841.832	10837.68
842.156	10810.79
842.481	10839.94
842.805	10787.96
843.13	10862.99
843.454	10794.29
843.778	10727.4
844.103	10747.06
844.427	10710.68
844.751	10632.04
845.075	10619.38
845.399	10639.72
845.723	10539.61
846.047	10552.26
846.371	10421.42
846.695	10513.17
847.019	10429.1
847.343	10356.79
847.666	10350.46
847.99	10292.61
848.313	10200.41
848.637	10196.34
848.96	10194.76
849.284	10098.72
849.607	10072.73
849.931	10086.06
850.254	9952.51
850.577	9865.05
850.9	9931.49
851.223	9903.69
851.546	9798.16
851.869	9740.31
852.192	9813.3
852.515	9717.71
852.838	9665.96
853.161	9630.71
853.483	9606.98
853.806	9564.27
854.129	9531.27
854.451	9503.48
854.774	9477.72
855.096	9478.62
855.419	9404.05
855.741	9366.53
856.063	9350.04
856.385	9322.69
856.708	9360.43
857.03	9297.16
857.352	9243.37
857.674	9254.22
857.996	9142.81
858.318	9124.28
858.64	9169.93
858.961	9104.85
859.283	9062.36
859.605	9017.62
859.926	9109.59
860.248	9036.6
860.57	8966.54
860.891	8993.21
861.212	8936.26
861.534	8947.11
861.855	8926.09
862.176	8892.2
862.498	8907.34
862.819	8939.43
863.14	8849.26
863.461	8787.57
863.782	8732.65
864.103	8765.42
864.424	8746.21
864.745	8767.23
865.065	8735.36
865.386	8626.44
865.707	8672.09
866.027	8756.38
866.348	8693.56
866.668	8636.16
866.989	8616.04
867.309	8497.86
867.63	8610.4
867.95	8581.7
868.27	8476.16
868.59	8589.6
868.91	8517.52
869.23	8574.92
869.55	8507.8
869.87	8503.51
870.19	8474.81
870.51	8458.99
870.83	8459.21
871.15	8362.94
871.469	8421.25
871.789	8436.16
872.109	8389.61
872.428	8364.98
872.748	8362.04
873.067	8372.44
873.386	8392.77
873.706	8331.76
874.025	8320.01
874.344	8247.47
874.663	8257.86
874.982	8224.87
875.301	8268.71
875.62	8252.89
875.939	8227.58
876.258	8223.29
876.577	8222.61
876.896	8130.41
877.214	8126.11
877.533	8120.92
877.852	8124.08
878.17	8117.07
878.489	8144.64
878.807	8124.98
879.125	8116.85
879.444	8091.76
879.762	8007.93
880.08	8059.45
880.398	8040.24
880.716	8023.74
881.034	7964.54
881.352	7987.36
881.67	7920.02
881.988	7929.96
882.306	7934.71
882.624	7930.19
882.941	7904.42
883.259	7896.52
883.577	7858.78
883.894	7828.49
884.212	7837.08
884.529	7752.11
884.846	7791.43
885.164	7781.04
885.481	7786.69
885.798	7767.03
886.115	7658.33
886.432	7700.14
886.75	7668.5
887.067	7617.43
887.383	7588.95
887.7	7599.35
888.017	7538.78
888.334	7579.91
888.651	7520.93
888.967	7521.84
889.284	7489.75
889.6	7535.4
889.917	7414.72
890.233	7412.01
890.55	7389.64
890.866	7380.14
891.182	7398
891.498	7369.3
891.815	7329.98
892.131	7346.25
892.447	7271.45
892.763	7206.14
893.079	7256.53
893.395	7155.29
893.71	7207.95
894.026	7207.72
894.342	7197.55
894.657	7119.81
894.973	7076.88
895.289	7131.56
895.604	7130.43
895.92	7065.35
896.235	7039.14
896.55	7001.85
896.865	6990.55
897.181	6981.06
897.496	6930.21
897.811	6935.64
898.126	6862.19
898.441	6819.26
898.756	6910.55
899.071	6847.05
899.386	6797.34
899.7	6733.38
900.015	6756.21
900.33	6735.64
900.644	6731.12
900.959	6724.79
901.273	6660.39
901.588	6647.51
901.902	6579.04
902.216	6603.67
902.531	6584.91
902.845	6556.89
903.159	6507.63
903.473	6486.84
903.787	6461.98
904.101	6400.96
904.415	6383.33
904.729	6316.9
905.042	6387.18
905.356	6323.68
905.67	6306.5
905.984	6283.9
906.297	6286.16
906.611	6236.67
906.924	6249.33
907.237	6199.84
907.551	6179.72
907.864	6104.02
908.177	6133.4
908.491	6132.27
908.804	6074.19
909.117	6065.6
909.43	6004.14
909.743	5932.5
910.056	5990.58
910.368	5917.13
910.681	5944.25
910.994	5862.9
911.307	5862.44
911.619	5830.81
911.932	5857.25
912.244	5805.95
912.557	5833.52
912.869	5752.39
913.181	5726.4
913.494	5733.86
913.806	5676.91
914.118	5673.52
914.43	5628.78
914.742	5672.39
915.054	5626.07
915.366	5567.31
915.678	5589.46
915.99	5528.44
916.302	5525.96
916.613	5505.17
916.925	5487.77
917.236	5464.94
917.548	5426.3
917.859	5446.41
918.171	5346.3
918.482	5352.63
918.794	5325.74
919.105	5358.05
919.416	5272.18
919.727	5272.63
920.038	5266.75
920.349	5271.05
920.66	5216.59
920.971	5187.21
921.282	5191.5
921.593	5109.02
921.903	5143.37
922.214	5087.78
922.525	5090.71
922.835	5083.26
923.146	4998.51
923.456	5011.62
923.767	4997.38
924.077	5004.61
924.387	4938.85
924.697	4941.56
925.008	4938.85
925.318	4897.5
925.628	4878.97
925.938	4870.38
926.248	4767.33
926.558	4857.05
926.867	4785.86
927.177	4751.74
927.487	4744.28
927.796	4672.42
928.106	4740.21
928.416	4671.52
928.725	4644.4
929.034	4620.67
929.344	4642.82
929.653	4599.2
929.962	4551.97
930.271	4546.32
930.581	4503.38
930.89	4496.38
931.199	4489.83
931.508	4482.82
931.817	4464.29
932.125	4431.75
932.434	4439.43
932.743	4412.31
933.051	4396.27
933.36	4351.75
933.669	4318.08
933.977	4296.61
934.286	4339.09
934.594	4319.43
934.902	4276.27
935.21	4251.64
935.519	4226.33
935.827	4241.47
936.135	4211.64
936.443	4179.33
936.751	4180.68
937.059	4181.81
937.367	4157.63
937.674	4134.58
937.982	4107.91
938.29	4071.08
938.597	4032.89
938.905	4044.87
939.213	4046
939.52	4009.84
939.827	4039.44
940.135	3987.24
940.442	3944.98
940.749	3968.03
941.056	3923.51
941.363	3884.64
941.67	3878.77
941.977	3882.61
942.284	3824.53
942.591	3885.1
942.898	3850.52
943.205	3839.45
943.511	3836.06
943.818	3748.6
944.125	3765.32
944.431	3740.92
944.738	3770.07
945.044	3700.92
945.35	3717.42
945.657	3683.29
945.963	3675.16
946.269	3613.01
946.575	3672.22
946.881	3606.68
947.187	3606.91
947.493	3589.96
947.799	3618.89
948.105	3535.05
948.41	3544.09
948.716	3546.35
949.022	3533.47
949.327	3526.69
949.633	3489.63
949.938	3430.87
950.244	3465.45
950.549	3410.76
950.854	3381.15
951.16	3380.93
951.465	3368.72
951.77	3375.96
952.075	3353.58
952.38	3335.96
952.685	3389.29
952.99	3314.72
953.294	3327.14
953.599	3298.22
953.904	3283.76
954.209	3252.34
954.513	3234.27
954.818	3239.69
955.122	3201.05
955.426	3218.67
955.731	3187.49
956.035	3157.66
956.339	3181.16
956.643	3165.11
956.948	3143.65
957.252	3089.41
957.556	3114.04
957.86	3100.94
958.163	3062.07
958.467	3105.23
958.771	3062.74
959.075	3067.26
959.378	3038.79
959.682	3057.09
959.985	3001.73
960.289	2992.24
960.592	2961.5
960.896	2919.92
961.199	2988.17
961.502	2957.89
961.805	2905.91
962.108	2909.08
962.411	2900.94
962.714	2877.66
963.017	2870.43
963.32	2908.62
963.623	2869.53
963.926	2854.16
964.228	2831.56
964.531	2805.58
964.833	2843.99
965.136	2835.41
965.438	2772.13
965.741	2749.08
966.043	2771.9
966.345	2775.75
966.648	2719.02
966.95	2756.09
967.252	2724.67
967.554	2713.15
967.856	2690.1
968.158	2695.52
968.46	2678.35
968.761	2660.72
969.063	2671.12
969.365	2620.72
969.666	2627.5
969.968	2607.39
970.269	2601.06
970.571	2573.94
970.872	2570.55
971.174	2551.12
971.475	2575.98
971.776	2526.71
972.077	2565.81
972.378	2535.53
972.679	2506.37
972.98	2509.76
973.281	2505.47
973.582	2460.05
973.883	2468.64
974.183	2441.97
974.484	2433.83
974.785	2480.16
975.085	2413.5
975.386	2455.98
975.686	2391.35
975.986	2383.89
976.287	2398.36
976.587	2354.74
976.887	2389.77
977.187	2384.8
977.487	2349.54
977.787	2363.1
978.087	2349.54
978.387	2321.75
978.687	2333.72
978.987	2336.44
979.286	2280.17
979.586	2269.32
979.885	2278.58
980.185	2264.57
980.484	2233.61
980.784	2222.54
981.083	2217.34
981.382	2212.15
981.682	2206.95
981.981	2201.07
982.28	2196.78
982.579	2186.84
982.878	2208.08
983.177	2174.41
983.475	2129.66
983.774	2147.74
984.073	2136.67
984.372	2110.68
984.67	2121.53
984.969	2121.3
985.267	2095.31
985.566	2106.61
985.864	2062.32
986.162	2081.98
986.461	2066.39
986.759	2079.27
987.057	2026.16
987.355	2029.78
987.653	2031.81
987.951	2016.9
988.249	1996.11
988.547	2008.08
988.844	1990.91
989.142	2001.53
989.44	1983.45
989.737	1962.21
990.035	1937.8
990.332	1956.78
990.63	1886.73
990.927	1928.54
991.224	1894.64
991.521	1936.22
991.819	1881.53
992.116	1885.6
992.413	1846.51
992.71	1860.52
993.006	1849.44
993.303	1856
993.6	1846.51
993.897	1839.5
994.193	1852.61
994.49	1837.01
994.787	1827.97
995.083	1783.68
995.379	1807.18
995.676	1794.3
995.972	1782.78
996.268	1788.2
996.565	1769.44
996.861	1746.85
997.157	1769.44
997.453	1715.89
997.749	1739.84
998.044	1753.85
998.34	1707.98
998.636	1717.02
998.932	1715.44
999.227	1703.23
999.523	1684.02
999.818	1658.26
1000.114	1669.56
1000.409	1650.58
1000.704	1621.43
1001	1660.52
1001.295	1612.84
1001.59	1598.83
1001.885	1635.66
1002.18	1620.07
1002.475	1567.42
1002.77	1603.57
1003.065	1584.59
1003.359	1570.35
1003.654	1582.56
1003.949	1542.78
1004.243	1549.56
1004.538	1533.29
1004.832	1538.72
1005.127	1522.45
1005.421	1523.12
1005.715	1509.34
1006.009	1509.11
1006.304	1482.22
1006.598	1520.19
1006.892	1469.34
1007.186	1488.55
1007.48	1443.58
1007.773	1419.4
1008.067	1436.35
1008.361	1457.59
1008.655	1445.39
1008.948	1407.19
1009.242	1416.01
1009.535	1391.83
1009.829	1386.86
1010.122	1386.86
1010.415	1367.42
1010.708	1393.86
1011.001	1378.04
1011.295	1354.54
1011.588	1373.07
1011.881	1331.26
1012.173	1334.2
1012.466	1338.04
1012.759	1316.8
1013.052	1324.26
1013.344	1334.2
1013.637	1279.06
1013.93	1287.42
1014.222	1259.85
1014.514	1284.26
1014.807	1272.28
1015.099	1278.84
1015.391	1242.23
1015.683	1233.87
1015.976	1258.95
1016.268	1251.04
1016.56	1235
1016.851	1259.63
1017.143	1214.21
1017.435	1211.04
1017.727	1230.93
1018.018	1187.77
1018.31	1180.31
1018.602	1176.01
1018.893	1175.34
1019.185	1185.51
1019.476	1157.94
1019.767	1147.31
1020.058	1130.59
1020.35	1143.7
1020.641	1134.21
1020.932	1109.8
1021.223	1091.72
1021.514	1133.08
1021.804	1119.07
1022.095	1096.47
1022.386	1090.59
1022.677	1078.16
1022.967	1081.33
1023.258	1066.86
1023.548	1060.09
1023.839	1047.2
1024.129	1048.79
1024.419	1053.31
1024.709	1049.01
1025	1045.62
1025.29	1023.48
1025.58	1032.97
1025.87	1041.78
1026.16	1003.82
1026.449	1014.89
1026.739	1004.95
1027.029	983.93
1027.319	1005.62
1027.608	990.26
1027.898	952.97
1028.187	949.81
1028.477	973.76
1028.766	973.53
1029.055	949.35
1029.344	946.19
1029.634	953.42
1029.923	950.48
1030.212	917.26
1030.501	964.04
1030.79	886.3
1031.078	899.41
1031.367	921.11
1031.656	882.24
1031.945	875.23
1032.233	886.08
1032.522	886.08
1032.81	869.58
1033.099	907.32
1033.387	870.03
1033.675	868
1033.963	871.16
1034.251	868
1034.54	854.44
1034.828	821.45
1035.116	847.66
1035.403	828.9
1035.691	836.14
1035.979	836.36
1036.267	788.91
1036.554	795.46
1036.842	812.41
1037.129	785.06
1037.417	774.89
1037.704	774.22
1037.992	783.71
1038.279	776.7
1038.566	806.08
1038.853	806.08
1039.14	806.08
