Data from white_poster_card_FLMS001491_00057.txt Node
Date: Wed Feb 08 11:51:43 GMT 2017
User: dcchb
Spectrometer: FLMS00149
Trigger mode: 0
Integration Time (sec): 2.000000E-2
Scans to average: 10
Electric dark correction enabled: true
Nonlinearity correction enabled: false
Boxcar width: 0
XAxis mode: Wavelengths
Number of Pixels in Spectrum: 2048
>>>>>Begin Spectral Data<<<<<
341.393	-12.27
341.776	-12.27
342.16	-12.27
342.543	-45.95
342.927	-76.23
343.31	-85.04
343.693	-81.88
344.077	-64.02
344.46	-52.95
344.843	-39.17
345.226	-41.2
345.61	-21.09
345.993	-20.18
346.376	-7.3
346.759	20.72
347.142	17.56
347.525	51
347.908	51
348.291	56.2
348.674	99.36
349.057	116.99
349.44	125.8
349.823	137.55
350.206	163.77
350.588	196.76
350.971	205.57
351.354	230.88
351.737	239.7
352.119	262.07
352.502	277.21
352.884	275.85
353.267	276.98
353.65	286.93
354.032	312.24
354.414	308.4
354.797	312.46
355.179	324.89
355.562	309.98
355.944	328.28
356.326	326.02
356.709	324.89
357.091	358.11
357.473	337.32
357.855	345.91
358.238	345.68
358.62	347.94
359.002	358.56
359.384	347.04
359.766	329.86
360.148	330.99
360.53	338.68
360.912	332.58
361.294	364.89
361.676	330.99
362.057	324.89
362.439	345.68
362.821	324.44
363.203	334.84
363.584	335.06
363.966	337.55
364.348	305.68
364.729	341.62
365.111	314.72
365.493	329.64
365.874	321.5
366.256	305.01
366.637	293.26
367.019	316.76
367.4	345.46
367.781	321.05
368.163	327.83
368.544	313.82
368.925	332.58
369.306	313.37
369.688	308.85
370.069	316.98
370.45	320.6
370.831	330.77
371.212	306.36
371.593	323.76
371.974	305.91
372.355	314.72
372.736	331.67
373.117	321.73
373.498	319.92
373.879	317.89
374.26	332.12
374.641	309.07
375.021	328.51
375.402	337.55
375.783	326.25
376.163	331.22
376.544	345.68
376.925	326.93
377.305	332.12
377.686	332.8
378.066	337.32
378.447	339.36
378.827	328.73
379.208	342.07
379.588	349.3
379.968	347.72
380.349	336.87
380.729	340.26
381.109	342.07
381.489	354.04
381.87	360.15
382.25	361.5
382.63	339.58
383.01	361.28
383.39	359.24
383.77	373.48
384.15	360.82
384.53	332.8
384.91	350.43
385.29	368.73
385.67	343.2
386.049	375.96
386.429	365.8
386.809	358.11
387.189	375.29
387.568	356.98
387.948	358.11
388.328	369.41
388.707	378.22
389.087	398.79
389.466	380.94
389.846	392.91
390.225	374.38
390.605	372.57
390.984	387.49
391.363	394.95
391.743	401.5
392.122	408.73
392.501	394.27
392.881	427.94
393.26	398.79
393.639	406.25
394.018	430.43
394.397	408.05
394.776	431.1
395.155	415.51
395.534	434.27
395.913	421.61
396.292	420.48
396.671	411.44
397.05	425
397.429	420.03
397.808	453.25
398.186	443.31
398.565	420.48
398.944	442.4
399.323	443.99
399.701	425.68
400.08	438.56
400.458	438.11
400.837	464.55
401.215	436.53
401.594	444.89
401.972	475.4
402.351	460.48
402.729	453.25
403.107	471.56
403.486	493.25
403.864	487.83
404.242	468.84
404.62	496.87
404.999	469.52
405.377	482.63
405.755	489.63
406.133	481.72
406.511	518.79
406.889	503.64
407.267	530.76
407.645	521.95
408.023	569.41
408.401	537.77
408.779	531.21
409.156	566.92
409.534	586.58
409.912	597.2
410.29	586.35
410.667	600.82
411.045	608.27
411.422	622.74
411.8	636.3
412.178	634.49
412.555	653.7
412.933	656.41
413.31	682.4
413.687	665.22
414.065	706.58
414.442	722.4
414.819	741.83
415.197	758.1
415.574	769.17
415.951	791.1
416.328	751.55
416.705	793.58
417.082	801.72
417.46	816.63
417.837	826.8
418.214	853.01
418.591	852.56
418.967	921.04
419.344	898.44
419.721	929.62
420.098	911.54
420.475	969.17
420.852	936.85
421.228	982.5
421.605	957.42
421.982	975.27
422.358	998.1
422.735	1000.58
423.111	1008.72
423.488	1074.03
423.864	1044.87
424.241	1064.08
424.617	1087.81
424.994	1081.71
425.37	1135.27
425.746	1128.71
426.123	1130.75
426.499	1195.38
426.875	1170.52
427.251	1227.02
427.627	1200.8
428.003	1223.85
428.379	1261.59
428.756	1262.27
429.132	1278.31
429.507	1313.57
429.883	1300.01
430.259	1309.5
430.635	1341.82
431.011	1383.85
431.387	1417.97
431.763	1413.45
432.138	1396.28
432.514	1457.07
432.89	1493.68
433.265	1509.04
433.641	1537.97
434.016	1514.92
434.392	1519.89
434.767	1568.48
435.143	1565.99
435.518	1622.71
435.894	1627.68
436.269	1627.23
436.644	1688.92
437.02	1686.44
437.395	1717.4
437.77	1722.6
438.145	1760.79
438.52	1741.13
438.895	1795.14
439.271	1794.68
439.646	1818.41
440.021	1866.55
440.395	1852.54
440.77	1830.84
441.145	1849.82
441.52	1900.44
441.895	1869.03
442.27	1944.06
442.645	1913.33
443.019	1952.87
443.394	1961.69
443.769	1949.71
444.143	1944.51
444.518	2004.85
444.892	1964.17
445.267	1993.32
445.641	2022.48
446.016	2022.93
446.39	2031.06
446.764	2065.86
447.139	2062.25
447.513	2089.14
447.887	2121.68
448.262	2065.19
448.636	2128.91
449.01	2130.04
449.384	2135.69
449.758	2145.64
450.132	2210.94
450.506	2195.58
450.88	2194.67
451.254	2246.2
451.628	2254.11
452.002	2275.12
452.376	2300.43
452.75	2309.47
453.123	2316.48
453.497	2362.58
453.871	2349.02
454.244	2439.87
454.618	2408
454.992	2445.29
455.365	2467.44
455.739	2553.53
456.112	2546.3
456.486	2552.18
456.859	2613.42
457.232	2663.36
457.606	2659.07
457.979	2691.16
458.352	2755.79
458.725	2754.66
459.099	2805.28
459.472	2808.22
459.845	2858.16
460.218	2850.7
460.591	2885.05
460.964	2900.19
461.337	2982.45
461.71	2999.62
462.083	3069.23
462.456	3091.15
462.829	3093.63
463.201	3118.27
463.574	3150.36
463.947	3204.59
464.32	3301.54
464.692	3243.69
465.065	3314.64
465.438	3365.04
465.81	3348.09
466.183	3400.74
466.555	3513.51
466.928	3503.11
467.3	3529.78
467.672	3571.13
468.045	3684.58
468.417	3666.73
468.789	3726.61
469.161	3780.39
469.534	3808.64
469.906	3883.22
470.278	3901.07
470.65	3943.33
471.022	4024.91
471.394	4082.53
471.766	4128.41
472.138	4178.8
472.51	4225.81
472.882	4300.38
473.253	4318.01
473.625	4371.34
473.997	4495.4
474.369	4539.02
474.74	4564.33
475.112	4656.3
475.484	4714.38
475.855	4782.63
476.227	4814.27
476.598	4961.38
476.97	5016.97
477.341	5100.13
477.713	5208.61
478.084	5211.54
478.455	5385.78
478.827	5406.11
479.198	5541.03
479.569	5580.8
479.94	5687.46
480.311	5749.83
480.682	5801.58
481.053	5985.76
481.424	6069.15
481.795	6156.38
482.166	6224.4
482.537	6298.29
482.908	6409.03
483.279	6504.84
483.65	6609.25
484.021	6722.69
484.391	6766.31
484.762	6870.26
485.133	6934.44
485.503	7082.23
485.874	7209.91
486.244	7204.26
486.615	7384.82
486.985	7479.28
487.356	7674.98
487.726	7708.65
488.097	7836.11
488.467	7889.67
488.837	8052.15
489.207	8171.24
489.578	8208.53
489.948	8352.48
490.318	8453.27
490.688	8474.96
491.058	8666.14
491.428	8782.98
491.798	8765.57
492.168	8999.24
492.538	9020.26
492.908	9087.15
493.278	9275.17
493.648	9315.16
494.017	9422.96
494.387	9464.31
494.757	9578.89
495.126	9650.98
495.496	9723.52
495.866	9794.47
496.235	9910.63
496.605	10013
496.974	10104.75
497.344	10148.82
497.713	10209.38
498.082	10335.93
498.452	10481.24
498.821	10479.2
499.19	10486.21
499.559	10619.31
499.928	10678.29
500.298	10763.26
500.667	10841.9
501.036	10838.51
501.405	11041.9
501.774	11010.26
502.143	11096.36
502.512	11185.17
502.88	11340.2
503.249	11302.23
503.618	11398.05
503.987	11503.13
504.356	11582.45
504.724	11631.71
505.093	11633.97
505.462	11744.03
505.83	11844.59
506.199	11937.69
506.567	12034.42
506.936	12143.11
507.304	12249.1
507.672	12325.48
508.041	12321.41
508.409	12480.73
508.777	12613.38
509.145	12626.94
509.514	12720.95
509.882	12881.4
510.25	12836.2
510.618	12988.29
510.986	13041.62
511.354	13180.15
511.722	13242.75
512.09	13344.21
512.458	13413.59
512.826	13461.04
513.193	13615.84
513.561	13607.26
513.929	13814.48
514.297	13878.21
514.664	14101.25
515.032	14131.54
515.4	14236.62
515.767	14210.4
516.135	14348.93
516.502	14358.87
516.869	14674.57
517.237	14668.7
517.604	14661.69
517.972	14867.56
518.339	14949.82
518.706	15034.56
519.073	14993.89
519.44	15190.72
519.808	15402.69
520.175	15384.38
520.542	15646.07
520.909	15773.3
521.276	15729.01
521.643	15878.83
522.009	15961.32
522.376	16150.01
522.743	16274.53
523.11	16428.88
523.477	16450.8
523.843	16718.59
524.21	16883.78
524.577	17014.17
524.943	17108.86
525.31	17154.28
525.676	17290.1
526.043	17427.04
526.409	17523.76
526.776	17788.16
527.142	17730.99
527.508	17945.45
527.874	17993.13
528.241	18161.03
528.607	18196.97
528.973	18394.25
529.339	18433.79
529.705	18582.27
530.071	18719.21
530.437	18848.7
530.803	18931.86
531.169	19161.46
531.535	19072.87
531.901	19230.16
532.267	19297.95
532.632	19516.25
532.998	19466.99
533.364	19714.67
533.73	19771.61
534.095	19902
534.461	19999.86
534.826	20010.02
535.192	20102.9
535.557	20295.21
535.923	20323.46
536.288	20374.99
536.653	20539.95
537.019	20494.76
537.384	20545.38
537.749	20596
538.114	20811.36
538.479	20779.72
538.845	21016.78
539.21	20845.48
539.575	21131.8
539.94	21236.66
540.305	21289.09
540.67	21292.7
541.034	21348.29
541.399	21449.08
541.764	21422.42
542.129	21559.59
542.494	21645.24
542.858	21739.47
543.223	21903.99
543.587	21852.46
543.952	21892.24
544.316	22082.74
544.681	22053.59
545.045	22171.32
545.41	22232.34
545.774	22366.57
546.138	22381.26
546.503	22473.46
546.867	22472.33
547.231	22712.55
547.595	22691.54
547.959	22918.65
548.324	22851.31
548.688	22921.59
549.052	23081.58
549.416	23067.12
549.779	23172.88
550.143	23237.74
550.507	23453.55
550.871	23370.16
551.235	23366.77
551.599	23620.1
551.962	23698.06
552.326	23825.29
552.689	23933.99
553.053	23789.13
553.417	23956.59
553.78	24250.59
554.143	24174.21
554.507	24245.62
554.87	24438.38
555.234	24513.41
555.597	24462.11
555.96	24641.99
556.323	24663.91
556.686	24826.62
557.05	25023.9
557.413	25107.97
557.776	25155.65
558.139	25271.58
558.502	25446.72
558.865	25451.46
559.228	25773.26
559.59	25712.25
559.953	25785.92
560.316	26075.18
560.679	26123.08
561.041	26345.45
561.404	26399.24
561.767	26629.29
562.129	26374.6
562.492	26712.45
562.854	26905.44
563.217	26786.12
563.579	26836.06
563.941	27006.22
564.304	27269.04
564.666	27320.79
565.028	27520.34
565.39	27551.75
565.753	27648.69
566.115	27859.31
566.477	27921.91
566.839	27902.02
567.201	28230.83
567.563	28164.61
567.925	28454.1
568.287	28418.39
568.648	28530.03
569.01	28619.06
569.372	28791.26
569.734	28713.07
570.095	28785.61
570.457	28973.86
570.819	29085.94
571.18	29151.71
571.542	29285.04
571.903	29423.11
572.265	29508.31
572.626	29577.91
572.987	29546.72
573.349	29838.24
573.71	29826.04
574.071	29844.34
574.432	30028.74
574.794	30209.3
575.155	30194.16
575.516	29969.08
575.877	30196.65
576.238	30284.56
576.599	30431.67
576.96	30463.54
577.32	30438.68
577.681	30704.43
578.042	30700.14
578.403	30720.7
578.763	30701.72
579.124	30757.76
579.485	30902.62
579.845	30958.44
580.206	30980.13
580.566	31113.91
580.927	31033.69
581.287	31250.41
581.648	31007.7
582.008	31261.03
582.368	31106.46
582.728	31206.57
583.089	31137.87
583.449	31183.06
583.809	31164.53
584.169	31287.02
584.529	31133.12
584.889	31409.27
585.249	31070.07
585.609	31122.27
585.969	31435.04
586.329	31182.61
586.688	31343.06
587.048	31333.34
587.408	31204.53
587.768	31312.33
588.127	31209.28
588.487	31232.55
588.846	31382.16
589.206	31240.92
589.565	31326.34
589.925	31516.61
590.284	31441.81
590.643	31481.81
591.003	31472.1
591.362	31610.4
591.721	31540.57
592.08	31570.4
592.44	31604.07
592.799	31517.74
593.158	31625.54
593.517	31587.57
593.876	31606.56
594.235	31568.14
594.593	31571.53
594.952	31653.56
595.311	31511.87
595.67	31603.84
596.029	31698.53
596.387	31736.72
596.746	31866.66
597.104	31714.12
597.463	31668.7
597.822	31780.79
598.18	31560.68
598.538	31728.13
598.897	31909.6
599.255	31687.01
599.613	32130.38
599.972	31956.6
600.33	32024.17
600.688	31818.3
601.046	31948.24
601.404	32119.76
601.762	32080.44
602.12	32094.23
602.478	32109.37
602.836	32171.51
603.194	32083.61
603.552	32049.26
603.91	32106.66
604.268	32089.93
604.625	32093.1
604.983	32327.21
605.341	32087.22
605.698	32212.19
606.056	32252.64
606.413	32311.4
606.771	32395.69
607.128	32380.55
607.485	32270.95
607.843	32443.14
608.2	32510.49
608.557	32670.71
608.914	32533.76
609.272	32679.3
609.629	32746.41
609.986	32761.78
610.343	32552.07
610.7	32933.3
611.057	32869.57
611.414	32805.17
611.771	32822.57
612.127	32971.49
612.484	32948.89
612.841	33057.37
613.198	32887.88
613.554	33011.04
613.911	33162.67
614.267	33159.51
614.624	33140.53
614.98	33209.23
615.337	33239.73
615.693	33126.97
616.05	33294.87
616.406	33486.96
616.762	33319.28
617.118	33384.36
617.475	33354.08
617.831	33471.14
618.187	33431.82
618.543	33397.92
618.899	33626.16
619.255	33453.29
619.611	33551.82
619.967	33620.74
620.323	33768.31
620.678	33531.25
621.034	33558.6
621.39	33495.55
621.746	33418.03
622.101	33796.78
622.457	33524.02
622.812	33701.87
623.168	33738.7
623.523	33655.77
623.879	33804.24
624.234	33548.65
624.589	33759.49
624.945	33790
625.3	33811.7
625.655	33770.57
626.01	33730.79
626.365	33778.7
626.72	33664.35
627.075	33768.53
627.43	33716.56
627.785	33486.73
628.14	33567.18
628.495	33599.05
628.85	33619.38
629.205	33462.1
629.559	33742.77
629.914	33432.95
630.269	33537.35
630.623	33470.46
630.978	33353.18
631.332	33448.99
631.687	33550.23
632.041	33229.79
632.396	33428.2
632.75	33187.76
633.104	33349.33
633.459	33217.59
633.813	33206.97
634.167	33215.55
634.521	33077.7
634.875	33157.48
635.229	33122.67
635.583	33056.46
635.937	33000.64
636.291	33003.58
636.645	32814.43
636.999	32780.54
637.352	32951.15
637.706	32715
638.06	32907.54
638.413	32773.3
638.767	32616.47
639.121	32698.28
639.474	32454.67
639.828	32461.67
640.181	32546.19
640.534	32504.61
640.888	32442.92
641.241	32341.9
641.594	32330.38
641.947	32505.97
642.301	32296.48
642.654	32264.84
643.007	32211.96
643.36	32193.66
643.713	32121.34
644.066	32278.85
644.419	32024.4
644.771	31835.7
645.124	31541.02
645.477	31437.97
645.83	31362.04
646.182	31120.02
646.535	31024.42
646.888	31046.57
647.24	30796.18
647.593	31011.54
647.945	30861.49
648.298	30891.77
648.65	30755.73
649.002	30656.52
649.355	30894.94
649.707	30765.22
650.059	30896.29
650.411	31216.96
650.763	31238.88
651.115	31641.13
651.467	31493.79
651.819	31503.51
652.171	31359.56
652.523	31255.83
652.875	31262.84
653.227	31029.62
653.578	31409.05
653.93	31172.9
654.282	31173.57
654.633	31014.93
654.985	31061.71
655.337	31027.81
655.688	31052.67
656.039	31176.06
656.391	30891.55
656.742	30808.61
657.094	31080.47
657.445	31021.71
657.796	30899
658.147	30772
658.498	30767.71
658.849	30967.48
659.2	30906.69
659.551	30756.63
659.902	30961.15
660.253	30766.13
660.604	30850.64
660.955	30711.66
661.306	30760.02
661.656	30692.68
662.007	30722.74
662.358	30621.27
662.708	30622.18
663.059	30564.1
663.409	30299.7
663.76	30625.79
664.11	30553.7
664.461	30583.76
664.811	30536.08
665.161	30656.52
665.511	30377.66
665.862	30594.38
666.212	30497.88
666.562	30573.14
666.912	30579.24
667.262	30407.27
667.612	30313.93
667.962	30510.09
668.312	30430.54
668.662	30553.02
669.011	30396.87
669.361	30465.57
669.711	30370.66
670.06	30256.08
670.41	30280.94
670.76	30282.75
671.109	30370.2
671.459	30272.81
671.808	30148.52
672.157	30297.89
672.507	30005.02
672.856	29994.62
673.205	30073.04
673.554	30051.34
673.904	29968.18
674.253	30168.63
674.602	29997.78
674.951	29681.86
675.3	29446.84
675.649	29945.58
675.998	29840.05
676.346	29785.13
676.695	30016.77
677.044	29718.47
677.393	29799.82
677.741	29683.67
678.09	29645.7
678.438	29636.21
678.787	29704.46
679.135	29686.15
679.484	29524.8
679.832	29691.58
680.181	29533.62
680.529	29749.66
680.877	29557.12
681.225	29406.16
681.573	29583.33
681.922	29461.3
682.27	29253.85
682.618	29341.98
682.966	29222.89
683.314	29265.6
683.661	29173.63
684.009	29006.62
684.357	29021.99
684.705	28825.16
685.053	28924.37
685.4	28974.76
685.748	28762.79
686.095	28780.87
686.443	28776.8
686.79	28676.69
687.138	28698.84
687.485	28690.25
687.832	28501.78
688.18	28639.18
688.527	28301.11
688.874	28380.88
689.221	28300.88
689.568	28183.82
689.915	28165.74
690.262	28057.72
690.609	28126.65
690.956	27972.3
691.303	27970.72
691.65	27725.3
691.997	27786.09
692.344	27621.58
692.69	27510.84
693.037	27605.08
693.383	27325.99
693.73	27455.48
694.077	27335.93
694.423	27310.85
694.769	27229.04
695.116	27199.21
695.462	27130.74
695.808	26995.15
696.155	27103.62
696.501	26903.18
696.847	26780.69
697.193	26628.83
697.539	26714.93
697.885	26528.72
698.231	26428.16
698.577	26464.54
698.923	26426.81
699.269	26339.8
699.614	26231.78
699.96	26208.05
700.306	26072.92
700.651	26096.42
700.997	25981.85
701.342	25968.96
701.688	25929.64
702.033	25780.95
702.379	25836.31
702.724	25669.76
703.069	25668.86
703.415	25345.7
703.76	25452.37
704.105	25420.73
704.45	25283.78
704.795	25200.62
705.14	25048.76
705.485	24987.75
705.83	24933.74
706.175	24986.17
706.52	24852.16
706.865	24789.79
707.209	24817.13
707.554	24647.64
707.899	24732.84
708.243	24573.29
708.588	24482.9
708.932	24417.59
709.277	24370.59
709.621	24366.75
709.966	24310.7
710.31	24252.63
710.654	24128.33
710.998	24105.51
711.342	24180.76
711.687	24044.27
712.031	23948.45
712.375	23936.25
712.719	23917.27
713.063	23875.69
713.407	23929.24
713.75	23813.09
714.094	23789.81
714.438	23689.7
714.782	23723.37
715.125	23617.39
715.469	23616.71
715.812	23521.12
716.156	23360.67
716.499	23340.78
716.843	23382.82
717.186	23177.85
717.53	23304.18
717.873	23412.87
718.216	23255.82
718.559	23102.37
718.902	22962.72
719.246	23019.66
719.589	22896.95
719.932	22835.71
720.275	22919.78
720.617	22793.23
720.96	22726.56
721.303	22681.82
721.646	22773.79
721.989	22584.42
722.331	22520.92
722.674	22562.05
723.016	22562.95
723.359	22471.2
723.701	22564.08
724.044	22414.71
724.386	22263.52
724.729	22435.05
725.071	22334.48
725.413	22352.79
725.755	22201.83
726.097	22174.71
726.439	21926.81
726.782	22073.93
727.124	22151.21
727.465	22001.84
727.807	22048.84
728.149	21882.29
728.491	21818.11
728.833	21823.99
729.175	21812.01
729.516	21972.68
729.858	21688.62
730.199	21756.19
730.541	21627.84
730.882	21647.5
731.224	21627.84
731.565	21567.5
731.906	21508.52
732.248	21581.28
732.589	21405.92
732.93	21410.44
733.271	21356.43
733.612	21415.86
733.953	21299.26
734.294	21331.57
734.635	21237.56
734.976	21190.11
735.317	21138.81
735.658	21153.05
735.999	21153.72
736.339	20981.07
736.68	21116.21
737.021	21048.64
737.361	20895.65
737.702	21032.14
738.042	20889.55
738.383	20846.61
738.723	20884.58
739.063	20801.64
739.404	20787.18
739.744	20806.39
740.084	20691.81
740.424	20816.78
740.764	20719.84
741.104	20728.65
741.444	20565.94
741.784	20633.74
742.124	20584.7
742.464	20539.5
742.804	20526.4
743.143	20585.38
743.483	20497.92
743.823	20358.49
744.162	20411.6
744.502	20369.56
744.841	20256.35
745.181	20254.54
745.52	20195.78
745.86	20216.35
746.199	20042.34
746.538	20086.63
746.877	20178.38
747.216	20171.83
747.556	20061.1
747.895	20123.24
748.234	19905.39
748.573	19985.39
748.911	19944.04
749.25	19856.58
749.589	19890.93
749.928	19834.89
750.267	19803.25
750.605	19805.96
750.944	19684.16
751.283	19641.45
751.621	19729.13
751.96	19501.56
752.298	19495.69
752.636	19463.37
752.975	19373.88
753.313	19299.76
753.651	19374.79
753.989	19321.91
754.327	19136.83
754.666	19289.37
755.004	19105.42
755.342	19196.49
755.679	19142.93
756.017	19026.77
756.355	19155.13
756.693	18945.65
757.031	18942.03
757.368	18849.6
757.706	18832.65
758.044	18759.44
758.381	18728.02
758.719	18636.05
759.056	18691.19
759.394	18575.94
759.731	18425.21
760.068	18487.35
760.405	18372.33
760.743	18325.78
761.08	18307.92
761.417	18252.78
761.754	18210.98
762.091	18264.08
762.428	18113.58
762.765	18025.44
763.102	18119
763.438	17885.79
763.775	17839.01
764.112	17848.95
764.449	17829.07
764.785	17819.35
765.122	17660.71
765.458	17633.59
765.795	17535.51
766.131	17467.72
766.467	17434.27
766.804	17379.36
767.14	17248.74
767.476	17347.5
767.812	17161.06
768.148	17229.08
768.485	17121.06
768.821	17006.94
769.157	16935.76
769.492	16962.42
769.828	16953.38
770.164	16741.64
770.5	16722.88
770.836	16787.51
771.171	16673.84
771.507	16538.7
771.842	16432.04
772.178	16457.8
772.513	16497.12
772.849	16318.6
773.184	16297.13
773.519	16245.6
773.855	16218.49
774.19	16118.38
774.525	16106.17
774.86	15994.31
775.195	15957.25
775.53	15945.27
775.865	15898.49
776.2	15729.91
776.535	15702.79
776.87	15696.92
777.205	15618.5
777.539	15481.1
777.874	15550.93
778.209	15420.31
778.543	15404.5
778.878	15255.57
779.212	15331.96
779.547	15242.24
779.881	15230.04
780.215	15059.65
780.55	15146.65
780.884	15002.92
781.218	14986.2
781.552	15006.99
781.886	14883.15
782.22	14797.51
782.554	14752.99
782.888	14577.85
783.222	14593.67
783.556	14458.08
783.889	14512.99
784.223	14391.64
784.557	14365.2
784.89	14373.34
785.224	14289.95
785.557	14207.47
785.891	14186.68
786.224	14179.9
786.558	14061.93
786.891	13957.75
787.224	13938.55
787.557	13943.97
787.891	13862.62
788.224	13836.4
788.557	13848.6
788.89	13806.35
789.223	13737.65
789.556	13648.38
789.888	13607.93
790.221	13582.4
790.554	13484.09
790.887	13478.45
791.219	13416.07
791.552	13450.2
791.884	13325.23
792.217	13255.4
792.549	13236.87
792.882	13151.45
793.214	13109.42
793.546	13150.77
793.879	13070.55
794.211	13012.02
794.543	13000.49
794.875	12991.9
795.207	12987.16
795.539	12820.16
795.871	12943.54
796.203	12787.84
796.535	12724.57
796.867	12707.17
797.198	12627.17
797.53	12665.36
797.862	12586.72
798.193	12574.97
798.525	12505.14
798.856	12469.88
799.188	12430.11
799.519	12371.13
799.85	12297.69
800.182	12236.9
800.513	12226.27
800.844	12154.19
801.175	12231.7
801.506	12218.82
801.837	12111.25
802.168	12010.24
802.499	11994.42
802.83	11977.24
803.161	12010.24
803.491	11941.99
803.822	11887.07
804.153	11839.84
804.483	11824.7
804.814	11727.3
805.145	11720.3
805.475	11718.49
805.805	11614.54
806.136	11618.61
806.466	11548.55
806.796	11559.85
807.126	11496.8
807.457	11512.4
807.787	11445.96
808.117	11390.82
808.447	11339.74
808.777	11366.41
809.107	11297.49
809.436	11298.84
809.766	11261.55
810.096	11228.11
810.426	11232.4
810.755	11195.79
811.085	11151.27
811.414	11111.73
811.744	11020.2
812.073	11036.48
812.403	11054.1
812.732	11030.83
813.061	11021.11
813.39	10932.75
813.719	10861.79
814.049	10946.76
814.378	10878.74
814.707	10798.06
815.036	10806.2
815.365	10792.41
815.693	10703.15
816.022	10726.65
816.351	10739.53
816.68	10614.79
817.008	10657.5
817.337	10595.81
817.665	10517.39
817.994	10561.01
818.322	10537.28
818.651	10521.01
818.979	10462.03
819.307	10506.55
819.636	10434.46
819.964	10413.21
820.292	10406.21
820.62	10365.31
820.948	10441.91
821.276	10398.3
821.604	10321.47
821.932	10366.89
822.259	10317.17
822.587	10281.92
822.915	10342.48
823.243	10356.04
823.57	10338.41
823.898	10283.05
824.225	10295.48
824.553	10258.87
824.88	10307
825.207	10316.49
825.535	10286.66
825.862	10270.62
826.189	10238.53
826.516	10383.61
826.843	10292.09
827.17	10300.9
827.497	10322.14
827.824	10337.96
828.151	10369.37
828.478	10276.27
828.805	10297.29
829.131	10252.09
829.458	10245.54
829.785	10203.5
830.111	10323.95
830.438	10327.57
830.764	10213.22
831.09	10242.82
831.417	10217.29
831.743	10311.3
832.069	10278.76
832.395	10154.24
832.722	10212.99
833.048	10188.14
833.374	10169.61
833.7	10165.54
834.026	10160.11
834.351	10164.86
834.677	10137.74
835.003	10155.14
835.329	10137.06
835.654	10124.86
835.98	10065.43
836.306	10107.69
836.631	9989.95
836.956	10031.3
837.282	10029.27
837.607	9989.72
837.932	10007.8
838.258	10022.72
838.583	9919.89
838.908	9948.37
839.233	10027.69
839.558	9928.26
839.883	9861.37
840.208	9845.09
840.533	9818.2
840.858	9871.08
841.182	9847.13
841.507	9860.91
841.832	9733.01
842.156	9735.94
842.481	9722.61
842.805	9765.1
843.13	9719.45
843.454	9736.4
843.778	9580.69
844.103	9573.91
844.427	9600.58
844.751	9629.05
845.075	9654.59
845.399	9543.63
845.723	9469.51
846.047	9478.55
846.371	9456.18
846.695	9426.12
847.019	9332.11
847.343	9387.03
847.666	9253.02
847.99	9267.48
848.313	9167.15
848.637	9220.48
848.96	9232.23
849.284	9133.47
849.607	9095.51
849.931	9068.84
850.254	8973.25
850.577	8966.02
850.9	8903.42
851.223	8869.98
851.546	8812.35
851.869	8768.29
852.192	8845.35
852.515	8785.91
852.838	8715.86
853.161	8727.38
853.483	8675.41
853.806	8617.78
854.129	8631.34
854.451	8594.28
854.774	8493.04
855.096	8563.09
855.419	8547.5
855.741	8412.59
856.063	8461.85
856.385	8392.03
856.708	8434.51
857.03	8390.67
857.352	8389.77
857.674	8305.25
857.996	8252.59
858.318	8228.41
858.64	8239.49
858.961	8254.85
859.283	8213.05
859.605	8140.73
859.926	8138.7
860.248	8115.65
860.57	8111.35
860.891	8058.25
861.212	8034.07
861.534	8021.41
861.855	8029.32
862.176	8004.01
862.498	8000.17
862.819	8008.08
863.14	7970.57
863.461	7882.43
863.782	8008.31
864.103	7919.27
864.424	7961.53
864.745	7914.52
865.065	7823.45
865.386	7826.84
865.707	7837.46
866.027	7819.61
866.348	7865.26
866.668	7767.41
866.989	7823.23
867.309	7772.38
867.63	7741.87
867.95	7740.06
868.27	7665.72
868.59	7716.11
868.91	7717.01
869.23	7700.97
869.55	7622.1
869.87	7693.06
870.19	7641.08
870.51	7625.49
870.83	7613.74
871.15	7586.17
871.469	7631.59
871.789	7568.54
872.109	7565.61
872.428	7536.68
872.748	7550.47
873.067	7500.3
873.386	7540.75
873.706	7602.22
874.025	7467.53
874.344	7503.01
874.663	7520.64
874.982	7485.16
875.301	7459.39
875.62	7478.83
875.939	7440.86
876.258	7395.22
876.577	7336.91
876.896	7387.53
877.214	7364.26
877.533	7373.75
877.852	7384.14
878.17	7343.47
878.489	7364.26
878.807	7291.72
879.125	7287.87
879.444	7310.7
879.762	7253.75
880.08	7280.19
880.398	7163.36
880.716	7271.15
881.034	7214.65
881.352	7183.02
881.67	7183.92
881.988	7181.44
882.306	7168.1
882.624	7173.07
882.941	7135.33
883.259	7100.53
883.577	7091.04
883.894	7063.92
884.212	7088.56
884.529	7020.76
884.846	7002.68
885.164	7020.54
885.481	6993.42
885.798	6992.29
886.115	7007.88
886.432	6959.75
886.75	6948.22
887.067	6945.96
887.383	6885.4
887.7	6893.31
888.017	6879.52
888.334	6915.91
888.651	6854.21
888.967	6856.7
889.284	6839.3
889.6	6768.34
889.917	6737.15
890.233	6764.95
890.55	6733.76
890.866	6736.25
891.182	6646.08
891.498	6646.99
891.815	6627.1
892.131	6638.85
892.447	6618.96
892.763	6517.05
893.079	6562.24
893.395	6500.1
893.71	6522.7
894.026	6562.69
894.342	6472.08
894.657	6443.6
894.973	6480.44
895.289	6454.9
895.604	6468.01
895.92	6364.51
896.235	6358.63
896.55	6338.07
896.865	6358.18
897.181	6346.43
897.496	6297.16
897.811	6236.83
898.126	6282.48
898.441	6196.15
898.756	6159.77
899.071	6176.26
899.386	6141.46
899.7	6115.02
900.015	6064.85
900.33	6023.5
900.644	6041.35
900.959	6069.15
901.273	5985.53
901.588	5952.09
901.902	6060.11
902.216	6028.02
902.531	5964.29
902.845	5955.48
903.159	5910.06
903.473	5883.16
903.787	5910.96
904.101	5849.04
904.415	5798.65
904.729	5899.89
905.042	5789.16
905.356	5761.59
905.67	5787.35
905.984	5701.7
906.297	5693.56
906.611	5638.88
906.924	5708.71
907.237	5663.74
907.551	5589.16
907.864	5616.05
908.177	5590.06
908.491	5558.2
908.804	5502.38
909.117	5485.66
909.43	5469.39
909.743	5445.66
910.056	5463.51
910.368	5421.71
910.681	5364.76
910.994	5371.31
911.307	5343.29
911.619	5291.54
911.932	5261.71
912.244	5289.06
912.557	5239.79
912.869	5242.28
913.181	5237.31
913.494	5206.57
913.806	5216.97
914.118	5177.42
914.43	5153.01
914.742	5129.06
915.054	5103.3
915.366	5067.37
915.678	5051.1
915.99	5008.84
916.302	5001.38
916.613	4957.99
916.925	5038.21
917.236	5007.71
917.548	4938.33
917.859	4896.3
918.171	4900.59
918.482	4848.39
918.794	4845.9
919.105	4872.8
919.416	4761.39
919.727	4807.26
920.038	4790.76
920.349	4779.01
920.66	4761.16
920.971	4705.79
921.282	4774.49
921.593	4662.86
921.903	4645.91
922.214	4647.04
922.525	4652.91
922.835	4608.4
923.146	4602.52
923.456	4599.81
923.767	4570.43
924.077	4536.53
924.387	4522.75
924.697	4444.33
925.008	4529.75
925.318	4459.7
925.628	4451.34
925.938	4452.24
926.248	4421.06
926.558	4381.28
926.867	4372.24
927.177	4387.84
927.487	4353.94
927.796	4357.55
928.106	4321.4
928.416	4282.75
928.725	4270.1
929.034	4266.71
929.344	4269.87
929.653	4253.6
929.962	4202.76
930.271	4180.16
930.581	4109.43
930.89	4141.52
931.199	4144.91
931.508	4107.17
931.817	4108.07
932.125	4118.69
932.434	4102.42
932.743	4045.92
933.051	4020.16
933.36	4029.88
933.669	4009.09
933.977	3978.58
934.286	3985.81
934.594	3950.56
934.902	3946.72
935.21	3922.99
935.519	3926.15
935.827	3893.84
936.135	3852.94
936.443	3777.46
936.751	3874.63
937.059	3826.27
937.367	3768.64
937.674	3837.12
937.982	3810.68
938.29	3779.04
938.597	3723.9
938.905	3723.45
939.213	3673.05
939.52	3678.93
939.827	3712.6
940.135	3668.53
940.442	3641.87
940.749	3649.78
941.056	3619.72
941.363	3645.48
941.67	3557.35
941.977	3601.42
942.284	3589.21
942.591	3582.89
942.898	3549.89
943.205	3590.57
943.511	3494.98
943.818	3544.47
944.125	3485.49
944.431	3525.49
944.738	3464.25
945.044	3452.27
945.35	3439.39
945.657	3388.99
945.963	3420.4
946.269	3378.37
946.575	3371.37
946.881	3374.08
947.187	3336.11
947.493	3306.28
947.799	3302.67
948.105	3286.85
948.41	3276.23
948.716	3263.57
949.022	3233.29
949.327	3259.5
949.633	3195.55
949.938	3186.51
950.244	3198.04
950.549	3181.09
950.854	3206.17
951.16	3173.18
951.465	3172.28
951.77	3157.36
952.075	3128.43
952.38	3141.54
952.685	3079.17
952.99	3097.02
953.294	3081.2
953.599	3062.9
953.904	3059.74
954.209	3029.68
954.513	3027.42
954.818	3005.27
955.122	3022.67
955.426	2977.93
955.731	2962.56
956.035	2923.92
956.339	2962.56
956.643	2926.86
956.948	2922.56
957.252	2905.39
957.556	2910.14
957.86	2905.39
958.163	2899.74
958.467	2879.63
958.771	2847.99
959.075	2850.7
959.378	2856.58
959.682	2817.48
959.985	2810.7
960.289	2800.08
960.592	2799.86
960.896	2779.29
961.199	2772.74
961.502	2740.2
961.805	2768.67
962.108	2725.28
962.411	2693.19
962.714	2685.96
963.017	2698.84
963.32	2689.8
963.623	2683.47
963.926	2674.21
964.228	2655.9
964.531	2620.65
964.833	2619.07
965.136	2591.95
965.438	2558.28
965.741	2626.3
966.043	2589.92
966.345	2558.05
966.648	2548.11
966.95	2551.05
967.252	2538.39
967.554	2515.12
967.856	2505.17
968.158	2490.03
968.46	2512.86
968.761	2505.4
969.063	2459.3
969.365	2485.06
969.666	2442.8
969.968	2433.76
970.269	2395.8
970.571	2441
970.872	2421.79
971.174	2399.19
971.475	2408.68
971.776	2413.43
972.077	2367.1
972.378	2358.96
972.679	2341.11
972.98	2357.38
973.281	2314.67
973.582	2346.76
973.883	2344.73
974.183	2297.5
974.484	2320.77
974.785	2317.83
975.085	2279.42
975.386	2315.35
975.686	2264.95
975.986	2269.7
976.287	2252.53
976.587	2208.68
976.887	2226.31
977.187	2237.38
977.487	2196.93
977.787	2194.22
978.087	2181.11
978.387	2208.23
978.687	2185.86
978.987	2162.36
979.286	2154.67
979.586	2131.85
979.885	2084.17
980.185	2125.52
980.484	2109.03
980.784	2135.24
981.083	2110.16
981.382	2094.34
981.682	2061.12
981.981	2085.07
982.28	2087.33
982.579	2059.54
982.878	2067.9
983.177	2046.88
983.475	2060.67
983.774	2017.05
984.073	2025.86
984.372	2024.96
984.67	1986.77
984.969	2001.91
985.267	1983.61
985.566	1984.06
985.864	1975.92
986.162	1937.51
986.461	1971.18
986.759	1939.77
987.057	1916.26
987.355	1876.26
987.653	1927.34
987.951	1912.2
988.249	1908.35
988.547	1879.2
988.844	1873.33
989.142	1863.84
989.44	1837.85
989.737	1881.01
990.035	1838.07
990.332	1843.04
990.63	1810.96
990.927	1813.44
991.224	1768.7
991.521	1821.58
991.819	1788.36
992.116	1803.95
992.413	1762.14
992.71	1763.72
993.006	1779.32
993.303	1778.64
993.6	1772.76
993.897	1785.42
994.193	1757.62
994.49	1732.54
994.787	1742.93
995.083	1727.79
995.379	1708.59
995.676	1725.08
995.972	1706.55
996.268	1715.82
996.565	1698.64
996.861	1663.16
997.157	1686.44
997.453	1664.52
997.749	1659.55
998.044	1652.77
998.34	1653.22
998.636	1616.84
998.932	1625.2
999.227	1627.01
999.523	1608.02
999.818	1604.86
1000.114	1558.08
1000.409	1569.15
1000.704	1573.22
1001	1587.46
1001.295	1543.17
1001.59	1543.17
1001.885	1557.63
1002.18	1530.74
1002.475	1511.53
1002.77	1516.05
1003.065	1521.7
1003.359	1495.71
1003.654	1508.82
1003.949	1467.01
1004.243	1509.72
1004.538	1487.35
1004.832	1469.04
1005.127	1466.56
1005.421	1443.28
1005.715	1461.36
1006.009	1434.47
1006.304	1417.97
1006.598	1438.08
1006.892	1424.75
1007.186	1408.48
1007.48	1410.74
1007.773	1384.3
1008.067	1354.47
1008.361	1383.62
1008.655	1366.67
1008.948	1339.33
1009.242	1371.42
1009.535	1328.48
1009.829	1317.63
1010.122	1346.56
1010.415	1327.58
1010.708	1333.45
1011.001	1326
1011.295	1314.7
1011.588	1318.31
1011.881	1302.49
1012.173	1293.68
1012.466	1271.99
1012.759	1253.91
1013.052	1253.68
1013.344	1246.9
1013.637	1246.22
1013.93	1235.15
1014.222	1216.62
1014.514	1231.54
1014.807	1203.74
1015.099	1210.52
1015.391	1227.02
1015.683	1191.99
1015.976	1209.84
1016.268	1200.12
1016.56	1182.05
1016.851	1178.43
1017.143	1185.66
1017.435	1182.27
1017.727	1162.38
1018.018	1151.54
1018.31	1144.53
1018.602	1148.37
1018.893	1140.24
1019.185	1157.41
1019.476	1126.68
1019.767	1110.41
1020.058	1113.8
1020.35	1105.21
1020.641	1076.74
1020.932	1089.17
1021.223	1079.22
1021.514	1089.17
1021.804	1071.77
1022.095	1057.3
1022.386	1086
1022.677	1055.72
1022.967	1050.98
1023.258	1022.73
1023.548	1042.84
1023.839	1018.66
1024.129	1024.99
1024.419	1016.85
1024.709	995.61
1025	1003.97
1025.29	1007.59
1025.58	984.31
1025.87	975.95
1026.16	989.96
1026.449	977.98
1026.739	973.92
1027.029	951.77
1027.319	969.85
1027.608	959.45
1027.898	953.12
1028.187	949.96
1028.477	928.72
1028.766	923.97
1029.055	942.28
1029.344	922.17
1029.634	935.72
1029.923	910.19
1030.212	897.53
1030.501	890.08
1030.79	903.86
1031.078	870.19
1031.367	895.27
1031.656	908.38
1031.945	865.22
1032.233	874.26
1032.522	867.93
1032.81	853.01
1033.099	841.94
1033.387	862.73
1033.675	827.25
1033.963	861.6
1034.251	844.43
1034.54	839.46
1034.828	834.48
1035.116	845.1
1035.403	805.11
1035.691	822.05
1035.979	803.3
1036.267	796.52
1036.554	788.16
1036.842	799.68
1037.129	787.93
1037.417	796.74
1037.704	775.05
1037.992	765.33
1038.279	765.33
1038.566	755.62
1038.853	755.62
1039.14	755.62
