Data from white_wall_FLMS001491_097.txt Node
Date: Tue Feb 07 11:06:16 GMT 2017
User: dcchb
Spectrometer: FLMS00149
Trigger mode: 0
Integration Time (sec): 2.000000E-2
Scans to average: 10
Electric dark correction enabled: true
Nonlinearity correction enabled: false
Boxcar width: 0
XAxis mode: Wavelengths
Number of Pixels in Spectrum: 2048
>>>>>Begin Spectral Data<<<<<
341.393	-17.58
341.776	-17.58
342.16	-17.58
342.543	-55.1
342.927	-69.33
343.31	-65.04
343.693	-72.72
344.077	-47.87
344.46	-66.62
344.843	-27.98
345.226	-49.67
345.61	-55.78
345.993	-20.52
346.376	-14.87
346.759	12.92
347.142	28.74
347.525	46.82
347.908	68.29
348.291	74.39
348.674	80.49
349.057	109.42
349.44	100.6
349.823	134.73
350.206	177.66
350.588	224.67
350.971	240.04
351.354	234.16
351.737	268.74
352.119	266.7
352.502	301.73
352.884	325.68
353.267	303.31
353.65	312.35
354.032	306.93
354.414	329.3
354.797	332.24
355.179	336.3
355.562	349.41
355.944	358.23
356.326	377.66
356.709	351.67
357.091	372.24
357.473	350.77
357.855	368.39
358.238	361.16
358.62	360.71
359.002	348.73
359.384	343.99
359.766	372.46
360.148	375.85
360.53	373.82
360.912	343.31
361.294	365.68
361.676	352.12
362.057	354.61
362.439	358.68
362.821	349.19
363.203	354.38
363.584	343.99
363.966	352.35
364.348	344.21
364.729	350.99
365.111	342.18
365.493	335.4
365.874	340.15
366.256	342.18
366.637	354.16
367.019	332.69
367.4	336.08
367.781	351.67
368.163	354.38
368.544	340.82
368.925	363.42
369.306	361.84
369.688	350.54
370.069	330.88
370.45	346.7
370.831	355.06
371.212	351.9
371.593	360.94
371.974	354.61
372.355	349.86
372.736	341.95
373.117	346.47
373.498	344.67
373.879	353.71
374.26	349.86
374.641	353.93
375.021	356.42
375.402	337.43
375.783	356.42
376.163	373.14
376.544	354.38
376.925	355.06
377.305	364.78
377.686	370.88
378.066	382.18
378.447	376.53
378.827	381.28
379.208	371.11
379.588	350.09
379.968	367.26
380.349	370.65
380.729	365
381.109	378.34
381.489	397.77
381.87	393.48
382.25	390.54
382.63	365.46
383.01	385.34
383.39	381.95
383.77	398.9
384.15	405.23
384.53	419.92
384.91	426.92
385.29	419.47
385.67	398.9
386.049	416.98
386.429	410.43
386.809	426.7
387.189	423.08
387.568	436.87
387.948	434.16
388.328	441.61
388.707	460.14
389.087	447.04
389.466	441.84
389.846	433.93
390.225	466.47
390.605	482.29
390.984	473.93
391.363	487.71
391.743	474.15
392.122	489.07
392.501	516.19
392.881	501.72
393.26	513.93
393.639	528.62
394.018	515.06
394.397	542.4
394.776	550.99
395.155	578.33
395.534	557.99
395.913	558.45
396.292	585.11
396.671	579.01
397.05	597.31
397.429	609.97
397.808	622.62
398.186	607.94
398.565	642.29
398.944	628.5
399.323	632.57
399.701	664.88
400.08	674.37
400.458	699.46
400.837	680.25
401.215	696.97
401.594	726.35
401.972	747.82
402.351	740.14
402.729	765.22
403.107	769.51
403.486	773.36
403.864	814.26
404.242	803.41
404.62	832.56
404.999	842.73
405.377	852.9
405.755	860.13
406.133	913.24
406.511	920.02
406.889	918.66
407.267	954.59
407.645	978.32
408.023	979.9
408.401	1002.28
408.779	1026
409.156	1023.29
409.534	1065.78
409.912	1083.63
410.29	1107.58
410.667	1105.78
411.045	1108.71
411.422	1160.69
411.8	1185.77
412.178	1169.96
412.555	1191.88
412.933	1241.14
413.31	1263.74
413.687	1255.38
414.065	1275.94
414.442	1290.4
414.819	1323.17
415.197	1308.26
415.574	1357.07
415.951	1383.06
416.328	1388.71
416.705	1377.86
417.082	1395.03
417.46	1418.31
417.837	1471.42
418.214	1478.2
418.591	1480
418.967	1485.43
419.344	1534.69
419.721	1532.88
420.098	1545.76
420.475	1548.7
420.852	1581.02
421.228	1604.75
421.605	1585.76
421.982	1659.89
422.358	1647.91
422.735	1650.62
423.111	1674.12
423.488	1725.42
423.864	1736.72
424.241	1756.15
424.617	1767.23
424.994	1790.73
425.37	1793.22
425.746	1844.74
426.123	1810.16
426.499	1857.17
426.875	1867.34
427.251	1920.44
427.627	1961.57
428.003	1970.61
428.379	1986.2
428.756	2036.15
429.132	2057.62
429.507	2085.64
429.883	2128.35
430.259	2137.16
430.635	2148.01
431.011	2166.54
431.387	2247.44
431.763	2265.52
432.138	2274.11
432.514	2299.87
432.89	2331.51
433.265	2373.99
433.641	2445.63
434.016	2441.33
434.392	2476.81
434.767	2522.24
435.143	2530.15
435.518	2514.33
435.894	2576.25
436.269	2614.44
436.644	2683.59
437.02	2705.51
437.395	2704.38
437.77	2758.39
438.145	2785.51
438.52	2818.5
438.895	2842.45
439.271	2855.79
439.646	2949.57
440.021	2921.1
440.395	2988.44
440.77	2928.78
441.145	2966.74
441.52	3042.22
441.895	3042.9
442.27	3086.97
442.645	3092.62
443.019	3154.08
443.394	3145.5
443.769	3204.03
444.143	3197.47
444.518	3230.92
444.892	3223.23
445.267	3262.33
445.641	3312.95
446.016	3325.38
446.39	3309.33
446.764	3398.6
447.139	3389.78
447.513	3430.23
447.887	3474.75
448.262	3490.12
448.636	3517.46
449.01	3552.94
449.384	3583.22
449.758	3609.44
450.132	3675.2
450.506	3646.05
450.88	3695.09
451.254	3720.62
451.628	3746.61
452.002	3784.58
452.376	3853.05
452.75	3838.13
453.123	3898.47
453.497	3988.41
453.871	4011.46
454.244	4101.63
454.618	4099.82
454.992	4162.87
455.365	4208.52
455.739	4313.83
456.112	4360.38
456.486	4401.73
456.859	4415.75
457.232	4540.04
457.606	4457.78
457.979	4590.88
458.352	4676.76
458.725	4734.83
459.099	4762.18
459.472	4851.21
459.845	4919.01
460.218	4985.22
460.591	5034.94
460.964	5036.52
461.337	5182.28
461.71	5221.37
462.083	5310.86
462.456	5335.27
462.829	5324.87
463.201	5472.44
463.574	5508.37
463.947	5649.39
464.32	5672.21
464.692	5764.18
465.065	5806.22
465.438	5879.44
465.81	5994.46
466.183	6077.85
466.555	6172.31
466.928	6228.58
467.3	6260.22
467.672	6304.51
468.045	6537.95
468.417	6552.41
468.789	6606.65
469.161	6646.65
469.534	6797.6
469.906	6944.27
470.278	6972.51
470.65	7143.58
471.022	7234.65
471.394	7412.95
471.766	7453.41
472.138	7569.56
472.51	7734.53
472.882	7849.78
473.253	7975.88
473.625	8117.12
473.997	8209.77
474.369	8250.22
474.74	8367.28
475.112	8562.08
475.484	8656.76
475.855	8862.86
476.227	8977.66
476.598	9205
476.97	9236.18
477.341	9504.65
477.713	9646.57
478.084	9673.46
478.455	9982.15
478.827	10027.58
479.198	10441.58
479.569	10343.05
479.94	10653.55
480.311	10801.57
480.682	11059.41
481.053	11277.49
481.424	11383.7
481.795	11647.42
482.166	11816.91
482.537	11889.45
482.908	12282.88
483.279	12228.65
483.65	12612.37
484.021	12771.01
484.391	13016.42
484.762	13085.35
485.133	13280.6
485.503	13481.72
485.874	13768.72
486.244	13873.35
486.615	14156.28
486.985	14295.26
487.356	14635.36
487.726	14695.93
488.097	15079.87
488.467	15045.3
488.837	15469.47
489.207	15605.28
489.578	15773.64
489.948	15984.71
490.318	16197.81
490.688	16327.3
491.058	16622.43
491.428	16823.1
491.798	16930.9
492.168	17392.58
492.538	17425.12
492.908	17728.62
493.278	17934.71
493.648	17880.93
494.017	18270.75
494.387	18418.77
494.757	18540.35
495.126	18720
495.496	18820.79
495.866	18922.93
496.235	19082.48
496.605	19364.05
496.974	19511.62
497.344	19724.04
497.713	19903.02
498.082	20076.8
498.452	20158.61
498.821	20305.05
499.19	20449.22
499.559	20590.01
499.928	20761.3
500.298	20899.38
500.667	21105.02
501.036	21132.14
501.405	21406.71
501.774	21464.11
502.143	21762.41
502.512	21830.88
502.88	22068.16
503.249	22106.58
503.618	22253.24
503.987	22356.74
504.356	22552.22
504.724	22740.69
505.093	22732.78
505.462	22985.43
505.83	23268.36
506.199	23545.41
506.567	23714.9
506.936	23625.41
507.304	23968.68
507.672	24115.79
508.041	24111.27
508.409	24477.59
508.777	24589
509.145	24929.78
509.514	24897.69
509.882	25119.61
510.25	25196.44
510.618	25381.75
510.986	25528.64
511.354	25930.43
511.722	26260.82
512.09	26423.53
512.458	26155.74
512.826	26564.09
513.193	26783.07
513.561	26870.97
513.929	27088.82
514.297	27441.13
514.664	27525.65
515.032	27679.77
515.4	27971.51
515.767	28092.86
516.135	28335.57
516.502	28105.52
516.869	28614.43
517.237	28842.67
517.604	28712.28
517.972	29100.75
518.339	29414.86
518.706	29522.43
519.073	29740.28
519.44	29934.62
519.808	30297.55
520.175	30160.15
520.542	30688.28
520.909	30775.73
521.276	30676.98
521.643	31199.9
522.009	31464.53
522.376	31629.04
522.743	31845.31
523.11	32252.08
523.477	32515.57
523.843	32634.21
524.21	33061.32
524.577	33236
524.943	33316.23
525.31	33635.32
525.676	33883.22
526.043	33949.43
526.409	34263.1
526.776	34633.03
527.142	34668.51
527.508	34910.31
527.874	35282.73
528.241	35486.57
528.607	35540.58
528.973	35803.85
529.339	35745.32
529.705	36098.08
530.071	36520.21
530.437	36667.78
530.803	36898.96
531.169	37027.54
531.535	37020.76
531.901	37177.6
532.267	37345.73
532.632	37659.17
532.998	37892.38
533.364	38026.61
533.73	38115.65
534.095	38545.92
534.461	38493.95
534.826	38849.19
535.192	38923.76
535.557	39221.16
535.923	39079.92
536.288	39328.27
536.653	39551.32
537.019	39425.45
537.384	39782.27
537.749	39975.26
538.114	39970.06
538.479	40153.11
538.845	40374.57
539.21	40257.74
539.575	40538.19
539.94	40716.94
540.305	40986.08
540.67	40951.51
541.034	41141.79
541.399	41299.07
541.764	41504.49
542.129	41680.3
542.494	41797.36
542.858	41993.51
543.223	41973.18
543.587	42307.63
543.952	42273.06
544.316	42409.77
544.681	42382.43
545.045	42631.46
545.41	42904.45
545.774	43070.55
546.138	43198.91
546.503	43265.57
546.867	43300.82
547.231	43751.89
547.595	43744.43
547.959	43886.57
548.324	44042.05
548.688	44168.15
549.052	44293.57
549.416	44496.73
549.779	44690.17
550.143	44578.53
550.507	44978.97
550.871	45112.98
551.235	45121.57
551.599	45637.26
551.962	45548.45
552.326	45807.2
552.689	46073.18
553.053	45952.73
553.417	46112.05
553.78	46678.82
554.143	46498.93
554.507	46794.74
554.87	47011.01
555.234	47372.58
555.597	47092.36
555.96	47335.29
556.323	47633.14
556.686	47538.91
557.05	47929.86
557.413	48090.08
557.776	48281.71
558.139	48581.59
558.502	48581.36
558.865	48641.25
559.228	49037.62
559.59	49121.24
559.953	49166.43
560.316	49619.08
560.679	49525.75
561.041	49730.49
561.404	49980.42
561.767	50228.78
562.129	50129.12
562.492	50561.65
562.854	50511.26
563.217	50662.67
563.579	50784.92
563.941	51042.09
564.304	51118.02
564.666	51406.6
565.028	51497.22
565.39	51482.08
565.753	51714.16
566.115	51843.65
566.477	51940.37
566.839	52095.17
567.201	52225.11
567.563	52229.86
567.925	52484.99
568.287	52553.46
568.648	52581.26
569.01	52827.13
569.372	52906
569.734	52924.53
570.095	53116.39
570.457	53244.29
570.819	53273.67
571.18	53328.13
571.542	53566.54
571.903	53517.96
572.265	53599.31
572.626	53674.79
572.987	53826.42
573.349	53861.9
573.71	53971.28
574.071	54076.59
574.432	54046.98
574.794	54269.35
575.155	54267.09
575.516	54223.48
575.877	54433.64
576.238	54508.21
576.599	54569.68
576.96	54541.43
577.32	54560.87
577.681	54711.6
578.042	54666.18
578.403	54778.49
578.763	54769
579.124	54760.41
579.485	54878.15
579.845	55061.87
580.206	54885.38
580.566	54937.58
580.927	55000.86
581.287	55096.45
581.648	55075.2
582.008	55179.83
582.368	55148.65
582.728	55235.88
583.089	55115.66
583.449	55216.9
583.809	55150.46
584.169	55227.74
584.529	55172.83
584.889	55413.95
585.249	55269.78
585.609	55132.15
585.969	55369.43
586.329	55293.28
586.688	55271.36
587.048	55356.55
587.408	55292.37
587.768	55290.34
588.127	55272.49
588.487	55310.9
588.846	55463.89
589.206	55353.16
589.565	55402.65
589.925	55458.02
590.284	55418.02
590.643	55336.67
591.003	55495.08
591.362	55561.07
591.721	55462.99
592.08	55454.4
592.44	55522.42
592.799	55541.63
593.158	55541.18
593.517	55497.34
593.876	55510.67
594.235	55401.52
594.593	55498.7
594.952	55622.31
595.311	55527.62
595.67	55532.14
596.029	55781.63
596.387	55685.81
596.746	55775.3
597.104	55601.97
597.463	55628.86
597.822	55732.81
598.18	55576.21
598.538	55590.9
598.897	55771.23
599.255	55532.37
599.613	55913.37
599.972	55745.92
600.33	55884
600.688	55817.78
601.046	55841.29
601.404	55984.79
601.762	55775.98
602.12	55963.77
602.478	55928.06
602.836	55986.37
603.194	55857.56
603.552	55905.92
603.91	55884
604.268	56090.77
604.625	55909.08
604.983	56068.4
605.341	55889.19
605.698	56038.79
606.056	56169.41
606.413	56137.78
606.771	56235.85
607.128	56196.08
607.485	56103.2
607.843	56158.11
608.2	56246.25
608.557	56330.99
608.914	56316.3
609.272	56370.99
609.629	56447.15
609.986	56523.75
610.343	56368.96
610.7	56531.21
611.057	56536.86
611.414	56516.52
611.771	56503.64
612.127	56658.44
612.484	56643.98
612.841	56737.53
613.198	56571.21
613.554	56697.31
613.911	56819.11
614.267	56801.71
614.624	56719.91
614.98	56831.09
615.337	56996.74
615.693	56872.67
616.05	56866.8
616.406	57068.37
616.762	56869.06
617.118	56858.21
617.475	56920.13
617.831	56993.8
618.187	56963.29
618.543	57032.67
618.899	57176.84
619.255	57158.09
619.611	57118.09
619.967	57260.46
620.323	57246.9
620.678	57247.58
621.034	57132.55
621.39	57121.25
621.746	57129.16
622.101	57465.2
622.457	57194.92
622.812	57256.16
623.168	57321.25
623.523	57322.83
623.879	57333.68
624.234	57175.71
624.589	57273.56
624.945	57302.04
625.3	57294.81
625.655	57282.15
626.01	57347.91
626.365	57248.71
626.72	57263.62
627.075	57305.65
627.43	57200.8
627.785	57267.24
628.14	57326.22
628.495	57251.19
628.85	57286.67
629.205	57166
629.559	57348.14
629.914	57131.2
630.269	57194.47
630.623	57044.42
630.978	57050.07
631.332	57194.92
631.687	57259.78
632.041	57058.88
632.396	57116.28
632.75	57015.49
633.104	57055.04
633.459	56875.38
633.813	56942.05
634.167	56902.05
634.521	56964.87
634.875	56997.19
635.229	56893.46
635.583	56877.19
635.937	56777.53
636.291	56780.7
636.645	56792.67
636.999	56667.7
637.352	56789.74
637.706	56611.89
638.06	56775.95
638.413	56659.34
638.767	56570.98
639.121	56669.29
639.474	56513.13
639.828	56523.08
640.181	56490.76
640.534	56507.71
640.888	56387.03
641.241	56323.08
641.594	56358.56
641.947	56424.55
642.301	56258.9
642.654	56353.36
643.007	56352.91
643.36	56271.11
643.713	56248.51
644.066	56373.48
644.419	56089.87
644.771	55942.07
645.124	55688.07
645.477	55625.25
645.83	55468.19
646.182	55438.36
646.535	55324.01
646.888	55376.21
647.24	55227.74
647.593	55422.31
647.945	55310.23
648.298	55195.43
648.65	55205.82
649.002	55038.14
649.355	55180.51
649.707	55063.45
650.059	55193.17
650.411	55516.1
650.763	55530.56
651.115	55740.5
651.467	55601.74
651.819	55620.5
652.171	55669.09
652.523	55579.15
652.875	55503.89
653.227	55473.84
653.578	55615.08
653.93	55562.65
654.282	55446.49
654.633	55264.8
654.985	55396.55
655.337	55348.42
655.688	55391.13
656.039	55491.24
656.391	55235.2
656.742	55277.23
657.094	55229.32
657.445	55338.25
657.796	55205.82
658.147	55211.02
658.498	55198.37
658.849	55251.47
659.2	55169.89
659.551	55069.78
659.902	55235.2
660.253	55109.55
660.604	55229.78
660.955	54963.12
661.306	55101.19
661.656	55051.25
662.007	55029.33
662.358	54939.61
662.708	55057.8
663.059	55014.64
663.409	54842.67
663.76	54941.65
664.11	54960.18
664.461	54995.66
664.811	54957.92
665.161	54941.87
665.511	54837.92
665.862	54885.6
666.212	54942.55
666.562	54964.02
666.912	54865.49
667.262	54891.93
667.612	54769.68
667.962	54834.98
668.312	54680.64
668.662	54915.21
669.011	54807.41
669.361	54727.19
669.711	54753.18
670.06	54613.97
670.41	54577.82
670.76	54609.45
671.109	54707.53
671.459	54629.11
671.808	54557.03
672.157	54613.07
672.507	54413.98
672.856	54473.86
673.205	54490.81
673.554	54605.61
673.904	54432.74
674.253	54560.87
674.602	54430.93
674.951	54060.99
675.3	53843.6
675.649	54295.34
675.998	54308.44
676.346	54315.9
676.695	54479.06
677.044	54173.53
677.393	54256.02
677.741	54218.73
678.09	54174.66
678.438	54059.19
678.787	54133.76
679.135	54157.49
679.484	53919.53
679.832	54049.24
680.181	53823.26
680.529	53985.97
680.877	53900.77
681.225	53786.2
681.573	53979.64
681.922	53818.74
682.27	53715.92
682.618	53760.66
682.966	53596.37
683.314	53691.29
683.661	53599.31
684.009	53292.65
684.357	53346.66
684.705	53252.2
685.053	53304.18
685.4	53251.07
685.748	53065.09
686.095	53089.04
686.443	52983.06
686.79	52888.14
687.138	52980.34
687.485	52873.68
687.832	52731.54
688.18	52786.9
688.527	52447.7
688.874	52630.97
689.221	52492.67
689.568	52412.9
689.915	52393.47
690.262	52286.35
690.609	52164.09
690.956	52157.54
691.303	52022.18
691.65	51948.51
691.997	51888.62
692.344	51719.81
692.69	51586.26
693.037	51743.54
693.383	51364.12
693.73	51627.61
694.077	51357.79
694.423	51387.39
694.769	51306.04
695.116	51157.57
695.462	51079.6
695.808	50979.49
696.155	51059.72
696.501	50732.95
696.847	50796.45
697.193	50630.58
697.539	50649.33
697.885	50449.11
698.231	50268.78
698.577	50297.93
698.923	50234.88
699.269	50047.99
699.614	49883.93
699.96	49837.83
700.306	49801.44
700.651	49671.5
700.997	49543.6
701.342	49652.3
701.688	49485.52
702.033	49408.23
702.379	49388.35
702.724	49122.82
703.069	49116.49
703.415	48846.89
703.76	48848.7
704.105	48909.04
704.45	48716.5
704.795	48455.49
705.14	48376.17
705.485	48446.9
705.83	48311.77
706.175	48256.17
706.52	48286.23
706.865	48006.24
707.209	47947.71
707.554	47994.03
707.899	47858.9
708.243	47697.32
708.588	47623.2
708.932	47491.22
709.277	47443.99
709.621	47418.68
709.966	47137.79
710.31	47349.98
710.654	46997.45
710.998	47006.26
711.342	47022.76
711.687	46837.68
712.031	46836.1
712.375	46647.86
712.719	46730.57
713.063	46495.77
713.407	46523.11
713.75	46455.54
714.094	46332.16
714.438	46239.73
714.782	46256.68
715.125	46170.81
715.469	46111.37
715.812	45902.11
716.156	45807.88
716.499	45851.27
716.843	45782.12
717.186	45479.3
717.53	45528.34
717.873	45543.25
718.216	45412.63
718.559	45340.32
718.902	45049.25
719.246	45160.66
719.589	45073.43
719.932	44903.04
720.275	44895.59
720.617	44945.3
720.96	44676.83
721.303	44768.81
721.646	44717.51
721.989	44543.05
722.331	44646.1
722.674	44344.19
723.016	44396.62
723.359	44333.11
723.701	44424.19
724.044	44187.13
724.386	43968.83
724.729	44169.73
725.071	43942.62
725.413	43779
725.755	43844.99
726.097	43762.96
726.439	43513.93
726.782	43536.75
727.124	43875.72
727.465	43491.55
727.807	43472.12
728.149	43443.19
728.491	43262.41
728.833	43169.3
729.175	43204.78
729.516	43028.52
729.858	43046.82
730.199	42981.96
730.541	42833.72
730.882	42805.02
731.224	42904.22
731.565	42792.36
731.906	42645.7
732.248	42711.24
732.589	42540.84
732.93	42389.44
733.271	42335.43
733.612	42341.75
733.953	42406.38
734.294	42183.34
734.635	41936.34
734.976	42231.47
735.317	41947.41
735.658	41882.78
735.999	41922.1
736.339	41800.07
736.68	41849.11
737.021	41572.06
737.361	41553.3
737.702	41820.86
738.042	41620.19
738.383	41542
738.723	41579.51
739.063	41544.03
739.404	41398.05
739.744	41283.02
740.084	41151.73
740.424	41227.43
740.764	41036.03
741.104	41139.07
741.444	41063.6
741.784	40797.39
742.124	40957.16
742.464	40754.68
742.804	40824.73
743.143	40717.39
743.483	40746.77
743.823	40421.13
744.162	40470.16
744.502	40492.31
744.841	40270.17
745.181	40344.52
745.52	40386.55
745.86	40302.71
746.199	40238.08
746.538	40049.84
746.877	40165.54
747.216	40064.07
747.556	40039.22
747.895	39937.75
748.234	39790.41
748.573	39646.46
748.911	39676.97
749.25	39683.97
749.589	39511.09
749.928	39680.13
750.267	39602.39
750.605	39542.73
750.944	39371.44
751.283	39118.56
751.621	39251.44
751.96	39030.88
752.298	38913.82
752.636	38998.34
752.975	38693.71
753.313	38686.03
753.651	38878.34
753.989	38672.92
754.327	38507.28
754.666	38371.01
755.004	38435.87
755.342	38266.15
755.679	38360.84
756.017	38065.48
756.355	38125.14
756.693	37916.11
757.031	37997.91
757.368	37627.98
757.706	37714.53
758.044	37439.96
758.381	37580.52
758.719	37503.92
759.056	37406.74
759.394	37168.56
759.731	36938.28
760.068	36928.79
760.405	36816.7
760.743	36865.51
761.08	36826.87
761.417	36566.76
761.754	36643.82
762.091	36546.65
762.428	36280.9
762.765	36150.73
763.102	36135.36
763.438	35992.99
763.775	35755.49
764.112	35764.07
764.449	35717.75
764.785	35573.8
765.122	35485.66
765.458	35376.97
765.795	35380.36
766.131	35198.66
766.467	35052.91
766.804	34854.95
767.14	34807.94
767.476	34802.07
767.812	34575.63
768.148	34618.79
768.485	34398.46
768.821	34324.56
769.157	34250.22
769.492	34151.91
769.828	33978.13
770.164	33702.66
770.5	33618.14
770.836	33704.01
771.171	33456.11
771.507	33408.2
771.842	33068.1
772.178	33188.77
772.513	33097.03
772.849	32962.34
773.184	32885.05
773.519	32812.29
773.855	32555.12
774.19	32394.44
774.525	32371.39
774.86	32361.68
775.195	32302.47
775.53	32211.85
775.865	31929.6
776.2	31783.84
776.535	31716.5
776.87	31498.2
777.205	31481.02
777.539	31296.17
777.874	31353.79
778.209	31108.6
778.543	30979.79
778.878	30751.1
779.212	30773.02
779.547	30574.83
779.881	30636.3
780.215	30366.7
780.55	30485.12
780.884	30149.76
781.218	30117.67
781.552	30167.61
781.886	29945.7
782.22	29721.75
782.554	29797
782.888	29484.92
783.222	29437.01
783.556	29274.98
783.889	29250.8
784.223	29172.38
784.557	28976.91
784.89	29164.93
785.224	28774.2
785.557	28723.35
785.891	28653.3
786.224	28513.87
786.558	28540.53
786.891	28150.71
787.224	28028.68
787.557	28049.93
787.891	28011.28
788.224	27922.7
788.557	27911.62
788.89	27970.15
789.223	27820.55
789.556	27549.6
789.888	27521.58
790.221	27337.85
790.554	27144.64
790.887	27323.62
791.219	27119.33
791.552	27086.11
791.884	26858.32
792.217	26846.34
792.549	26736.06
792.882	26483.87
793.214	26404.77
793.546	26510.98
793.879	26245.45
794.211	26181.05
794.543	26287.49
794.875	26167.26
795.207	26165
795.539	26010.88
795.871	25914.84
796.203	25708.74
796.535	25672.59
796.867	25680.27
797.198	25572.93
797.53	25519.82
797.862	25311.02
798.193	25389.66
798.525	25178.36
798.856	25138.14
799.188	24869.22
799.519	24794.87
799.85	24750.35
800.182	24790.13
800.513	24751.93
800.844	24466.74
801.175	24600.3
801.506	24562.56
801.837	24408.21
802.168	24345.62
802.499	24319.63
802.83	24163.47
803.161	24081.9
803.491	24102.69
803.822	23996.93
804.153	23850.71
804.483	23730.27
804.814	23745.41
805.145	23721
805.475	23738.85
805.805	23525.07
806.136	23502.93
806.466	23387.22
806.796	23479.88
807.126	23190.85
807.457	23284.4
807.787	23176.38
808.117	23060.9
808.447	23059.78
808.777	23100.9
809.107	22915.37
809.436	22840.8
809.766	22862.49
810.096	22747.69
810.426	22671.31
810.755	22672.44
811.085	22585.44
811.414	22548.83
811.744	22232.68
812.073	22267.71
812.403	22266.58
812.732	22212.34
813.061	22192.23
813.39	21999.69
813.719	22015.28
814.049	21975.06
814.378	22006.47
814.707	21878.11
815.036	21941.84
815.365	21819.36
815.693	21462.53
816.022	21586.37
816.351	21544.33
816.68	21401.29
817.008	21432.93
817.337	21355.87
817.665	21234.29
817.994	21354.74
818.322	21234.74
818.651	21185.93
818.979	21030.45
819.307	21176.89
819.636	21181.18
819.964	20868.65
820.292	20997.91
820.62	21055.53
820.948	20958.14
821.276	21006.27
821.604	20798.59
821.932	20959.72
822.259	20894.18
822.587	20846.95
822.915	20764.02
823.243	20805.6
823.57	20830.91
823.898	20820.06
824.225	20760.85
824.553	20726.28
824.88	20768.54
825.207	20848.31
825.535	20774.64
825.862	20848.31
826.189	20707.52
826.516	20773.28
826.843	20838.59
827.17	20838.36
827.497	20865.93
827.824	20845.14
828.151	20826.16
828.478	20678.14
828.805	20726.96
829.131	20718.37
829.458	20698.71
829.785	20678.82
830.111	20706.39
830.438	20786.84
830.764	20728.76
831.09	20674.75
831.417	20595.66
831.743	20594.53
832.069	20639.95
832.395	20576
832.722	20571.7
833.048	20589.11
833.374	20596.34
833.7	20461.88
834.026	20572.38
834.351	20599.5
834.677	20445.61
835.003	20562.89
835.329	20456
835.654	20490.58
835.98	20351.37
836.306	20383.91
836.631	20261.43
836.956	20304.82
837.282	20346.85
837.607	20157.7
837.932	20201.32
838.258	20216.91
838.583	20067.31
838.908	19891.04
839.233	20034.77
839.558	20031.38
839.883	20040.87
840.208	19958.16
840.533	19895.56
840.858	19906.86
841.182	19891.95
841.507	19806.53
841.832	19651.05
842.156	19724.72
842.481	19755.68
842.805	19612.86
843.13	19595.01
843.454	19496.7
843.778	19434.56
844.103	19501.9
844.427	19453.54
844.751	19492.64
845.075	19357.27
845.399	19233.66
845.723	19079.31
846.047	19139.2
846.371	18976.27
846.695	19028.02
847.019	18873.44
847.343	18745.99
847.666	18628.93
847.99	18639.33
848.313	18610.85
848.637	18529.27
848.96	18382.84
849.284	18310.07
849.607	18214.48
849.931	18136.29
850.254	18040.25
850.577	17914.15
850.9	17826.69
851.223	17840.03
851.546	17826.69
851.869	17718.22
852.192	17825.56
852.515	17534.72
852.838	17528.4
853.161	17454.72
853.483	17404.1
853.806	17339.02
854.129	17363.2
854.451	17252.24
854.774	17145.81
855.096	17073.49
855.419	17107.84
855.741	16993.27
856.063	16896.1
856.385	16917.79
856.708	16856.77
857.03	16864.01
857.352	16832.14
857.674	16742.88
857.996	16650.9
858.318	16587.18
858.64	16503.34
858.961	16506.28
859.283	16523
859.605	16373.85
859.926	16371.59
860.248	16346.96
860.57	16296.56
860.891	16197.13
861.212	16133.63
861.534	16231.03
861.855	16105.16
862.176	16059.73
862.498	16051.37
862.819	15972.28
863.14	15995.33
863.461	15984.93
863.782	15920.98
864.103	16023.12
864.424	15832.62
864.745	15856.8
865.065	15863.35
865.386	15716.24
865.707	15642.12
866.027	15649.8
866.348	15665.17
866.668	15615.23
866.989	15670.59
867.309	15461.56
867.63	15602.34
867.95	15553.53
868.27	15389.47
868.59	15497.04
868.91	15480.54
869.23	15396.47
869.55	15332.75
869.87	15383.59
870.19	15280.77
870.51	15376.81
870.83	15325.52
871.15	15189.47
871.469	15187.44
871.789	15179.76
872.109	15148.8
872.428	15051.17
872.748	15097.05
873.067	15096.82
873.386	15137.27
873.706	15097.27
874.025	14952.87
874.344	14992.42
874.663	14994.68
874.982	14906.32
875.301	14873.1
875.62	14854.79
875.939	14863.61
876.258	14949.48
876.577	14756.04
876.896	14830.16
877.214	14717.85
877.533	14761.91
877.852	14704.97
878.17	14761.24
878.489	14674.46
878.807	14643.95
879.125	14622.03
879.444	14570.73
879.762	14608.02
880.08	14551.07
880.398	14450.06
880.716	14473.56
881.034	14391.3
881.352	14492.99
881.67	14357.18
881.988	14449.83
882.306	14358.53
882.624	14248.03
882.941	14243.06
883.259	14173.68
883.577	14186.56
883.894	14133.91
884.212	14149.95
884.529	14086
884.846	14068.37
885.164	14052.55
885.481	13961.94
885.798	14000.58
886.115	13855.5
886.432	13899.11
886.75	13890.52
887.067	13895.72
887.383	13803.52
887.7	13685.78
888.017	13744.99
888.334	13732.56
888.651	13695.28
888.967	13688.5
889.284	13556.97
889.6	13524.88
889.917	13475.62
890.233	13553.58
890.55	13412.57
890.866	13490.99
891.182	13382.97
891.498	13336.41
891.815	13209.19
892.131	13147.49
892.447	13191.33
892.763	13135.06
893.079	13126.02
893.395	12984.11
893.71	13084.22
894.026	13003.99
894.342	12978.91
894.657	12851.23
894.973	12816.65
895.289	12778.46
895.604	12829.99
895.92	12756.32
896.235	12681.52
896.55	12655.98
896.865	12683.1
897.181	12667.51
897.496	12621.41
897.811	12484.23
898.126	12454.18
898.441	12410.34
898.756	12337.57
899.071	12262.77
899.386	12342.77
899.7	12184.58
900.015	12164.02
900.33	12142.77
900.644	12149.1
900.959	12164.69
901.273	12051.02
901.588	11994.98
901.902	11924.02
902.216	11947.07
902.531	11837.47
902.845	11737.81
903.159	11677.25
903.473	11743.46
903.787	11699.17
904.101	11589.34
904.415	11628.44
904.729	11528.78
905.042	11447.42
905.356	11525.16
905.67	11402
905.984	11362.68
906.297	11353.64
906.611	11264.15
906.924	11223.93
907.237	11176.47
907.551	11162.91
907.864	11052.63
908.177	11090.37
908.491	11015.8
908.804	10953.2
909.117	10890.15
909.43	10832.53
909.743	10763.15
910.056	10718.86
910.368	10688.57
910.681	10648.12
910.994	10608.8
911.307	10637.28
911.619	10577.39
911.932	10590.5
912.244	10478.64
912.557	10447
912.869	10318.64
913.181	10294.23
913.494	10282.71
913.806	10209.49
914.118	10219.43
914.43	10142.15
914.742	10116.39
915.054	10062.83
915.366	10056.95
915.678	10036.84
915.99	9973.11
916.302	9873.91
916.613	9896.05
916.925	9839.33
917.236	9848.6
917.548	9816.06
917.859	9736.96
918.171	9643.4
918.482	9649.28
918.794	9594.14
919.105	9515.27
919.416	9507.81
919.727	9412
920.038	9430.3
920.349	9355.5
920.66	9306.24
920.971	9250.65
921.282	9246.35
921.593	9193.92
921.903	9225.34
922.214	9141.72
922.525	9099.92
922.835	9053.14
923.146	9009.07
923.456	8950.99
923.767	8939.47
924.077	8938.56
924.387	8847.27
924.697	8854.72
925.008	8802.97
925.318	8751.45
925.628	8683.2
925.938	8638.23
926.248	8624.9
926.558	8610.89
926.867	8570.21
927.177	8503.77
927.487	8463.1
927.796	8397.34
928.106	8404.12
928.416	8381.06
928.725	8354.17
929.034	8233.72
929.344	8257.45
929.653	8252.48
929.962	8218.81
930.271	8111.69
930.581	8148.3
930.89	8088.87
931.199	8013.17
931.508	8010
931.817	8037.8
932.125	7978.14
932.434	7885.71
932.743	7850.01
933.051	7810.01
933.36	7755.32
933.669	7775.88
933.977	7728.65
934.286	7749.44
934.594	7702.66
934.902	7550.8
935.21	7643.91
935.519	7589.67
935.827	7483.24
936.135	7455.89
936.443	7454.31
936.751	7376.57
937.059	7351.04
937.367	7356.01
937.674	7281.43
937.982	7292.51
938.29	7209.8
938.597	7196.24
938.905	7162.11
939.213	7161.89
939.52	7114.21
939.827	7124.37
940.135	7011.61
940.442	6964.38
940.749	6989.69
941.056	7015.45
941.363	6906.53
941.67	6893.65
941.977	6825.4
942.284	6778.62
942.591	6781.56
942.898	6783.14
943.205	6775.23
943.511	6738.85
943.818	6738.85
944.125	6688
944.431	6614.33
944.738	6636.48
945.044	6616.59
945.35	6556.03
945.657	6508.12
945.963	6496.59
946.269	6437.61
946.575	6436.26
946.881	6348.58
947.187	6348.12
947.493	6337.95
947.799	6295.24
948.105	6299.09
948.41	6194.91
948.716	6263.15
949.022	6179.77
949.327	6143.61
949.633	6088.24
949.938	6069.71
950.244	6071.07
950.549	6083.05
950.854	5984.07
951.16	5997.4
951.465	5924.63
951.77	5930.28
952.075	5939.77
952.38	5892.77
952.685	5854.58
952.99	5783.39
953.294	5824.07
953.599	5770.06
953.904	5757.18
954.209	5804.86
954.513	5767.12
954.818	5679.67
955.122	5744.75
955.426	5607.13
955.731	5626.11
956.035	5578.43
956.339	5618.43
956.643	5548.15
956.948	5525.09
957.252	5533.23
957.556	5465.44
957.86	5447.58
958.163	5469.96
958.467	5406.91
958.771	5396.74
959.075	5363.29
959.378	5362.84
959.682	5373.91
959.985	5252.79
960.289	5234.71
960.592	5222.05
960.896	5152.68
961.199	5212.79
961.502	5195.16
961.805	5140.7
962.108	5159.23
962.411	5089.4
962.714	5084.65
963.017	5086.91
963.32	5037.42
963.623	4966.69
963.926	4946.58
964.228	4941.83
964.531	4929.86
964.833	4902.96
965.136	4856.19
965.438	4890.99
965.741	4838.33
966.043	4794.72
966.345	4778.9
966.648	4757.66
966.95	4731.44
967.252	4686.02
967.554	4723.76
967.856	4702.07
968.158	4669.98
968.46	4662.29
968.761	4630.66
969.063	4601.96
969.365	4591.11
969.666	4540.49
969.968	4500.71
970.269	4512.47
970.571	4525.35
970.872	4444.9
971.174	4428.17
971.475	4397.44
971.776	4495.52
972.077	4360.15
972.378	4399.02
972.679	4430.21
972.98	4371
973.281	4340.95
973.582	4273.83
973.883	4331.45
974.183	4270.66
974.484	4223.21
974.785	4227.5
975.085	4215.98
975.386	4206.03
975.686	4166.94
975.986	4154.74
976.287	4114.96
976.587	4087.62
976.887	4100.73
977.187	4072.48
977.487	4078.81
977.787	4026.38
978.087	4008.52
978.387	4031.12
978.687	4000.62
978.987	3954.06
979.286	3950.45
979.586	3966.49
979.885	3938.7
980.185	3896.44
980.484	3862.77
980.784	3903.44
981.083	3834.97
981.382	3816.44
981.682	3812.82
981.981	3761.3
982.28	3778.93
982.579	3778.7
982.878	3758.36
983.177	3712.26
983.475	3711.81
983.774	3707.52
984.073	3686.95
984.372	3684.24
984.67	3640.4
984.969	3647.18
985.267	3614.41
985.566	3637.69
985.864	3594.3
986.162	3554.53
986.461	3533.06
986.759	3517.01
987.057	3474.08
987.355	3511.36
987.653	3490.57
987.951	3453.28
988.249	3445.6
988.547	3453.96
988.844	3419.16
989.142	3429.33
989.44	3396.79
989.737	3373.29
990.035	3340.52
990.332	3347.52
990.63	3312.5
990.927	3312.95
991.224	3307.75
991.521	3296.68
991.819	3265.27
992.116	3228.88
992.413	3245.61
992.71	3201.09
993.006	3216
993.303	3134.42
993.6	3174.65
993.897	3149.79
994.193	3146.85
994.49	3115.89
994.787	3085.38
995.083	3058.49
995.379	3066.85
995.676	3011.49
995.972	3026.18
996.268	3029.79
996.565	3004.94
996.861	2973.52
997.157	2943.47
997.453	3020.08
997.749	2927.42
998.044	2886.29
998.34	2914.99
998.636	2914.99
998.932	2880.87
999.227	2846.07
999.523	2877.03
999.818	2857.37
1000.114	2763.59
1000.409	2794.77
1000.704	2768.11
1001	2753.42
1001.295	2740.99
1001.59	2716.58
1001.885	2730.14
1002.18	2680.42
1002.475	2675
1002.77	2662.57
1003.065	2682.23
1003.359	2642.91
1003.654	2611.05
1003.949	2610.82
1004.243	2592.06
1004.538	2575.12
1004.832	2579.64
1005.127	2512.74
1005.421	2545.06
1005.715	2521.78
1006.009	2504.84
1006.304	2505.29
1006.598	2490.6
1006.892	2493.08
1007.186	2444.5
1007.48	2444.05
1007.773	2416.7
1008.067	2430.26
1008.361	2377.61
1008.655	2373.77
1008.948	2319.08
1009.242	2345.97
1009.535	2357.49
1009.829	2326.31
1010.122	2318.17
1010.415	2298.29
1010.708	2312.07
1011.001	2285.41
1011.295	2272.98
1011.588	2242.92
1011.881	2237.5
1012.173	2219.19
1012.466	2197.72
1012.759	2230.04
1013.052	2177.16
1013.344	2192.53
1013.637	2160.21
1013.93	2112.08
1014.222	2129.7
1014.514	2106.88
1014.807	2079.99
1015.099	2075.92
1015.391	2084.06
1015.683	2047.45
1015.976	2065.98
1016.268	2039.76
1016.56	2043.6
1016.851	1981.01
1017.143	1985.75
1017.435	2016.03
1017.727	1976.94
1018.018	1958.41
1018.31	1914.12
1018.602	1948.01
1018.893	1917.28
1019.185	1924.29
1019.476	1918.18
1019.767	1909.37
1020.058	1858.75
1020.35	1853.55
1020.641	1799.32
1020.932	1826.44
1021.223	1817.4
1021.514	1794.8
1021.804	1794.12
1022.095	1758.19
1022.386	1734.23
1022.677	1763.61
1022.967	1717.29
1023.258	1717.06
1023.548	1724.06
1023.839	1682.71
1024.129	1694.01
1024.419	1686.55
1024.709	1630.06
1025	1648.81
1025.29	1640.68
1025.58	1615.14
1025.87	1631.19
1026.16	1622.37
1026.449	1583.73
1026.739	1602.26
1027.029	1576.72
1027.319	1556.39
1027.608	1571.98
1027.898	1567.91
1028.187	1547.8
1028.477	1526.33
1028.766	1526.78
1029.055	1501.7
1029.344	1472.77
1029.634	1497.4
1029.923	1448.37
1030.212	1447.91
1030.501	1439.1
1030.79	1420.57
1031.078	1435.71
1031.367	1419.21
1031.656	1411.76
1031.945	1379.89
1032.233	1358.65
1032.522	1356.62
1032.81	1345.32
1033.099	1347.35
1033.387	1365.88
1033.675	1362.94
1033.963	1320.23
1034.251	1343.06
1034.54	1314.81
1034.828	1302.61
1035.116	1295.83
1035.403	1312.1
1035.691	1281.14
1035.979	1279.56
1036.267	1260.57
1036.554	1248.37
1036.842	1243.85
1037.129	1248.6
1037.417	1205.89
1037.704	1229.39
1037.992	1176.28
1038.279	1227.81
1038.566	1185.55
1038.853	1185.55
1039.14	1185.55
