Data from White_paper_FLMS001491_086.txt Node
Date: Tue Feb 07 10:35:40 GMT 2017
User: dcchb
Spectrometer: FLMS00149
Trigger mode: 0
Integration Time (sec): 2.000000E-2
Scans to average: 10
Electric dark correction enabled: true
Nonlinearity correction enabled: false
Boxcar width: 0
XAxis mode: Wavelengths
Number of Pixels in Spectrum: 2048
>>>>>Begin Spectral Data<<<<<
341.393	-23.6
341.776	-23.6
342.16	-23.6
342.543	-60.44
342.927	-70.61
343.31	-45.52
343.693	-80.77
344.077	-64.05
344.46	-52.75
344.843	-63.83
345.226	-53.43
345.61	-31.28
345.993	-28.8
346.376	23.4
346.759	-12.08
347.142	22.27
347.525	51.88
347.908	53.23
348.291	80.8
348.674	95.94
349.057	104.98
349.44	123.97
349.823	137.07
350.206	150.86
350.588	223.4
350.971	233.12
351.354	245.77
351.737	275.83
352.119	274.92
352.502	281.02
352.884	302.49
353.267	307.24
353.65	333.9
354.032	325.32
354.414	340.23
354.797	334.13
355.179	346.56
355.562	354.02
355.944	347.24
356.326	349.27
356.709	356.05
357.091	370.06
357.473	376.84
357.855	353.34
358.238	375.26
358.62	363.28
359.002	370.74
359.384	356.5
359.766	351.3
360.148	379.33
360.53	368.7
360.912	361.25
361.294	358.08
361.676	374.13
362.057	363.96
362.439	353.79
362.821	373.45
363.203	356.95
363.584	365.77
363.966	346.11
364.348	386.56
364.729	367.58
365.111	367.35
365.493	332.1
365.874	368.93
366.256	356.73
366.637	365.54
367.019	357.18
367.4	351.08
367.781	374.13
368.163	351.98
368.544	368.93
368.925	383.39
369.306	369.83
369.688	359.89
370.069	367.58
370.45	366.22
370.831	346.11
371.212	357.86
371.593	377.29
371.974	359.67
372.355	380
372.736	373.22
373.117	355.82
373.498	368.93
373.879	363.73
374.26	366.22
374.641	362.38
375.021	385.2
375.402	378.87
375.783	378.2
376.163	395.6
376.544	403.51
376.925	403.05
377.305	383.62
377.686	382.26
378.066	384.3
378.447	397.86
378.827	394.24
379.208	405.31
379.588	416.61
379.968	411.19
380.349	410.96
380.729	398.31
381.109	418.2
381.489	412.09
381.87	409.38
382.25	418.65
382.63	429.04
383.01	410.29
383.39	446.44
383.77	423.62
384.15	424.07
384.53	444.86
384.91	465.43
385.29	467.01
385.67	428.36
386.049	454.35
386.429	460
386.809	450.06
387.189	460
387.568	468.14
387.948	459.55
388.328	479.89
388.707	463.62
389.087	491.64
389.466	487.12
389.846	493.9
390.225	497.97
390.605	488.25
390.984	497.06
391.363	520.34
391.743	544.07
392.122	528.47
392.501	523.73
392.881	544.52
393.26	535.03
393.639	541.58
394.018	560.79
394.397	562.6
394.776	538.19
395.155	546.55
395.534	543.62
395.913	562.37
396.292	583.16
396.671	585.42
397.05	596.27
397.429	581.81
397.808	577.74
398.186	598.53
398.565	605.76
398.944	628.13
399.323	624.74
399.701	640.34
400.08	637.17
400.458	653.44
400.837	654.8
401.215	654.57
401.594	670.17
401.972	676.95
402.351	673.1
402.729	680.34
403.107	712.65
403.486	711.29
403.864	725.53
404.242	746.55
404.62	758.07
404.999	770.5
405.377	775.7
405.755	770.73
406.133	802.82
406.511	825.87
406.889	855.7
407.267	868.58
407.645	857.05
408.023	913.32
408.401	898.63
408.779	952.64
409.156	952.42
409.534	985.64
409.912	975.02
410.29	1013.89
410.667	1041.91
411.045	1066.09
411.422	1098.86
411.8	1123.49
412.178	1143.15
412.555	1162.13
412.933	1189.02
413.31	1245.97
413.687	1255.46
414.065	1255.69
414.442	1286.19
414.819	1336.14
415.197	1347.44
415.574	1377.04
415.951	1394.89
416.328	1419.07
416.705	1473.31
417.082	1484.61
417.46	1530.71
417.837	1564.15
418.214	1564.15
418.591	1595.11
418.967	1603.47
419.344	1621.1
419.721	1664.72
420.098	1720.99
420.475	1716.47
420.852	1754.21
421.228	1751.49
421.605	1801.89
421.982	1845.28
422.358	1874.2
422.735	1898.83
423.111	1878.27
423.488	1947.19
423.864	1964.82
424.241	1988.78
424.617	2022.9
424.994	2020.86
425.37	2054.54
425.746	2081.88
426.123	2118.49
426.499	2091.37
426.875	2143.57
427.251	2204.81
427.627	2263.12
428.003	2240.52
428.379	2316.9
428.756	2317.35
429.132	2367.97
429.507	2426.05
429.883	2432.61
430.259	2517.35
430.635	2486.16
431.011	2521.87
431.387	2595.31
431.763	2610
432.138	2702.43
432.514	2702.2
432.89	2732.03
433.265	2835.31
433.641	2840.5
434.016	2897.45
434.392	2912.14
434.767	2994.62
435.143	2939.03
435.518	3011.12
435.894	3050.44
436.269	3102.64
436.644	3148.07
437.02	3211.79
437.395	3177.9
437.77	3224.68
438.145	3271.91
438.52	3292.47
438.895	3380.83
439.271	3385.12
439.646	3439.36
440.021	3448.17
440.395	3500.37
440.77	3463.76
441.145	3498.79
441.52	3560.26
441.895	3607.26
442.27	3633.03
442.645	3613.14
443.019	3680.48
443.394	3706.24
443.769	3725.23
444.143	3712.35
444.518	3778.56
444.892	3772.23
445.267	3824.66
445.641	3899.91
446.016	3862.4
446.39	3882.96
446.764	3915.73
447.139	3919.35
447.513	3936.07
447.887	3986.01
448.262	3967.48
448.636	4019
449.01	4063.75
449.384	4109.4
449.758	4130.41
450.132	4210.41
450.506	4231.43
450.88	4240.02
451.254	4244.08
451.628	4286.57
452.002	4316.4
452.376	4375.83
452.75	4377.41
453.123	4438.88
453.497	4529.05
453.871	4558.43
454.244	4671.42
454.618	4690.17
454.992	4739.89
455.365	4781.92
455.739	4850.85
456.112	4955.7
456.486	4947.12
456.859	4967.91
457.232	5059.88
457.606	5127.22
457.979	5187.56
458.352	5277.05
458.725	5309.82
459.099	5310.5
459.472	5503.03
459.845	5542.58
460.218	5536.25
460.591	5647.21
460.964	5659.19
461.337	5798.39
461.71	5880.2
462.083	5955
462.456	5922.91
462.829	5948.67
463.201	6131.27
463.574	6111.83
463.947	6225.27
464.32	6346.4
464.692	6396.57
465.065	6465.04
465.438	6510.46
465.81	6663.23
466.183	6732.15
466.555	6867.97
466.928	6886.27
467.3	6858.25
467.672	7072.94
468.045	7141.18
468.417	7234.06
468.789	7274.51
469.161	7407.84
469.534	7495.52
469.906	7677.44
470.278	7738.91
470.65	7855.06
471.022	7981.16
471.394	8100.25
471.766	8190.65
472.138	8280.59
472.51	8458.66
472.882	8583.86
473.253	8661.82
473.625	8841.93
473.997	9004.64
474.369	9092.77
474.74	9147.91
475.112	9332.09
475.484	9513.1
475.855	9600.55
476.227	9714.22
476.598	9966.19
476.97	10082.12
477.341	10277.82
477.713	10429.46
478.084	10499.06
478.455	10823.12
478.827	10900.41
479.198	11118.93
479.569	11198.7
479.94	11499.26
480.311	11645.7
480.682	11880.49
481.053	12145.34
481.424	12323.19
481.795	12364.55
482.166	12538.55
482.537	12785.55
482.908	12982.38
483.279	13229.38
483.65	13368.36
484.021	13653.33
484.391	13813.32
484.762	13955.24
485.133	14051.06
485.503	14222.58
485.874	14562.91
486.244	14709.57
486.615	14953.63
486.985	15104.36
487.356	15379.38
487.726	15489.44
488.097	15851.01
488.467	15878.35
488.837	16240.38
489.207	16430.66
489.578	16569.63
489.948	16755.84
490.318	16990.87
490.688	17112.45
491.058	17365.09
491.428	17522.6
491.798	17642.38
492.168	18044.17
492.538	18107.67
492.908	18388.57
493.278	18604.84
493.648	18663.82
494.017	18849.57
494.387	18900.87
494.757	19153.75
495.126	19284.59
495.496	19431.48
495.866	19545.15
496.235	19833.28
496.605	19981.97
496.974	20137.22
497.344	20291.34
497.713	20342.87
498.082	20501.06
498.452	20690.88
498.821	20844.32
499.19	20795.96
499.559	21070.99
499.928	21197.99
500.298	21385.55
500.667	21571.31
501.036	21568.83
501.405	21720.46
501.774	21818.99
502.143	22088.59
502.512	22173.1
502.88	22291.52
503.249	22336.49
503.618	22664.84
503.987	22523.83
504.356	22771.51
504.724	22912.97
505.093	22905.74
505.462	23139.63
505.83	23359.29
506.199	23518.6
506.567	23770.35
506.936	23727.19
507.304	24051.7
507.672	24200.17
508.041	24196.78
508.409	24408.3
508.777	24637.67
509.145	24838.57
509.514	24832.92
509.882	25102.29
510.25	25020.49
510.618	25273.36
510.986	25429.29
511.354	25565.33
511.722	25910.86
512.09	25996.28
512.458	25985.66
512.826	26275.14
513.193	26450.05
513.561	26565.08
513.929	26877.39
514.297	26959.42
514.664	27193.31
515.032	27281.67
515.4	27509.69
515.767	27606.63
516.135	27855.67
516.502	27686.18
516.869	28208.65
517.237	28311.7
517.604	28235.99
517.972	28664.23
518.339	28844.79
518.706	28774.74
519.073	29033.71
519.44	29279.58
519.808	29546.24
520.175	29407.04
520.542	29786.01
520.909	30027.36
521.276	29991.2
521.643	30433.68
522.009	30630.06
522.376	30864.4
522.743	30942.14
523.11	31275.46
523.477	31644.27
523.843	31620.31
524.21	32059.4
524.577	32305.04
524.943	32270.01
525.31	32439.05
525.676	32875.42
526.043	32989.09
526.409	33260.95
526.776	33523.77
527.142	33606.25
527.508	33753.82
527.874	34043.07
528.241	34126.69
528.607	34357.42
528.973	34629.05
529.339	34705.88
529.705	35119.66
530.071	35221.57
530.437	35280.56
530.803	35581.56
531.169	35836.47
531.535	35800.99
531.901	35840.31
532.267	36179.29
532.632	36455.21
532.998	36478.04
533.364	36613.85
533.73	36796.9
534.095	37002.09
534.461	37251.8
534.826	37447.05
535.192	37535.64
535.557	37737.21
535.923	37680.94
536.288	37975.4
536.653	38179.69
537.019	38050.88
537.384	38380.36
537.749	38522.73
538.114	38681.6
538.479	38623.07
538.845	38941.02
539.21	38893.34
539.575	39093.11
539.94	39180.34
540.305	39488.13
540.67	39347.57
541.034	39507.34
541.399	39711.4
541.764	39885.63
542.129	40017.83
542.494	40153.42
542.858	40307.09
543.223	40477.03
543.587	40618.72
543.952	40606.74
544.316	40746.63
544.681	40770.13
545.045	41038.37
545.41	41199.5
545.774	41383.45
546.138	41475.42
546.503	41535.76
546.867	41497.57
547.231	41933.71
547.595	42026.59
547.959	42160.15
548.324	42206.93
548.688	42357.88
549.052	42359.92
549.416	42579.8
549.779	42683.52
550.143	42792.45
550.507	43086.45
550.871	43200.57
551.235	43039.45
551.599	43451.87
551.962	43609.83
552.326	43621.8
552.689	43921.68
553.053	43719.2
553.417	43923.49
553.78	44509.24
554.143	44317.61
554.507	44599.18
554.87	44573.64
555.234	44950.36
555.597	44777.71
555.96	44932.28
556.323	45192.39
556.686	45182.22
557.05	45494.98
557.413	45455.2
557.776	45712.6
558.139	45966.38
558.502	45918.47
558.865	45982.19
559.228	46339.47
559.59	46468.28
559.953	46531.56
560.316	47033.24
560.679	46908.95
561.041	47176.29
561.404	47418.32
561.767	47625.54
562.129	47371.99
562.492	47831.19
562.854	47914.12
563.217	47862.82
563.579	48041.8
563.941	48416.71
564.304	48477.27
564.666	48752.74
565.028	48804.72
565.39	48858.28
565.753	49228.89
566.115	49169.46
566.477	49401.31
566.839	49495.55
567.201	49789.33
567.563	49790.68
567.925	50033.84
568.287	49919.72
568.648	50120.39
569.01	50270.67
569.372	50482.87
569.734	50528.74
570.095	50720.6
570.457	50905.68
570.819	50954.04
571.18	50933.03
571.542	51185.22
571.903	51277.42
572.265	51363.52
572.626	51444.65
572.987	51586.79
573.349	51709.05
573.71	51815.94
574.071	51815.26
574.432	52101.13
574.794	52217.51
575.155	52103.84
575.516	52191.52
575.877	52325.98
576.238	52342.48
576.599	52522.36
576.96	52548.35
577.32	52546.99
577.681	52730.27
578.042	52818.4
578.403	52770.49
578.763	52899.53
579.124	52934.78
579.485	53076.02
579.845	53111.27
580.206	53083.25
580.566	53104.27
580.927	53104.95
581.287	53299.74
581.648	53195.34
582.008	53340.87
582.368	53386.97
582.728	53436.24
583.089	53451.15
583.449	53418.38
583.809	53423.81
584.169	53592.39
584.529	53473.52
584.889	53696.34
585.249	53584.93
585.609	53390.81
585.969	53677.59
586.329	53607.53
586.688	53664.48
587.048	53737.7
587.408	53697.25
587.768	53659.51
588.127	53686.17
588.487	53736.79
588.846	53844.14
589.206	53690.47
589.565	53803.68
589.925	53977.01
590.284	53811.59
590.643	53899.73
591.003	53892.5
591.362	54014.3
591.721	53959.61
592.08	53973.17
592.44	54104.47
592.799	54112.6
593.158	53979.05
593.517	54061.98
593.876	54057.24
594.235	54083.68
594.593	54012.04
594.952	54089.1
595.311	54083.9
595.67	54196.22
596.029	54300.62
596.387	54331.13
596.746	54343.78
597.104	54260.62
597.463	54258.59
597.822	54360.28
598.18	54277.12
598.538	54302.65
598.897	54476.43
599.255	54254.29
599.613	54593.72
599.972	54442.31
600.33	54461.29
600.688	54436.44
601.046	54570.9
601.404	54625.58
601.762	54521.86
602.12	54723.43
602.478	54729.31
602.836	54721.17
603.194	54597.34
603.552	54694.06
603.91	54549.2
604.268	54782.42
604.625	54683.66
604.983	54805.69
605.341	54761.85
605.698	54867.16
606.056	54843.2
606.413	54836.88
606.771	54982.18
607.128	54982.86
607.485	54880.04
607.843	54869.87
608.2	55034.61
608.557	55171.11
608.914	55016.31
609.272	55178.56
609.629	55187.38
609.986	55281.61
610.343	55094.05
610.7	55341.04
611.057	55246.13
611.414	55213.14
611.771	55292.46
612.127	55370.65
612.484	55399.8
612.841	55390.99
613.198	55289.29
613.554	55395.28
613.911	55483.41
614.267	55443.19
614.624	55446.13
614.98	55515.5
615.337	55649.06
615.693	55539.68
616.05	55576.29
616.406	55698.1
616.762	55583.3
617.118	55584.43
617.475	55651.09
617.831	55609.51
618.187	55729.74
618.543	55682.73
618.899	55846.12
619.255	55801.82
619.611	55769.73
619.967	55893.12
620.323	55856.29
620.678	55789.39
621.034	55796.63
621.39	55823.29
621.746	55711.43
622.101	56036.85
622.457	55776.97
622.812	55904.65
623.168	55945.55
623.523	55993.23
623.879	55901.71
624.234	55784.2
624.589	55838.43
624.945	55955.27
625.3	55951.2
625.655	55931.76
626.01	55954.59
626.365	56039.33
626.72	55953.23
627.075	55916.17
627.43	55842.95
627.785	55888.38
628.14	55985.77
628.495	55953.68
628.85	55869.62
629.205	55818.32
629.559	55993.91
629.914	55839.34
630.269	55956.4
630.623	55881.37
630.978	55821.03
631.332	55913.91
631.687	55986.23
632.041	55838.21
632.396	55861.48
632.75	55761.6
633.104	55889.51
633.459	55695.61
633.813	55720.02
634.167	55741.94
634.521	55667.59
634.875	55740.13
635.229	55787.36
635.583	55583.07
635.937	55634.37
636.291	55564.77
636.645	55649.06
636.999	55541.49
637.352	55695.39
637.706	55474.37
638.06	55666.69
638.413	55506.01
638.767	55429.4
639.121	55569.74
639.474	55378.56
639.828	55448.16
640.181	55457.2
640.534	55487.93
640.888	55341.27
641.241	55345.56
641.594	55373.13
641.947	55413.59
642.301	55364.55
642.654	55446.58
643.007	55328.16
643.36	55341.04
643.713	55318.45
644.066	55343.53
644.419	55264.21
644.771	54982.41
645.124	54722.76
645.477	54723.89
645.83	54642.31
646.182	54473.72
646.535	54395.31
646.888	54544
647.24	54389.66
647.593	54523.21
647.945	54433.95
648.298	54320.96
648.65	54338.81
649.002	54159.61
649.355	54361.18
649.707	54376.55
650.059	54446.61
650.411	54731.12
650.763	54746.26
651.115	55018.34
651.467	54921.85
651.819	54897.67
652.171	54873.71
652.523	54807.95
652.875	54929.08
653.227	54778.12
653.578	54963.88
653.93	54950.09
654.282	54753.94
654.633	54683.66
654.985	54761.17
655.337	54765.24
655.688	54739.7
656.039	54896.76
656.391	54547.39
656.742	54604.34
657.094	54726.82
657.445	54775.86
657.796	54646.37
658.147	54627.62
658.498	54514.85
658.849	54595.75
659.2	54674.4
659.551	54578.58
659.902	54635.98
660.253	54537
660.604	54614.96
660.955	54481.18
661.306	54576.32
661.656	54535.87
662.007	54487.51
662.358	54494.06
662.708	54560.95
663.059	54516.66
663.409	54364.35
663.76	54527.51
664.11	54471.46
664.461	54468.53
664.811	54482.76
665.161	54353.27
665.511	54348.08
665.862	54370.45
666.212	54499.71
666.562	54498.13
666.912	54402.99
667.262	54372.48
667.612	54367.51
667.962	54348.08
668.312	54266.5
668.662	54435.08
669.011	54408.19
669.361	54300.62
669.711	54172.71
670.06	54236.89
670.41	54186.05
670.76	54162.54
671.109	54245.03
671.459	54195.31
671.808	54092.26
672.157	54120.96
672.507	53958.48
672.856	53951.93
673.205	54103.79
673.554	54059.5
673.904	53953.96
674.253	54137.01
674.602	54023.11
674.951	53537.93
675.3	53350.59
675.649	53899.95
675.998	53772.05
676.346	53823.57
676.695	53849.56
677.044	53767.53
677.393	53710.13
677.741	53746.51
678.09	53738.15
678.438	53620.19
678.787	53694.53
679.135	53635.1
679.484	53483.69
679.832	53546.52
680.181	53369.57
680.529	53475.11
680.877	53361.44
681.225	53248.22
681.573	53419.06
681.922	53280.76
682.27	53179.97
682.618	53193.53
682.966	52972.75
683.314	53114.89
683.661	52963.71
684.009	52871.73
684.357	52781.79
684.705	52742.7
685.053	52760.77
685.4	52636.94
685.748	52511.74
686.095	52585.41
686.443	52399.65
686.79	52386.55
687.138	52356.26
687.485	52387.68
687.832	52190.17
688.18	52232.88
688.527	52124.63
688.874	51970.51
689.221	51929.61
689.568	51834.47
689.915	51833.79
690.262	51727.58
690.609	51594.93
690.956	51494.82
691.303	51545.21
691.65	51285.78
691.997	51332.56
692.344	51138.22
692.69	51112.23
693.037	51079.24
693.383	50845.8
693.73	50988.62
694.077	50685.35
694.423	50820.03
694.769	50579.59
695.116	50517.89
695.462	50502.08
695.808	50294.4
696.155	50392.02
696.501	50133.95
696.847	50055.31
697.193	49885.82
697.539	49982.32
697.885	49766.95
698.231	49697.35
698.577	49659.39
698.923	49543.01
699.269	49338.04
699.614	49127.87
699.96	49162.45
700.306	49130.59
700.651	49002.91
700.997	48901.89
701.342	48803.14
701.688	48857.83
702.033	48620.32
702.379	48550.26
702.724	48536.93
703.069	48552.3
703.415	48065.76
703.76	48202.48
704.105	48230.95
704.45	47955.48
704.795	47873.67
705.14	47726.1
705.485	47628.25
705.83	47583.06
706.175	47640.68
706.52	47491.53
706.865	47230.98
707.209	47286.12
707.554	47135.16
707.899	47206.12
708.243	46971.77
708.588	47073.92
708.932	46729.52
709.277	46685.91
709.621	46791.21
709.966	46296.08
710.31	46535.85
710.654	46193.94
710.998	46308.51
711.342	46241.17
711.687	46182.87
712.031	46024.23
712.375	45901.07
712.719	46021.52
713.063	45915.3
713.407	45933.83
713.75	45725.03
714.094	45716.21
714.438	45531.59
714.782	45433.28
715.125	45304.92
715.469	45434.86
715.812	45040.98
716.156	45055.44
716.499	45063.12
716.843	45050.92
717.186	44792.4
717.53	45007.76
717.873	45016.34
718.216	44789.23
718.559	44634.21
718.902	44341.11
719.246	44468.79
719.589	44272.41
719.932	44189.93
720.275	44224.05
720.617	44106.54
720.96	44143.37
721.303	44031.06
721.646	44027.22
721.989	43708.36
722.331	43816.6
722.674	43781.57
723.016	43863.83
723.359	43737.73
723.701	43636.49
724.044	43384.52
724.386	43293.9
724.729	43556.5
725.071	43339.78
725.413	43279.67
725.755	43198.99
726.097	43046
726.439	42964.42
726.782	42930.07
727.124	43100.24
727.465	42883.75
727.807	42790.19
728.149	42744.77
728.491	42684.2
728.833	42666.58
729.175	42539.35
729.516	42415.51
729.858	42452.57
730.199	42453.47
730.541	42221.84
730.882	42340.48
731.224	42460.03
731.565	42102.75
731.906	42254.38
732.248	42135.97
732.589	42096.65
732.93	41691.01
733.271	41738.69
733.612	42038.34
733.953	41881.29
734.294	41509.09
734.635	41572.82
734.976	41745.7
735.317	41452.37
735.658	41484.91
735.999	41394.52
736.339	41370.56
736.68	41338.02
737.021	41325.37
737.361	40958.82
737.702	41345.03
738.042	41232.26
738.383	41004.25
738.723	41061.42
739.063	40959.73
739.404	41021.65
739.744	40944.14
740.084	40830.92
740.424	40766.29
740.764	40630.92
741.104	40795.44
741.444	40528.78
741.784	40514.32
742.124	40641.77
742.464	40450.14
742.804	40363.59
743.143	40359.97
743.483	40397.26
743.823	40114.78
744.162	40195.23
744.502	40201.56
744.841	39986.42
745.181	40138.96
745.52	40004.05
745.86	39940.55
746.199	39842.02
746.538	39832.75
746.877	39821.68
747.216	39728.57
747.556	39636.15
747.895	39698.07
748.234	39507.79
748.573	39340.79
748.911	39394.12
749.25	39454.46
749.589	39191.41
749.928	39173.33
750.267	39254.91
750.605	39082.72
750.944	39099.21
751.283	38823.29
751.621	38995.49
751.96	38703.74
752.298	38611.54
752.636	38573.8
752.975	38554.14
753.313	38426.46
753.651	38699.67
753.989	38262.62
754.327	38264.88
754.666	38070.99
755.004	38307.37
755.342	38082.52
755.679	38099.24
756.017	37798.23
756.355	37951.45
756.693	37888.4
757.031	37817.66
757.368	37530.21
757.706	37541.96
758.044	37508.52
758.381	37543.55
758.719	37099.26
759.056	37252.48
759.394	37031.92
759.731	36766.84
760.068	36909.44
760.405	36670.35
760.743	36562.1
761.08	36534.99
761.417	36431.71
761.754	36390.81
762.091	36319.62
762.428	36281.21
762.765	36014.77
763.102	35991.27
763.438	35932.97
763.775	35739.3
764.112	35862.46
764.449	35730.71
764.785	35611.85
765.122	35329.59
765.458	35230.84
765.795	35151.07
766.131	35256.83
766.467	34984.29
766.804	34922.6
767.14	34629.95
767.476	34753.11
767.812	34555.15
768.148	34513.12
768.485	34285.1
768.821	34212.11
769.157	34199.91
769.492	34090.76
769.828	33986.13
770.164	33854.6
770.5	33617.1
770.836	33583.65
771.171	33402.86
771.507	33326.26
771.842	33026.38
772.178	33099.82
772.513	33105.25
772.849	32932.14
773.184	32707.29
773.519	32652.83
773.855	32531.93
774.19	32425.72
774.525	32369.9
774.86	32398.15
775.195	32331.93
775.53	32125.61
775.865	31857.59
776.2	31644.04
776.535	31513.42
776.87	31599.75
777.205	31458.73
777.539	31347.55
777.874	31357.49
778.209	31044.51
778.543	31034.11
778.878	30773.33
779.212	30895.59
779.547	30683.39
779.881	30798.87
780.215	30471.87
780.55	30465.99
780.884	30344.64
781.218	30193.46
781.552	30101.48
781.886	30117.75
782.22	29826.24
782.554	29776.75
782.888	29546.24
783.222	29346.25
783.556	29232.8
783.889	29250.66
784.223	29078.91
784.557	29039.82
784.89	28901.06
785.224	28926.37
785.557	28678.02
785.891	28589.43
786.224	28542.43
786.558	28494.97
786.891	28323.45
787.224	28139.73
787.557	28170.01
787.891	28150.35
788.224	27959.17
788.557	27986.28
788.89	27859.51
789.223	27842.56
789.556	27622.23
789.888	27600.53
790.221	27440.54
790.554	27209.81
790.887	27360.99
791.219	27123.03
791.552	26944.28
791.884	26949.02
792.217	26896.37
792.549	26714.68
792.882	26558.3
793.214	26447.57
793.546	26510.84
793.879	26470.39
794.211	26213.9
794.543	26344.75
794.875	26295.48
795.207	26287.8
795.539	26013.68
795.871	25958.99
796.203	25813.46
796.535	25732.78
796.867	25734.82
797.198	25550.19
797.53	25629.06
797.862	25346.58
798.193	25512.68
798.525	25310.42
798.856	25304.55
799.188	24956.99
799.519	24946.14
799.85	24838.34
800.182	24864.78
800.513	24774.16
800.844	24641.29
801.175	24634.28
801.506	24618.24
801.837	24495.53
802.168	24416.66
802.499	24291.69
802.83	24173.73
803.161	24266.38
803.491	24152.03
803.822	24154.29
804.153	23935.77
804.483	23826.62
804.814	23703.68
805.145	23752.72
805.475	23679.96
805.805	23589.11
806.136	23579.62
806.466	23514.31
806.796	23430.47
807.126	23319.06
807.457	23289.91
807.787	23178.95
808.117	23241.1
808.447	23129.46
808.777	23184.15
809.107	22996.81
809.436	22990.94
809.766	22965.17
810.096	22785.97
810.426	22685.41
810.755	22776.03
811.085	22663.49
811.414	22555.69
811.744	22445.64
812.073	22431.63
812.403	22351.63
812.732	22302.59
813.061	22320.67
813.39	22155.48
813.719	22038.64
814.049	22237.28
814.378	22120.9
814.707	22044.97
815.036	21902.6
815.365	21853.79
815.693	21677.3
816.022	21743.06
816.351	21525.21
816.68	21498.54
817.008	21640.01
817.337	21442.05
817.665	21388.94
817.994	21376.97
818.322	21347.81
818.651	21223.07
818.979	21111.44
819.307	21239.79
819.636	21128.84
819.964	21073.7
820.292	21110.76
820.62	21094.26
820.948	21035.51
821.276	21056.07
821.604	20926.36
821.932	20990.76
822.259	21040.7
822.587	20954.15
822.915	20925.45
823.243	21056.3
823.57	20870.09
823.898	20963.42
824.225	20764.33
824.553	20797.32
824.88	20962.97
825.207	20940.59
825.535	20881.16
825.862	20795.96
826.189	20913.25
826.516	20936.53
826.843	20949.41
827.17	20823.76
827.497	20930.42
827.824	20931.78
828.151	20860.37
828.478	20767.94
828.805	20910.09
829.131	20848.39
829.458	20780.6
829.785	20771.78
830.111	20721.16
830.438	20944.89
830.764	20817.21
831.09	20842.52
831.417	20678
831.743	20689.75
832.069	20743.54
832.395	20654.5
832.722	20738.34
833.048	20579.25
833.374	20640.26
833.7	20527.27
834.026	20593.71
834.351	20549.19
834.677	20558.46
835.003	20608.85
835.329	20634.61
835.654	20510.55
835.98	20469.65
836.306	20403.43
836.631	20358.46
836.956	20363.89
837.282	20345.58
837.607	20222.65
837.932	20348.74
838.258	20287.28
838.583	20261.97
838.908	20081.41
839.233	20201.18
839.558	20028.53
839.883	20022.88
840.208	20002.54
840.533	19998.92
840.858	20033.05
841.182	19951.24
841.507	19931.13
841.832	19765.94
842.156	19771.58
842.481	19807.52
842.805	19732.94
843.13	19676.45
843.454	19628.76
843.778	19587.18
844.103	19518.71
844.427	19426.51
844.751	19379.28
845.075	19422.22
845.399	19259.28
845.723	19253.41
846.047	19349.9
846.371	19068.33
846.695	19066.07
847.019	18906.52
847.343	18875.79
847.666	18796.7
847.99	18730.26
848.313	18710.82
848.637	18635.57
848.96	18487.78
849.284	18475.8
849.607	18300.44
849.931	18287.1
850.254	18099.76
850.577	18135.92
850.9	18009.37
851.223	17969.82
851.546	17857.96
851.869	17733.45
852.192	17801.92
852.515	17618.65
852.838	17625.2
853.161	17562.6
853.483	17417.3
853.806	17436.73
854.129	17339.78
854.451	17308.15
854.774	17263.4
855.096	17146.34
855.419	17153.12
855.741	17130.75
856.063	17024.54
856.385	16984.54
856.708	16890.76
857.03	16854.83
857.352	16955.61
857.674	16678.56
857.996	16747.03
858.318	16626.36
858.64	16614.83
858.961	16598.79
859.283	16503.87
859.605	16368.74
859.926	16472.24
860.248	16388.62
860.57	16250.77
860.891	16406.93
861.212	16242.86
861.534	16194.28
861.855	16224.11
862.176	16161.96
862.498	16172.81
862.819	16220.49
863.14	16089.87
863.461	16088.29
863.782	16019.59
864.103	15999.48
864.424	15881.74
864.745	15984.57
865.065	15872.48
865.386	15815.53
865.707	15799.49
866.027	15906.6
866.348	15766.04
866.668	15812.37
866.989	15742.99
867.309	15639.94
867.63	15610.11
867.95	15644.69
868.27	15708.41
868.59	15536.89
868.91	15500.96
869.23	15439.27
869.55	15434.52
869.87	15476.78
870.19	15497.35
870.51	15464.13
870.83	15405.6
871.15	15326.28
871.469	15321.31
871.789	15391.59
872.109	15218.71
872.428	15150.69
872.748	15292.61
873.067	15174.64
873.386	15137.13
873.706	15195.43
874.025	15079.96
874.344	15073.63
874.663	15103.23
874.982	15071.14
875.301	15011.94
875.62	15002.22
875.939	14963.8
876.258	14929.23
876.577	14890.36
876.896	14822.56
877.214	14800.42
877.533	14791.38
877.852	14772.39
878.17	14848.78
878.489	14829.57
878.807	14794.31
879.125	14715.67
879.444	14699.18
879.762	14595.45
880.08	14623.25
880.398	14566.98
880.716	14587.31
881.034	14475.9
881.352	14532.4
881.67	14392.97
881.988	14498.05
882.306	14483.59
882.624	14403.59
882.941	14351.16
883.259	14304.38
883.577	14266.64
883.894	14133.31
884.212	14141.68
884.529	14160.66
884.846	14137.16
885.164	14168.34
885.481	14057.84
885.798	14088.57
886.115	13951.17
886.432	14053.77
886.75	13855.58
887.067	13925.41
887.383	13878.86
887.7	13870.04
888.017	13770.61
888.334	13796.15
888.651	13785.53
888.967	13770.16
889.284	13677.96
889.6	13588.24
889.917	13511.64
890.233	13583.27
890.55	13531.97
890.866	13504.4
891.182	13451.52
891.498	13372.66
891.815	13344.63
892.131	13291.08
892.447	13237.52
892.763	13233.9
893.079	13295.82
893.395	13088.14
893.71	13106.9
894.026	13126.56
894.342	13004.08
894.657	12893.8
894.973	12929.73
895.289	12930.86
895.604	12869.39
895.92	12769.96
896.235	12725.89
896.55	12658.55
896.865	12746.46
897.181	12555.5
897.496	12598.44
897.811	12520.93
898.126	12595.28
898.441	12513.02
898.756	12433.92
899.071	12385.34
899.386	12391.67
899.7	12272.35
900.015	12195.29
900.33	12196.19
900.644	12187.38
900.959	12122.07
901.273	12069.41
901.588	12029.42
901.902	11970.21
902.216	11925.69
902.531	11900.83
902.845	11859.02
903.159	11779.48
903.473	11688.18
903.787	11680.27
904.101	11621.97
904.415	11630.56
904.729	11579.94
905.042	11508.53
905.356	11465.14
905.67	11394.86
905.984	11404.35
906.297	11404.35
906.611	11263.33
906.924	11295.42
907.237	11251.58
907.551	11259.04
907.864	11147.4
908.177	11106.5
908.491	11055.88
908.804	11066.5
909.117	10992.38
909.43	10940.18
909.743	10875.32
910.056	10774.31
910.368	10821.76
910.681	10720.07
910.994	10675.78
911.307	10637.36
911.619	10495.67
911.932	10577.93
912.244	10485.28
912.557	10424.03
912.869	10379.29
913.181	10410.02
913.494	10317.6
913.806	10294.09
914.118	10267.43
914.43	10212.51
914.742	10167.77
915.054	10144.95
915.366	10063.82
915.678	10069.47
915.99	9986.08
916.302	9936.14
916.613	9862.92
916.925	9841.45
917.236	9806.42
917.548	9774.11
917.859	9786.54
918.171	9623.83
918.482	9674.22
918.794	9598.74
919.105	9560.78
919.416	9497.05
919.727	9501.12
920.038	9456.38
920.349	9387.22
920.66	9339.32
920.971	9351.07
921.282	9330.28
921.593	9226.33
921.903	9194.01
922.214	9132.09
922.525	9103.84
922.835	9063.62
923.146	9020.23
923.456	8994.24
923.767	8960.8
924.077	8981.13
924.387	8924.41
924.697	8836.28
925.008	8831.99
925.318	8779.56
925.628	8749.05
925.938	8706.11
926.248	8644.42
926.558	8594.25
926.867	8579.34
927.177	8521.48
927.487	8483.52
927.796	8429.74
928.106	8420.24
928.416	8406.23
928.725	8383.86
929.034	8230.65
929.344	8288.72
929.653	8246.46
929.962	8218.89
930.271	8184.54
930.581	8100.48
930.89	8070.2
931.199	8020.48
931.508	8078.33
931.817	8010.76
932.125	8018.22
932.434	7936.64
932.743	7820.71
933.051	7814.16
933.36	7894.83
933.669	7742.52
933.977	7739.13
934.286	7780.71
934.594	7712.47
934.902	7585.92
935.21	7629.76
935.519	7545.47
935.827	7523.77
936.135	7504.56
936.443	7485.58
936.751	7421.4
937.059	7422.53
937.367	7357.22
937.674	7345.02
937.982	7339.6
938.29	7269.99
938.597	7265.7
938.905	7199.94
939.213	7164.01
939.52	7068.19
939.827	7118.81
940.135	7059.6
940.442	7028.19
940.749	7023.67
941.056	7015.31
941.363	6902.32
941.67	6931.02
941.977	6841.98
942.284	6863
942.591	6822.77
942.898	6795.43
943.205	6759.05
943.511	6720.63
943.818	6687.63
944.125	6636.34
944.431	6662.1
944.738	6623
945.044	6595.21
945.35	6519.5
945.657	6488.09
945.963	6507.3
946.269	6461.88
946.575	6487.87
946.881	6437.47
947.187	6375.33
947.493	6305.72
947.799	6311.37
948.105	6282.67
948.41	6245.39
948.716	6256.01
949.022	6193.41
949.327	6189.57
949.633	6135.11
949.938	6097.14
950.244	6128.78
950.549	6085.16
950.854	6080.65
951.16	6038.16
951.465	5976.47
951.77	5957.03
952.075	5880.88
952.38	5894.44
952.685	5872.29
952.99	5808.11
953.294	5783.7
953.599	5805.4
953.904	5750.26
954.209	5757.26
954.513	5714.33
954.818	5676.81
955.122	5651.73
955.426	5664.84
955.731	5623.71
956.035	5591.17
956.339	5580.77
956.643	5515.91
956.948	5500.32
957.252	5461.45
957.556	5487.21
957.86	5427.1
958.163	5387.33
958.467	5364.73
958.771	5347.33
959.075	5364.28
959.378	5319.54
959.682	5311.17
959.985	5301.68
960.289	5205.87
960.592	5215.36
960.896	5193.44
961.199	5207.45
961.502	5164.06
961.805	5119.77
962.108	5099.88
962.411	5091.29
962.714	5055.36
963.017	5029.6
963.32	5056.94
963.623	4982.59
963.926	4938.3
964.228	4993.22
964.531	4941.92
964.833	4909.38
965.136	4867.34
965.438	4863.95
965.741	4801.81
966.043	4796.84
966.345	4818.98
966.648	4754.13
966.95	4799.32
967.252	4711.87
967.554	4727.01
967.856	4696.73
968.158	4677.29
968.46	4640.91
968.761	4585.32
969.063	4564.98
969.365	4572.89
969.666	4620.8
969.968	4526.11
970.269	4524.3
970.571	4511.65
970.872	4510.74
971.174	4447.92
971.475	4428.03
971.776	4444.98
972.077	4382.61
972.378	4373.8
972.679	4378.32
972.98	4353.23
973.281	4308.49
973.582	4271.43
973.883	4265.78
974.183	4264.87
974.484	4249.05
974.785	4205.89
975.085	4252.44
975.386	4190.53
975.686	4189.17
975.986	4117.31
976.287	4118.21
976.587	4096.29
976.887	4043.18
977.187	4075.27
977.487	4087.25
977.787	4054.26
978.087	3994.15
978.387	4022.85
978.687	3964.99
978.987	3956.63
979.286	3964.09
979.586	3896.07
979.885	3922.96
980.185	3903.08
980.484	3865.56
980.784	3833.47
981.083	3805.45
981.382	3791.89
981.682	3833.02
981.981	3755.28
982.28	3764.1
982.579	3732.91
982.878	3741.95
983.177	3719.58
983.475	3682.29
983.774	3631.22
984.073	3662.4
984.372	3598.45
984.67	3609.75
984.969	3578.11
985.267	3587.6
985.566	3585.57
985.864	3556.19
986.162	3542.86
986.461	3507.61
986.759	3531.79
987.057	3487.72
987.355	3462.18
987.653	3467.15
987.951	3414.73
988.249	3410.21
988.547	3429.19
988.844	3371.56
989.142	3376.08
989.44	3344.9
989.737	3350.77
990.035	3295.86
990.332	3339.25
990.63	3279.81
990.927	3272.13
991.224	3285.24
991.521	3247.73
991.819	3233.04
992.116	3224.22
992.413	3217.9
992.71	3201.4
993.006	3140.61
993.303	3161.17
993.6	3116.43
993.897	3126.6
994.193	3113.27
994.49	3079.59
994.787	3046.83
995.083	3036.88
995.379	3033.49
995.676	3019.93
995.972	3008.18
996.268	2974.51
996.565	2969.31
996.861	2928.19
997.157	2929.77
997.453	2898.81
997.749	2891.58
998.044	2874.63
998.34	2894.29
998.636	2864.68
998.932	2819.04
999.227	2848.87
999.523	2816.78
999.818	2775.87
1000.114	2772.03
1000.409	2765.25
1000.704	2725.48
1001	2742.88
1001.295	2738.81
1001.59	2719.6
1001.885	2681.19
1002.18	2686.84
1002.475	2662.88
1002.77	2637.57
1003.065	2653.62
1003.359	2619.72
1003.654	2623.33
1003.949	2595.77
1004.243	2626.95
1004.538	2549.66
1004.832	2553.73
1005.127	2517.8
1005.421	2507.18
1005.715	2496.56
1006.009	2488.65
1006.304	2443.68
1006.598	2445.71
1006.892	2443
1007.186	2390.35
1007.48	2436.45
1007.773	2395.77
1008.067	2352.16
1008.361	2384.47
1008.655	2342.21
1008.948	2334.3
1009.242	2341.53
1009.535	2302.21
1009.829	2297.69
1010.122	2280.97
1010.415	2274.42
1010.708	2255.44
1011.001	2240.97
1011.295	2236.9
1011.588	2195.55
1011.881	2193.52
1012.173	2215.44
1012.466	2183.35
1012.759	2166.17
1013.052	2160.3
1013.344	2137.92
1013.637	2130.24
1013.93	2089.34
1014.222	2124.59
1014.514	2104.25
1014.807	2107.19
1015.099	2046.4
1015.391	2076.23
1015.683	2033.97
1015.976	2006.18
1016.268	2004.59
1016.56	1977.48
1016.851	1946.97
1017.143	1970.92
1017.435	1939.74
1017.727	1927.31
1018.018	1937.03
1018.31	1930.47
1018.602	1888.67
1018.893	1908.78
1019.185	1866.07
1019.476	1862.68
1019.767	1888.67
1020.058	1841.66
1020.35	1846.86
1020.641	1798.72
1020.932	1825.84
1021.223	1789.23
1021.514	1789.91
1021.804	1755.11
1022.095	1751.95
1022.386	1743.81
1022.677	1718.27
1022.967	1720.76
1023.258	1720.31
1023.548	1713.75
1023.839	1686.64
1024.129	1657.26
1024.419	1678.28
1024.709	1667.2
1025	1651.38
1025.29	1618.84
1025.58	1617.03
1025.87	1626.07
1026.16	1565.51
1026.449	1573.42
1026.739	1562.57
1027.029	1566.64
1027.319	1539.97
1027.608	1538.39
1027.898	1516.7
1028.187	1516.25
1028.477	1522.12
1028.766	1513.31
1029.055	1489.58
1029.344	1476.25
1029.634	1464.95
1029.923	1452.74
1030.212	1460.65
1030.501	1415.01
1030.79	1414.55
1031.078	1411.16
1031.367	1399.86
1031.656	1371.62
1031.945	1366.42
1032.233	1357.38
1032.522	1354.67
1032.81	1335.46
1033.099	1363.48
1033.387	1326.87
1033.675	1309.02
1033.963	1284.84
1034.251	1283.03
1034.54	1294.78
1034.828	1271.05
1035.116	1269.47
1035.403	1243.48
1035.691	1275.35
1035.979	1255.24
1036.267	1245.07
1036.554	1247.33
1036.842	1226.99
1037.129	1226.99
1037.417	1234.22
1037.704	1177.72
1037.992	1208.23
1038.279	1188.34
1038.566	1172.98
1038.853	1172.98
1039.14	1172.98
