Data from white_steel_sheet_FLMS001491_038.txt Node
Date: Tue Feb 07 10:57:46 GMT 2017
User: dcchb
Spectrometer: FLMS00149
Trigger mode: 0
Integration Time (sec): 2.000000E-2
Scans to average: 10
Electric dark correction enabled: true
Nonlinearity correction enabled: false
Boxcar width: 0
XAxis mode: Wavelengths
Number of Pixels in Spectrum: 2048
>>>>>Begin Spectral Data<<<<<
341.393	-18.74
341.776	-18.74
342.16	-18.74
342.543	-62.13
342.927	-77.72
343.31	-64.16
343.693	-64.62
344.077	-42.7
344.46	-72.53
344.843	-46.54
345.226	-52.64
345.61	-26.2
345.993	-14.67
346.376	9.96
346.759	-2.92
347.142	29.39
347.525	31.65
347.908	49.96
348.291	80.01
348.674	81.14
349.057	104.87
349.44	122.5
349.823	121.14
350.206	149.84
350.588	202.95
350.971	208.14
351.354	223.74
351.737	264.87
352.119	221.93
352.502	266.67
352.884	273
353.267	286.33
353.65	303.06
354.032	309.16
354.414	299.67
354.797	309.16
355.179	328.59
355.562	313.23
355.944	311.19
356.326	346.45
356.709	335.15
357.091	336.28
357.473	338.99
357.855	355.94
358.238	354.81
358.62	326.79
359.002	324.3
359.384	344.86
359.766	366.11
360.148	343.73
360.53	349.38
360.912	317.07
361.294	362.72
361.676	335.82
362.057	336.73
362.439	340.12
362.821	330.4
363.203	334.92
363.584	350.06
363.966	322.94
364.348	326.79
364.729	317.29
365.111	327.69
365.493	328.59
365.874	325.88
366.256	321.59
366.637	351.42
367.019	307.12
367.4	324.3
367.781	317.52
368.163	334.69
368.544	329.27
368.925	319.78
369.306	315.03
369.688	331.08
370.069	335.6
370.45	334.92
370.831	336.5
371.212	331.98
371.593	313
371.974	306.22
372.355	329.05
372.736	309.38
373.117	329.5
373.498	301.48
373.879	336.05
374.26	322.49
374.641	334.02
375.021	340.8
375.402	341.7
375.783	334.69
376.163	330.63
376.544	349.16
376.925	345.54
377.305	347.35
377.686	334.02
378.066	312.1
378.447	339.21
378.827	373.11
379.208	331.98
379.588	350.97
379.968	360.23
380.349	345.09
380.729	339.44
381.109	345.09
381.489	362.49
381.87	335.15
382.25	361.36
382.63	370.63
383.01	366.78
383.39	355.26
383.77	378.31
384.15	352.1
384.53	378.76
384.91	388.25
385.29	378.08
385.67	389.38
386.049	400
386.429	384.41
386.809	360.46
387.189	393.68
387.568	388.93
387.948	397.07
388.328	382.83
388.707	414.69
389.087	412.66
389.466	405.43
389.846	390.96
390.225	399.55
390.605	410.62
390.984	434.13
391.363	426.9
391.743	422.15
392.122	435.48
392.501	425.31
392.881	435.93
393.26	440.91
393.639	448.82
394.018	432.55
394.397	445.43
394.776	438.19
395.155	450.4
395.534	460.79
395.913	466.22
396.292	470.74
396.671	486.56
397.05	491.53
397.429	512.09
397.808	500.11
398.186	509.38
398.565	512.32
398.944	528.81
399.323	527.46
399.701	541.92
400.08	520.68
400.458	530.4
400.837	570.85
401.215	561.81
401.594	552.99
401.972	570.62
402.351	565.87
402.729	587.8
403.107	577.63
403.486	615.59
403.864	597.74
404.242	614.01
404.62	611.75
404.999	618.98
405.377	637.96
405.755	651.3
406.133	645.19
406.511	682.93
406.889	673.89
407.267	682.03
407.645	693.1
408.023	700.11
408.401	726.1
408.779	735.81
409.156	728.81
409.534	736.04
409.912	758.64
410.29	770.16
410.667	797.51
411.045	815.59
411.422	801.8
411.8	824.17
412.178	811.52
412.555	821.24
412.933	834.34
413.31	874.79
413.687	885.19
414.065	890.39
414.442	916.83
414.819	917.5
415.197	905.08
415.574	943.27
415.951	945.07
416.328	942.14
416.705	960.44
417.082	977.16
417.46	1003.83
417.837	979.65
418.214	999.76
418.591	1009.71
418.967	1001.34
419.344	1028.01
419.721	1059.65
420.098	1041.57
420.475	1067.78
420.852	1076.82
421.228	1055.35
421.605	1086.77
421.982	1113.21
422.358	1098.52
422.735	1131.96
423.111	1135.8
423.488	1138.97
423.864	1162.02
424.241	1189.36
424.617	1197.95
424.994	1214.67
425.37	1169.47
425.746	1229.36
426.123	1238.85
426.499	1239.08
426.875	1262.58
427.251	1303.26
427.627	1325.63
428.003	1311.17
428.379	1353.42
428.756	1340.77
429.132	1356.14
429.507	1395.68
429.883	1419.41
430.259	1412.86
430.635	1439.52
431.011	1438.85
431.387	1488.11
431.763	1525.4
432.138	1500.54
432.514	1538.5
432.89	1561.1
433.265	1575.57
433.641	1621.44
434.016	1623.02
434.392	1642
434.767	1665.73
435.143	1667.77
435.518	1697.14
435.894	1724.26
436.269	1707.09
436.644	1787.31
437.02	1755
437.395	1786.63
437.77	1820.53
438.145	1840.19
438.52	1877.93
438.895	1881.32
439.271	1901.66
439.646	1916.8
440.021	1930.13
440.395	1907.31
440.77	1933.52
441.145	1973.97
441.52	2019.17
441.895	1975.56
442.27	2031.83
442.645	2051.26
443.019	2057.14
443.394	2033.18
443.769	2072.95
444.143	2087.64
444.518	2119.51
444.892	2118.38
445.267	2129.45
445.641	2163.35
446.016	2154.99
446.39	2178.49
446.764	2185.95
447.139	2205.61
447.513	2270.91
447.887	2254.64
448.262	2266.4
448.636	2235.89
449.01	2325.6
449.384	2330.12
449.758	2361.53
450.132	2386.62
450.506	2387.52
450.88	2410.57
451.254	2398.14
451.628	2442.21
452.002	2481.53
452.376	2512.94
452.75	2527.18
453.123	2564.92
453.497	2580.74
453.871	2575.54
454.244	2657.8
454.618	2639.04
454.992	2715.2
455.365	2710.23
455.739	2766.95
456.112	2816.44
456.486	2813.05
456.859	2844.23
457.232	2922.65
457.606	2894.63
457.979	2964.68
458.352	3000.39
458.725	3064.11
459.099	3074.74
459.472	3096.88
459.845	3149.54
460.218	3185.24
460.591	3201.96
460.964	3219.14
461.337	3258.69
461.71	3353.82
462.083	3383.65
462.456	3440.83
462.829	3425.69
463.201	3493.93
463.574	3502.52
463.947	3513.37
464.32	3610.09
464.692	3608.05
465.065	3639.47
465.438	3723.08
465.81	3732.8
466.183	3800.59
466.555	3883.53
466.928	3897.54
467.3	3901.83
467.672	3976.41
468.045	4104.09
468.417	4078.1
468.789	4122.84
469.161	4171.88
469.534	4230.86
469.906	4319.67
470.278	4318.77
470.65	4424.98
471.022	4489.61
471.394	4570.52
471.766	4628.14
472.138	4624.75
472.51	4705.65
472.882	4854.12
473.253	4839.43
473.625	4951.97
473.997	5038.75
474.369	5074.23
474.74	5142.7
475.112	5226.09
475.484	5299.08
475.855	5361.23
476.227	5463.6
476.598	5561.22
476.97	5676.93
477.341	5781.78
477.713	5878.96
478.084	5918.5
478.455	6075.11
478.827	6113.3
479.198	6313.75
479.569	6284.37
479.94	6476.23
480.311	6518.49
480.682	6631.93
481.053	6801.42
481.424	6971.81
481.795	7010.23
482.166	7105.82
482.537	7223.33
482.908	7357.33
483.279	7457.45
483.65	7523.88
484.021	7678.91
484.391	7767.95
484.762	7870.32
485.133	7994.38
485.503	8035.74
485.874	8231.89
486.244	8275.95
486.615	8478.21
486.985	8586.91
487.356	8778.54
487.726	8817.64
488.097	8901.7
488.467	8945.54
488.837	9195.03
489.207	9301.01
489.578	9477.05
489.948	9501.91
490.318	9677.95
490.688	9730.83
491.058	9877.49
491.428	9921.79
491.798	10100.31
492.168	10361.32
492.538	10360.19
492.908	10468.44
493.278	10650.81
493.648	10590.02
494.017	10798.6
494.387	10964.47
494.757	10969.44
495.126	11123.79
495.496	11116.78
495.866	11310.68
496.235	11382.31
496.605	11501.18
496.974	11598.13
497.344	11686.94
497.713	11728.75
498.082	11853.94
498.452	11952.47
498.821	12036.31
499.19	12072.24
499.559	12194.5
499.928	12279.92
500.298	12412.8
500.667	12509.29
501.036	12552.9
501.405	12661.83
501.774	12709.28
502.143	12764.88
502.512	12871.77
502.88	12952.89
503.249	13033.8
503.618	13141.14
503.987	13289.38
504.356	13288.03
504.724	13336.61
505.093	13507.23
505.462	13532.99
505.83	13634.01
506.199	13803.27
506.567	13903.38
506.936	13981.57
507.304	14175.69
507.672	14180.43
508.041	14250.71
508.409	14474.21
508.777	14539.74
509.145	14571.16
509.514	14685.96
509.882	14834.88
510.25	14868.1
510.618	15001.2
510.986	15062.44
511.354	15277.13
511.722	15385.6
512.09	15492.04
512.458	15610.9
512.826	15615.87
513.193	15762.09
513.561	15814.51
513.929	16005.69
514.297	16126.37
514.664	16275.29
515.032	16379.47
515.4	16440.49
515.767	16557.09
516.135	16614.27
516.502	16639.12
516.869	16955.27
517.237	16989.17
517.604	17016.52
517.972	17308.26
518.339	17337.19
518.706	17414.7
519.073	17584.18
519.44	17658.08
519.808	17782.15
520.175	17856.27
520.542	18147.79
520.909	18320.44
521.276	18236.37
521.643	18494.9
522.009	18594.33
522.376	18812.85
522.743	18899.86
523.11	19105.73
523.477	19246.29
523.843	19430.92
524.21	19557.47
524.577	19713.85
524.943	19809.44
525.31	19907.74
525.676	20129.43
526.043	20283.1
526.409	20362.19
526.776	20719.7
527.142	20709.98
527.508	20829.97
527.874	20973.7
528.241	21126.92
528.607	21153.81
528.973	21329.4
529.339	21383.63
529.705	21654.81
530.071	21798.09
530.437	21900.91
530.803	22066.1
531.169	22236.27
531.535	22186.78
531.901	22266.77
532.267	22456.37
532.632	22667.44
532.998	22664.28
533.364	22763.03
533.73	22984.27
534.095	23097.03
534.461	23104.49
534.826	23356.91
535.192	23445.73
535.557	23544.48
535.923	23591.03
536.288	23637.36
536.653	23903.11
537.019	23850.46
537.384	23955.77
537.749	24013.85
538.114	24062.43
538.479	24116.44
538.845	24340.84
539.21	24295.42
539.575	24464
539.94	24498.13
540.305	24742.64
540.67	24774.96
541.034	24885.24
541.399	24848.63
541.764	25049.07
542.129	25207.94
542.494	25089.98
542.858	25291.1
543.223	25282.06
543.587	25572.68
543.952	25584.2
544.316	25647.93
544.681	25619.68
545.045	25758.66
545.41	25875.49
545.774	25945.77
546.138	25943.51
546.503	26094.7
546.867	26176.05
547.231	26358.64
547.595	26356.61
547.959	26499.43
548.324	26510.05
548.688	26701.46
549.052	26799.31
549.416	26780.78
549.779	26858.06
550.143	26913.43
550.507	27202.24
550.871	27221.45
551.235	27302.12
551.599	27369.46
551.962	27518.84
552.326	27552.28
552.689	27709.79
553.053	27655.56
553.417	27712.73
553.78	28158.37
554.143	28110.69
554.507	28141.87
554.87	28280.85
555.234	28482.88
555.597	28395.65
555.96	28586.83
556.323	28682.42
556.686	28698.24
557.05	28932.59
557.413	28990.21
557.776	29015.75
558.139	29359.24
558.502	29334.38
558.865	29357.66
559.228	29494.61
559.59	29645.56
559.953	29793.81
560.316	30038.55
560.679	30094.36
561.041	30304.75
561.404	30412.1
561.767	30640.11
562.129	30568.02
562.492	30889.15
562.854	30930.95
563.217	30908.58
563.579	31153.09
563.941	31325.07
564.304	31353.77
564.666	31633.98
565.028	31664.49
565.39	31636.47
565.753	31858.61
566.115	32051.37
566.477	32136.57
566.839	32166.85
567.201	32409.11
567.563	32459.73
567.925	32663.34
568.287	32748.08
568.648	32727.97
569.01	33028.75
569.372	33225.81
569.734	33002.99
570.095	33276.43
570.457	33330.21
570.819	33505.12
571.18	33438.23
571.542	33598.9
571.903	33730.88
572.265	33898.56
572.626	33768.84
572.987	33934.26
573.349	34117.99
573.71	34321.15
574.071	34302.16
574.432	34371.54
574.794	34612.21
575.155	34660.35
575.516	34513.68
575.877	34708.25
576.238	34796.61
576.599	34757.52
576.96	34847.91
577.32	34891.53
577.681	34974.91
578.042	35113.44
578.403	35098.98
578.763	35136.94
579.124	35148.69
579.485	35200.44
579.845	35336.49
580.206	35279.54
580.566	35269.82
580.927	35357.95
581.287	35526.76
581.648	35286.09
582.008	35557.72
582.368	35376.49
582.728	35498.97
583.089	35495.58
583.449	35377.61
583.809	35670.04
584.169	35611.28
584.529	35510.04
584.889	35743.03
585.249	35491.28
585.609	35448.35
585.969	35693.09
586.329	35525.18
586.688	35679.08
587.048	35565.86
587.408	35576.48
587.768	35519.53
588.127	35489.7
588.487	35667.78
588.846	35739.64
589.206	35398.18
589.565	35466.43
589.925	35827.55
590.284	35582.81
590.643	35649.47
591.003	35638.4
591.362	35898.73
591.721	35703.48
592.08	35606.08
592.44	35801.33
592.799	35818.73
593.158	35736.02
593.517	35764.95
593.876	35597.72
594.235	35700.09
594.593	35629.81
594.952	35777.6
595.311	35745.06
595.67	35725.85
596.029	35919.07
596.387	35811.28
596.746	36038.16
597.104	35831.39
597.463	35714.33
597.822	35842.24
598.18	35733.76
598.538	35783.25
598.897	35961.1
599.255	35646.31
599.613	36238.61
599.972	35887.43
600.33	36034.32
600.688	35984.38
601.046	36052.85
601.404	36051.5
601.762	35989.35
602.12	36181.21
602.478	36200.42
602.836	36016.47
603.194	36022.12
603.552	36054.66
603.91	35973.98
604.268	36173.07
604.625	36129.01
604.983	36299.4
605.341	36065.96
605.698	36202.9
606.056	36271.83
606.413	36210.59
606.771	36287.2
607.128	36325.39
607.485	36239.06
607.843	36264.6
608.2	36396.8
608.557	36424.82
608.914	36417.81
609.272	36641.08
609.629	36717.01
609.986	36778.93
610.343	36615.1
610.7	36731.03
611.057	36830.46
611.414	36801.76
611.771	36857.12
612.127	36926.27
612.484	36860.97
612.841	36978.25
613.198	36968.76
613.554	36917.91
613.911	37192.93
614.267	37025.71
614.624	37053.05
614.98	37077.01
615.337	37272.03
615.693	37226.38
616.05	37138.7
616.406	37436.09
616.762	37189.32
617.118	37492.36
617.475	37141.64
617.831	37337.11
618.187	37419.6
618.543	37304.12
618.899	37483.1
619.255	37543.66
619.611	37596.54
619.967	37626.82
620.323	37735.75
620.678	37599.7
621.034	37532.36
621.39	37594.73
621.746	37460.95
622.101	37847.83
622.457	37666.59
622.812	37714.28
623.168	37681.51
623.523	37658.23
623.879	37886.93
624.234	37526.03
624.589	37732.58
624.945	37801.51
625.3	37793.82
625.655	37731.23
626.01	37733.94
626.365	37858.91
626.72	37735.29
627.075	37776.65
627.43	37719.93
627.785	37472.25
628.14	37789.98
628.495	37750.21
628.85	37741.17
629.205	37582.08
629.559	37818
629.914	37576.65
630.269	37668.4
630.623	37611.23
630.978	37441.52
631.332	37617.1
631.687	37691.9
632.041	37530.55
632.396	37454.4
632.75	37384.12
633.104	37425.02
633.459	37253.5
633.813	37236.1
634.167	37338.47
634.521	37235.87
634.875	37138.47
635.229	37202.65
635.583	37069.55
635.937	37055.31
636.291	37010.79
636.645	36894.64
636.999	36901.42
637.352	36946.16
637.706	36714.3
638.06	36871.14
638.413	36786.84
638.767	36678.15
639.121	36799.95
639.474	36460.98
639.828	36477.47
640.181	36553.86
640.534	36560.18
640.888	36376.91
641.241	36140.08
641.594	36269.79
641.947	36369.23
642.301	36161.55
642.654	36302.11
643.007	36295.56
643.36	36242.45
643.713	36053.98
644.066	36286.52
644.419	35964.04
644.771	35736.48
645.124	35377.84
645.477	35362.02
645.83	35106.66
646.182	34949.15
646.535	34857.63
646.888	35073.44
647.24	34722.94
647.593	34987.34
647.945	34914.35
648.298	34707.35
648.65	34673.45
649.002	34642.72
649.355	34632.32
649.707	34622.15
650.059	34727.69
650.411	35010.17
650.763	35135.59
651.115	35516.14
651.467	35226.88
651.819	35233.66
652.171	35296.04
652.523	35203.61
652.875	35370.84
653.227	35175.81
653.578	35307.11
653.93	35228.92
654.282	35080.45
654.633	34903.5
654.985	35035.48
655.337	35152.31
655.688	34975.14
656.039	35143.5
656.391	34748.03
656.742	34877.52
657.094	34855.82
657.445	34941.47
657.796	34778.53
658.147	34697.63
658.498	34702.15
658.849	34687.92
659.2	34623.74
659.551	34640.69
659.902	34713.9
660.253	34564.53
660.604	34604.3
660.955	34384.42
661.306	34430.07
661.656	34227.59
662.007	34298.1
662.358	34309.85
662.708	34255.16
663.059	34241.15
663.409	33996.41
663.76	34129.96
664.11	34142.85
664.461	34271.88
664.811	34149.17
665.161	33962.28
665.511	33828.96
665.862	33818.56
666.212	33880.25
666.562	33827.37
666.912	33707.6
667.262	33853.36
667.612	33535.86
667.962	33526.59
668.312	33327.95
668.662	33505.35
669.011	33295.86
669.361	33261.96
669.711	33162.76
670.06	33036.21
670.41	32836.44
670.76	32850.9
671.109	32892.71
671.459	32766.38
671.808	32727.29
672.157	32763.9
672.507	32540.18
672.856	32525.71
673.205	32484.36
673.554	32593.96
673.904	32458.82
674.253	32466.96
674.602	32330.01
674.951	31836.47
675.3	31775.22
675.649	32297.02
675.998	32160.98
676.346	32166.4
676.695	32219.73
677.044	32028.32
677.393	32062.22
677.741	32098.61
678.09	31996.91
678.438	31883.7
678.787	31816.58
679.135	31997.14
679.484	31837.37
679.832	31933.41
680.181	31752.85
680.529	31871.04
680.877	31777.26
681.225	31769.35
681.573	32029.23
681.922	31763.25
682.27	31631.05
682.618	31779.74
682.966	31696.36
683.314	31879.18
683.661	31738.61
684.009	31615
684.357	31657.26
684.705	31558.96
685.053	31782.68
685.4	31591.27
685.748	31416.59
686.095	31466.53
686.443	31510.82
686.79	31442.35
687.138	31613.19
687.485	31552.63
687.832	31507.89
688.18	31553.99
688.527	31527.32
688.874	31555.79
689.221	31424.95
689.568	31369.81
689.915	31339.53
690.262	31412.75
690.609	31320.55
690.956	31245.97
691.303	31349.47
691.65	31113.55
691.997	31261.34
692.344	31098.86
692.69	31104.51
693.037	31083.72
693.383	30857.73
693.73	30994.91
694.077	30921.91
694.423	30914.68
694.769	30789.26
695.116	30773.89
695.462	30831.07
695.808	30685.99
696.155	30784.06
696.501	30521.92
696.847	30598.53
697.193	30379.33
697.539	30353.11
697.885	30241.7
698.231	30140.92
698.577	30176.17
698.923	30201.03
699.269	30140.01
699.614	29939.34
699.96	29773.24
700.306	30017.53
700.651	29772.11
700.997	29672.91
701.342	29609.18
701.688	29603.08
702.033	29501.39
702.379	29474.27
702.724	29450.09
703.069	29510.88
703.415	29260.26
703.76	29216.87
704.105	29134.39
704.45	29164.45
704.795	28846.26
705.14	28947.95
705.485	28864.79
705.83	28671.35
706.175	28758.13
706.52	28739.82
706.865	28612.82
707.209	28479.04
707.554	28481.53
707.899	28561.3
708.243	28401.3
708.588	28403.56
708.932	28176
709.277	28216
709.621	28130.8
709.966	28018.26
710.31	28001.09
710.654	27833.63
710.998	27993.4
711.342	27985.49
711.687	27781.2
712.031	27696.69
712.375	27559.74
712.719	27554.09
713.063	27501.89
713.407	27609.01
713.75	27501.44
714.094	27453.76
714.438	27358.84
714.782	27438.39
715.125	27253.08
715.469	27333.76
715.812	27111.84
716.156	26928.57
716.499	27040.21
716.843	27030.94
717.186	26790.72
717.53	26948.68
717.873	26909.59
718.216	26815.13
718.559	26667.11
718.902	26552.54
719.246	26668.47
719.589	26602.7
719.932	26376.5
720.275	26515.93
720.617	26374.24
720.96	26318.64
721.303	26238.42
721.646	26331.07
721.989	26087.01
722.331	26253.79
722.674	26106.67
723.016	26201.81
723.359	26155.26
723.701	26155.48
724.044	25882.72
724.386	25819.22
724.729	25962.95
725.071	25748.49
725.413	25906.23
725.755	25701.26
726.097	25734.7
726.439	25567.93
726.782	25695.16
727.124	25733.12
727.465	25483.19
727.807	25448.38
728.149	25512.56
728.491	25427.37
728.833	25284.1
729.175	25317.31
729.516	25256.3
729.858	25328.39
730.199	25300.59
730.541	25207.71
730.882	25101.5
731.224	25171.56
731.565	24926.59
731.906	25051.11
732.248	25057.66
732.589	24872.81
732.93	24798.91
733.271	24801.4
733.612	24851.34
733.953	24877.1
734.294	24720.72
734.635	24586.94
734.976	24674.17
735.317	24568.63
735.658	24489.54
735.999	24540.84
736.339	24510.56
736.68	24447.05
737.021	24364.57
737.361	24343.55
737.702	24499.93
738.042	24228.98
738.383	24240.51
738.723	24238.47
739.063	24239.6
739.404	24226.27
739.744	24077.8
740.084	24179.04
740.424	24204.35
740.764	24029.44
741.104	24130.91
741.444	23990.12
741.784	23887.3
742.124	23980.17
742.464	23904.24
742.804	23728.2
743.143	23815.43
743.483	23793.51
743.823	23601.65
744.162	23737.47
744.502	23715.77
744.841	23570.47
745.181	23656.57
745.52	23453.18
745.86	23517.36
746.199	23513.52
746.538	23386.07
746.877	23441.66
747.216	23370.7
747.556	23362.79
747.895	23339.51
748.234	23325.28
748.573	23179.07
748.911	23203.25
749.25	23143.36
749.589	23054.32
749.928	23045.06
750.267	23094.77
750.605	22903.82
750.944	22924.84
751.283	22901.78
751.621	22808.91
751.96	22791.96
752.298	22678.51
752.636	22786.53
752.975	22585.86
753.313	22546.31
753.651	22646.65
753.989	22447.79
754.327	22440.55
754.666	22327.34
755.004	22387.67
755.342	22358.52
755.679	22285.98
756.017	22114.23
756.355	22207.34
756.693	22125.99
757.031	22037.17
757.368	21918.31
757.706	21911.3
758.044	21796.28
758.381	21820.23
758.719	21690.52
759.056	21779.1
759.394	21641.7
759.731	21527.36
760.068	21503.63
760.405	21450.07
760.743	21293.92
761.08	21385.21
761.417	21176.86
761.754	21154.94
762.091	21257.31
762.428	21048.27
762.765	20891.67
763.102	20976.64
763.438	20882.4
763.775	20849.18
764.112	20842.63
764.449	20799.47
764.785	20634.05
765.122	20513.6
765.458	20452.58
765.795	20450.32
766.131	20425.69
766.467	20293.94
766.804	20199.48
767.14	20103.67
767.476	20188.86
767.812	20010.56
768.148	20016.66
768.485	19874.07
768.821	19764.47
769.157	19757.23
769.492	19747.52
769.828	19678.14
770.164	19477.92
770.5	19507.52
770.836	19568.54
771.171	19346.17
771.507	19395.21
771.842	19240.64
772.178	19246.74
772.513	19137.82
772.849	19036.8
773.184	18925.62
773.519	18962.23
773.855	18878.39
774.19	18763.59
774.525	18738.05
774.86	18778.28
775.195	18652.86
775.53	18559.98
775.865	18551.39
776.2	18325.41
776.535	18187.78
776.87	18244.28
777.205	18150.27
777.539	17975.81
777.874	18144.4
778.209	17973.78
778.543	17876.61
778.878	17894.68
779.212	17802.94
779.547	17677.06
779.881	17752.77
780.215	17583.51
780.55	17524.07
780.884	17498.31
781.218	17404.75
781.552	17343.74
781.886	17236.4
782.22	17167.02
782.554	17233.69
782.888	16882.96
783.222	17067.36
783.556	16871.89
783.889	16887.71
784.223	16706.47
784.557	16686.58
784.89	16741.95
785.224	16624.44
785.557	16576.3
785.891	16510.31
786.224	16458.34
786.558	16479.35
786.891	16341.28
787.224	16246.14
787.557	16226.03
787.891	16212.02
788.224	16125.47
788.557	16124.79
788.89	16075.75
789.223	15985.58
789.556	15892.7
789.888	15924.12
790.221	15765.7
790.554	15626.72
790.887	15668.75
791.219	15592.37
791.552	15618.59
791.884	15481.41
792.217	15469.44
792.549	15408.87
792.882	15252.72
793.214	15190.58
793.546	15255.66
793.879	15208.2
794.211	15113.06
794.543	15179.28
794.875	15095.66
795.207	15039.39
795.539	14892.96
795.871	14908.32
796.203	14811.38
796.535	14786.07
796.867	14732.28
797.198	14712.85
797.53	14603.47
797.862	14582.68
798.193	14619.97
798.525	14510.82
798.856	14536.36
799.188	14383.82
799.519	14356.02
799.85	14224.05
800.182	14221.79
800.513	14204.16
800.844	14031.06
801.175	14171.84
801.506	14164.16
801.837	13999.87
802.168	13993.09
802.499	14085.75
802.83	13916.48
803.161	13947.22
803.491	13858.63
803.822	13866.32
804.153	13821.57
804.483	13646.89
804.814	13599.43
805.145	13551.07
805.475	13583.84
805.805	13511.75
806.136	13559.88
806.466	13487.12
806.796	13416.16
807.126	13359.89
807.457	13265.65
807.787	13293.9
808.117	13231.98
808.447	13152.66
808.777	13234.92
809.107	13117.18
809.436	13127.8
809.766	13059.56
810.096	13036.06
810.426	13029.28
810.755	12982.27
811.085	12973.01
811.414	12924.65
811.744	12864.76
812.073	12844.87
812.403	12822.28
812.732	12752.67
813.061	12794.03
813.39	12727.36
813.719	12700.02
814.049	12619.34
814.378	12587.71
814.707	12533.24
815.036	12587.71
815.365	12467.71
815.693	12396.3
816.022	12372.57
816.351	12320.82
816.68	12290.99
817.008	12335.73
817.337	12230.2
817.665	12192.46
817.994	12233.14
818.322	12275.4
818.651	12108.62
818.979	12041.96
819.307	12138.9
819.636	12087.83
819.964	12029.3
820.292	12060.71
820.62	12044.22
820.948	12016.42
821.276	12103.65
821.604	11975.52
821.932	11993.6
822.259	11977.78
822.587	11959.93
822.915	11995.86
823.243	12004.44
823.57	11916.76
823.898	12041.05
824.225	11926.48
824.553	11847.39
824.88	11937.1
825.207	11956.99
825.535	11944.78
825.862	11963.54
826.189	11908.18
826.516	11952.02
826.843	11926.71
827.17	12035.18
827.497	11974.16
827.824	11963.99
828.151	11959.47
828.478	11893.26
828.805	11980.49
829.131	11894.39
829.458	11874.05
829.785	11912.02
830.111	11869.76
830.438	11917.21
830.764	11923.32
831.09	11908.18
831.417	11845.58
831.743	11865.01
832.069	11795.64
832.395	11832.47
832.722	11898.01
833.048	11811.23
833.374	11833.6
833.7	11754.96
834.026	11764.22
834.351	11894.62
834.677	11750.89
835.003	11777.78
835.329	11782.76
835.654	11742.76
835.98	11667.96
836.306	11721.51
836.631	11567.62
836.956	11615.08
837.282	11632.7
837.607	11570.33
837.932	11591.35
838.258	11552.48
838.583	11567.62
838.908	11516.77
839.233	11473.84
839.558	11422.31
839.883	11511.35
840.208	11418.92
840.533	11544.57
840.858	11420.73
841.182	11406.49
841.507	11348.64
841.832	11290.79
842.156	11380.73
842.481	11286.05
842.805	11211.24
843.13	11235.2
843.454	11215.09
843.778	11182.09
844.103	11125.82
844.427	11090.34
844.751	11085.6
845.075	11089.44
845.399	11065.49
845.723	11009.67
846.047	10995.21
846.371	10956.79
846.695	10837.24
847.019	10812.16
847.343	10787.53
847.666	10695.33
847.99	10705.27
848.313	10668.66
848.637	10655.1
848.96	10636.57
849.284	10497.59
849.607	10516.8
849.931	10476.35
850.254	10378.72
850.577	10354.77
850.9	10298.5
851.223	10273.87
851.546	10168.56
851.869	10139.41
852.192	10231.61
852.515	10160.88
852.838	10065.06
853.161	10100.99
853.483	10044.5
853.806	9955.91
854.129	9974.22
854.451	9932.41
854.774	9816.93
855.096	9848.34
855.419	9810.6
855.741	9849.02
856.063	9738.74
856.385	9691.51
856.708	9722.02
857.03	9687.44
857.352	9670.95
857.674	9625.52
857.996	9577.16
858.318	9585.52
858.64	9630.72
858.961	9466.66
859.283	9485.87
859.605	9440.9
859.926	9488.58
860.248	9385.76
860.57	9394.57
860.891	9399.54
861.212	9251.75
861.534	9242.93
861.855	9324.06
862.176	9300.11
862.498	9268.02
862.819	9232.54
863.14	9256.27
863.461	9182.15
863.782	9137.18
864.103	9173.56
864.424	9130.17
864.745	9150.51
865.065	9055.37
865.386	9030.51
865.707	9106.67
866.027	9040.68
866.348	9074.13
866.668	9012.43
866.989	8987.8
867.309	8925.43
867.63	8977.86
867.95	9006.56
868.27	8900.12
868.59	8912.32
868.91	8822.61
869.23	8845.66
869.55	8919.55
869.87	8861.7
870.19	8840.23
870.51	8808.14
870.83	8821.25
871.15	8785.55
871.469	8752.55
871.789	8789.84
872.109	8808.37
872.428	8781.25
872.748	8726.34
873.067	8728.82
873.386	8729.73
873.706	8700.35
874.025	8676.62
874.344	8621.03
874.663	8646.57
874.982	8609.96
875.301	8669.84
875.62	8560.02
875.939	8522.5
876.258	8570.18
876.577	8472.79
876.896	8501.03
877.214	8444.31
877.533	8477.98
877.852	8473.01
878.17	8481.37
878.489	8516.17
878.807	8415.16
879.125	8456.29
879.444	8444.09
879.762	8335.16
880.08	8417.19
880.398	8354.82
880.716	8364.99
881.034	8365.44
881.352	8308.95
881.67	8273.47
881.988	8268.27
882.306	8298.33
882.624	8225.33
882.941	8167.48
883.259	8264.66
883.577	8150.08
883.894	8165.22
884.212	8125.9
884.529	8125.9
884.846	8140.59
885.164	8072.8
885.481	8061.72
885.798	8050.65
886.115	7978.11
886.432	8019.69
886.75	7992.8
887.067	8011.1
887.383	7931.11
887.7	7971.56
888.017	7873.25
888.334	7892.24
888.651	7877.32
888.967	7851.33
889.284	7809.07
889.6	7800.49
889.917	7767.27
890.233	7805.46
890.55	7723.2
890.866	7692.69
891.182	7713.03
891.498	7656.76
891.815	7642.3
892.131	7595.29
892.447	7643.88
892.763	7528.63
893.079	7512.58
893.395	7536.77
893.71	7491.57
894.026	7506.03
894.342	7525.47
894.657	7424.68
894.973	7352.82
895.289	7402.53
895.604	7376.54
895.92	7358.92
896.235	7322.99
896.55	7301.29
896.865	7266.04
897.181	7273.72
897.496	7226.72
897.811	7208.19
898.126	7155.98
898.441	7155.76
898.756	7121.18
899.071	7114.4
899.386	7126.15
899.7	7025.37
900.015	7040.96
900.33	6978.14
900.644	6970
900.959	6926.39
901.273	6969.1
901.588	6915.31
901.902	6912.15
902.216	6875.54
902.531	6846.84
902.845	6802.55
903.159	6770.23
903.473	6745.6
903.787	6714.87
904.101	6698.37
904.415	6712.83
904.729	6625.15
905.042	6596.9
905.356	6627.86
905.67	6613.17
905.984	6597.13
906.297	6567.07
906.611	6539.28
906.924	6463.57
907.237	6441.43
907.551	6429.22
907.864	6411.14
908.177	6434.87
908.491	6411.37
908.804	6359.17
909.117	6293.41
909.43	6262
909.743	6176.57
910.056	6261.32
910.368	6200.3
910.681	6196.69
910.994	6164.15
911.307	6120.08
911.619	6075.79
911.932	6146.75
912.244	6066.07
912.557	6015.68
912.869	6086.18
913.181	6032.4
913.494	5964.6
913.806	5945.17
914.118	5934.1
914.43	5918.5
914.742	5935.45
915.054	5841.22
915.366	5802.8
915.678	5835.11
915.99	5744.72
916.302	5790.6
916.613	5703.59
916.925	5746.08
917.236	5730.03
917.548	5713.31
917.859	5680.09
918.171	5646.87
918.482	5626.98
918.794	5547.44
919.105	5542.92
919.416	5552.18
919.727	5502.47
920.038	5549.25
920.349	5472.19
920.66	5380.44
920.971	5417.72
921.282	5401.23
921.593	5390.61
921.903	5335.02
922.214	5306.77
922.525	5287.33
922.835	5284.85
923.146	5230.39
923.456	5224.06
923.767	5237.62
924.077	5197.39
924.387	5176.83
924.697	5104.74
925.008	5142.7
925.318	5097.96
925.628	5120.78
925.938	5069.94
926.248	5064.29
926.558	5029.03
926.867	5008.47
927.177	5023.38
927.487	4955.14
927.796	4940.22
928.106	4932.54
928.416	4911.98
928.725	4855.71
929.034	4815.48
929.344	4845.99
929.653	4851.64
929.962	4817.29
930.271	4801.02
930.581	4735.26
930.89	4729.16
931.199	4714.92
931.508	4705.2
931.817	4706.11
932.125	4654.81
932.434	4660.23
932.743	4565.09
933.051	4559.89
933.36	4581.81
933.669	4511.31
933.977	4493.91
934.286	4538.2
934.594	4525.32
934.902	4490.97
935.21	4458.2
935.519	4407.36
935.827	4431.31
936.135	4404.64
936.443	4358.54
936.751	4395.15
937.059	4360.58
937.367	4276.96
937.674	4339.11
937.982	4309.96
938.29	4246.23
938.597	4257.76
938.905	4236.06
939.213	4193.8
939.52	4184.99
939.827	4204.88
940.135	4220.92
940.442	4157.42
940.749	4135.72
941.056	4126.01
941.363	4117.19
941.67	4056.86
941.977	4098.66
942.284	3997.88
942.591	4012.79
942.898	3999.46
943.205	3999.68
943.511	3976.18
943.818	3967.82
944.125	3945.22
944.431	3906.13
944.738	3908.39
945.044	3930.53
945.35	3897.09
945.657	3836.3
945.963	3839.24
946.269	3805.79
946.575	3808.95
946.881	3816.18
947.187	3794.04
947.493	3773.7
947.799	3716.3
948.105	3740.71
948.41	3670.88
948.716	3715.17
949.022	3702.74
949.327	3656.42
949.633	3602.18
949.938	3602.86
950.244	3667.49
950.549	3621.39
950.854	3590.43
951.16	3605.57
951.465	3529.86
951.77	3550.66
952.075	3524.22
952.38	3522.63
952.685	3498.45
952.99	3488.96
953.294	3478.34
953.599	3490.77
953.904	3465.91
954.209	3392.24
954.513	3384.56
954.818	3362.41
955.122	3377.55
955.426	3352.24
955.731	3328.51
956.035	3301.85
956.339	3300.94
956.643	3348.4
956.948	3286.71
957.252	3279.93
957.556	3280.83
957.86	3253.94
958.163	3220.27
958.467	3221.4
958.771	3207.84
959.075	3215.07
959.378	3176.43
959.682	3168.52
959.985	3148.18
960.289	3156.77
960.592	3102.08
960.896	3119.48
961.199	3112.47
961.502	3074.96
961.805	3072.48
962.108	3034.51
962.411	3046.94
962.714	3022.31
963.017	3006.49
963.32	3004.45
963.623	3006.04
963.926	2932.37
964.228	2994.29
964.531	2937.34
964.833	2962.42
965.136	2907.06
965.438	2892.82
965.741	2907.51
966.043	2889.88
966.345	2921.75
966.648	2863.44
966.95	2867.74
967.252	2835.87
967.554	2837.91
967.856	2824.57
968.158	2805.59
968.46	2788.87
968.761	2787.29
969.063	2777.12
969.365	2723.78
969.666	2750
969.968	2720.17
970.269	2729.66
970.571	2706.16
970.872	2673.39
971.174	2692.6
971.475	2687.85
971.776	2661.87
972.077	2639.94
972.378	2661.19
972.679	2639.27
972.98	2627.97
973.281	2621.41
973.582	2566.5
973.883	2591.36
974.183	2580.74
974.484	2562.21
974.785	2558.36
975.085	2569.44
975.386	2544.58
975.686	2509.1
975.986	2530.34
976.287	2495.32
976.587	2494.64
976.887	2469.33
977.187	2454.86
977.487	2484.47
977.787	2431.36
978.087	2448.31
978.387	2422.1
978.687	2416.67
978.987	2394.3
979.286	2353.62
979.586	2402.21
979.885	2382.1
980.185	2361.31
980.484	2362.21
980.784	2322.89
981.083	2353.85
981.382	2335.55
981.682	2311.59
981.981	2327.41
982.28	2290.35
982.579	2261.2
982.878	2267.75
983.177	2281.76
983.475	2268.2
983.774	2264.36
984.073	2231.37
984.372	2214.87
984.67	2261.65
984.969	2219.39
985.267	2214.19
985.566	2185.27
985.864	2184.36
986.162	2148.43
986.461	2148.88
986.759	2139.84
987.057	2136.91
987.355	2099.17
987.653	2122.44
987.951	2110.47
988.249	2089.68
988.547	2066.85
988.844	2066.63
989.142	2080.86
989.44	2074.76
989.737	2029.11
990.035	2039.73
990.332	2032.5
990.63	2018.04
990.927	1986.63
991.224	1997.02
991.521	1995.44
991.819	1999.96
992.116	1986.63
992.413	1924.94
992.71	1963.35
993.006	1933.07
993.303	1925.39
993.6	1962.45
993.897	1949.57
994.193	1910.47
994.49	1899.17
994.787	1893.07
995.083	1891.72
995.379	1853.3
995.676	1878.83
995.972	1816.92
996.268	1872.73
996.565	1855.56
996.861	1831.83
997.157	1836.35
997.453	1840.42
997.749	1801.55
998.044	1803.13
998.34	1807.88
998.636	1774.66
998.932	1777.37
999.227	1790.02
999.523	1763.13
999.818	1752.51
1000.114	1755.22
1000.409	1730.59
1000.704	1709.57
1001	1701.44
1001.295	1706.41
1001.59	1675.45
1001.885	1687.2
1002.18	1692.17
1002.475	1662.8
1002.77	1697.82
1003.065	1652.4
1003.359	1635.45
1003.654	1637.94
1003.949	1624.38
1004.243	1623.25
1004.538	1616.69
1004.832	1596.58
1005.127	1579.63
1005.421	1589.35
1005.715	1595.45
1006.009	1561.1
1006.304	1576.7
1006.598	1562.68
1006.892	1513.42
1007.186	1511.16
1007.48	1544.15
1007.773	1525.85
1008.067	1547.09
1008.361	1475.23
1008.655	1474.33
1008.948	1484.04
1009.242	1482.01
1009.535	1457.83
1009.829	1426.87
1010.122	1439.52
1010.415	1463.25
1010.708	1436.59
1011.001	1430.26
1011.295	1435.46
1011.588	1406.98
1011.881	1395.68
1012.173	1382.58
1012.466	1402.24
1012.759	1379.64
1013.052	1383.93
1013.344	1399.3
1013.637	1341.22
1013.93	1373.76
1014.222	1338.28
1014.514	1322.01
1014.807	1353.2
1015.099	1301.9
1015.391	1323.82
1015.683	1321.34
1015.976	1297.61
1016.268	1287.66
1016.56	1280.21
1016.851	1289.7
1017.143	1274.1
1017.435	1277.72
1017.727	1246.99
1018.018	1197.27
1018.31	1251.05
1018.602	1224.61
1018.893	1229.81
1019.185	1207.67
1019.476	1185.75
1019.767	1195.91
1020.058	1190.72
1020.35	1195.46
1020.641	1178.06
1020.932	1147.55
1021.223	1159.76
1021.514	1166.54
1021.804	1149.14
1022.095	1129.02
1022.386	1083.83
1022.677	1152.3
1022.967	1114.79
1023.258	1103.71
1023.548	1084.96
1023.839	1104.17
1024.129	1095.13
1024.419	1071.4
1024.709	1079.53
1025	1072.98
1025.29	1068.69
1025.58	1061.46
1025.87	1035.69
1026.16	1041.57
1026.449	1048.57
1026.739	1032.3
1027.029	1038.63
1027.319	1024.17
1027.608	1038.4
1027.898	1008.35
1028.187	1015.13
1028.477	1023.04
1028.766	969.71
1029.055	992.76
1029.344	964.96
1029.634	976.94
1029.923	974.23
1030.212	957.28
1030.501	973.77
1030.79	948.01
1031.078	936.03
1031.367	962.93
1031.656	924.96
1031.945	925.87
1032.233	909.37
1032.522	919.09
1032.81	917.96
1033.099	904.4
1033.387	894
1033.675	883.38
1033.963	913.89
1034.251	900.1
1034.54	851.74
1034.828	878.86
1035.116	871.4
1035.403	867.34
1035.691	835.25
1035.979	857.62
1036.267	854.91
1036.554	845.87
1036.842	846.32
1037.129	835.92
1037.417	827.34
1037.704	807.45
1037.992	834.12
1038.279	837.51
1038.566	796.38
1038.853	796.38
1039.14	796.38
