Data from white_poster_card_FLMS001491_00058.txt Node
Date: Wed Feb 08 11:51:43 GMT 2017
User: dcchb
Spectrometer: FLMS00149
Trigger mode: 0
Integration Time (sec): 2.000000E-2
Scans to average: 10
Electric dark correction enabled: true
Nonlinearity correction enabled: false
Boxcar width: 0
XAxis mode: Wavelengths
Number of Pixels in Spectrum: 2048
>>>>>Begin Spectral Data<<<<<
341.393	-7.36
341.776	-7.36
342.16	-7.36
342.543	-50.97
342.927	-63.4
343.31	-79.45
343.693	-71.31
344.077	-61.14
344.46	-66.79
344.843	-57.75
345.226	-49.84
345.61	-39.67
345.993	-14.82
346.376	7.56
346.759	21.57
347.142	32.64
347.525	48.46
347.908	53.88
348.291	78.97
348.674	81.68
349.057	116.03
349.44	125.97
349.823	128.68
350.206	179.76
350.588	197.16
350.971	207.55
351.354	212.3
351.737	247.32
352.119	260.21
352.502	261.11
352.884	276.48
353.267	297.72
353.65	311.28
354.032	292.29
354.414	313.99
354.797	315.8
355.179	328.68
355.562	331.16
355.944	331.84
356.326	342.24
356.709	331.39
357.091	347.66
357.473	342.24
357.855	332.07
358.238	354.67
358.62	323.48
359.002	331.84
359.384	356.25
359.766	351.05
360.148	345.63
360.53	341.78
360.912	335.68
361.294	343.59
361.676	338.85
362.057	340.2
362.439	330.26
362.821	321.22
363.203	328.9
363.584	323.25
363.966	320.32
364.348	315.12
364.729	339.3
365.111	329.13
365.493	315.8
365.874	330.71
366.256	348.11
366.637	337.27
367.019	316.93
367.4	317.83
367.781	326.42
368.163	319.86
368.544	319.19
368.925	323.03
369.306	315.34
369.688	305.18
370.069	323.25
370.45	317.6
370.831	307.44
371.212	330.26
371.593	328.9
371.974	330.49
372.355	328.45
372.736	316.02
373.117	317.83
373.498	333.65
373.879	337.27
374.26	304.5
374.641	304.5
375.021	308.34
375.402	326.42
375.783	331.62
376.163	342.46
376.544	343.59
376.925	343.82
377.305	330.94
377.686	338.85
378.066	332.52
378.447	347.66
378.827	351.95
379.208	337.04
379.588	345.85
379.968	346.53
380.349	341.56
380.729	358.28
381.109	349.92
381.489	332.52
381.87	339.52
382.25	342.91
382.63	350.37
383.01	341.78
383.39	359.64
383.77	356.25
384.15	355.12
384.53	361.22
384.91	339.75
385.29	350.15
385.67	367.55
386.049	361.22
386.429	366.42
386.809	377.26
387.189	365.06
387.568	375
387.948	393.99
388.328	376.36
388.707	353.76
389.087	386.08
389.466	372.52
389.846	370.48
390.225	394.66
390.605	395.57
390.984	394.66
391.363	398.51
391.743	384.95
392.122	387.66
392.501	394.21
392.881	414.1
393.26	398.28
393.639	407.09
394.018	403.48
394.397	397.83
394.776	407.09
395.155	390.15
395.534	426.3
395.913	433.31
396.292	419.75
396.671	422.01
397.05	435.57
397.429	428.11
397.808	434.89
398.186	440.99
398.565	435.12
398.944	420.2
399.323	418.62
399.701	437.6
400.08	448.9
400.458	457.94
400.837	455.68
401.215	448.9
401.594	436.25
401.972	451.16
402.351	452.52
402.729	485.28
403.107	460.43
403.486	469.69
403.864	503.36
404.242	481.22
404.62	481.89
404.999	477.83
405.377	483.48
405.755	497.26
406.133	502.23
406.511	527.77
406.889	539.29
407.267	521.22
407.645	518.05
408.023	548.79
408.401	556.92
408.779	548.56
409.156	553.98
409.534	549.91
409.912	569.35
410.29	574.32
410.667	583.36
411.045	616.58
411.422	616.58
411.8	625.39
412.178	660.19
412.555	654.32
412.933	649.8
413.31	672.17
413.687	702.68
414.065	702.23
414.442	717.59
414.819	736.58
415.197	745.62
415.574	763.24
415.951	754.43
416.328	780.87
416.705	808.89
417.082	795.11
417.46	820.42
417.837	870.58
418.214	840.53
418.591	890.24
418.967	857.25
419.344	884.6
419.721	890.92
420.098	897.48
420.475	933.86
420.852	945.16
421.228	979.73
421.605	999.39
421.982	1008.21
422.358	1005.04
422.735	1007.53
423.111	1019.96
423.488	1048.88
423.864	1061.54
424.241	1085.72
424.617	1104.02
424.994	1110.35
425.37	1122.56
425.746	1114.19
426.123	1143.12
426.499	1173.85
426.875	1169.79
427.251	1181.08
427.627	1209.56
428.003	1243.91
428.379	1264.92
428.756	1271.25
429.132	1275.32
429.507	1301.99
429.883	1312.38
430.259	1353.74
430.635	1348.54
431.011	1358.03
431.387	1391.93
431.763	1401.42
432.138	1437.35
432.514	1438.71
432.89	1467.86
433.265	1493.62
433.641	1512.38
434.016	1516.9
434.392	1544.01
434.767	1575.2
435.143	1551.47
435.518	1596.22
435.894	1619.27
436.269	1633.28
436.644	1652.48
437.02	1674.63
437.395	1697.68
437.77	1759.37
438.145	1734.06
438.52	1760.96
438.895	1782.42
439.271	1800.5
439.646	1845.93
440.021	1835.3
440.395	1837.79
440.77	1831.92
441.145	1840.28
441.52	1905.59
441.895	1894.06
442.27	1905.59
442.645	1921.86
443.019	1948.3
443.394	1937.68
443.769	1963.44
444.143	1960.73
444.518	2002.08
444.892	1952.59
445.267	2010.44
445.641	1994.17
446.016	2000.5
446.39	2035.75
446.764	2044.11
447.139	2059.48
447.513	2098.8
447.887	2097.9
448.262	2111.91
448.636	2132.02
449.01	2128.18
449.384	2165.69
449.758	2211.34
450.132	2237.33
450.506	2191.68
450.88	2172.47
451.254	2214.5
451.628	2261.96
452.002	2307.61
452.376	2298.8
452.75	2345.8
453.123	2334.73
453.497	2333.37
453.871	2383.31
454.244	2452.69
454.618	2437.77
454.992	2487.27
455.365	2499.02
455.739	2571.33
456.112	2575.62
456.486	2579.69
456.859	2560.48
457.232	2624.44
457.606	2623.98
457.979	2683.42
458.352	2736.3
458.725	2741.72
459.099	2774.49
459.472	2828.05
459.845	2867.37
460.218	2870.76
460.591	2871.44
460.964	2915.73
461.337	2976.52
461.71	3038.66
462.083	3057.42
462.456	3050.19
462.829	3081.37
463.201	3113.92
463.574	3157.53
463.947	3148.04
464.32	3252.44
464.692	3278.2
465.065	3294.25
465.438	3367.47
465.81	3360.24
466.183	3423.96
466.555	3485.2
466.928	3489.27
467.3	3499.22
467.672	3560.01
468.045	3658.08
468.417	3649.95
468.789	3710.96
469.161	3760.68
469.534	3799.1
469.906	3871.41
470.278	3893.33
470.65	3904.4
471.022	4010.39
471.394	4100.56
471.766	4156.37
472.138	4159.54
472.51	4209.25
472.882	4289.03
473.253	4343.94
473.625	4362.02
473.997	4484.95
474.369	4501.45
474.74	4611.5
475.112	4659.41
475.484	4737.15
475.855	4748.45
476.227	4870.48
476.598	4964.94
476.97	4952.51
477.341	5129.68
477.713	5174.88
478.084	5202.45
478.455	5338.72
478.827	5372.39
479.198	5537.58
479.569	5547.52
479.94	5693.96
480.311	5752.94
480.682	5891.02
481.053	5954.29
481.424	6051.69
481.795	6137.56
482.166	6243.1
482.537	6367.84
482.908	6453.04
483.279	6462.98
483.65	6628.17
484.021	6721.05
484.391	6832.24
484.762	6881.95
485.133	6921.95
485.503	7052.57
485.874	7207.59
486.244	7242.17
486.615	7433.12
486.985	7506.57
487.356	7630.63
487.726	7722.61
488.097	7862.04
488.467	7832.21
488.837	8067.46
489.207	8161.01
489.578	8238.75
489.948	8285.98
490.318	8465.64
490.688	8478.52
491.058	8596.71
491.428	8746.54
491.798	8804.61
492.168	8976.36
492.538	9031.05
492.908	9151.5
493.278	9250.48
493.648	9200.76
494.017	9446.18
494.387	9468.78
494.757	9519.17
495.126	9677.13
495.496	9701.54
495.866	9812.27
496.235	9926.17
496.605	9995.99
496.974	10071.02
497.344	10132.71
497.713	10220.4
498.082	10323.9
498.452	10400.5
498.821	10497.9
499.19	10532.25
499.559	10584.23
499.928	10669.65
500.298	10779.7
500.667	10815.63
501.036	10863.09
501.405	10992.8
501.774	10996.42
502.143	11169.75
502.512	11179.24
502.88	11313.7
503.249	11313.47
503.618	11367.26
503.987	11456.52
504.356	11614.93
504.724	11646.8
505.093	11664.88
505.462	11773.12
505.83	11884.53
506.199	11968.6
506.567	12106
506.936	12125.2
507.304	12354.8
507.672	12281.36
508.041	12320.45
508.409	12469.83
508.777	12593.44
509.145	12671.63
509.514	12714.34
509.882	12834.34
510.25	12827.33
510.618	13052.41
510.986	13016.93
511.354	13152.97
511.722	13288.56
512.09	13398.84
512.458	13392.52
512.826	13550.03
513.193	13552.51
513.561	13602.68
513.929	13783.47
514.297	13961.09
514.664	14008.32
515.032	14125.38
515.4	14153.85
515.767	14356.56
516.135	14408.99
516.502	14304.36
516.869	14596.33
517.237	14587.06
517.604	14677.91
517.972	14814.85
518.339	15011.68
518.706	15034.96
519.073	15120.38
519.44	15210.55
519.808	15407.6
520.175	15372.12
520.542	15561.95
520.909	15625.9
521.276	15708.84
521.643	15921.71
522.009	16026.34
522.376	16082.61
522.743	16313.34
523.11	16459.33
523.477	16518.08
523.843	16613.9
524.21	16819.09
524.577	16827.9
524.943	17059.54
525.31	17196.71
525.676	17264.28
526.043	17450.04
526.409	17564.38
526.776	17635.57
527.142	17778.84
527.508	17890.02
527.874	18045.73
528.241	18132.73
528.607	18120.75
528.973	18411.59
529.339	18321.2
529.705	18523.23
530.071	18678.7
530.437	18826.5
530.803	18955.98
531.169	19104
531.535	18988.53
531.901	19165.02
532.267	19248.18
532.632	19459.02
532.998	19421.28
533.364	19559.81
533.73	19653.37
534.095	19831.67
534.461	19863.98
534.826	20044.77
535.192	20055.16
535.557	20325.89
535.923	20326.34
536.288	20407.02
536.653	20461.48
537.019	20384.65
537.384	20586
537.749	20799.1
538.114	20835.94
538.479	20792.55
538.845	21012.88
539.21	20930.4
539.575	20963.16
539.94	21103.72
540.305	21324.96
540.67	21175.81
541.034	21315.02
541.399	21458.07
541.764	21572.19
542.129	21623.26
542.494	21637.72
542.858	21707.32
543.223	21796.14
543.587	22002.01
543.952	21942.8
544.316	22107.09
544.681	22039.07
545.045	22152.51
545.41	22354.09
545.774	22453.97
546.138	22472.28
546.503	22444.48
546.867	22546.17
547.231	22649.22
547.595	22681.54
547.959	22847.63
548.324	22810.57
548.688	22803.57
549.052	23028.19
549.416	23096.44
549.779	23091.7
550.143	23245.36
550.507	23371.69
550.871	23537.79
551.235	23540.72
551.599	23637.67
551.962	23729.87
552.326	23691.91
552.689	23916.98
553.053	23751.11
553.417	23931.67
553.78	24260.03
554.143	24128.28
554.507	24217.99
554.87	24379.34
555.234	24505.22
555.597	24477.2
555.96	24632.45
556.323	24750.41
556.686	24808.71
557.05	24893
557.413	25015.94
557.776	25213
558.139	25330.51
558.502	25372.31
558.865	25387.68
559.228	25713.77
559.59	25640.55
559.953	25864.05
560.316	26052.75
560.679	26017.72
561.041	26205.29
561.404	26269.69
561.767	26581.77
562.129	26443.7
562.492	26740.19
562.854	26690.24
563.217	26804.59
563.579	26839.17
563.941	27081.65
564.304	27230.12
564.666	27402.77
565.028	27538.36
565.39	27564.57
565.753	27692.48
566.115	27829.2
566.477	27963.21
566.839	27937.9
567.201	28141.51
567.563	28186.93
567.925	28423.53
568.287	28405.91
568.648	28425.57
569.01	28668.95
569.372	28821.71
569.734	28661.27
570.095	28948.94
570.457	29060.35
570.819	29053.57
571.18	29156.85
571.542	29240.69
571.903	29412.88
572.265	29470.06
572.626	29416.95
572.987	29629.6
573.349	29726.1
573.71	29899.2
574.071	29910.27
574.432	29931.29
574.794	30195.69
575.155	30126.09
575.516	30137.84
575.877	30177.38
576.238	30314.56
576.599	30520.65
576.96	30435.68
577.32	30580.31
577.681	30707.99
578.042	30684.04
578.403	30673.42
578.763	30669.35
579.124	30836.12
579.485	30969.91
579.845	31035.44
580.206	30965.39
580.566	31023.24
580.927	30923.58
581.287	31204.25
581.648	31053.07
582.008	31273.17
582.368	31109.11
582.728	31179.17
583.089	31140.97
583.449	31023.24
583.809	31191.6
584.169	31205.38
584.529	31226.62
584.889	31361.08
585.249	31157.47
585.609	31070.92
585.969	31236.79
586.329	31180.97
586.688	31291.03
587.048	31270.24
587.408	31144.36
587.768	31268.2
588.127	31291.71
588.487	31296.68
588.846	31506.62
589.206	31216
589.565	31372.16
589.925	31379.61
590.284	31266.17
590.643	31471.14
591.003	31547.74
591.362	31582.32
591.721	31559.5
592.08	31569.89
592.44	31581.42
592.799	31590.91
593.158	31548.87
593.517	31517.01
593.876	31544.81
594.235	31440.85
594.593	31603.11
594.952	31689.89
595.311	31629.78
595.67	31687.4
596.029	31845.14
596.387	31736.89
596.746	31859.15
597.104	31633.17
597.463	31750.45
597.822	31872.48
598.18	31679.04
598.538	31587.74
598.897	31877
599.255	31747.06
599.613	32067.5
599.972	31907.28
600.33	31929.88
600.688	31866.38
601.046	31972.14
601.404	32075.19
601.762	32135.07
602.12	32164.9
602.478	32194.05
602.836	32267.05
603.194	31956.55
603.552	32121.74
603.91	32036.77
604.268	32200.16
604.625	32079.93
604.983	32142.3
605.341	32067.73
605.698	32275.86
606.056	32376.65
606.413	32298.23
606.771	32407.16
607.128	32574.16
607.485	32318.35
607.843	32344.79
608.2	32488.28
608.557	32655.29
608.914	32531.67
609.272	32719.69
609.629	32777.54
609.986	32854.83
610.343	32761.95
610.7	32834.26
611.057	32847.82
611.414	33015.05
611.771	32797.43
612.127	33014.15
612.484	32927.14
612.841	33101.6
613.198	32901.15
613.554	33003.07
613.911	33064.54
614.267	33156.97
614.624	33161.71
614.98	33277.64
615.337	33323.06
615.693	33269.96
616.05	33247.36
616.406	33416.17
616.762	33287.36
617.118	33279.45
617.475	33387.7
617.831	33561.02
618.187	33543.62
618.543	33481.25
618.899	33730.29
619.255	33718.76
619.611	33511.08
619.967	33700.23
620.323	33740.68
620.678	33605.77
621.034	33489.61
621.39	33532.55
621.746	33536.62
622.101	33874.69
622.457	33523.06
622.812	33697.74
623.168	33757.86
623.523	33819.32
623.879	33817.29
624.234	33573.23
624.589	33741.58
624.945	33736.39
625.3	33746.33
625.655	33700.91
626.01	33799.44
626.365	33821.81
626.72	33670.63
627.075	33552.21
627.43	33673.56
627.785	33560.35
628.14	33455.49
628.495	33700.46
628.85	33486.9
629.205	33389.96
629.559	33586.79
629.914	33478.31
630.269	33565.54
630.623	33342.5
630.978	33361.03
631.332	33467.24
631.687	33400.8
632.041	33296.85
632.396	33436.28
632.75	33354.02
633.104	33218.43
633.459	33210.75
633.813	33174.82
634.167	33200.36
634.521	33083.75
634.875	33135.27
635.229	33047.59
635.583	32882.17
635.937	32992
636.291	32981.83
636.645	32933.47
636.999	32903.87
637.352	32789.75
637.706	32649.86
638.06	32830.87
638.413	32694.38
638.767	32703.42
639.121	32713.36
639.474	32432.92
639.828	32421.62
640.181	32502.3
640.534	32559.69
640.888	32495.06
641.241	32301.85
641.594	32396.54
641.947	32400.38
642.301	32315.41
642.654	32284.45
643.007	32283.32
643.36	32218.23
643.713	32193.83
644.066	32227.05
644.419	32056.21
644.771	31837.68
645.124	31514.52
645.477	31545.03
645.83	31253.51
646.182	30985.27
646.535	31068.66
646.888	31064.82
647.24	30834.09
647.593	31139.17
647.945	31086.06
648.298	30778.95
648.65	30673.19
649.002	30620.31
649.355	30948.21
649.707	30851.27
650.059	30999.74
650.411	31298.48
650.763	31270.01
651.115	31546.61
651.467	31465.49
651.819	31323.12
652.171	31347.98
652.523	31283.12
652.875	31266.62
653.227	31089.68
653.578	31423.45
653.93	31218.04
654.282	31047.64
654.633	31032.5
654.985	31062.78
655.337	31005.16
655.688	31053.97
656.039	31092.39
656.391	30932.39
656.742	30992.73
657.094	30921.32
657.445	31068.89
657.796	30835.45
658.147	30951.38
658.498	30925.84
658.849	30948.21
659.2	30849.91
659.551	30702.12
659.902	30901.43
660.253	30819.63
660.604	30851.94
660.955	30466.19
661.306	30773.53
661.656	30703.92
662.007	30596.13
662.358	30656.24
662.708	30715.22
663.059	30593.42
663.409	30338.74
663.76	30597.71
664.11	30578.96
664.461	30551.16
664.811	30483.37
665.161	30530.14
665.511	30466.42
665.862	30463.93
666.212	30515
666.562	30552.06
666.912	30420.09
667.262	30309.13
667.612	30463.48
667.962	30470.48
668.312	30467.09
668.662	30551.84
669.011	30447.89
669.361	30482.01
669.711	30408.34
670.06	30306.65
670.41	30286.08
670.76	30199.76
671.109	30364.5
671.459	30192.98
671.808	30156.82
672.157	30250.83
672.507	29904.17
672.856	30066.88
673.205	30058.52
673.554	30145.52
673.904	29931.06
674.253	30198.17
674.602	29976.03
674.951	29521.58
675.3	29429.61
675.649	29917.05
675.998	29757.51
676.346	29850.16
676.695	29955.7
677.044	29588.25
677.393	29802.71
677.741	29762.48
678.09	29667.57
678.438	29582.15
678.787	29678.19
679.135	29734.68
679.484	29553.9
679.832	29693.78
680.181	29417.86
680.529	29557.51
680.877	29480.45
681.225	29397.07
681.573	29542.37
681.922	29345.99
682.27	29275.94
682.618	29296.73
682.966	29125.21
683.314	29234.58
683.661	29171.08
684.009	29063.74
684.357	28970.64
684.705	29047.92
685.053	29032.78
685.4	28882.96
685.748	28840.47
686.095	28795.5
686.443	28658.78
686.79	28611.78
687.138	28675.96
687.485	28675.05
687.832	28433.93
688.18	28561.83
688.527	28367.94
688.874	28296.53
689.221	28357.77
689.568	28192.8
689.915	28066.93
690.262	28134.95
690.609	28042.3
690.956	27860.61
691.303	27901.96
691.65	27750.1
691.997	27846.37
692.344	27610.22
692.69	27456.55
693.037	27632.59
693.383	27337.46
693.73	27375.42
694.077	27287.29
694.423	27297.69
694.769	27300.62
695.116	27112.83
695.462	27208.42
695.808	27026.73
696.155	27108.99
696.501	26842.56
696.847	26810.24
697.193	26596.91
697.539	26739.51
697.885	26574.99
698.231	26434.88
698.577	26407.99
698.923	26431.04
699.269	26277.37
699.614	26191.95
699.96	26115.57
700.306	26172.07
700.651	26052.97
700.997	26033.31
701.342	25966.87
701.688	25873.54
702.033	25836.03
702.379	25716.94
702.724	25620.44
703.069	25663.15
703.415	25349.26
703.76	25480.11
704.105	25305.65
704.45	25168.93
704.795	25242.15
705.14	25118.76
705.485	24973.45
705.83	24938.65
706.175	25086.44
706.52	24789.96
706.865	24812.1
707.209	24773.91
707.554	24643.74
707.899	24680.81
708.243	24674.7
708.588	24543.86
708.932	24339.12
709.277	24313.81
709.621	24485.78
709.966	24161.5
710.31	24337.76
710.654	24048.28
710.998	24162.63
711.342	24105.68
711.687	24079.24
712.031	23952.69
712.375	23889.19
712.719	23860.26
713.063	23792.02
713.407	23952.92
713.75	23662.75
714.094	23762.86
714.438	23633.15
714.782	23670.44
715.125	23599.93
715.469	23587.73
715.812	23432.7
716.156	23394.06
716.499	23267.51
716.843	23345.93
717.186	23296.21
717.53	23264.8
717.873	23262.99
718.216	23149.55
718.559	23174.18
718.902	22926.5
719.246	23044.01
719.589	22999.27
719.932	22862.1
720.275	22916.56
720.617	22752.04
720.96	22806.5
721.303	22775.77
721.646	22684.7
721.989	22637.24
722.331	22581.88
722.674	22658.03
723.016	22574.42
723.359	22503.24
723.701	22517.02
724.044	22358.38
724.386	22233.41
724.729	22441.54
725.071	22282.68
725.413	22176.69
725.755	22184.83
726.097	22043.81
726.439	22010.82
726.782	22013.98
727.124	22044.94
727.465	22024.38
727.807	22080.65
728.149	21918.39
728.491	21866.87
728.833	21866.64
729.175	21825.29
729.516	21798.4
729.858	21689.7
730.199	21845.17
730.541	21649.47
730.882	21626.42
731.224	21717.72
731.565	21439.31
731.906	21408.58
732.248	21495.8
732.589	21359.54
732.93	21331.06
733.271	21275.25
733.612	21331.97
733.953	21489.03
734.294	21278.86
734.635	21270.95
734.976	21310.05
735.317	21169.71
735.658	21095.82
735.999	21058.98
736.339	21049.49
736.68	21019.43
737.021	20971.75
737.361	20858.31
737.702	20995.48
738.042	20916.61
738.383	20870.74
738.723	20851.75
739.063	20854.47
739.404	20821.02
739.744	20806.11
740.084	20718.65
740.424	20760.23
740.764	20618.54
741.104	20693.57
741.444	20601.59
741.784	20605.43
742.124	20544.42
742.464	20655.15
742.804	20540.58
743.143	20447.92
743.483	20451.99
743.823	20425.55
744.162	20352.33
744.502	20353.69
744.841	20300.81
745.181	20309.85
745.52	20148.04
745.86	20176.29
746.199	20140.36
746.538	20095.84
746.877	20111.43
747.216	20068.05
747.556	20037.99
747.895	20108.5
748.234	19908.95
748.573	19952.12
748.911	19898.11
749.25	19821.72
749.589	19863.31
749.928	19799.35
750.267	19738.79
750.605	19696.76
750.944	19653.37
751.283	19606.81
751.621	19689.98
751.96	19614.95
752.298	19507.61
752.636	19516.65
752.975	19399.59
753.313	19305.81
753.651	19395.07
753.989	19335.64
754.327	19231.68
754.666	19162.31
755.004	19218.8
755.342	19086.6
755.679	19098.13
756.017	19042.08
756.355	19104.23
756.693	18947.17
757.031	18958.24
757.368	18871.02
757.706	18792.83
758.044	18763
758.381	18873.5
758.719	18603.68
759.056	18631.7
759.394	18620.4
759.731	18466.51
760.068	18359.39
760.405	18338.15
760.743	18352.16
761.08	18299.05
761.417	18312.84
761.754	18225.83
762.091	18182.45
762.428	18127.08
762.765	18018.38
763.102	18168.43
763.438	17951.49
763.775	17883.24
764.112	17837.6
764.449	17828.78
764.785	17697.49
765.122	17714.44
765.458	17648.22
765.795	17583.37
766.131	17511.5
766.467	17500.2
766.804	17415.01
767.14	17264.28
767.476	17300.89
767.812	17193.77
768.148	17173.66
768.485	17135.92
768.821	16925.08
769.157	16965.53
769.492	16996.49
769.828	16918.75
770.164	16828.81
770.5	16682.37
770.836	16726.89
771.171	16643.5
771.507	16545.88
771.842	16458.88
772.178	16493.45
772.513	16390.18
772.849	16345.88
773.184	16315.15
773.519	16253.91
773.855	16109.51
774.19	16175.04
774.525	16074.93
774.86	16036.51
775.195	15986.57
775.53	15910.19
775.865	15837.2
776.2	15692.34
776.535	15615.51
776.87	15614.6
777.205	15627.48
777.539	15431.11
777.874	15502.29
778.209	15489.86
778.543	15475.62
778.878	15291.67
779.212	15334.16
779.547	15275.86
779.881	15194.28
780.215	15139.81
780.55	15205.57
780.884	15027.5
781.218	15010.55
781.552	14968.52
781.886	14901.18
782.22	14761.74
782.554	14676.55
782.888	14607.17
783.222	14568.08
783.556	14522.43
783.889	14516.55
784.223	14363.56
784.557	14379.83
784.89	14366.5
785.224	14305.71
785.557	14284.02
785.891	14181.42
786.224	14110.69
786.558	14101.42
786.891	13948.43
787.224	13981.65
787.557	13909.56
787.891	13907.53
788.224	13914.99
788.557	13870.69
788.89	13789.11
789.223	13801.32
789.556	13586.18
789.888	13618.95
790.221	13541.44
790.554	13413.53
790.887	13486.52
791.219	13431.16
791.552	13392.74
791.884	13305.51
792.217	13255.57
792.549	13241.56
792.882	13221.22
793.214	13031.17
793.546	13068.23
793.879	12980.32
794.211	13037.5
794.543	13017.61
794.875	12936.71
795.207	12985.97
795.539	12852.19
795.871	12932.41
796.203	12751.63
796.535	12725.19
796.867	12743.27
797.198	12658.75
797.53	12602.03
797.862	12559.09
798.193	12568.58
798.525	12472.31
798.856	12430.28
799.188	12332.88
799.519	12262.83
799.85	12304.41
800.182	12311.64
800.513	12278.65
800.844	12165.2
801.175	12181.25
801.506	12246.33
801.837	12120.68
802.168	12068.48
802.499	11916.4
802.83	11944.87
803.161	11841.14
803.491	11908.03
803.822	11865.32
804.153	11842.5
804.483	11710.07
804.814	11652.67
805.145	11615.61
805.475	11737.19
805.805	11674.59
806.136	11589.62
806.466	11606.12
806.796	11562.28
807.126	11449.29
807.457	11480.7
807.787	11462.17
808.117	11362.29
808.447	11326.81
808.777	11307.82
809.107	11346.69
809.436	11325.9
809.766	11280.03
810.096	11249.29
810.426	11198.67
810.755	11213.36
811.085	11170.65
811.414	11187.83
811.744	11019.7
812.073	11085.91
812.403	11033.26
812.732	10993.93
813.061	10981.05
813.39	10949.87
813.719	10920.26
814.049	10915.52
814.378	10906.48
814.707	10870.32
815.036	10852.69
815.365	10755.52
815.693	10656.99
816.022	10754.17
816.351	10723.88
816.68	10570.89
817.008	10645.69
817.337	10549.43
817.665	10512.36
817.994	10548.07
818.322	10497.22
818.651	10481.86
818.979	10451.8
819.307	10483.89
819.636	10508.52
819.964	10367.51
820.292	10390.11
820.62	10353.72
820.948	10325.03
821.276	10396.89
821.604	10361.18
821.932	10329.32
822.259	10377.91
822.587	10321.41
822.915	10283.9
823.243	10355.31
823.57	10276.21
823.898	10311.24
824.225	10229.66
824.553	10262.2
824.88	10322.99
825.207	10351.24
825.535	10261.07
825.862	10319.83
826.189	10224.24
826.516	10313.5
826.843	10345.36
827.17	10295.42
827.497	10327.06
827.824	10308.08
828.151	10343.1
828.478	10262.2
828.805	10412.48
829.131	10251.58
829.458	10280.73
829.785	10293.84
830.111	10281.86
830.438	10272.6
830.764	10315.08
831.09	10303.56
831.417	10219.72
831.743	10214.75
832.069	10193.96
832.395	10201.19
832.722	10237.12
833.048	10124.8
833.374	10187.18
833.7	10093.17
834.026	10183.79
834.351	10182.88
834.677	10084.58
835.003	10111.02
835.329	10088.42
835.654	10092.04
835.98	10132.94
836.306	10057.24
836.631	10062.89
836.956	10022.43
837.282	10090.91
837.607	10066.5
837.932	9935.43
838.258	10005.94
838.583	10040.74
838.908	9938.59
839.233	9987.18
839.558	9930.91
839.883	9834.42
840.208	9832.83
840.533	9918.26
840.858	9903.57
841.182	9850.24
841.507	9770.24
841.832	9778.6
842.156	9738.83
842.481	9810.24
842.805	9762.55
843.13	9735.44
843.454	9694.99
843.778	9596.23
844.103	9639.62
844.427	9659.96
844.751	9647.98
845.075	9583.12
845.399	9533.18
845.723	9467.19
846.047	9491.15
846.371	9422.68
846.695	9372.73
847.019	9379.29
847.343	9315.56
847.666	9256.13
847.99	9220.42
848.313	9282.57
848.637	9209.35
848.96	9203.92
849.284	9181.33
849.607	9067.43
849.931	9093.19
850.254	9014.55
850.577	8973.65
850.9	8832.63
851.223	8841.22
851.546	8807.55
851.869	8764.61
852.192	8839.41
852.515	8709.93
852.838	8671.28
853.161	8718.51
853.483	8693.66
853.806	8621.57
854.129	8623.15
854.451	8596.71
854.774	8548.35
855.096	8501.57
855.419	8510.38
855.741	8453.21
856.063	8411.63
856.385	8444.85
856.708	8336.38
857.03	8353.1
857.352	8328.24
857.674	8332.99
857.996	8291.41
858.318	8244.85
858.64	8201.47
858.961	8263.38
859.283	8203.95
859.605	8168.7
859.926	8224.52
860.248	8175.7
860.57	8101.81
860.891	8064.29
861.212	8098.19
861.534	7994.46
861.855	8022.26
862.176	8020
862.498	8048.47
862.819	8019.32
863.14	7963.05
863.461	7993.79
863.782	7933.45
864.103	7934.81
864.424	7936.84
864.745	7885.99
865.065	7878.31
865.386	7876.95
865.707	7880.8
866.027	7879.89
866.348	7896.84
866.668	7804.19
866.989	7759.22
867.309	7778.88
867.63	7716.28
867.95	7711.99
868.27	7744.98
868.59	7719.22
868.91	7786.79
869.23	7732.55
869.55	7664.98
869.87	7688.03
870.19	7646.68
870.51	7685.09
870.83	7634.02
871.15	7621.14
871.469	7622.27
871.789	7609.16
872.109	7539.56
872.428	7528.04
872.748	7608.94
873.067	7534.36
873.386	7603.74
873.706	7510.86
874.025	7467.7
874.344	7481.71
874.663	7500.92
874.982	7485.1
875.301	7431.54
875.62	7454.37
875.939	7384.76
876.258	7466.12
876.577	7408.49
876.896	7399.68
877.214	7392.67
877.533	7367.14
877.852	7369.85
878.17	7289.85
878.489	7353.35
878.807	7330.3
879.125	7316.52
879.444	7285.78
879.762	7289.4
880.08	7258.67
880.398	7251.89
880.716	7194.26
881.034	7229.74
881.352	7199.23
881.67	7174.83
881.988	7174.15
882.306	7172.57
882.624	7178.44
882.941	7116.97
883.259	7133.92
883.577	7099.12
883.894	7068.61
884.212	7040.82
884.529	7020.93
884.846	7022.51
885.164	7017.32
885.481	6997.88
885.798	7000.14
886.115	6949.75
886.432	6950.88
886.75	6931.89
887.067	6893.7
887.383	6887.38
887.7	6906.13
888.017	6832.69
888.334	6860.48
888.651	6864.78
888.967	6826.81
889.284	6810.09
889.6	6788.39
889.917	6709.53
890.233	6721.28
890.55	6740.26
890.866	6732.8
891.182	6680.83
891.498	6716.53
891.815	6684.44
892.131	6641.05
892.447	6599.02
892.763	6583.88
893.079	6578.91
893.395	6536.65
893.71	6563.77
894.026	6522.64
894.342	6500.27
894.657	6531.23
894.973	6449.87
895.289	6464.56
895.604	6359.25
895.92	6417.78
896.235	6375.07
896.55	6347.73
896.865	6317.67
897.181	6328.97
897.496	6273.38
897.811	6260.73
898.126	6247.17
898.441	6246.71
898.756	6176.43
899.071	6155.64
899.386	6206.72
899.7	6134.63
900.015	6074.52
900.33	6063.89
900.644	6032.03
900.959	6060.5
901.273	6000.39
901.588	5978.47
901.902	5980.73
902.216	5971.69
902.531	5923.56
902.845	5919.72
903.159	5890.79
903.473	5872.03
903.787	5864.35
904.101	5851.02
904.415	5832.71
904.729	5761.53
905.042	5806.73
905.356	5782.77
905.67	5712.04
905.984	5717.01
906.297	5690.8
906.611	5646.5
906.924	5658.71
907.237	5648.54
907.551	5583
907.864	5616.9
908.177	5581.87
908.491	5524.02
908.804	5527.19
909.117	5520.41
909.43	5442.22
909.743	5422.1
910.056	5404.93
910.368	5411.71
910.681	5371.71
910.994	5323.57
911.307	5364.25
911.619	5286.29
911.932	5324.03
912.244	5320.64
912.557	5267.76
912.869	5237.48
913.181	5261.88
913.494	5216.01
913.806	5184.37
914.118	5162.9
914.43	5113.64
914.742	5110.02
915.054	5122.22
915.366	5118.61
915.678	5026.41
915.99	5026.63
916.302	5029.35
916.613	5001.1
916.925	4969.91
917.236	4933.75
917.548	4973.98
917.859	4960.19
918.171	4902.34
918.482	4858.95
918.794	4874.77
919.105	4867.32
919.416	4794.32
919.727	4816.7
920.038	4784.38
920.349	4808.56
920.66	4717.71
920.971	4755.91
921.282	4712.74
921.593	4678.39
921.903	4642.01
922.214	4681.78
922.525	4636.59
922.835	4583.48
923.146	4550.04
923.456	4591.84
923.767	4531.96
924.077	4561.33
924.387	4520.88
924.697	4498.06
925.008	4505.29
925.318	4474.11
925.628	4444.5
925.938	4461
926.248	4387.55
926.558	4384.16
926.867	4364.28
927.177	4354.79
927.487	4360.89
927.796	4305.3
928.106	4284.51
928.416	4297.16
928.725	4298.97
929.034	4236.82
929.344	4235.47
929.653	4254.9
929.962	4198.86
930.271	4194.11
930.581	4162.93
930.89	4165.19
931.199	4101.91
931.508	4165.64
931.817	4136.71
932.125	4043.38
932.434	4096.26
932.743	4047.22
933.051	4058.3
933.36	4079.99
933.669	3980.79
933.977	4000.45
934.286	3976.94
934.594	3948.02
934.902	3894.23
935.21	3899.43
935.519	3923.84
935.827	3868.02
936.135	3862.6
936.443	3847.68
936.751	3822.6
937.059	3797.51
937.367	3821.02
937.674	3795.25
937.982	3754.8
938.29	3774.69
938.597	3778.3
938.905	3722.49
939.213	3705.76
939.52	3660.34
939.827	3681.13
940.135	3683.39
940.442	3593.45
940.749	3629.16
941.056	3593
941.363	3581.02
941.67	3578.99
941.977	3571.98
942.284	3554.81
942.591	3577.18
942.898	3591.42
943.205	3538.54
943.511	3516.84
943.818	3486.33
944.125	3483.17
944.431	3458.99
944.738	3448.6
945.044	3474.81
945.35	3434.13
945.657	3405.21
945.963	3427.35
946.269	3390.07
946.575	3388.94
946.881	3381.25
947.187	3298.77
947.493	3351.65
947.799	3324.98
948.105	3317.53
948.41	3287.92
948.716	3278.2
949.022	3272.1
949.327	3229.17
949.633	3208.83
949.938	3182.61
950.244	3172.44
950.549	3176.06
950.854	3187.81
951.16	3117.53
951.465	3187.36
951.77	3108.72
952.075	3099.9
952.38	3143.29
952.685	3120.24
952.99	3084.76
953.294	3018.55
953.599	3086.35
953.904	3043.41
954.209	2991.66
954.513	3044.09
954.818	3026.91
955.122	3035.27
955.426	3006.12
955.731	2982.62
956.035	2928.61
956.339	2968.16
956.643	2978.78
956.948	2917.99
957.252	2927.03
957.556	2916.63
957.86	2883.64
958.163	2879.8
958.467	2867.14
958.771	2838.22
959.075	2888.61
959.378	2805
959.682	2835.73
959.985	2808.84
960.289	2779.46
960.592	2796.41
960.896	2746.69
961.199	2707.82
961.502	2737.65
961.805	2725
962.108	2730.65
962.411	2688.62
962.714	2680.93
963.017	2687.71
963.32	2687.03
963.623	2673.02
963.926	2636.64
964.228	2646.81
964.531	2647.49
964.833	2616.98
965.136	2553.7
965.438	2598
965.741	2609.3
966.043	2539.69
966.345	2562.29
966.648	2565.91
966.95	2539.69
967.252	2546.7
967.554	2557.32
967.856	2528.85
968.158	2506.93
968.46	2486.59
968.761	2514.38
969.063	2484.55
969.365	2451.56
969.666	2480.71
969.968	2441.62
970.269	2478.68
970.571	2428.28
970.872	2416.98
971.174	2399.13
971.475	2418.11
971.776	2375.4
972.077	2348.06
972.378	2358.68
972.679	2371.79
972.98	2349.19
973.281	2311.68
973.582	2344.22
973.883	2321.85
974.183	2337.44
974.484	2313.03
974.785	2283.65
975.085	2315.52
975.386	2308.96
975.686	2278.91
975.986	2233.71
976.287	2258.12
976.587	2243.43
976.887	2221.28
977.187	2219.93
977.487	2234.62
977.787	2201.4
978.087	2154.62
978.387	2186.93
978.687	2176.99
978.987	2154.62
979.286	2152.13
979.586	2118.91
979.885	2139.93
980.185	2119.59
980.484	2126.14
980.784	2091.57
981.083	2075.75
981.382	2122.53
981.682	2095.41
981.981	2062.64
982.28	2088.18
982.579	2043.21
982.878	2056.54
983.177	2058.8
983.475	2059.71
983.774	2031.23
984.073	2013.15
984.372	2004.79
984.67	2000.95
984.969	1962.08
985.267	2008.41
985.566	1980.84
985.864	1934.74
986.162	1969.76
986.461	1975.19
986.759	1965.47
987.057	1945.13
987.355	1898.13
987.653	1911.24
987.951	1933.38
988.249	1887.51
988.547	1879.6
988.844	1879.6
989.142	1882.08
989.44	1868.52
989.737	1830.79
990.035	1868.52
990.332	1823.55
990.63	1821.75
990.927	1835.08
991.224	1869.2
991.521	1798.24
991.819	1818.58
992.116	1786.27
992.413	1826.04
992.71	1760.96
993.006	1752.37
993.303	1769.77
993.6	1763.67
993.897	1742.88
994.193	1739.94
994.49	1763.44
994.787	1716.21
995.083	1728.64
995.379	1701.52
995.676	1703.78
995.972	1703.1
996.268	1700.62
996.565	1693.39
996.861	1643.9
997.157	1656.33
997.453	1650
997.749	1629.21
998.044	1616.1
998.34	1606.38
998.636	1625.37
998.932	1591.02
999.227	1604.58
999.523	1606.61
999.818	1589.21
1000.114	1599.83
1000.409	1582.2
1000.704	1557.35
1001	1539.04
1001.295	1560.06
1001.59	1547.85
1001.885	1539.27
1002.18	1520.96
1002.475	1531.81
1002.77	1549.66
1003.065	1510.34
1003.359	1494.07
1003.654	1485.48
1003.949	1489.55
1004.243	1450
1004.538	1443.45
1004.832	1441.87
1005.127	1455.43
1005.421	1454.52
1005.715	1443.45
1006.009	1440.96
1006.304	1395.54
1006.598	1410.23
1006.892	1419.5
1007.186	1390.34
1007.48	1371.81
1007.773	1386.96
1008.067	1372.94
1008.361	1344.7
1008.655	1393.51
1008.948	1368.2
1009.242	1348.09
1009.535	1346.05
1009.829	1324.81
1010.122	1316.9
1010.415	1322.78
1010.708	1335.21
1011.001	1306.96
1011.295	1299.05
1011.588	1313.28
1011.881	1284.13
1012.173	1280.52
1012.466	1275.32
1012.759	1266.05
1013.052	1241.2
1013.344	1278.71
1013.637	1212.27
1013.93	1255.89
1014.222	1229.22
1014.514	1240.29
1014.807	1223.8
1015.099	1224.93
1015.391	1224.47
1015.683	1210.46
1015.976	1202.55
1016.268	1184.93
1016.56	1189.45
1016.851	1180.63
1017.143	1158.71
1017.435	1153.74
1017.727	1180.63
1018.018	1166.17
1018.31	1151.26
1018.602	1169.11
1018.893	1150.58
1019.185	1153.29
1019.476	1130.69
1019.767	1130.01
1020.058	1111.26
1020.35	1108.32
1020.641	1096.57
1020.932	1105.38
1021.223	1097.25
1021.514	1079.84
1021.804	1069.22
1022.095	1076.23
1022.386	1045.95
1022.677	1033.74
1022.967	1055.44
1023.258	1032.84
1023.548	1050.69
1023.839	1042.56
1024.129	1012.28
1024.419	1017.93
1024.709	974.54
1025	1003.01
1025.29	986.29
1025.58	1014.31
1025.87	991.49
1026.16	984.03
1026.449	981.09
1026.739	950.13
1027.029	972.05
1027.319	991.03
1027.608	919.4
1027.898	929.11
1028.187	920.53
1028.477	924.82
1028.766	955.33
1029.055	932.05
1029.344	918.72
1029.634	888.89
1029.923	904.93
1030.212	897.7
1030.501	894.54
1030.79	887.76
1031.078	878.72
1031.367	880.53
1031.656	880.3
1031.945	890.24
1032.233	851.15
1032.522	871.71
1032.81	847.08
1033.099	848.44
1033.387	831.26
1033.675	835.56
1033.963	836.46
1034.251	831.04
1034.54	817.48
1034.828	832.85
1035.116	825.16
1035.403	805.5
1035.691	800.08
1035.979	798.04
1036.267	791.26
1036.554	805.05
1036.842	819.51
1037.129	769.57
1037.417	799.4
1037.704	774.99
1037.992	774.32
1038.279	794.2
1038.566	795.78
1038.853	795.78
1039.14	795.78
