Data from White_paper_FLMS001491_045.txt Node
Date: Tue Feb 07 10:35:08 GMT 2017
User: dcchb
Spectrometer: FLMS00149
Trigger mode: 0
Integration Time (sec): 2.000000E-2
Scans to average: 10
Electric dark correction enabled: true
Nonlinearity correction enabled: false
Boxcar width: 0
XAxis mode: Wavelengths
Number of Pixels in Spectrum: 2048
>>>>>Begin Spectral Data<<<<<
341.393	-19.36
341.776	-19.36
342.16	-19.36
342.543	-54.62
342.927	-66.37
343.31	-78.12
343.693	-68.18
344.077	-60.72
344.46	-46.26
344.843	-69.98
345.226	-51.91
345.61	-45.35
345.993	-11.23
346.376	5.95
346.759	27.19
347.142	21.76
347.525	39.62
347.908	60.41
348.291	87.75
348.674	89.79
349.057	99.28
349.44	129.78
349.823	153.96
350.206	177.24
350.588	202.1
350.971	230.35
351.354	263.79
351.737	257.69
352.119	275.54
352.502	296.56
352.884	298.37
353.267	321.19
353.65	301.53
354.032	331.14
354.414	342.43
354.797	350.57
355.179	349.44
355.562	346.5
355.944	377.91
356.326	353.96
356.709	333.85
357.091	372.26
357.473	366.39
357.855	362.32
358.238	367.29
358.62	359.84
359.002	374.98
359.384	382.21
359.766	364.81
360.148	364.58
360.53	382.21
360.912	363.9
361.294	379.04
361.676	368.2
362.057	358.25
362.439	375.2
362.821	386.28
363.203	378.82
363.584	399.61
363.966	370.91
364.348	362.55
364.729	372.26
365.111	362.77
365.493	356.22
365.874	358.48
366.256	370.91
366.637	362.32
367.019	346.28
367.4	353.73
367.781	358.71
368.163	368.65
368.544	374.98
368.925	339.27
369.306	347.86
369.688	372.26
370.069	386.28
370.45	377.01
370.831	365.26
371.212	379.04
371.593	343.11
371.974	368.65
372.355	384.02
372.736	370
373.117	360.74
373.498	381.3
373.879	369.1
374.26	360.29
374.641	360.51
375.021	364.81
375.402	382.21
375.783	412.04
376.163	384.92
376.544	397.8
376.925	377.69
377.305	383.56
377.686	380.85
378.066	404.81
378.447	389.44
378.827	398.25
379.208	412.72
379.588	391.25
379.968	389.44
380.349	407.29
380.729	406.61
381.109	419.49
381.489	425.37
381.87	412.94
382.25	410.23
382.63	435.99
383.01	433.28
383.39	427.18
383.77	417.69
384.15	420.17
384.53	423.11
384.91	447.52
385.29	429.66
385.67	448.19
386.049	455.65
386.429	445.93
386.809	434.18
387.189	464.69
387.568	457.46
387.948	464.92
388.328	485.48
388.707	485.71
389.087	469.44
389.466	480.96
389.846	486.61
390.225	498.36
390.605	488.65
390.984	499.04
391.363	486.16
391.743	510.79
392.122	513.96
392.501	520.06
392.881	516.89
393.26	521.86
393.639	545.82
394.018	530.68
394.397	536.78
394.776	547.63
395.155	554.41
395.534	561.64
395.913	560.96
396.292	558.93
396.671	582.43
397.05	604.35
397.429	601.86
397.808	581.07
398.186	611.81
398.565	613.16
398.944	602.77
399.323	601.64
399.701	609.09
400.08	633.5
400.458	647.51
400.837	662.88
401.215	661.3
401.594	678.02
401.972	681.41
402.351	684.8
402.729	682.76
403.107	707.62
403.486	704.68
403.864	727.96
404.242	733.16
404.62	768.19
404.999	762.31
405.377	769.09
405.755	776.32
406.133	802.54
406.511	816.32
406.889	826.04
407.267	854.06
407.645	840.73
408.023	890.67
408.401	891.12
408.779	903.55
409.156	918.24
409.534	974.51
409.912	1004.34
410.29	1014.96
410.667	1047.5
411.045	1066.71
411.422	1098.57
411.8	1094.05
412.178	1131.11
412.555	1150.32
412.933	1200.49
413.31	1214.28
413.687	1245.69
414.065	1275.74
414.442	1263.09
414.819	1309.41
415.197	1336.76
415.574	1367.04
415.951	1410.88
416.328	1445.68
416.705	1451.56
417.082	1479.58
417.46	1533.82
417.837	1558.9
418.214	1543.76
418.591	1584.44
418.967	1641.61
419.344	1646.36
419.721	1676.18
420.098	1706.01
420.475	1700.36
420.852	1734.71
421.228	1761.83
421.605	1757.54
421.982	1812.23
422.358	1829.18
422.735	1875.05
423.111	1879.12
423.488	1937.42
423.864	1942.39
424.241	1948.49
424.617	1975.84
424.994	2024.2
425.37	2044.99
425.746	2045.89
426.123	2069.62
426.499	2109.17
426.875	2144.87
427.251	2214.48
427.627	2274.14
428.003	2284.08
428.379	2288.37
428.756	2329.05
429.132	2351.65
429.507	2401.82
429.883	2436.16
430.259	2486.78
430.635	2454.47
431.011	2501.93
431.387	2575.14
431.763	2629.15
432.138	2610.4
432.514	2669.38
432.89	2697.63
433.265	2793.9
433.641	2807.68
434.016	2844.52
434.392	2844.29
434.767	2947.56
435.143	2935.36
435.518	2982.14
435.894	3033.44
436.269	3069.14
436.644	3140.78
437.02	3124.51
437.395	3165.19
437.77	3221.45
438.145	3240.44
438.52	3285.18
438.895	3317.05
439.271	3312.98
439.646	3443.6
440.021	3423.71
440.395	3458.28
440.77	3444.5
441.145	3510.49
441.52	3580.77
441.895	3563.59
442.27	3613.76
442.645	3588.22
443.019	3646.53
443.394	3622.35
443.769	3691.95
444.143	3658.96
444.518	3753.42
444.892	3748.45
445.267	3720.65
445.641	3788.9
446.016	3826.86
446.39	3870.25
446.764	3875.67
447.139	3889.69
447.513	3943.47
447.887	3934.88
448.262	3956.35
448.636	3965.62
449.01	4018.72
449.384	4063.92
449.758	4096.91
450.132	4111.15
450.506	4177.59
450.88	4195.21
451.254	4180.75
451.628	4233.86
452.002	4319.96
452.376	4316.34
452.75	4359.96
453.123	4408.32
453.497	4466.39
453.871	4515.66
454.244	4577.58
454.618	4590.91
454.992	4628.88
455.365	4661.42
455.739	4769.44
456.112	4830
456.486	4856.89
456.859	4919.49
457.232	5024.12
457.606	5009.43
457.979	5113.16
458.352	5235.64
458.725	5225.7
459.099	5323.77
459.472	5388.63
459.845	5389.76
460.218	5457.33
460.591	5513.82
460.964	5537.33
461.337	5689.41
461.71	5773.25
462.083	5832.69
462.456	5854.38
462.829	5844.44
463.201	6003.98
463.574	5996.75
463.947	6096.41
464.32	6251.43
464.692	6262.05
465.065	6369.39
465.438	6464.53
465.81	6514.25
466.183	6612.33
466.555	6788.37
466.928	6791.76
467.3	6747.24
467.672	6878.99
468.045	7111.97
468.417	7090.96
468.789	7136.38
469.161	7260.44
469.534	7372.08
469.906	7599.19
470.278	7550.15
470.65	7650.72
471.022	7805.06
471.394	7997.37
471.766	8068.33
472.138	8114.21
472.51	8291.83
472.882	8466.06
473.253	8570.92
473.625	8653.4
473.997	8813.17
474.369	8843.68
474.74	8987.86
475.112	9151.69
475.484	9251.35
475.855	9410.9
476.227	9534.28
476.598	9819.02
476.97	9916.19
477.341	10155.28
477.713	10249.52
478.084	10351.66
478.455	10600.7
478.827	10609.06
479.198	10931.31
479.569	10967.92
479.94	11300.79
480.311	11425.98
480.682	11776.48
481.053	11872.07
481.424	12071.62
481.795	12204.72
482.166	12379.63
482.537	12477.03
482.908	12799.51
483.279	12912.95
483.65	13178.71
484.021	13370.34
484.391	13539.15
484.762	13705.25
485.133	13785.24
485.503	14060.04
485.874	14357.21
486.244	14439.46
486.615	14691.66
486.985	14809.62
487.356	15138.66
487.726	15219.56
488.097	15605.99
488.467	15604.18
488.837	15951.06
489.207	16021.57
489.578	16251.39
489.948	16498.62
490.318	16696.35
490.688	16740.65
491.058	17092.28
491.428	17210.24
491.798	17431.93
492.168	17709.66
492.538	17783.11
492.908	18034.62
493.278	18282.3
493.648	18256.31
494.017	18491.79
494.387	18627.83
494.757	18783.76
495.126	19037.99
495.496	19062.85
495.866	19254.93
496.235	19412.67
496.605	19612.44
496.974	19629.38
497.344	19793
497.713	19933.78
498.082	20146.43
498.452	20313.43
498.821	20446.09
499.19	20484.05
499.559	20693.99
499.928	20830.26
500.298	20922.68
500.667	21109.12
501.036	21204.03
501.405	21395.44
501.774	21471.82
502.143	21490.58
502.512	21715.21
502.88	21940.51
503.249	21967.85
503.618	22227.73
503.987	22214.18
504.356	22321.52
504.724	22482.42
505.093	22642.19
505.462	22756.08
505.83	22891.45
506.199	23083.53
506.567	23335.95
506.936	23288.05
507.304	23637.64
507.672	23619.11
508.041	23742.05
508.409	23992.21
508.777	24152.66
509.145	24323.27
509.514	24545.64
509.882	24619.54
510.25	24621.12
510.618	24792.19
510.986	24986.31
511.354	25206.87
511.722	25367.77
512.09	25543.81
512.458	25588.55
512.826	25659.51
513.193	25941.31
513.561	26053.17
513.929	26278.93
514.297	26500.16
514.664	26733.6
515.032	26793.94
515.4	27075.29
515.767	27052.92
516.135	27312.35
516.502	27162.75
516.869	27735.84
517.237	27630.3
517.604	27618.33
517.972	27951.2
518.339	28111.2
518.706	28198.65
519.073	28484.29
519.44	28584.4
519.808	28799.77
520.175	28952.98
520.542	29308.68
520.909	29487.66
521.276	29547.32
521.643	29789.8
522.009	30053.52
522.376	30201.76
522.743	30404.69
523.11	30618.02
523.477	30851.69
523.843	30956.54
524.21	31351.79
524.577	31495.74
524.943	31778.44
525.31	31863.19
525.676	32278.77
526.043	32381.59
526.409	32422.49
526.776	32830.62
527.142	32870.62
527.508	33114
527.874	33326.88
528.241	33490.49
528.607	33689.58
528.973	33936.58
529.339	33913.08
529.705	34342.67
530.071	34610.46
530.437	34703.11
530.803	35026.04
531.169	35156.43
531.535	35061.97
531.901	35408.63
532.267	35467.61
532.632	35713.26
532.998	35947.15
533.364	36005.9
533.73	36105.79
534.095	36360.7
534.461	36580.35
534.826	36633.91
535.192	36936.27
535.557	37137.85
535.923	37282.48
536.288	37298.98
536.653	37501.01
537.019	37414.91
537.384	37668.01
537.749	37721.34
538.114	37960.43
538.479	38082.46
538.845	38190.48
539.21	38131.72
539.575	38482.9
539.94	38457.82
540.305	38718.6
540.67	38731.03
541.034	39011.93
541.399	39111.58
541.764	39239.72
542.129	39372.37
542.494	39553.15
542.858	39645.58
543.223	39667.28
543.587	39882.86
543.952	39854.62
544.316	40092.58
544.681	40079.02
545.045	40256.87
545.41	40548.61
545.774	40435.17
546.138	40653.69
546.503	40871.99
546.867	40907.7
547.231	41072.66
547.595	41290.06
547.959	41387.46
548.324	41387.91
548.688	41613.21
549.052	41723.95
549.416	41780.21
549.779	41867.44
550.143	42050.94
550.507	42269.02
550.871	42367.09
551.235	42431.05
551.599	42658.38
551.962	42906.06
552.326	43016.11
552.689	43129.56
553.053	43082.55
553.417	43238.48
553.78	43600.51
554.143	43473.96
554.507	43885.02
554.87	43847.51
555.234	44220.15
555.597	43953.49
555.96	44242.07
556.323	44381.28
556.686	44388.28
557.05	44693.13
557.413	44850.64
557.776	44917.76
558.139	45174.02
558.502	45315.94
558.865	45383.28
559.228	45631.64
559.59	45730.39
559.953	45810.84
560.316	46182.36
560.679	46220.78
561.041	46417.38
561.404	46553.2
561.767	46928.78
562.129	46728.56
562.492	47038.83
562.854	47164.93
563.217	47207.19
563.579	47330.35
563.941	47686.27
564.304	47753.84
564.666	48140.5
565.028	48045.14
565.39	48225.7
565.753	48391.11
566.115	48495.74
566.477	48789.75
566.839	48872.23
567.201	49011.21
567.563	49111.32
567.925	49445.32
568.287	49358.32
568.648	49545.66
569.01	49604.87
569.372	49884.41
569.734	49788.14
570.095	50063.39
570.457	50311.97
570.819	50359.42
571.18	50317.62
571.542	50597.84
571.903	50631.96
572.265	50750.37
572.626	50777.94
572.987	50939.52
573.349	50962.57
573.71	51113.75
574.071	51307.42
574.432	51407.31
574.794	51624.93
575.155	51605.49
575.516	51530.92
575.877	51692.95
576.238	51820.4
576.599	51869.22
576.96	51904.92
577.32	51985.37
577.681	52114.86
578.042	52175.42
578.403	52235.31
578.763	52235.76
579.124	52290.22
579.485	52486.83
579.845	52562.08
580.206	52540.61
580.566	52456.54
580.927	52504.9
581.287	52748.51
581.648	52608.63
582.008	52765.46
582.368	52698.12
582.728	52825.12
583.089	52755.29
583.449	52794.61
583.809	52855.18
584.169	52981.73
584.529	52862.86
584.889	53192.57
585.249	52969.75
585.609	52920.71
585.969	53121.39
586.329	53040.26
586.688	53119.13
587.048	53042.52
587.408	53080.71
587.768	53088.62
588.127	53085.91
588.487	53067.38
588.846	53261.04
589.206	53043.87
589.565	53115.06
589.925	53350.08
590.284	53178.33
590.643	53222.4
591.003	53345.11
591.362	53491.55
591.721	53308.05
592.08	53352.57
592.44	53490.42
592.799	53454.03
593.158	53371.77
593.517	53395.95
593.876	53550.75
594.235	53407.25
594.593	53548.27
594.952	53577.87
595.311	53506.46
595.67	53581.94
596.029	53691.54
596.387	53732.44
596.746	53749.17
597.104	53691.54
597.463	53659.22
597.822	53847.47
598.18	53739.67
598.538	53652.45
598.897	53809.05
599.255	53676.63
599.613	54105.31
599.972	53860.35
600.33	54028.03
600.688	53863.74
601.046	53896.96
601.404	54081.13
601.762	53965.43
602.12	54174.92
602.478	54223.5
602.836	54132.66
603.194	54017.18
603.552	54155.48
603.91	53943.96
604.268	54240.68
604.625	54148.03
604.983	54181.02
605.341	54054.02
605.698	54215.59
606.056	54306.89
606.413	54197.74
606.771	54321.58
607.128	54382.37
607.485	54303.05
607.843	54337.62
608.2	54497.17
608.557	54551.86
608.914	54456.27
609.272	54592.53
609.629	54542.14
609.986	54675.02
610.343	54549.82
610.7	54733.77
611.057	54725.19
611.414	54752.53
611.771	54790.04
612.127	54890.83
612.484	54817.16
612.841	54914.33
613.198	54805.18
613.554	54868.68
613.911	54960.89
614.267	54963.37
614.624	54844.28
614.98	55007.21
615.337	55096.25
615.693	55007.89
616.05	55013.99
616.406	55198.17
616.762	55019.19
617.118	55052.86
617.475	55110.49
617.831	55133.76
618.187	55199.52
618.543	55205.62
618.899	55358.39
619.255	55302.57
619.611	55277.71
619.967	55271.39
620.323	55389.57
620.678	55218.28
621.034	55329.69
621.39	55327.2
621.746	55244.49
622.101	55475
622.457	55348.9
622.812	55372.17
623.168	55427.99
623.523	55410.37
623.879	55481.32
624.234	55299.41
624.589	55360.2
624.945	55489.01
625.3	55489.01
625.655	55406.52
626.01	55425.05
626.365	55476.58
626.72	55422.57
627.075	55390.48
627.43	55302.57
627.785	55279.07
628.14	55453.98
628.495	55445.84
628.85	55428.9
629.205	55393.64
629.559	55459.18
629.914	55418.73
630.269	55366.98
630.623	55359.52
630.978	55319.07
631.332	55369.69
631.687	55477.03
632.041	55298.05
632.396	55394.09
632.75	55282.46
633.104	55322.46
633.459	55248.34
633.813	55219.41
634.167	55240.65
634.521	55117.27
634.875	55177.38
635.229	55182.57
635.583	55100.09
635.937	55130.37
636.291	55027.55
636.645	55073.42
636.999	55035.46
637.352	55099.19
637.706	54949.59
638.06	55065.06
638.413	55012.86
638.767	54919.3
639.121	55030.26
639.474	54802.47
639.828	54879.53
640.181	54916.37
640.534	54930.6
640.888	54869.81
641.241	54722.7
641.594	54789.59
641.947	54842.7
642.301	54793.88
642.654	54769.93
643.007	54795.01
643.36	54738.74
643.713	54736.48
644.066	54813.32
644.419	54703.49
644.771	54469.82
645.124	54183.96
645.477	54152.55
645.83	54029.84
646.182	53863.74
646.535	53785.1
646.888	53941.93
647.24	53694.48
647.593	53962.72
647.945	53842.04
648.298	53717.98
648.65	53799.79
649.002	53624.88
649.355	53767.02
649.707	53612.9
650.059	53922.72
650.411	54223.28
650.763	54243.62
651.115	54451.29
651.467	54287.23
651.819	54347.57
652.171	54295.37
652.523	54222.15
652.875	54279.32
653.227	54118.65
653.578	54340.79
653.93	54293.78
654.282	54165.2
654.633	54102.6
654.985	54125.2
655.337	54156.61
655.688	54092.89
656.039	54270.06
656.391	53946.22
656.742	54029.84
657.094	54098.08
657.445	54143.28
657.796	54095.15
658.147	54051.08
658.498	54027.12
658.849	54087.24
659.2	54095.82
659.551	54008.37
659.902	54045.88
660.253	53944.64
660.604	53972.21
660.955	53810.41
661.306	54034.81
661.656	53913
662.007	53837.53
662.358	53880.46
662.708	53873.68
663.059	53843.85
663.409	53708.94
663.76	53913.68
664.11	53760.01
664.461	53914.13
664.811	53883.85
665.161	53809.96
665.511	53748.26
665.862	53717.75
666.212	53845.21
666.562	53841.37
666.912	53797.75
667.262	53705.78
667.612	53778.09
667.962	53685.89
668.312	53617.87
668.662	53767.92
669.011	53754.59
669.361	53678.43
669.711	53599.34
670.06	53568.38
670.41	53498.55
670.76	53499.91
671.109	53588.72
671.459	53473.47
671.808	53402.96
672.157	53555.05
672.507	53315.96
672.856	53344.2
673.205	53416.29
673.554	53434.6
673.904	53324.54
674.253	53513.01
674.602	53354.83
674.951	52967.27
675.3	52699.02
675.649	53190.08
675.998	53167.49
676.346	53187.37
676.695	53232.34
677.044	53025.8
677.393	53073.7
677.741	53077.77
678.09	53071.9
678.438	52976.08
678.787	53035.74
679.135	52923.88
679.484	52770.21
679.832	52879.58
680.181	52662.64
680.529	52781.28
680.877	52602.76
681.225	52578.12
681.573	52773.82
681.922	52532.7
682.27	52517.11
682.618	52466.04
682.966	52397.11
683.314	52518.01
683.661	52328.41
684.009	52162.77
684.357	52082.32
684.705	52058.36
685.053	51996.9
685.4	51982.21
685.748	51831.7
686.095	51850.23
686.443	51700.63
686.79	51620.41
687.138	51729.78
687.485	51767.75
687.832	51490.92
688.18	51552.16
688.527	51321.66
688.874	51271.72
689.221	51260.19
689.568	51149.23
689.915	51037.15
690.262	50997.37
690.609	50940.43
690.956	50839.19
691.303	50781.56
691.65	50645.97
691.997	50676.03
692.344	50460.66
692.69	50365.07
693.037	50394.68
693.383	50100.45
693.73	50261.35
694.077	50050.96
694.423	49873.11
694.769	49938.19
695.116	49722.61
695.462	49752.89
695.808	49576.85
696.155	49624.75
696.501	49326.46
696.847	49273.58
697.193	49048.72
697.539	49322.84
697.885	49047.82
698.231	48817.09
698.577	48945
698.923	48834.49
699.269	48611.22
699.614	48336.2
699.96	48324.9
700.306	48321.06
700.651	48174.62
700.997	48085.36
701.342	48007.85
701.688	47964.46
702.033	47878.81
702.379	47896.44
702.724	47871.81
703.069	47801.98
703.415	47145.95
703.76	47347.07
704.105	47357.02
704.45	47289
704.795	46911.83
705.14	46893.07
705.485	46954.32
705.83	46739.18
706.175	46787.31
706.52	46758.84
706.865	46519.07
707.209	46357.04
707.554	46268.23
707.899	46363.37
708.243	46153.43
708.588	46079.99
708.932	45961.57
709.277	45826.89
709.621	45836.83
709.966	45581.7
710.31	45736.95
710.654	45321.14
710.998	45433.9
711.342	45491.53
711.687	45411.76
712.031	45099
712.375	45028.72
712.719	45118.43
713.063	44913.69
713.407	45105.55
713.75	44869.17
714.094	44936.74
714.438	44698.78
714.782	44680.25
715.125	44508.73
715.469	44509.63
715.812	44314.39
716.156	44108.74
716.499	44226.48
716.843	44210.43
717.186	43966.6
717.53	44141.73
717.873	44028.52
718.216	43992.81
718.559	43774.96
718.902	43497.91
719.246	43725.93
719.589	43491.58
719.932	43327.97
720.275	43372.26
720.617	43261.98
720.96	43196.45
721.303	43094.98
721.646	43162.1
721.989	42916.23
722.331	43060.86
722.674	42876.46
723.016	42917.36
723.359	42736.12
723.701	42806.85
724.044	42489.35
724.386	42357.15
724.729	42565.73
725.071	42446.86
725.413	42538.61
725.755	42296.13
726.097	42260.2
726.439	42045.29
726.782	42108.79
727.124	42179.07
727.465	42147.89
727.807	41910.83
728.149	41887.56
728.491	41836.48
728.833	41817.73
729.175	41715.81
729.516	41586.55
729.858	41560.56
730.199	41640.78
730.541	41482.82
730.882	41445.31
731.224	41595.14
731.565	41285.99
731.906	41216.61
732.248	41257.29
732.589	41158.08
732.93	41044.42
733.271	40978.43
733.612	41047.35
733.953	41054.36
734.294	40788.6
734.635	40749.73
734.976	40852.56
735.317	40626.12
735.658	40540.7
735.999	40628.83
736.339	40465.67
736.68	40516.75
737.021	40396.52
737.361	40320.14
737.702	40386.58
738.042	40388.61
738.383	40146.59
738.723	40120.82
739.063	40138.22
739.404	40178.22
739.744	40112.01
740.084	39885.8
740.424	39940.94
740.764	39818.46
741.104	39942.3
741.444	39757.9
741.784	39608.75
742.124	39629.31
742.464	39560.16
742.804	39539.82
743.143	39467.96
743.483	39499.82
743.823	39099.83
744.162	39294.63
744.502	39409.43
744.841	39182.54
745.181	39350.22
745.52	39226.61
745.86	39186.61
746.199	39046.05
746.538	38834.98
746.877	39070.91
747.216	39097.35
747.556	38895.77
747.895	38938.03
748.234	38693.74
748.573	38682.67
748.911	38693.52
749.25	38585.04
749.589	38398.16
749.928	38566.29
750.267	38474.09
750.605	38349.12
750.944	38200.2
751.283	38109.8
751.621	38193.87
751.96	37899.41
752.298	37995.23
752.636	37964.5
752.975	37800.21
753.313	37677.95
753.651	37695.12
753.989	37625.75
754.327	37583.94
754.666	37311.18
755.004	37378.97
755.342	37511.63
755.679	37282.93
756.017	37053.11
756.355	37170.84
756.693	37030.51
757.031	37002.04
757.368	36865.09
757.706	36856.05
758.044	36609.73
758.381	36587.81
758.719	36514.59
759.056	36566.79
759.394	36495.83
759.731	36112.57
760.068	36183.53
760.405	36061.04
760.743	35890.88
761.08	36019.69
761.417	35638.23
761.754	35570.89
762.091	35607.27
762.428	35470.1
762.765	35355.3
763.102	35342.87
763.438	35189.43
763.775	35061.52
764.112	35013.84
764.449	34970.68
764.785	34840.74
765.122	34603.23
765.458	34478.94
765.795	34516.23
766.131	34438.04
766.467	34212.73
766.804	34156.91
767.14	34041.66
767.476	34049.57
767.812	33874.66
768.148	33789.01
768.485	33558.96
768.821	33402.13
769.157	33345.86
769.492	33425.18
769.828	33283.94
770.164	32955.36
770.5	32974.34
770.836	32997.85
771.171	32581.13
771.507	32718.98
771.842	32387.69
772.178	32477.86
772.513	32349.5
772.849	32359.22
773.184	32082.16
773.519	32048.49
773.855	31909.06
774.19	31850.76
774.525	31676.75
774.86	31544.78
775.195	31629.97
775.53	31443.54
775.865	31259.36
776.2	31089.42
776.535	30900.95
776.87	30817.11
777.205	30754.97
777.539	30694.63
777.874	30711.13
778.209	30450.12
778.543	30305.49
778.878	30045.61
779.212	30190.24
779.547	29972.16
779.881	30077.47
780.215	29801.55
780.55	29879.06
780.884	29673.64
781.218	29545.73
781.552	29539.41
781.886	29556.36
782.22	29312.97
782.554	29207.89
782.888	28823.04
783.222	28949.82
783.556	28650.39
783.889	28688.13
784.223	28529.49
784.557	28417.18
784.89	28456.27
785.224	28300.8
785.557	28209.5
785.891	28111.2
786.224	28086.11
786.558	28042.05
786.891	27612
787.224	27734.48
787.557	27582.85
787.891	27568.84
788.224	27409.07
788.557	27549.4
788.89	27324.1
789.223	27287.49
789.556	27119.58
789.888	26972.47
790.221	26789.42
790.554	26678.69
790.887	26755.53
791.219	26690.44
791.552	26603.44
791.884	26488.19
792.217	26276.67
792.549	26193.96
792.882	26055.43
793.214	26030.12
793.546	26060.18
793.879	25896.34
794.211	25750.35
794.543	25834.65
794.875	25656.12
795.207	25635.1
795.539	25508.33
795.871	25428.78
796.203	25298.39
796.535	25204.15
796.867	25142.23
797.198	25056.81
797.53	25007.1
797.862	24752.87
798.193	24911.73
798.525	24750.38
798.856	24732.53
799.188	24587.45
799.519	24422.03
799.85	24262.71
800.182	24240.34
800.513	24368.24
800.844	24118.98
801.175	24178.64
801.506	24118.53
801.837	24024.07
802.168	24066.33
802.499	23940.01
802.83	23775.49
803.161	23728.03
803.491	23570.3
803.822	23657.53
804.153	23638.55
804.483	23369.85
804.814	23320.81
805.145	23263.19
805.475	23205.56
805.805	23112.01
806.136	23200.59
806.466	23170.99
806.796	22967.15
807.126	22805.35
807.457	22876.08
807.787	22860.71
808.117	22761.28
808.447	22643.09
808.777	22669.76
809.107	22562.42
809.436	22400.84
809.766	22343.21
810.096	22310.22
810.426	22222.31
810.755	22362.65
811.085	22220.28
811.414	22223.44
811.744	21972.37
812.073	22021.41
812.403	22032.49
812.732	21786.62
813.061	21883.56
813.39	21715.66
813.719	21605.83
814.049	21721.08
814.378	21558.83
814.707	21438.6
815.036	21436.34
815.365	21317.93
815.693	21058.05
816.022	21210.81
816.351	21060.99
816.68	20970.14
817.008	21167.88
817.337	20846.75
817.665	20915.9
817.994	20900.99
818.322	20823.7
818.651	20821.67
818.979	20712.29
819.307	20784.83
819.636	20768.79
819.964	20554.78
820.292	20563.37
820.62	20591.39
820.948	20564.73
821.276	20626.42
821.604	20589.13
821.932	20596.37
822.259	20520.44
822.587	20508.23
822.915	20411.96
823.243	20559.3
823.57	20480.44
823.898	20508.46
824.225	20404.28
824.553	20444.05
824.88	20372.64
825.207	20446.54
825.535	20498.74
825.862	20443.37
826.189	20366.54
826.516	20526.31
826.843	20497.84
827.17	20550.49
827.497	20497.38
827.824	20461.91
828.151	20514.11
828.478	20409.03
828.805	20521.34
829.131	20427.78
829.458	20423.94
829.785	20356.82
830.111	20388.01
830.438	20462.13
830.764	20330.84
831.09	20403.6
831.417	20207.67
831.743	20371.96
832.069	20324.51
832.395	20163.61
832.722	20284.51
833.048	20276.6
833.374	20228.92
833.7	20140.33
834.026	20212.87
834.351	20213.1
834.677	20208.58
835.003	20185.75
835.329	20113.89
835.654	20070.05
835.98	20088.58
836.306	20035.93
836.631	19838.87
836.956	19916.16
837.282	19904.86
837.607	19931.75
837.932	19864.41
838.258	19858.98
838.583	19834.35
838.908	19726.78
839.233	19646.33
839.558	19747.8
839.883	19659.21
840.208	19642.27
840.533	19552.1
840.858	19536.96
841.182	19594.36
841.507	19524.3
841.832	19415.83
842.156	19415.83
842.481	19325.66
842.805	19327.92
843.13	19242.28
843.454	19213.58
843.778	19074.82
844.103	19166.57
844.427	19106.69
844.751	19095.61
845.075	19034.15
845.399	18920.25
845.723	18874.15
846.047	18890.87
846.371	18717.32
846.695	18729.07
847.019	18418.57
847.343	18516.42
847.666	18358.68
847.99	18261.74
848.313	18261.96
848.637	18009.54
848.96	18163.43
849.284	18073.49
849.607	17873.95
849.931	17889.77
850.254	17775.2
850.577	17651.36
850.9	17688.42
851.223	17600.51
851.546	17523.68
851.869	17304.7
852.192	17453.85
852.515	17283.68
852.838	17262.67
853.161	17243.69
853.483	17168.21
853.806	17085.95
854.129	17014.09
854.451	16937.48
854.774	16932.96
855.096	16875.33
855.419	16779.52
855.741	16824.49
856.063	16590.37
856.385	16612.29
856.708	16574.78
857.03	16555.57
857.352	16526.87
857.674	16447.1
857.996	16342.24
858.318	16264.5
858.64	16241.9
858.961	16227.67
859.283	16285.74
859.605	16071.29
859.926	16177.05
860.248	16052.3
860.57	16009.14
860.891	16054.11
861.212	15843.95
861.534	15977.5
861.855	15857.73
862.176	15813.67
862.498	15894.79
862.819	15813.67
863.14	15835.13
863.461	15720.11
863.782	15689.6
864.103	15676.27
864.424	15667.23
864.745	15669.26
865.065	15503.17
865.386	15424.75
865.707	15443.05
866.027	15476.27
866.348	15370.74
866.668	15436.95
866.989	15402.38
867.309	15232.21
867.63	15207.35
867.95	15262.27
868.27	15131.2
868.59	15120.8
868.91	15149.95
869.23	15184.08
869.55	15076.96
869.87	15175.72
870.19	15120.58
870.51	15167.58
870.83	15107.92
871.15	15060.92
871.469	14999.22
871.789	15147.47
872.109	15022.27
872.428	14956.06
872.748	14950.19
873.067	14871.54
873.386	14929.4
873.706	14841.26
874.025	14787.03
874.344	14795.61
874.663	14775.95
874.982	14706.35
875.301	14671.32
875.62	14668.16
875.939	14674.04
876.258	14677.88
876.577	14599.69
876.896	14554.94
877.214	14581.38
877.533	14520.82
877.852	14479.92
878.17	14519.69
878.489	14540.71
878.807	14508.62
879.125	14476.98
879.444	14401.95
879.762	14362.63
880.08	14361.73
880.398	14264.78
880.716	14199.25
881.034	14264.78
881.352	14262.52
881.67	14121.73
881.988	14197.21
882.306	14122.41
882.624	14080.15
882.941	14012.36
883.259	13987.05
883.577	13904.79
883.894	13918.35
884.212	13929.2
884.529	13921.96
884.846	13876.09
885.164	13709.99
885.481	13707.51
885.798	13838.35
886.115	13724.46
886.432	13740.05
886.75	13606.27
887.067	13685.81
887.383	13536.89
887.7	13620.96
888.017	13506.61
888.334	13542.09
888.651	13453.73
888.967	13378.7
889.284	13334.64
889.6	13301.64
889.917	13228.42
890.233	13261.19
890.55	13187.75
890.866	13112.27
891.182	13117.69
891.498	13134.41
891.815	13101.2
892.131	13022.78
892.447	12980.07
892.763	12895.55
893.079	12917.92
893.395	12783.69
893.71	12814.2
894.026	12707.53
894.342	12737.36
894.657	12681.32
894.973	12690.36
895.289	12623.92
895.604	12615.56
895.92	12585.73
896.235	12428.44
896.55	12458.5
896.865	12442.23
897.181	12383.02
897.496	12340.31
897.811	12249.92
898.126	12169.69
898.441	12170.37
898.756	12172.41
899.071	12089.47
899.386	12067.55
899.7	12020.32
900.015	11914.11
900.33	11908.91
900.644	11863.94
900.959	11876.82
901.273	11777.39
901.588	11816.03
901.902	11632.99
902.216	11678.18
902.531	11659.88
902.845	11601.57
903.159	11495.81
903.473	11409.49
903.787	11393.22
904.101	11359.77
904.415	11359.77
904.729	11297.85
905.042	11233.9
905.356	11172.88
905.67	11195.26
905.984	11184.86
906.297	11124.3
906.611	10984.64
906.924	11034.13
907.237	11013.34
907.551	10964.98
907.864	10899.22
908.177	10855.6
908.491	10832.1
908.804	10717.08
909.117	10664.65
909.43	10648.38
909.743	10671.88
910.056	10599.57
910.368	10622.39
910.681	10457.87
910.994	10451.1
911.307	10521.15
911.619	10392.34
911.932	10282.74
912.244	10306.24
912.557	10270.31
912.869	10138.56
913.181	10144.89
913.494	10128.84
913.806	9988.06
914.118	10018.34
914.43	9956.42
914.742	9938.34
915.054	9898.34
915.366	9870.77
915.678	9794.84
915.99	9737.67
916.302	9749.87
916.613	9630.33
916.925	9658.8
917.236	9609.76
917.548	9592.13
917.859	9580.84
918.171	9460.84
918.482	9363.67
918.794	9407.73
919.105	9359.82
919.416	9276.44
919.727	9325.7
920.038	9246.61
920.349	9179.72
920.66	9124.58
920.971	9180.62
921.282	9140.62
921.593	9053.62
921.903	8999.16
922.214	8995.99
922.525	8910.12
922.835	8883.45
923.146	8897.01
923.456	8745.83
923.767	8749.22
924.077	8781.99
924.387	8706.28
924.697	8640.75
925.008	8653.85
925.318	8574.31
925.628	8572.27
925.938	8524.14
926.248	8495.44
926.558	8432.84
926.867	8412.5
927.177	8472.39
927.487	8377.03
927.796	8304.26
928.106	8285.95
928.416	8225.17
928.725	8183.36
929.034	8134.77
929.344	8141.78
929.653	8105.85
929.962	8038.05
930.271	7968.67
930.581	7964.83
930.89	7894.55
931.199	7824.5
931.508	7882.58
931.817	7859.3
932.125	7772.3
932.434	7739.53
932.743	7782.24
933.051	7648.68
933.36	7631.96
933.669	7613.66
933.977	7561.68
934.286	7555.58
934.594	7558.29
934.902	7442.13
935.21	7486.65
935.519	7423.15
935.827	7403.72
936.135	7307.9
936.443	7251.86
936.751	7319.88
937.059	7229.03
937.367	7158.53
937.674	7143.84
937.982	7159.88
938.29	7157.17
938.597	7145.42
938.905	7024.97
939.213	7003.28
939.52	6982.03
939.827	6991.98
940.135	6917.63
940.442	6930.28
940.749	6909.27
941.056	6917.63
941.363	6775.94
941.67	6815.71
941.977	6733
942.284	6665.88
942.591	6699.33
942.898	6702.72
943.205	6642.38
943.511	6566.23
943.818	6555.83
944.125	6548.6
944.431	6482.16
944.738	6508.15
945.044	6447.58
945.35	6427.92
945.657	6388.15
945.963	6394.48
946.269	6328.04
946.575	6288.94
946.881	6269.74
947.187	6238.55
947.493	6252.34
947.799	6176.86
948.105	6143.19
948.41	6111.32
948.716	6106.58
949.022	6132.79
949.327	6047.37
949.633	5954.94
949.938	6003.75
950.244	5970.99
950.549	5934.15
950.854	5925.34
951.16	5896.64
951.465	5867.49
951.77	5838.11
952.075	5812.12
952.38	5774.38
952.685	5776.19
952.99	5724.89
953.294	5766.25
953.599	5688.28
953.904	5680.6
954.209	5609.19
954.513	5659.58
954.818	5590.66
955.122	5592.01
955.426	5533.48
955.731	5506.59
956.035	5505.91
956.339	5482.41
956.643	5434.5
956.948	5349.76
957.252	5422.53
957.556	5363.55
957.86	5348.63
958.163	5294.39
958.467	5321.29
958.771	5307.73
959.075	5265.69
959.378	5197.45
959.682	5257.11
959.985	5140.05
960.289	5208.07
960.592	5133.72
960.896	5115.87
961.199	5114.51
961.502	5058.24
961.805	5046.94
962.108	5012.59
962.411	4995.42
962.714	4977.11
963.017	4937.12
963.32	4937.34
963.623	4877.68
963.926	4858.25
964.228	4825.03
964.531	4807.18
964.833	4843.79
965.136	4808.98
965.438	4783.22
965.741	4759.72
966.043	4750
966.345	4713.39
966.648	4676.78
966.95	4658.48
967.252	4650.57
967.554	4642.66
967.856	4615.32
968.158	4572.38
968.46	4556.33
968.761	4509.78
969.063	4471.14
969.365	4510.69
969.666	4462.55
969.968	4421.65
970.269	4444.47
970.571	4423.01
970.872	4403.57
971.174	4336.91
971.475	4362.67
971.776	4306.4
972.077	4287.19
972.378	4305.72
972.679	4272.5
972.98	4246.74
973.281	4239.96
973.582	4265.27
973.883	4182.79
974.183	4177.14
974.484	4173.97
974.785	4117.25
975.085	4104.6
975.386	4074.99
975.686	4104.14
975.986	4058.04
976.287	4062.79
976.587	4055.11
976.887	3996.8
977.187	3976.46
977.487	3970.81
977.787	3952.28
978.087	3939.4
978.387	3958.61
978.687	3909.35
978.987	3902.11
979.286	3878.16
979.586	3818.73
979.885	3839.07
980.185	3803.59
980.484	3777.15
980.784	3752.51
981.083	3707.77
981.382	3734.89
981.682	3721.55
981.981	3699.63
982.28	3696.02
982.579	3677.49
982.878	3681.56
983.177	3631.61
983.475	3631.61
983.774	3574.44
984.073	3585.97
984.372	3569.24
984.67	3576.25
984.969	3555.46
985.267	3562.69
985.566	3570.15
985.864	3452.41
986.162	3484.72
986.461	3456.25
986.759	3412.64
987.057	3415.35
987.355	3391.17
987.653	3379.64
987.951	3371.28
988.249	3396.14
988.547	3354.78
988.844	3296.93
989.142	3300.77
989.44	3254.9
989.737	3277.72
990.035	3240.66
990.332	3235.47
990.63	3214.22
990.927	3182.59
991.224	3238.63
991.521	3178.29
991.819	3180.1
992.116	3173.32
992.413	3154.11
992.71	3116.82
993.006	3126.54
993.303	3113.44
993.6	3076.6
993.897	3078.63
994.193	3050.16
994.49	3025.53
994.787	3012.19
995.083	3002.7
995.379	3002.48
995.676	2959.77
995.972	2927.68
996.268	2952.31
996.565	2892.88
996.861	2876.15
997.157	2904.85
997.453	2849.71
997.749	2846.32
998.044	2831.63
998.34	2793.67
998.636	2837.51
998.932	2764.74
999.227	2775.36
999.523	2773.33
999.818	2755.48
1000.114	2704.41
1000.409	2689.94
1000.704	2728.36
1001	2675.03
1001.295	2676.84
1001.59	2665.99
1001.885	2668.7
1002.18	2617.63
1002.475	2646.55
1002.77	2604.07
1003.065	2579.21
1003.359	2575.14
1003.654	2561.59
1003.949	2527.01
1004.243	2505.54
1004.538	2528.59
1004.832	2507.8
1005.127	2497.63
1005.421	2438.65
1005.715	2456.96
1006.009	2445.43
1006.304	2442.04
1006.598	2442.27
1006.892	2399.56
1007.186	2351.87
1007.48	2388.48
1007.773	2352.33
1008.067	2342.38
1008.361	2331.53
1008.655	2330.63
1008.948	2308.94
1009.242	2290.86
1009.535	2265.55
1009.829	2279.56
1010.122	2284.53
1010.415	2215.15
1010.708	2223.51
1011.001	2201.37
1011.295	2169.51
1011.588	2192.1
1011.881	2147.13
1012.173	2162.73
1012.466	2123.4
1012.759	2128.38
1013.052	2107.13
1013.344	2095.38
1013.637	2102.16
1013.93	2079.79
1014.222	2063.75
1014.514	2028.72
1014.807	2052.22
1015.099	2068.49
1015.391	2018.77
1015.683	2002.5
1015.976	2008.83
1016.268	1964.54
1016.56	1942.39
1016.851	1953.92
1017.143	1951.88
1017.435	1930.64
1017.727	1909.4
1018.018	1877.08
1018.31	1899.91
1018.602	1889.06
1018.893	1875.5
1019.185	1836.86
1019.476	1837.54
1019.767	1806.8
1020.058	1818.55
1020.35	1813.36
1020.641	1794.6
1020.932	1745.56
1021.223	1768.39
1021.514	1760.02
1021.804	1728.61
1022.095	1734.94
1022.386	1729.52
1022.677	1713.7
1022.967	1701.49
1023.258	1653.81
1023.548	1653.59
1023.839	1668.95
1024.129	1636.64
1024.419	1612.68
1024.709	1623.76
1025	1614.72
1025.29	1582.85
1025.58	1587.37
1025.87	1574.94
1026.16	1549.18
1026.449	1551.67
1026.739	1539.01
1027.029	1534.72
1027.319	1525
1027.608	1510.99
1027.898	1494.72
1028.187	1492.91
1028.477	1495.4
1028.766	1471.67
1029.055	1489.52
1029.344	1444.33
1029.634	1435.06
1029.923	1423.08
1030.212	1403.2
1030.501	1395.51
1030.79	1392.12
1031.078	1390.99
1031.367	1364.1
1031.656	1351.22
1031.945	1364.1
1032.233	1368.4
1032.522	1335.63
1032.81	1318.68
1033.099	1333.37
1033.387	1310.09
1033.675	1326.82
1033.963	1306.93
1034.251	1282.75
1034.54	1278.46
1034.828	1256.99
1035.116	1259.47
1035.403	1241.62
1035.691	1258.57
1035.979	1234.16
1036.267	1216.99
1036.554	1236.42
1036.842	1233.03
1037.129	1201.39
1037.417	1209.76
1037.704	1194.16
1037.992	1155.75
1038.279	1164.33
1038.566	1164.33
1038.853	1164.33
1039.14	1164.33
