Data from whiteboard_FLMS001491_00083.txt Node
Date: Wed Feb 08 11:28:29 GMT 2017
User: dcchb
Spectrometer: FLMS00149
Trigger mode: 0
Integration Time (sec): 2.000000E-2
Scans to average: 10
Electric dark correction enabled: true
Nonlinearity correction enabled: false
Boxcar width: 0
XAxis mode: Wavelengths
Number of Pixels in Spectrum: 2048
>>>>>Begin Spectral Data<<<<<
341.393	-4.75
341.776	-4.75
342.16	-4.75
342.543	-78.19
342.927	-78.42
343.31	-77.06
343.693	-66.89
344.077	-56.27
344.46	-63.73
344.843	-72.09
345.226	-50.39
345.61	-30.28
345.993	-0.23
346.376	-2.26
346.759	24.18
347.142	41.13
347.525	34.35
347.908	60.11
348.291	74.8
348.674	76.83
349.057	107.79
349.44	116.61
349.823	137.4
350.206	196.15
350.588	207.68
350.971	235.25
351.354	236.38
351.737	251.52
352.119	281.12
352.502	280.22
352.884	300.78
353.267	302.14
353.65	292.42
354.032	330.39
354.414	319.54
354.797	331.97
355.179	332.87
355.562	348.24
355.944	367.45
356.326	350.95
356.709	369.48
357.091	355.7
357.473	357.28
357.855	381.23
358.238	379.65
358.62	378.97
359.002	365.41
359.384	358.63
359.766	371.52
360.148	357.96
360.53	373.1
360.912	367.9
361.294	361.57
361.676	375.81
362.057	361.57
362.439	379.43
362.821	359.54
363.203	369.93
363.584	358.63
363.966	358.63
364.348	360.44
364.729	359.76
365.111	336.71
365.493	343.04
365.874	350.27
366.256	343.95
366.637	340.33
367.019	367.45
367.4	375.58
367.781	358.18
368.163	369.48
368.544	368.58
368.925	347.56
369.306	367
369.688	364.28
370.069	358.41
370.45	383.27
370.831	374.45
371.212	365.64
371.593	350.5
371.974	371.52
372.355	345.75
372.736	351.63
373.117	379.43
373.498	363.61
373.879	367.67
374.26	366.09
374.641	359.31
375.021	365.64
375.402	359.76
375.783	374.23
376.163	384.85
376.544	397.05
376.925	352.76
377.305	379.43
377.686	379.43
378.066	382.59
378.447	376.94
378.827	381.46
379.208	390.72
379.588	404.06
379.968	404.28
380.349	406.09
380.729	387.33
381.109	388.01
381.489	435.92
381.87	411.06
382.25	420.1
382.63	419.2
383.01	420.55
383.39	422.81
383.77	425.75
384.15	431.18
384.53	431.4
384.91	439.08
385.29	448.58
385.67	438.41
386.049	451.51
386.429	463.26
386.809	453.1
387.189	431.4
387.568	435.69
387.948	451.97
388.328	452.19
388.707	478.18
389.087	475.92
389.466	486.31
389.846	492.19
390.225	491.96
390.605	484.51
390.984	498.97
391.363	521.12
391.743	511.17
392.122	520.44
392.501	533.55
392.881	526.09
393.26	542.58
393.639	562.02
394.018	548.01
394.397	560.21
394.776	581
395.155	595.46
395.534	603.6
395.913	575.8
396.292	599.98
396.671	615.13
397.05	623.71
397.429	615.58
397.808	616.25
398.186	654.45
398.565	659.19
398.944	649.47
399.323	658.51
399.701	659.64
400.08	696.93
400.458	694.9
400.837	694.45
401.215	721.79
401.594	735.35
401.972	741.22
402.351	728.34
402.729	764.73
403.107	784.61
403.486	787.32
403.864	795.01
404.242	838.17
404.62	841.56
404.999	822.35
405.377	865.97
405.755	895.57
406.133	899.64
406.511	904.83
406.889	950.26
407.267	952.97
407.645	990.26
408.023	1004.27
408.401	1012.4
408.779	1026.19
409.156	1053.98
409.534	1067.09
409.912	1091.72
410.29	1108.45
410.667	1118.84
411.045	1150.25
411.422	1140.31
411.8	1175.79
412.178	1237.93
412.555	1258.5
412.933	1215.79
413.31	1286.97
413.687	1330.81
414.065	1348.89
414.442	1354.54
414.819	1385.73
415.197	1426.86
415.574	1435.44
415.951	1451.26
416.328	1453.3
416.705	1495.33
417.082	1520.19
417.46	1538.94
417.837	1563.35
418.214	1566.51
418.591	1578.04
418.967	1599.28
419.344	1633.63
419.721	1652.16
420.098	1667.75
420.475	1679.5
420.852	1672.5
421.228	1737.58
421.605	1784.59
421.982	1769.45
422.358	1776
422.735	1786.85
423.111	1826.62
423.488	1850.12
423.864	1857.13
424.241	1906.84
424.617	1897.13
424.994	1932.83
425.37	1964.92
425.746	1984.35
426.123	1997.91
426.499	2012.38
426.875	2015.54
427.251	2095.54
427.627	2112.71
428.003	2144.12
428.379	2159.72
428.756	2174.18
429.132	2224.57
429.507	2235.65
429.883	2271.35
430.259	2351.8
430.635	2359.71
431.011	2346.15
431.387	2429.54
431.763	2481.74
432.138	2498.24
432.514	2520.84
432.89	2510.22
433.265	2607.16
433.641	2618.01
434.016	2637.67
434.392	2684.68
434.767	2770.55
435.143	2772.36
435.518	2766.93
435.894	2802.19
436.269	2845.35
436.644	2887.61
437.02	2952.24
437.395	2944.1
437.77	2992.01
438.145	3059.81
438.52	3084.44
438.895	3119.24
439.271	3102.97
439.646	3142.97
440.021	3213.93
440.395	3271.55
440.77	3229.29
441.145	3260.93
441.52	3294.83
441.895	3290.76
442.27	3351.32
442.645	3370.08
443.019	3422.51
443.394	3424.54
443.769	3477.42
444.143	3440.81
444.518	3516.07
444.892	3501.38
445.267	3535.73
445.641	3546.8
446.016	3590.87
446.39	3625.22
446.764	3617.76
447.139	3643.97
447.513	3681.94
447.887	3654.82
448.262	3754.7
448.636	3752.67
449.01	3808.26
449.384	3841.71
449.758	3896.17
450.132	3928.03
450.506	3954.25
450.88	3987.47
451.254	3973.91
451.628	4076.73
452.002	4097.75
452.376	4120.8
452.75	4195.37
453.123	4187.91
453.497	4260.68
453.871	4314.46
454.244	4405.31
454.618	4445.98
454.992	4476.27
455.365	4537.06
455.739	4675.36
456.112	4656.6
456.486	4713.1
456.859	4740.44
457.232	4823.15
457.606	4848.01
457.979	4951.51
458.352	5047.55
458.725	5097.72
459.099	5132.07
459.472	5249.81
459.845	5257.26
460.218	5334.55
460.591	5390.14
460.964	5397.6
461.337	5514.66
461.71	5629.91
462.083	5735.67
462.456	5713.75
462.829	5726.86
463.201	5856.57
463.574	5864.48
463.947	5956.23
464.32	6060.86
464.692	6140.18
465.065	6221.76
465.438	6282.55
465.81	6406.84
466.183	6454.07
466.555	6563.67
466.928	6562.31
467.3	6650.45
467.672	6743.55
468.045	6972.47
468.417	6911.91
468.789	6947.84
469.161	7077.55
469.534	7177.44
469.906	7362.29
470.278	7436.19
470.65	7469.41
471.022	7670.53
471.394	7862.62
471.766	7853.58
472.138	7963.41
472.51	8135.83
472.882	8261.93
473.253	8308.26
473.625	8435.71
473.997	8640.22
474.369	8692.2
474.74	8853.55
475.112	8997.28
475.484	9077.95
475.855	9260.77
476.227	9361.79
476.598	9631.16
476.97	9687.43
477.341	9920.87
477.713	10048.78
478.084	10085.61
478.455	10444.7
478.827	10456.67
479.198	10795.2
479.569	10867.28
479.94	11094.85
480.311	11227.73
480.682	11529.41
481.053	11750.43
481.424	11995.62
481.795	12083.98
482.166	12251.88
482.537	12370.07
482.908	12641.7
483.279	12815.03
483.65	12984.74
484.021	13217.28
484.391	13445.3
484.762	13522.36
485.133	13685.52
485.503	13880.31
485.874	14217.48
486.244	14334.99
486.615	14608.43
486.985	14718.48
487.356	14974.07
487.726	15135.42
488.097	15438.24
488.467	15522.76
488.837	15854.05
489.207	15999.35
489.578	16247.71
489.948	16403.18
490.318	16585.1
490.688	16675.04
491.058	16944.19
491.428	17246.55
491.798	17389.37
492.168	17679.76
492.538	17873.65
492.908	17979.87
493.278	18179.86
493.648	18280.88
494.017	18446.52
494.387	18626.4
494.757	18761.99
495.126	19016.22
495.496	18954.08
495.866	19241.98
496.235	19422.54
496.605	19543.44
496.974	19708.41
497.344	19900.72
497.713	20008.97
498.082	20209.64
498.452	20248.51
498.821	20450.31
499.19	20490.31
499.559	20758.55
499.928	20792.9
500.298	21020.69
500.667	21182.49
501.036	21156.73
501.405	21497.51
501.774	21490.06
502.143	21720.33
502.512	21811.86
502.88	22148.8
503.249	21973.89
503.618	22369.58
503.987	22437.83
504.356	22492.97
504.724	22610.93
505.093	22858.16
505.462	22885.73
505.83	23071.48
506.199	23209.33
506.567	23576.1
506.936	23474.41
507.304	23881.86
507.672	23939.94
508.041	24008.86
508.409	24222.41
508.777	24450.88
509.145	24518.68
509.514	24628.05
509.882	24770.65
510.25	24921.83
510.618	25021.04
510.986	25256.51
511.354	25420.8
511.722	25596.16
512.09	25835.93
512.458	25933.56
512.826	26154.34
513.193	26266.88
513.561	26248.8
513.929	26675.46
514.297	26687.21
514.664	26992.96
515.032	27182.79
515.4	27398.15
515.767	27515.66
516.135	27701.64
516.502	27572.38
516.869	28075.87
517.237	28204.46
517.604	28219.15
517.972	28543.66
518.339	28713.37
518.706	28867.72
519.073	29036.07
519.44	29208.27
519.808	29547.47
520.175	29622.27
520.542	30086.21
520.909	30155.14
521.276	30157.63
521.643	30401.69
522.009	30691.17
522.376	30873.76
522.743	31162.34
523.11	31423.13
523.477	31702.22
523.843	31842.55
524.21	32124.81
524.577	32338.36
524.943	32494.74
525.31	32622.19
525.676	32954.61
526.043	33223.53
526.409	33264.21
526.776	33651.09
527.142	33608.38
527.508	34000.46
527.874	34207.01
528.241	34330.4
528.607	34404.75
528.973	34821.91
529.339	34826.88
529.705	35184.61
530.071	35440.88
530.437	35573.98
530.803	35833.63
531.169	35981.65
531.535	36031.59
531.901	36346.61
532.267	36357.69
532.632	36739.6
532.998	36827.96
533.364	37030.66
533.73	37304.56
534.095	37450.09
534.461	37576.64
534.826	37753.13
535.192	37994.71
535.557	38202.84
535.923	38133.23
536.288	38293
536.653	38483.73
537.019	38570.51
537.384	38735.48
537.749	38969.14
538.114	39137.28
538.479	39045.75
538.845	39433.99
539.21	39439.64
539.575	39509.24
539.94	39733.64
540.305	39838.05
540.67	39861.78
541.034	40039.17
541.399	40170.7
541.764	40257.02
542.129	40286.62
542.494	40357.81
542.858	40609.33
543.223	40819.72
543.587	40980.84
543.952	40972.48
544.316	41059.26
544.681	41161.63
545.045	41353.26
545.41	41597.55
545.774	41673.48
546.138	41780.6
546.503	41994.6
546.867	41953.47
547.231	42418.77
547.595	42330.86
547.959	42492.44
548.324	42594.81
548.688	42654.25
549.052	42934.46
549.416	43040.22
549.779	43118.19
550.143	43310.73
550.507	43457.84
550.871	43575.58
551.235	43656.03
551.599	43958.39
551.962	44027.09
552.326	44229.8
552.689	44382.56
553.053	44150.48
553.417	44420.98
553.78	44931.47
554.143	44620.52
554.507	45008.31
554.87	45051.24
555.234	45470.89
555.597	45282.43
555.96	45611.68
556.323	45603.55
556.686	45782.07
557.05	46192.68
557.413	46171.22
557.776	46218.67
558.139	46469.96
558.502	46427.71
558.865	46606.23
559.228	46937.52
559.59	46986.56
559.953	47056.39
560.316	47461.58
560.679	47488.69
561.041	47821.57
561.404	47953.09
561.767	48113.76
562.129	47975.69
562.492	48382.23
562.854	48548.78
563.217	48447.77
563.579	48658.83
563.941	48940.18
564.304	49140.18
564.666	49339.04
565.028	49337.69
565.39	49455.42
565.753	49646.6
566.115	49766.6
566.477	50063.09
566.839	50147.16
567.201	50285.46
567.563	50367.26
567.925	50574.04
568.287	50663.75
568.648	50752.11
569.01	50783.3
569.372	51186.68
569.734	51035.49
570.095	51286.79
570.457	51316.39
570.819	51401.81
571.18	51471.41
571.542	51684.06
571.903	51714.35
572.265	51870.73
572.626	51947.11
572.987	51927
573.349	52061.23
573.71	52257.38
574.071	52224.16
574.432	52315.69
574.794	52571.05
575.155	52528.34
575.516	52539.64
575.877	52683.59
576.238	52774.21
576.599	52773.08
576.96	52844.26
577.32	52941.88
577.681	53105.5
578.042	53134.42
578.403	53096.46
578.763	53164.93
579.124	53173.52
579.485	53266.17
579.845	53355.66
580.206	53218.26
580.566	53363.57
580.927	53355.66
581.287	53472.72
581.648	53371.93
582.008	53508.42
582.368	53521.76
582.728	53558.37
583.089	53456.22
583.449	53502.1
583.809	53551.59
584.169	53606.73
584.529	53585.71
584.889	53828.42
585.249	53625.71
585.609	53524.69
585.969	53737.34
586.329	53655.09
586.688	53650.34
587.048	53665.71
587.408	53633.17
587.768	53580.06
588.127	53706.16
588.487	53552.72
588.846	53819.15
589.206	53537.12
589.565	53593.39
589.925	53707.97
590.284	53722.2
590.643	53769.21
591.003	53799.04
591.362	53849.21
591.721	53779.38
592.08	53781.64
592.44	53920.84
592.799	53858.24
593.158	53760.85
593.517	53894.63
593.876	53860.05
594.235	53774.41
594.593	53767.63
594.952	53923.78
595.311	53784.57
595.67	53888.07
596.029	54087.84
596.387	54018.92
596.746	54043.78
597.104	53967.85
597.463	53952.03
597.822	54091.69
598.18	53937.79
598.538	53934.4
598.897	54155.19
599.255	53984.57
599.613	54336.88
599.972	54139.37
600.33	54188.63
600.688	54071.57
601.046	54268.4
601.404	54325.35
601.762	54265.69
602.12	54404.45
602.478	54361.06
602.836	54391.34
603.194	54222.53
603.552	54336.88
603.91	54162.64
604.268	54331
604.625	54267.73
604.983	54334.16
605.341	54176.65
605.698	54296.43
606.056	54398.8
606.413	54376.88
606.771	54400.15
607.128	54497.32
607.485	54376.2
607.843	54370.55
608.2	54537.1
608.557	54637.21
608.914	54469.75
609.272	54618.9
609.629	54698
609.986	54723.08
610.343	54639.02
610.7	54884.43
611.057	54808.28
611.414	54747.71
611.771	54738
612.127	54825.68
612.484	54821.61
612.841	54905.9
613.198	54854.38
613.554	54845.79
613.911	54959.91
614.267	54959.46
614.624	54942.06
614.98	55018.21
615.337	55133.24
615.693	55122.39
616.05	55115.39
616.406	55270.19
616.762	55133.69
617.118	55152
617.475	55211.43
617.831	55178.89
618.187	55182.96
618.543	55230.86
618.899	55409.39
619.255	55353.8
619.611	55323.74
619.967	55412.55
620.323	55450.97
620.678	55293.69
621.034	55280.58
621.39	55307.7
621.746	55288.26
622.101	55450.52
622.457	55219.34
622.812	55326
623.168	55276.06
623.523	55327.36
623.879	55414.59
624.234	55176.85
624.589	55257.3
624.945	55421.37
625.3	55346.79
625.655	55327.36
626.01	55280.13
626.365	55349.05
626.72	55294.37
627.075	55208.04
627.43	55192.45
627.785	55095.5
628.14	55201.26
628.495	55191.09
628.85	55243.75
629.205	55041.72
629.559	55275.38
629.914	55079.68
630.269	55027.03
630.623	54901.83
630.978	54865
631.332	55046.24
631.687	55042.62
632.041	54940.7
632.396	54875.39
632.75	54817.09
633.104	54826.13
633.459	54773.7
633.813	54832.68
634.167	54822.06
634.521	54699.13
634.875	54759.46
635.229	54637.89
635.583	54539.13
635.937	54627.26
636.291	54599.24
636.645	54541.84
636.999	54523.31
637.352	54548.4
637.706	54377.33
638.06	54496.42
638.413	54457.1
638.767	54395.86
639.121	54452.13
639.474	54184.11
639.828	54246.03
640.181	54283.32
640.534	54322.19
640.888	54132.59
641.241	54108.41
641.594	54175.98
641.947	54160.38
642.301	54053.72
642.654	54046.94
643.007	54089.2
643.36	54105.24
643.713	54013.27
644.066	54063.89
644.419	53752.71
644.771	53615.77
645.124	53295.1
645.477	53197.7
645.83	53063.69
646.182	52914.77
646.535	52825.28
646.888	52987.99
647.24	52816.69
647.593	52994.99
647.945	52898.72
648.298	52778.05
648.65	52644.49
649.002	52579.41
649.355	52685.39
649.707	52503.25
650.059	52678.39
650.411	52909.12
650.763	52939.85
651.115	53282.67
651.467	53178.04
651.819	53125.83
652.171	53001.09
652.523	52964.71
652.875	52984.82
653.227	52879.97
653.578	53074.54
653.93	52946.18
654.282	52840.19
654.633	52762.23
654.985	52847.42
655.337	52839.97
655.688	52711.16
656.039	52900.08
656.391	52598.17
656.742	52703.92
657.094	52698.73
657.445	52671.84
657.796	52611.95
658.147	52572.63
658.498	52458.28
658.849	52601.1
659.2	52585.74
659.551	52458.06
659.902	52531.5
660.253	52446.08
660.604	52475
660.955	52295.57
661.306	52423.93
661.656	52313.88
662.007	52395.01
662.358	52349.81
662.708	52287.66
663.059	52364.5
663.409	52114.79
663.76	52410.15
664.11	52300.09
664.461	52329.47
664.811	52337.83
665.161	52196.59
665.511	52200.89
665.862	52191.17
666.212	52239.3
666.562	52296.48
666.912	52209.7
667.262	52137.16
667.612	52086.31
667.962	52192.98
668.312	52006.99
668.662	52148.69
669.011	52089.48
669.361	51911.63
669.711	52008.58
670.06	51870.27
670.41	51840.44
670.76	51761.12
671.109	51816.49
671.459	51824.63
671.808	51774.68
672.157	51834.12
672.507	51609.04
672.856	51628.47
673.205	51648.13
673.554	51627.8
673.904	51595.25
674.253	51717.74
674.602	51549.38
674.951	51001.14
675.3	50926.57
675.649	51418.76
675.998	51366.78
676.346	51293.11
676.695	51431.87
677.044	51124.53
677.393	51212.21
677.741	51261.03
678.09	51087.24
678.438	51058.77
678.787	51212.66
679.135	51120.92
679.484	50908.04
679.832	50948.72
680.181	50821.26
680.529	50860.81
680.877	50777.2
681.225	50600.03
681.573	50877.53
681.922	50590.31
682.27	50494.72
682.618	50429.63
682.966	50390.31
683.314	50398.22
683.661	50350.31
684.009	50100.83
684.357	50060.15
684.705	49947.61
685.053	50033.03
685.4	50055.63
685.748	49805.92
686.095	49750.33
686.443	49769.54
686.79	49632.82
687.138	49577.68
687.485	49708.52
687.832	49555.76
688.18	49462.43
688.527	49302.43
688.874	49373.84
689.221	49217.24
689.568	49063.34
689.915	49068.09
690.262	48902.22
690.609	48907.41
690.956	48702.67
691.303	48778.15
691.65	48391.27
691.997	48559.63
692.344	48283.02
692.69	48269.92
693.037	48222.46
693.383	47830.83
693.73	47889.14
694.077	47829.7
694.423	47789.03
694.769	47678.75
695.116	47505.19
695.462	47548.81
695.808	47347.46
696.155	47501.35
696.501	47130.29
696.847	47123.05
697.193	46860.24
697.539	47039.44
697.885	46690.3
698.231	46611.2
698.577	46595.61
698.923	46464.99
699.269	46340.93
699.614	46137.32
699.96	45958.34
700.306	46013.03
700.651	45703.66
700.997	45650.1
701.342	45620.72
701.688	45504.79
702.033	45364.91
702.379	45234.29
702.724	45262.09
703.069	45205.37
703.415	44774.42
703.76	44712.27
704.105	44683.57
704.45	44611.03
704.795	44429.34
705.14	44281.77
705.485	44196.58
705.83	44100.08
706.175	44195.9
706.52	44078.16
706.865	44030.93
707.209	43810.83
707.554	43652.64
707.899	43838.62
708.243	43457.61
708.588	43304.17
708.932	43175.81
709.277	43176.72
709.621	43230.95
709.966	42974.69
710.31	42902.37
710.654	42628.94
710.998	42604.76
711.342	42666.67
711.687	42490.86
712.031	42250.87
712.375	42245.67
712.719	42279.57
713.063	42109.63
713.407	42259
713.75	41950.54
714.094	41884.1
714.438	41633.26
714.782	41795.51
715.125	41672.8
715.469	41465.8
715.812	41449.53
716.156	41239.59
716.499	41286.37
716.843	41239.82
717.186	40822.88
717.53	41245.47
717.873	40939.94
718.216	41026.72
718.559	40885.03
718.902	40500.4
719.246	40726.84
719.589	40419.28
719.932	40336.79
720.275	40240.98
720.617	40272.16
720.96	40135.67
721.303	40061.32
721.646	40170.24
721.989	39984.26
722.331	40076.23
722.674	39747.88
723.016	39865.39
723.359	39747.43
723.701	39685.06
724.044	39482.8
724.386	39405.07
724.729	39525.29
725.071	39337.5
725.413	39276.03
725.755	39328.68
726.097	39152.19
726.439	38840.79
726.782	38846.66
727.124	39001.69
727.465	38720.34
727.807	38816.15
728.149	38796.49
728.491	38518.31
728.833	38462.94
729.175	38366.22
729.516	38304.08
729.858	38309.05
730.199	38353.57
730.541	38187.47
730.882	38267.69
731.224	38197.41
731.565	37833.36
731.906	38038.55
732.248	38039.9
732.589	37721.72
732.93	37623.64
733.271	37650.08
733.612	37719.69
733.953	37725.56
734.294	37416.19
734.635	37402.86
734.976	37526.02
735.317	37201.06
735.658	37141.62
735.999	37185.91
736.339	37215.52
736.68	37283.09
737.021	37198.12
737.361	36914.06
737.702	37213.03
738.042	36940.5
738.383	36783.89
738.723	37060.49
739.063	36766.26
739.404	36799.48
739.744	36761.29
740.084	36454.63
740.424	36550.45
740.764	36416.44
741.104	36562.43
741.444	36191.36
741.784	36151.59
742.124	36136
742.464	36045.38
742.804	35977.36
743.143	35985.49
743.483	35975.78
743.823	35804.71
744.162	35581.44
744.502	35686.29
744.841	35645.16
745.181	35562.45
745.52	35438.62
745.86	35526.3
746.199	35396.36
746.538	35398.62
746.877	35331.27
747.216	35228
747.556	35152.3
747.895	35197.27
748.234	35036.82
748.573	34914.11
748.911	34817.39
749.25	34718.64
749.589	34637.06
749.928	34713.21
750.267	34559.77
750.605	34623.72
750.944	34469.15
751.283	34302.83
751.621	34384.63
751.96	34125.88
752.298	34158.2
752.636	34189.38
752.975	33946.68
753.313	33707.59
753.651	33923.85
753.989	33773.35
754.327	33618.33
754.666	33481.83
755.004	33482.51
755.342	33318.22
755.679	33322.97
756.017	33116.42
756.355	33363.87
756.693	32998
757.031	33049.53
757.368	32853.6
757.706	32818.35
758.044	32594.17
758.381	32613.38
758.719	32562.08
759.056	32577.67
759.394	32501.07
759.731	32202.54
760.068	32227.85
760.405	32018.82
760.743	32004.58
761.08	32048.2
761.417	31765.72
761.754	31636.46
762.091	31676.91
762.428	31494.09
762.765	31351.49
763.102	31425.39
763.438	31254.32
763.775	31139.07
764.112	31187.43
764.449	31052.29
764.785	30943.37
765.122	30713.54
765.458	30565.75
765.795	30521.01
766.131	30505.41
766.467	30381.8
766.804	30219.09
767.14	30132.32
767.476	30040.79
767.812	30016.39
768.148	29971.64
768.485	29805.54
768.821	29576.17
769.157	29631.99
769.492	29495.04
769.828	29395.39
770.164	29082.4
770.5	29149.29
770.836	29189.51
771.171	29059.12
771.507	28874.04
771.842	28726.02
772.178	28687.61
772.513	28527.84
772.849	28577.1
773.184	28386.37
773.519	28322.65
773.855	28137.57
774.19	28225.25
774.525	27990.9
774.86	27965.59
775.195	27756.78
775.53	27794.3
775.865	27597.69
776.2	27465.94
776.535	27277.25
776.87	27340.3
777.205	27215.56
777.539	27077.71
777.874	27021.21
778.209	26854.66
778.543	26832.06
778.878	26614.44
779.212	26641.79
779.547	26449.47
779.881	26533.99
780.215	26315.01
780.55	26378.74
780.884	26037.73
781.218	26032.08
781.552	26058.3
781.886	25831.19
782.22	25626.67
782.554	25621.25
782.888	25368.82
783.222	25188.04
783.556	25146.68
783.889	25133.8
784.223	24971.32
784.557	24923.64
784.89	24958.67
785.224	24740.14
785.557	24611.56
785.891	24749.86
786.224	24497.89
786.558	24597.77
786.891	24178.12
787.224	24047.73
787.557	23984
787.891	23889.77
788.224	23974.51
788.557	23938.81
788.89	23829.88
789.223	23858.81
789.556	23574.07
789.888	23543.79
790.221	23317.35
790.554	23243
790.887	23145.15
791.219	23126.62
791.552	23067.64
791.884	22942.45
792.217	22953.29
792.549	22809.12
792.882	22625.17
793.214	22605.06
793.546	22644.83
793.879	22369.36
794.211	22323.03
794.543	22437.83
794.875	22211.85
795.207	22475.79
795.539	22189.25
795.871	22171.17
796.203	21940.44
796.535	21926.66
796.867	21838.97
797.198	21786.09
797.53	21756.26
797.862	21560.79
798.193	21730.5
798.525	21429.49
798.856	21548.81
799.188	21250.74
799.519	21248.93
799.85	21047.13
800.182	21154.7
800.513	21063.17
800.844	20826.8
801.175	20940.47
801.506	20895.27
801.837	20805.33
802.168	20762.62
802.499	20664.32
802.83	20489.86
803.161	20543.64
803.491	20467.48
803.822	20394.49
804.153	20365.11
804.483	20219.81
804.814	20075.86
805.145	20174.61
805.475	20170.77
805.805	19947.05
806.136	19900.27
806.466	19914.28
806.796	19855.98
807.126	19704.79
807.457	19656.66
807.787	19763.55
808.117	19613.72
808.447	19578.69
808.777	19437.91
809.107	19430.68
809.436	19401.3
809.766	19467.51
810.096	19349.55
810.426	19253.96
810.755	19324.46
811.085	19205.37
811.414	19072.49
811.744	19020.52
812.073	18926.06
812.403	19047.41
812.732	18848.09
813.061	18807.19
813.39	18757.47
813.719	18694.88
814.049	18726.06
814.378	18718.83
814.707	18625.5
815.036	18590.02
815.365	18539.85
815.693	18379.4
816.022	18401.55
816.351	18295.56
816.68	18188.67
817.008	18244.72
817.337	18114.1
817.665	18018.51
817.994	18096.02
818.322	18025.74
818.651	17982.13
818.979	17945.06
819.307	17919.53
819.636	17863.26
819.964	17674.34
820.292	17775.8
820.62	17724.96
820.948	17727.44
821.276	17748.46
821.604	17678.86
821.932	17745.3
822.259	17643.83
822.587	17599.09
822.915	17598.86
823.243	17593.66
823.57	17589.82
823.898	17618.52
824.225	17598.18
824.553	17463.72
824.88	17490.84
825.207	17580.55
825.535	17526.09
825.862	17527.9
826.189	17396.6
826.516	17480.67
826.843	17586.88
827.17	17614.45
827.497	17660.1
827.824	17536.71
828.151	17458.3
828.478	17489.03
828.805	17581.01
829.131	17454.68
829.458	17450.16
829.785	17449.71
830.111	17445.42
830.438	17438.64
830.764	17458.75
831.09	17509.82
831.417	17382.59
831.743	17388.92
832.069	17331.75
832.395	17167.01
832.722	17322.48
833.048	17298.98
833.374	17272.31
833.7	17226.44
834.026	17296.49
834.351	17300.79
834.677	17248.36
835.003	17222.15
835.329	17200.23
835.654	17132.88
835.98	17122.71
836.306	17124.52
836.631	17146.22
836.956	17064.18
837.282	17067.8
837.607	16997.29
837.932	16952.77
838.258	16981.47
838.583	16919.33
838.908	16722.5
839.233	16847.01
839.558	16856.96
839.883	16779.67
840.208	16760.01
840.533	16734.93
840.858	16666.45
841.182	16633.46
841.507	16705.1
841.832	16509.17
842.156	16523.63
842.481	16492.45
842.805	16472.56
843.13	16459.68
843.454	16376.29
843.778	16330.19
844.103	16246.58
844.427	16166.58
844.751	16252.91
845.075	16211.33
845.399	16033.93
845.723	15990.31
846.047	16051.33
846.371	15864.22
846.695	15812.01
847.019	15726.37
847.343	15712.81
847.666	15638.91
847.99	15552.81
848.313	15547.16
848.637	15454.51
848.96	15367.28
849.284	15347.85
849.607	15329.09
849.931	15275.98
850.254	15122.99
850.577	15081.19
850.9	14955.09
851.223	14963.9
851.546	14878.25
851.869	14838.48
852.192	14794.64
852.515	14667.41
852.838	14601.2
853.161	14585.83
853.483	14524.59
853.806	14470.81
854.129	14372.05
854.451	14412.73
854.774	14280.75
855.096	14310.13
855.419	14342.9
855.741	14258.16
856.063	14106.97
856.385	14062.91
856.708	14111.04
857.03	14024.04
857.352	14101.1
857.674	13926.19
857.996	13971.16
858.318	13844.16
858.64	13822.01
858.961	13793.08
859.283	13761.22
859.605	13608.91
859.926	13654.78
860.248	13646.19
860.57	13665.18
860.891	13574.11
861.212	13521.45
861.534	13464.28
861.855	13466.54
862.176	13506.09
862.498	13462.02
862.819	13473.54
863.14	13319.2
863.461	13293.44
863.782	13264.51
864.103	13326.88
864.424	13240.1
864.745	13280.55
865.065	13202.82
865.386	13137.51
865.707	13141.58
866.027	13149.03
866.348	13071.07
866.668	13125.76
866.989	13154.91
867.309	13027.68
867.63	13055.7
867.95	12973.9
868.27	12757.63
868.59	12935.93
868.91	12867.01
869.23	12848.02
869.55	12759.89
869.87	12892.09
870.19	12857.74
870.51	12908.14
870.83	12749.72
871.15	12709.27
871.469	12620.69
871.789	12613.68
872.109	12704.52
872.428	12603.96
872.748	12623.17
873.067	12637.41
873.386	12650.51
873.706	12581.82
874.025	12456.62
874.344	12434.02
874.663	12449.39
874.982	12495.26
875.301	12435.15
875.62	12427.24
875.939	12411.65
876.258	12405.1
876.577	12315.38
876.896	12361.03
877.214	12286
877.533	12254.14
877.852	12171.88
878.17	12220.47
878.489	12203.07
878.807	12182.73
879.125	12137.76
879.444	12074.71
879.762	12123.07
880.08	12106.12
880.398	12034.49
880.716	12108.38
881.034	11991.55
881.352	11998.78
881.67	11880.82
881.988	12042.85
882.306	11904.09
882.624	11840.59
882.941	11835.62
883.259	11749.07
883.577	11752.23
883.894	11733.48
884.212	11744.1
884.529	11691.22
884.846	11701.16
885.164	11625.01
885.481	11548.17
885.798	11564.44
886.115	11542.3
886.432	11519.25
886.75	11545.91
887.067	11516.99
887.383	11386.37
887.7	11393.82
888.017	11295.75
888.334	11349.31
888.651	11309.31
888.967	11341.85
889.284	11217.56
889.6	11223.21
889.917	11176.88
890.233	11201.51
890.55	11053.49
890.866	11037.45
891.182	11033.38
891.498	11074.06
891.815	10980.28
892.131	10992.48
892.447	10860.05
892.763	10879.94
893.079	10846.27
893.395	10731.92
893.71	10859.38
894.026	10755.42
894.342	10750.45
894.657	10677.46
894.973	10667.97
895.289	10604.01
895.604	10533.96
895.92	10541.64
896.235	10432.49
896.55	10419.39
896.865	10413.29
897.181	10377.81
897.496	10399.5
897.811	10305.49
898.126	10223.01
898.441	10255.32
898.756	10199.28
899.071	10157.7
899.386	10133.74
899.7	10098.27
900.015	10003.13
900.33	9992.73
900.644	10010.36
900.959	9986.63
901.273	9869.57
901.588	9820.53
901.902	9751.83
902.216	9752.96
902.531	9773.08
902.845	9769.46
903.159	9703.93
903.473	9672.74
903.787	9586.19
904.101	9575.34
904.415	9544.16
904.729	9481.56
905.042	9469.36
905.356	9397.27
905.67	9440.66
905.984	9434.1
906.297	9368.34
906.611	9306.65
906.924	9279.76
907.237	9233.2
907.551	9171.96
907.864	9158.4
908.177	9171.51
908.491	9121.57
908.804	9015.13
909.117	9001.8
909.43	8967.9
909.743	8850.39
910.056	8927.45
910.368	8888.35
910.681	8863.27
910.994	8737.17
911.307	8799.54
911.619	8691.97
911.932	8712.77
912.244	8632.09
912.557	8632.32
912.869	8561.58
913.181	8499.66
913.494	8513
913.806	8407.69
914.118	8401.59
914.43	8337.41
914.742	8390.51
915.054	8291.53
915.366	8305.09
915.678	8231.2
915.99	8204.3
916.302	8147.13
916.613	8131.99
916.925	8030.75
917.236	8050.86
917.548	8039.34
917.859	8017.87
918.171	7901.04
918.482	7929.74
918.794	7912.11
919.105	7904.2
919.416	7843.86
919.727	7773.13
920.038	7746.24
920.349	7692
920.66	7630.76
920.971	7632.34
921.282	7572
921.593	7571.33
921.903	7521.38
922.214	7510.54
922.525	7424.66
922.835	7420.37
923.146	7383.08
923.456	7312.58
923.767	7295.18
924.077	7292.01
924.387	7263.54
924.697	7212.69
925.008	7248.4
925.318	7197.78
925.628	7169.98
925.938	7096.76
926.248	7061.96
926.558	7001.62
926.867	7016.09
927.177	6978.8
927.487	7000.49
927.796	6820.61
928.106	6932.47
928.416	6838.92
928.725	6883.21
929.034	6741.07
929.344	6772.03
929.653	6760.27
929.962	6663.78
930.271	6675.08
930.581	6686.83
930.89	6553.73
931.199	6582.65
931.508	6565.03
931.817	6575.87
932.125	6514.86
932.434	6476.89
932.743	6433.5
933.051	6391.47
933.36	6358.02
933.669	6311.47
933.977	6344.69
934.286	6302.43
934.594	6276.67
934.902	6193.06
935.21	6203.9
935.519	6231.02
935.827	6167.75
936.135	6146.28
936.443	6009.79
936.751	6052.72
937.059	6024.47
937.367	6009.56
937.674	5986.51
937.982	5943.12
938.29	5915.55
938.597	5989.9
938.905	5895.44
939.213	5860.18
939.52	5851.15
939.827	5830.81
940.135	5800.98
940.442	5761.66
940.749	5761.43
941.056	5700.64
941.363	5672.62
941.67	5655.22
941.977	5621.55
942.284	5587.65
942.591	5570.02
942.898	5534.54
943.205	5502
943.511	5516.01
943.818	5538.16
944.125	5397.6
944.431	5406.19
944.738	5417.26
945.044	5352.63
945.35	5329.35
945.657	5283.7
945.963	5291.39
946.269	5287.54
946.575	5238.73
946.881	5222.46
947.187	5217.49
947.493	5190.15
947.799	5114.44
948.105	5126.64
948.41	5103.59
948.716	5080.54
949.022	5088.23
949.327	5076.7
949.633	4980.89
949.938	4995.8
950.244	4987.67
950.549	4922.36
950.854	4911.06
951.16	4899.31
951.465	4886.43
951.77	4837.16
952.075	4789.48
952.38	4813.21
952.685	4816.37
952.99	4776.15
953.294	4755.81
953.599	4761.23
953.904	4681.01
954.209	4683.49
954.513	4695.47
954.818	4651.63
955.122	4636.49
955.426	4652.98
955.731	4615.92
956.035	4589.48
956.339	4547.45
956.643	4548.35
956.948	4507.9
957.252	4461.58
957.556	4510.84
957.86	4457.51
958.163	4410.51
958.467	4438.08
958.771	4439.66
959.075	4347
959.378	4359.21
959.682	4344.07
959.985	4324.41
960.289	4303.16
960.592	4262.26
960.896	4238.98
961.199	4224.3
961.502	4212.32
961.805	4193.79
962.108	4165.77
962.411	4184.3
962.714	4125.09
963.017	4167.35
963.32	4111.76
963.623	4103.17
963.926	4056.84
964.228	4036.05
964.531	4015.94
964.833	3996.28
965.136	3954.7
965.438	3921.93
965.741	3986.56
966.043	3909.73
966.345	3883.06
966.648	3894.13
966.95	3896.39
967.252	3836.28
967.554	3839.45
967.856	3817.07
968.158	3799.9
968.46	3816.4
968.761	3766.91
969.063	3755.83
969.365	3736.85
969.666	3682.39
969.968	3695.5
970.269	3675.61
970.571	3676.51
970.872	3668.38
971.174	3631.54
971.475	3621.15
971.776	3595.39
972.077	3576.86
972.378	3581.15
972.679	3556.74
972.98	3522.62
973.281	3524.2
973.582	3476.74
973.883	3487.59
974.183	3441.72
974.484	3450.53
974.785	3428.38
975.085	3460.7
975.386	3440.36
975.686	3423.86
975.986	3394.26
976.287	3404.66
976.587	3384.09
976.887	3316.75
977.187	3345
977.487	3294.83
977.787	3276.07
978.087	3257.99
978.387	3249.86
978.687	3261.84
978.987	3260.25
979.286	3226.36
979.586	3182.29
979.885	3192.23
980.185	3198.56
980.484	3176.64
980.784	3143.19
981.083	3103.65
981.382	3096.87
981.682	3136.64
981.981	3132.35
982.28	3078.79
982.579	3071.56
982.878	3084.21
983.177	3039.92
983.475	3005.8
983.774	3030.43
984.073	2991.33
984.372	2950.88
984.67	2955.63
984.969	2930.32
985.267	2980.03
985.566	2940.49
985.864	2913.82
986.162	2907.04
986.461	2904.56
986.759	2895.97
987.057	2875.63
987.355	2841.28
987.653	2810.32
987.951	2825.01
988.249	2796.54
988.547	2778.01
988.844	2796.76
989.142	2817.1
989.44	2754.96
989.737	2767.84
990.035	2697.1
990.332	2679.7
990.63	2701.17
990.927	2688.97
991.224	2667.27
991.521	2610.1
991.819	2634.28
992.116	2644.22
992.413	2623.89
992.71	2606.71
993.006	2590.44
993.303	2563.32
993.6	2544.79
993.897	2580.27
994.193	2549.76
994.49	2505.7
994.787	2508.86
995.083	2487.39
995.379	2499.6
995.676	2490.56
995.972	2421.63
996.268	2404.46
996.565	2427.73
996.861	2431.8
997.157	2425.92
997.453	2388.64
997.749	2393.84
998.044	2345.93
998.34	2397.68
998.636	2352.93
998.932	2318.36
999.227	2346.6
999.523	2331.69
999.818	2299.6
1000.114	2272.93
1000.409	2282.65
1000.704	2269.77
1001	2248.75
1001.295	2257.57
1001.59	2243.1
1001.885	2215.31
1002.18	2219.83
1002.475	2176.89
1002.77	2205.82
1003.065	2160.85
1003.359	2160.62
1003.654	2128.08
1003.949	2136.67
1004.243	2106.16
1004.538	2112.49
1004.832	2084.01
1005.127	2087.85
1005.421	2068.19
1005.715	2063.67
1006.009	2042.88
1006.304	2039.95
1006.598	2016.67
1006.892	2012.38
1007.186	1982.77
1007.48	2006.95
1007.773	1949.55
1008.067	1975.54
1008.361	1922.66
1008.655	1936.9
1008.948	1908.42
1009.242	1881.98
1009.535	1894.87
1009.829	1895.54
1010.122	1863.45
1010.415	1865.49
1010.708	1856.45
1011.001	1865.04
1011.295	1838.37
1011.588	1829.33
1011.881	1825.49
1012.173	1792.04
1012.466	1805.83
1012.759	1775.09
1013.052	1736.45
1013.344	1799.95
1013.637	1785.49
1013.93	1731.71
1014.222	1754.53
1014.514	1740.97
1014.807	1706.85
1015.099	1703.46
1015.391	1708.66
1015.683	1678.15
1015.976	1680.41
1016.268	1658.49
1016.56	1632.5
1016.851	1640.63
1017.143	1613.74
1017.435	1606.51
1017.727	1602.67
1018.018	1604.48
1018.31	1597.02
1018.602	1575.78
1018.893	1580.98
1019.185	1524.25
1019.476	1541.65
1019.767	1520.86
1020.058	1556.57
1020.35	1538.72
1020.641	1512.5
1020.932	1494.42
1021.223	1493.29
1021.514	1466.18
1021.804	1445.61
1022.095	1467.31
1022.386	1461.66
1022.677	1435.89
1022.967	1405.16
1023.258	1418.72
1023.548	1420.98
1023.839	1410.36
1024.129	1403.8
1024.419	1389.12
1024.709	1389.34
1025	1346.63
1025.29	1358.61
1025.58	1340.08
1025.87	1333.07
1026.16	1346.41
1026.449	1293.75
1026.739	1296.46
1027.029	1291.49
1027.319	1291.49
1027.608	1275.67
1027.898	1253.98
1028.187	1283.58
1028.477	1239.97
1028.766	1236.58
1029.055	1255.33
1029.344	1220.08
1029.634	1212.62
1029.923	1224.83
1030.212	1220.53
1030.501	1190.48
1030.79	1161.78
1031.078	1197.93
1031.367	1168.56
1031.656	1169.46
1031.945	1177.37
1032.233	1146.64
1032.522	1140.31
1032.81	1150.03
1033.099	1110.93
1033.387	1116.13
1033.675	1083.36
1033.963	1100.99
1034.251	1093.3
1034.54	1060.54
1034.828	1082.01
1035.116	1063.7
1035.403	1075.9
1035.691	1070.25
1035.979	1055.79
1036.267	1051.95
1036.554	1062.12
1036.842	1030.48
1037.129	1023.93
1037.417	1006.08
1037.704	991.84
1037.992	1009.69
1038.279	980.54
1038.566	1005.85
1038.853	1005.85
1039.14	1005.85
