Data from white_wall_FLMS001491_070.txt Node
Date: Tue Feb 07 11:05:24 GMT 2017
User: dcchb
Spectrometer: FLMS00149
Trigger mode: 0
Integration Time (sec): 2.000000E-2
Scans to average: 10
Electric dark correction enabled: true
Nonlinearity correction enabled: false
Boxcar width: 0
XAxis mode: Wavelengths
Number of Pixels in Spectrum: 2048
>>>>>Begin Spectral Data<<<<<
341.393	-14.66
341.776	-14.66
342.16	-14.66
342.543	-68.9
342.927	-67.09
343.31	-76.35
343.693	-60.31
344.077	-53.53
344.46	-56.02
344.843	-50.59
345.226	-30.25
345.61	-37.26
345.993	-27.54
346.376	-16.69
346.759	-1.55
347.142	12.01
347.525	40.25
347.908	43.64
348.291	99.46
348.674	101.72
349.057	113.02
349.44	123.41
349.823	155.73
350.206	167.03
350.588	210.87
350.971	230.08
351.354	261.94
351.737	251.77
352.119	269.85
352.502	280.7
352.884	296.07
353.267	286.8
353.65	324.31
354.032	322.96
354.414	301.94
354.797	334.93
355.179	336.29
355.562	342.39
355.944	348.04
356.326	347.59
356.709	345.56
357.091	368.83
357.473	386.68
357.855	352.56
358.238	367.25
358.62	361.37
359.002	381.71
359.384	359.11
359.766	357.53
360.148	368.61
360.53	376.97
360.912	351.88
361.294	354.37
361.676	345.1
362.057	346.91
362.439	346.01
362.821	364.09
363.203	369.96
363.584	343.75
363.966	349.62
364.348	349.85
364.729	327.7
365.111	340.36
365.493	363.86
365.874	363.63
366.256	334.71
366.637	339.68
367.019	331.77
367.4	328.38
367.781	354.37
368.163	331.09
368.544	362.96
368.925	336.97
369.306	324.31
369.688	345.56
370.069	336.97
370.45	354.82
370.831	352.79
371.212	346.69
371.593	340.36
371.974	323.64
372.355	315.5
372.736	359.57
373.117	335.16
373.498	332.45
373.879	339.91
374.26	339.23
374.641	337.87
375.021	336.06
375.402	360.92
375.783	368.83
376.163	365.44
376.544	378.1
376.925	338.32
377.305	346.91
377.686	369.28
378.066	343.75
378.447	346.69
378.827	374.93
379.208	371.09
379.588	376.74
379.968	345.33
380.349	355.95
380.729	365.22
381.109	379.91
381.489	383.97
381.87	387.59
382.25	384.88
382.63	395.95
383.01	389.17
383.39	400.7
383.77	396.85
384.15	397.98
384.53	404.09
384.91	399.57
385.29	387.59
385.67	417.64
386.049	405.67
386.429	410.86
386.809	421.94
387.189	433.69
387.568	432.79
387.948	426.91
388.328	418.77
388.707	442.73
389.087	452.67
389.466	423.75
389.846	456.51
390.225	447.25
390.605	457.87
390.984	462.61
391.363	462.61
391.743	462.84
392.122	476.4
392.501	493.35
392.881	480.69
393.26	511.2
393.639	489.51
394.018	494.03
394.397	506
394.776	525.89
395.155	536.29
395.534	541.93
395.913	547.58
396.292	570.86
396.671	548.71
397.05	588.49
397.429	584.42
397.808	598.88
398.186	611.31
398.565	621.03
398.944	590.97
399.323	626.68
399.701	628.26
400.08	635.04
400.458	653.34
400.837	658.09
401.215	681.37
401.594	693.34
401.972	695.83
402.351	714.81
402.729	724.75
403.107	743.29
403.486	728.37
403.864	773.12
404.242	775.15
404.62	786.22
404.999	807.69
405.377	823.28
405.755	846.11
406.133	836.62
406.511	851.76
406.889	890.85
407.267	901.93
407.645	913.45
408.023	948.25
408.401	965.65
408.779	942.38
409.156	1015.59
409.534	990.51
409.912	1014.46
410.29	1051.53
410.667	1065.76
411.045	1056.05
411.422	1094.24
411.8	1105.54
412.178	1133.11
412.555	1134.69
412.933	1165.65
413.31	1164.97
413.687	1174.91
414.065	1225.98
414.442	1223.95
414.819	1256.94
415.197	1260.11
415.574	1268.02
415.951	1293.78
416.328	1279.99
416.705	1311.63
417.082	1308.92
417.46	1324.29
417.837	1372.2
418.214	1404.96
418.591	1420.78
418.967	1402.25
419.344	1460.33
419.721	1443.83
420.098	1446.77
420.475	1499.88
420.852	1488.58
421.228	1501.46
421.605	1532.42
421.982	1538.52
422.358	1559.99
422.735	1535.13
423.111	1572.19
423.488	1620.55
423.864	1660.78
424.241	1651.74
424.617	1672.3
424.994	1697.84
425.37	1689.25
425.746	1721.56
426.123	1716.14
426.499	1762.92
426.875	1768.8
427.251	1799.08
427.627	1845.63
428.003	1867.1
428.379	1876.82
428.756	1873.65
429.132	1951.62
429.507	1943.03
429.883	1999.52
430.259	2012.86
430.635	2046.3
431.011	2030.26
431.387	2096.47
431.763	2122.91
432.138	2127.43
432.514	2178.5
432.89	2185.51
433.265	2255.34
433.641	2263.92
434.016	2283.36
434.392	2293.53
434.767	2376.46
435.143	2364.94
435.518	2387.08
435.894	2436.57
436.269	2482
436.644	2494.88
437.02	2529.23
437.395	2547.76
437.77	2583.69
438.145	2626.63
438.52	2648.32
438.895	2671.37
439.271	2691.03
439.646	2733.97
440.021	2752.27
440.395	2761.54
440.77	2764.02
441.145	2804.25
441.52	2850.12
441.895	2848.31
442.27	2935.32
442.645	2867.98
443.019	2920.18
443.394	2938.93
443.769	2989.78
444.143	2975.77
444.518	3030.46
444.892	3028.88
445.267	3075.65
445.641	3105.26
446.016	3099.38
446.39	3126.05
446.764	3150
447.139	3171.92
447.513	3205.14
447.887	3231.81
448.262	3234.29
448.636	3246.95
449.01	3326.27
449.384	3304.35
449.758	3388.41
450.132	3395.87
450.506	3446.27
450.88	3498.02
451.254	3452.14
451.628	3549.31
452.002	3594.28
452.376	3602.65
452.75	3617.79
453.123	3691
453.497	3707.5
453.871	3758.35
454.244	3829.08
454.618	3855.52
454.992	3960.15
455.365	3950.88
455.739	4036.98
456.112	4065.91
456.486	4093.48
456.859	4135.29
457.232	4272.91
457.606	4239.46
457.979	4285.57
458.352	4396.3
458.725	4406.69
459.099	4490.08
459.472	4580.92
459.845	4604.65
460.218	4651.21
460.591	4719.45
460.964	4723.29
461.337	4825.66
461.71	4961.71
462.083	4938.66
462.456	5036.96
462.829	5041.03
463.201	5125.09
463.574	5164.41
463.947	5249.38
464.32	5362.15
464.692	5409.83
465.065	5431.52
465.438	5510.39
465.81	5616.6
466.183	5637.17
466.555	5790.16
466.928	5805.07
467.3	5843.72
467.672	5925.97
468.045	6106.08
468.417	6128.45
468.789	6108.57
469.161	6236.47
469.534	6335.68
469.906	6483.02
470.278	6504.04
470.65	6568.22
471.022	6739.96
471.394	6839.85
471.766	6928.21
472.138	7020.86
472.51	7137.24
472.882	7255.88
473.253	7353.06
473.625	7518.02
473.997	7677.34
474.369	7755.3
474.74	7863.78
475.112	7996.65
475.484	8137.67
475.855	8265.35
476.227	8291.79
476.598	8590.99
476.97	8711.21
477.341	8861.94
477.713	9010.19
478.084	9036.4
478.455	9333.12
478.827	9469.38
479.198	9658.76
479.569	9728.13
479.94	9981.91
480.311	10076.37
480.682	10329.25
481.053	10501.45
481.424	10745.51
481.795	10820.31
482.166	10992.06
482.537	11198.38
482.908	11383.23
483.279	11491.03
483.65	11709.1
484.021	11948.41
484.391	12159.26
484.762	12218.92
485.133	12340.27
485.503	12550.88
485.874	12900.71
486.244	12962.63
486.615	13204.43
486.985	13380.92
487.356	13662.95
487.726	13828.82
488.097	14033.11
488.467	14130.73
488.837	14426.32
489.207	14593.32
489.578	14816.59
489.948	14985.62
490.318	15231.94
490.688	15264.26
491.058	15540.18
491.428	15657.47
491.798	15828.76
492.168	16229.88
492.538	16262.43
492.908	16544.23
493.278	16660.83
493.648	16734.73
494.017	16953.48
494.387	17178.33
494.757	17286.35
495.126	17494.03
495.496	17597.08
495.866	17714.59
496.235	17894.7
496.605	18129.27
496.974	18326.78
497.344	18377.17
497.713	18540.33
498.082	18669.14
498.452	18902.13
498.821	18972.41
499.19	19057.15
499.559	19264.38
499.928	19438.16
500.298	19641.09
500.667	19767.87
501.036	19836.79
501.405	19958.6
501.774	20037.02
502.143	20330.57
502.512	20285.6
502.88	20636.55
503.249	20668.86
503.618	20813.27
503.987	20986.82
504.356	21104.33
504.724	21297.32
505.093	21300.94
505.462	21411.67
505.83	21653.47
506.199	21892.11
506.567	22157.86
506.936	22186.11
507.304	22355.82
507.672	22521.24
508.041	22606.21
508.409	22912.42
508.777	23046.65
509.145	23195.35
509.514	23292.3
509.882	23457.72
510.25	23612.74
510.618	23777.26
510.986	23831.94
511.354	24133.4
511.722	24313.29
512.09	24644.8
512.458	24569.55
512.826	24872.14
513.193	24972.93
513.561	25020.39
513.929	25287.95
514.297	25432.13
514.664	25744.44
515.032	25765.9
515.4	25967.71
515.767	26181.03
516.135	26378.77
516.502	26253.58
516.869	26776.5
517.237	26832.54
517.604	26919.77
517.972	27331.51
518.339	27527.67
518.706	27424.84
519.073	27823.93
519.44	27838.39
519.808	28295.78
520.175	28116.13
520.542	28556.57
520.909	28654.42
521.276	28842.21
521.643	29268.64
522.009	29239.49
522.376	29541.85
522.743	29848.28
523.11	30106.58
523.477	30226.58
523.843	30567.81
524.21	30753.12
524.577	31003.73
524.943	31152.88
525.31	31250.28
525.676	31696.37
526.043	31736.14
526.409	31932.3
526.776	32216.81
527.142	32417.93
527.508	32707.19
527.874	32867.86
528.241	33082.77
528.607	33202.77
528.973	33496.32
529.339	33536.1
529.705	33940.15
530.071	34038.23
530.437	34307.83
530.803	34506.47
531.169	34728.83
531.535	34669.85
531.901	34838.43
532.267	35018.54
532.632	35348.93
532.998	35416.27
533.364	35643.84
533.73	35672.54
534.095	36092.86
534.461	36173.09
534.826	36266.87
535.192	36380.31
535.557	36783.47
535.923	36750.47
536.288	36846.52
536.653	37069.56
537.019	37074.53
537.384	37260.07
537.749	37412.15
538.114	37534.41
538.479	37584.35
538.845	37875.19
539.21	37895.08
539.575	38035.19
539.94	38094.17
540.305	38411.22
540.67	38391.11
541.034	38632.46
541.399	38716.98
541.764	39001.49
542.129	39198.55
542.494	39100.02
542.858	39344.53
543.223	39391.99
543.587	39642.15
543.952	39631.53
544.316	39798.08
544.681	39913.1
545.045	40116.94
545.41	40336.14
545.774	40605.06
546.138	40545.18
546.503	40679.86
546.867	40733.19
547.231	41146.07
547.595	41183.8
547.959	41285.04
548.324	41450.24
548.688	41466.28
549.052	41649.55
549.416	41950.34
549.779	41918.25
550.143	41927.74
550.507	42400.95
550.871	42535.41
551.235	42563.88
551.599	42894.04
551.962	42899.69
552.326	43011.1
552.689	43482.5
553.053	43399.11
553.417	43478.89
553.78	44096.5
554.143	43897.86
554.507	44142.37
554.87	44383.72
555.234	44867.78
555.597	44574.22
555.96	44771.73
556.323	45004.95
556.686	44991.84
557.05	45283.58
557.413	45566.51
557.776	45707.3
558.139	45950.23
558.502	46056.22
558.865	46182.54
559.228	46393.61
559.59	46574.17
559.953	46651.01
560.316	47157.88
560.679	47204.66
561.041	47272.46
561.404	47557.2
561.767	47729.62
562.129	47676.29
562.492	48041.7
562.854	48120.12
563.217	48229.27
563.579	48256.61
563.941	48602.37
564.304	48812.98
564.666	49036.93
565.028	49179.98
565.39	49227.89
565.753	49475.79
566.115	49543.13
566.477	49661.32
566.839	49810.92
567.201	49991.48
567.563	49984.25
567.925	50226.73
568.287	50299.72
568.648	50321.42
569.01	50674.4
569.372	50821.06
569.734	50691.8
570.095	51031.68
570.457	51096.99
570.819	51246.14
571.18	51290.66
571.542	51419.02
571.903	51446.81
572.265	51536.07
572.626	51605.23
572.987	51693.58
573.349	51948.49
573.71	51934.03
574.071	52087.02
574.432	52131.99
574.794	52397.07
575.155	52398.65
575.516	52317.52
575.877	52466.45
576.238	52491.3
576.599	52645.88
576.96	52609.04
577.32	52654.69
577.681	52781.69
578.042	52842.25
578.403	52857.17
578.763	52908.69
579.124	52969.03
579.485	53051.51
579.845	53075.24
580.206	53062.14
580.566	53016.94
580.927	53116.82
581.287	53280.66
581.648	53117.95
582.008	53328.12
582.368	53181.45
582.728	53288.8
583.089	53317.27
583.449	53280.21
583.809	53329.02
584.169	53381.22
584.529	53234.56
584.889	53548.68
585.249	53308.23
585.609	53233.66
585.969	53480.66
586.329	53418.74
586.688	53431.39
587.048	53404.05
587.408	53422.35
587.768	53380.55
588.127	53421.45
588.487	53298.74
588.846	53574.66
589.206	53350.72
589.565	53366.99
589.925	53450.6
590.284	53422.58
590.643	53556.59
591.003	53515.01
591.362	53655.79
591.721	53571.95
592.08	53621.44
592.44	53543.93
592.799	53621.67
593.158	53476.36
593.517	53566.53
593.876	53670.71
594.235	53596.13
594.593	53550.03
594.952	53580.77
595.311	53596.36
595.67	53629.13
596.029	53881.78
596.387	53757.03
596.746	53876.35
597.104	53735.79
597.463	53705.73
597.822	53806.75
598.18	53727.88
598.538	53776.02
598.897	53868.22
599.255	53649.69
599.613	54070.92
599.972	53858.27
600.33	53998.83
600.688	53807.88
601.046	53953.86
601.404	54073.18
601.762	54012.85
602.12	54150.92
602.478	54159.28
602.836	54157.7
603.194	54028.66
603.552	54054.65
603.91	53973.3
604.268	54204.03
604.625	54146.85
604.983	54143.69
605.341	54132.16
605.698	54256.68
606.056	54357.24
606.413	54300.3
606.771	54377.36
607.128	54371.03
607.485	54317.47
607.843	54363.8
608.2	54503.68
608.557	54589.78
608.914	54444.02
609.272	54613.96
609.629	54724.24
609.986	54726.27
610.343	54619.84
610.7	54780.28
611.057	54787.51
611.414	54790.68
611.771	54777.35
612.127	54824.35
612.484	54798.14
612.841	54888.53
613.198	54835.65
613.554	54848.3
613.911	54914.06
614.267	55025.47
614.624	54933.73
614.98	55043.78
615.337	55150.22
615.693	55047.62
616.05	55019.37
616.406	55279.25
616.762	55093.49
617.118	55092.36
617.475	55125.13
617.831	55167.62
618.187	55318.8
618.543	55292.13
618.899	55453.71
619.255	55321.06
619.611	55355.18
619.967	55512.92
620.323	55540.49
620.678	55374.84
621.034	55362.64
621.39	55339.14
621.746	55378.69
622.101	55616.19
622.457	55437.67
622.812	55453.94
623.168	55573.26
623.523	55507.72
623.879	55569.64
624.234	55433.82
624.589	55469.98
624.945	55522.86
625.3	55505.01
625.655	55400.61
626.01	55548.85
626.365	55588.4
626.72	55527.61
627.075	55523.54
627.43	55497.55
627.785	55473.82
628.14	55488.51
628.495	55490.77
628.85	55424.79
629.205	55381.85
629.559	55512.47
629.914	55445.35
630.269	55448.51
630.623	55316.31
630.978	55319.25
631.332	55435.86
631.687	55416.88
632.041	55307.73
632.396	55360.61
632.75	55197.45
633.104	55279.7
633.459	55132.36
633.813	55113.83
634.167	55104.79
634.521	55094.62
634.875	55128.97
635.229	55060.28
635.583	55017.79
635.937	55055.53
636.291	54928.75
636.645	54940.73
636.999	54900.73
637.352	55027.73
637.706	54796.1
638.06	54971.46
638.413	54875.42
638.767	54738.48
639.121	54822.99
639.474	54618.03
639.828	54674.07
640.181	54715.2
640.534	54697.12
640.888	54547.29
641.241	54512.04
641.594	54564.92
641.947	54583.45
642.301	54559.27
642.654	54502.32
643.007	54509.56
643.36	54427.52
643.713	54401.08
644.066	54524.7
644.419	54280.86
644.771	54058.49
645.124	53832.74
645.477	53788.9
645.83	53586.64
646.182	53439.08
646.535	53359.76
646.888	53396.36
647.24	53320.43
647.593	53403.6
647.945	53366.99
648.298	53230.72
648.65	53079.08
649.002	53061.91
649.355	53249.02
649.707	53124.06
650.059	53282.02
650.411	53580.77
650.763	53566.76
651.115	53936.46
651.467	53788.44
651.819	53743.93
652.171	53648.11
652.523	53722.91
652.875	53663.25
653.227	53485.85
653.578	53699.86
653.93	53656.47
654.282	53442.01
654.633	53461.22
654.985	53456.02
655.337	53441.79
655.688	53508.23
656.039	53515.23
656.391	53277.72
656.742	53308.01
657.094	53428
657.445	53421.22
657.796	53293.54
658.147	53273.66
658.498	53271.62
658.849	53320.66
659.2	53170.83
659.551	53264.62
659.902	53300.32
660.253	53248.35
660.604	53190.27
660.955	53040.89
661.306	53192.3
661.656	53066.66
662.007	53097.39
662.358	53004.74
662.708	53027.11
663.059	52954.79
663.409	52727.23
663.76	52973.1
664.11	53000.67
664.461	53003.83
664.811	52969.03
665.161	52931.29
665.511	52821.24
665.862	52863.95
666.212	52930.16
666.562	52968.58
666.912	52892.42
667.262	52919.54
667.612	52801.8
667.962	52829.6
668.312	52801.13
668.662	52833.44
669.011	52840.67
669.361	52705.31
669.711	52745.76
670.06	52693.33
670.41	52612.2
670.76	52608.59
671.109	52686.55
671.459	52663.73
671.808	52603.62
672.157	52646.33
672.507	52448.82
672.856	52405.2
673.205	52464.64
673.554	52596.39
673.904	52437.75
674.253	52547.8
674.602	52307.81
674.951	52007.02
675.3	51725.67
675.649	52276.17
675.998	52220.58
676.346	52244.53
676.695	52355.49
677.044	52098.09
677.393	52254.93
677.741	52118.88
678.09	52146.45
678.438	51978.1
678.787	52092.22
679.135	52014.93
679.484	51891.55
679.832	51997.31
680.181	51824.88
680.529	51970.19
680.877	51880.7
681.225	51754.83
681.573	51883.86
681.922	51611.33
682.27	51546.92
682.618	51592.8
682.966	51441.84
683.314	51505.11
683.661	51366.14
684.009	51256.08
684.357	51146.93
684.705	51049.08
685.053	51095.18
685.4	51014.51
685.748	50903.1
686.095	50947.62
686.443	50853.38
686.79	50691.58
687.138	50826.49
687.485	50817.68
687.832	50544.01
688.18	50631.01
688.527	50404.58
688.874	50321.87
689.221	50304.24
689.568	50126.62
689.915	50131.14
690.262	50163.23
690.609	49974.76
690.956	49817.25
691.303	49752.17
691.65	49600.53
691.997	49675.78
692.344	49390.59
692.69	49319.41
693.037	49367.77
693.383	49044.61
693.73	49209.36
694.077	48896.14
694.423	48911.74
694.769	48773.44
695.116	48692.53
695.462	48721.23
695.808	48642.14
696.155	48552.42
696.501	48206.9
696.847	48321.02
697.193	48097.29
697.539	48251.87
697.885	47997.41
698.231	47752.44
698.577	47829.05
698.923	47876.51
699.269	47558.55
699.614	47539.12
699.96	47448.27
700.306	47300.03
700.651	47248.28
700.997	47029.98
701.342	47062.97
701.688	46860.94
702.033	46802.87
702.379	46667.95
702.724	46643.1
703.069	46667.05
703.415	46181.19
703.76	46214.41
704.105	46227.06
704.45	46156.78
704.795	46002.89
705.14	45788.88
705.485	45886.28
705.83	45589.79
706.175	45643.35
706.52	45498.72
706.865	45387.76
707.209	45466.18
707.554	45179.18
707.899	45257.6
708.243	45080.2
708.588	45088.79
708.932	44772.41
709.277	44859.87
709.621	44815.8
709.966	44572.87
710.31	44610.83
710.654	44244.51
710.998	44416.04
711.342	44441.12
711.687	44209.26
712.031	44115.93
712.375	43865.09
712.719	44025.76
713.063	43830.51
713.407	43923.85
713.75	43664.42
714.094	43736.05
714.438	43558.2
714.782	43611.54
715.125	43354.37
715.469	43372.45
715.812	43088.61
716.156	42984.21
716.499	42882.29
716.843	42985.79
717.186	42736.98
717.53	42918
717.873	42818.79
718.216	42722.52
718.559	42678.68
718.902	42300.16
719.246	42572.02
719.589	42219.94
719.932	42193.5
720.275	42130.9
720.617	42036.21
720.96	42022.43
721.303	42066.49
721.646	41880.96
721.989	41675.77
722.331	41860.17
722.674	41753.73
723.016	41672.6
723.359	41582.21
723.701	41645.03
724.044	41414.31
724.386	41145.84
724.729	41354.87
725.071	41275.78
725.413	41291.82
725.755	41231.03
726.097	41012.06
726.439	40817.71
726.782	40770.48
727.124	41047.54
727.465	40805.28
727.807	40674.21
728.149	40576.81
728.491	40750.82
728.833	40678.51
729.175	40470.6
729.516	40311.28
729.858	40398.29
730.199	40359.87
730.541	40331.62
730.882	40233.55
731.224	40364.84
731.565	39959.88
731.906	40115.36
732.248	40032.42
732.589	39890.73
732.93	39625.2
733.271	39600.34
733.612	39681.02
733.953	39734.12
734.294	39386.56
734.635	39365.55
734.976	39468.14
735.317	39310.18
735.658	39293.68
735.999	39334.81
736.339	39266.11
736.68	39316.51
737.021	39172.56
737.361	39023.18
737.702	39129.85
738.042	38971.21
738.383	38905.9
738.723	38957.65
739.063	38898.67
739.404	38904.54
739.744	38698.45
740.084	38533.7
740.424	38610.76
740.764	38447.38
741.104	38666.58
741.444	38242.19
741.784	38277.89
742.124	38365.12
742.464	38185.46
742.804	38268.85
743.143	38082.64
743.483	38060.5
743.823	38042.64
744.162	37960.84
744.502	37984.11
744.841	37770.56
745.181	37871.12
745.52	37672.94
745.86	37785.48
746.199	37689.43
746.538	37597.46
746.877	37599.04
747.216	37585.25
747.556	37400.4
747.895	37393.4
748.234	37343.45
748.573	37279.5
748.911	37068.66
749.25	37101.88
749.589	36897.59
749.928	36961.09
750.267	36929.23
750.605	36807.65
750.944	36781.66
751.283	36718.38
751.621	36797.03
751.96	36435.23
752.298	36566.3
752.636	36445.4
752.975	36408.34
753.313	36231.84
753.651	36277.04
753.989	36051.51
754.327	36204.95
754.666	35795.47
755.004	35830.95
755.342	35753.66
755.679	35800.22
756.017	35570.39
756.355	35729.48
756.693	35502.6
757.031	35519.55
757.368	35270.06
757.706	35232.55
758.044	35182.83
758.381	35177.41
758.719	35089.05
759.056	35014.47
759.394	34899.68
759.731	34674.14
760.068	34622.39
760.405	34513.25
760.743	34322.29
761.08	34420.59
761.417	34235.29
761.754	34161.62
762.091	34131.33
762.428	33966.14
762.765	33884.56
763.102	33910.78
763.438	33755.3
763.775	33554.63
764.112	33561.41
764.449	33522.99
764.785	33221.53
765.122	33161.87
765.458	33049.55
765.795	32945.15
766.131	33012.72
766.467	32741.09
766.804	32698.6
767.14	32455.22
767.476	32520.53
767.812	32269.91
768.148	32261.1
768.485	32091.61
768.821	32132.52
769.157	32036.93
769.492	31946.31
769.828	31782.92
770.164	31571.18
770.5	31463.61
770.836	31454.79
771.171	31219.55
771.507	31195.14
771.842	30932.1
772.178	30947.46
772.513	30896.84
772.849	30903.85
773.184	30690.97
773.519	30597.64
773.855	30546.8
774.19	30370.98
774.525	30139.57
774.86	30213.92
775.195	30031.1
775.53	30048.28
775.865	29878.56
776.2	29598.35
776.535	29294.63
776.87	29413.27
777.205	29341.4
777.539	29187.74
777.874	29349.77
778.209	28940.74
778.543	28929.44
778.878	28744.13
779.212	28786.39
779.547	28719.73
779.881	28665.94
780.215	28445.61
780.55	28455.1
780.884	28215.33
781.218	28122.23
781.552	28100.98
781.886	27885.62
782.22	27999.97
782.554	27794.1
782.888	27495.8
783.222	27476.37
783.556	27327.9
783.889	27295.36
784.223	27134.91
784.557	27003.39
784.89	27032.31
785.224	26818.08
785.557	26757.06
785.891	26715.94
786.224	26600.91
786.558	26599.33
786.891	26431.88
787.224	26324.31
787.557	26222.16
787.891	26179
788.224	26110.98
788.557	26208.83
788.89	25910.53
789.223	25989.63
789.556	25614.04
789.888	25623.76
790.221	25572.92
790.554	25302.19
790.887	25412.92
791.219	25295.41
791.552	25155.3
791.884	25142.42
792.217	25019.48
792.549	25033.49
792.882	24800.28
793.214	24628.08
793.546	24814.97
793.879	24566.16
794.211	24409.56
794.543	24493.85
794.875	24425.37
795.207	24447.07
795.539	24218.6
795.871	24234.19
796.203	24153.52
796.535	23985.61
796.867	23975.44
797.198	23909.68
797.53	23755.79
797.862	23704.26
798.193	23777.71
798.525	23622.46
798.856	23507.21
799.188	23197.38
799.519	23248
799.85	23107.9
800.182	23099.53
800.513	23146.09
800.844	22882.82
801.175	23005.53
801.506	22831.74
801.837	22708.81
802.168	22738.64
802.499	22555.37
802.83	22478.08
803.161	22523.73
803.491	22410.51
803.822	22487.8
804.153	22331.42
804.483	22126.68
804.814	22102.72
805.145	22042.39
805.475	21957.87
805.805	21980.47
806.136	21978.66
806.466	21881.94
806.796	21878.1
807.126	21689.18
807.457	21608.27
807.787	21557.65
808.117	21485.11
808.447	21435.4
808.777	21524.66
809.107	21335.96
809.436	21328.96
809.766	21355.62
810.096	21248.51
810.426	21193.82
810.755	21109.76
811.085	21063.66
811.414	21056.42
811.744	20836.99
812.073	20780.5
812.403	20794.28
812.732	20603.55
813.061	20729.2
813.39	20512.48
813.719	20491.24
814.049	20563.78
814.378	20520.39
814.707	20384.35
815.036	20281.53
815.365	20218.93
815.693	20107.3
816.022	20187.52
816.351	20053.74
816.68	19954.08
817.008	20001.76
817.337	19811.71
817.665	19853.52
817.994	19903.69
818.322	19805.16
818.651	19803.8
818.979	19683.8
819.307	19782.78
819.636	19591.83
819.964	19503.47
820.292	19650.36
820.62	19551.38
820.948	19457.37
821.276	19573.75
821.604	19403.13
821.932	19459.63
822.259	19462.79
822.587	19566.52
822.915	19373.08
823.243	19502.34
823.57	19386.41
823.898	19455.79
824.225	19278.17
824.553	19361.55
824.88	19334.44
825.207	19408.78
825.535	19396.81
825.862	19413.3
826.189	19288.79
826.516	19436.13
826.843	19390.25
827.17	19356.81
827.497	19427.77
827.824	19327.2
828.151	19302.57
828.478	19252.18
828.805	19387.09
829.131	19238.84
829.458	19304.15
829.785	19209.24
830.111	19160.43
830.438	19355.68
830.764	19197.94
831.09	19246.53
831.417	19268.22
831.743	19267.77
832.069	19259.86
832.395	19245.17
832.722	19272.74
833.048	19201.11
833.374	19183.03
833.7	19088.34
834.026	19115.46
834.351	19121.11
834.677	19066.87
835.003	19138.28
835.329	19063.03
835.654	19069.13
835.98	18955.24
836.306	18960.89
836.631	18958.63
836.956	18953.43
837.282	18940.77
837.607	18860.1
837.932	18772.87
838.258	18767.22
838.583	18692.19
838.908	18628.01
839.233	18729.25
839.558	18638.63
839.883	18565.42
840.208	18561.35
840.533	18561.57
840.858	18580.78
841.182	18480.67
841.507	18506.66
841.832	18365.42
842.156	18296.27
842.481	18316.16
842.805	18311.41
843.13	18254.92
843.454	18218.31
843.778	18113.22
844.103	18069.61
844.427	18105.99
844.751	18065.54
845.075	17934.7
845.399	17979.22
845.723	17888.6
846.047	17770.63
846.371	17623.97
846.695	17739
847.019	17532
847.343	17471.89
847.666	17313.7
847.99	17294.94
848.313	17253.59
848.637	17122.52
848.96	17205.23
849.284	17110.09
849.607	16953.03
849.931	16995.51
850.254	16872.13
850.577	16741.06
850.9	16642.53
851.223	16640.95
851.546	16545.36
851.869	16472.59
852.192	16475.75
852.515	16277.34
852.838	16316.66
853.161	16381.52
853.483	16249.09
853.806	16164.12
854.129	16076.89
854.451	16159.38
854.774	15963
855.096	15993.05
855.419	15850.01
855.741	15919.61
856.063	15771.59
856.385	15664.93
856.708	15765.94
857.03	15650.69
857.352	15700.18
857.674	15584.25
857.996	15623.57
858.318	15460.64
858.64	15586.51
858.961	15396.23
859.283	15360.3
859.605	15299.06
859.926	15315.33
860.248	15254.54
860.57	15200.76
860.891	15179.97
861.212	15103.81
861.534	15036.24
861.855	14976.36
862.176	15031.27
862.498	15024.49
862.819	15038.28
863.14	14900.43
863.461	14775.01
863.782	14927.09
864.103	14850.49
864.424	14751.28
864.745	14830.82
865.065	14645.52
865.386	14623.82
865.707	14638.74
866.027	14656.37
866.348	14659.98
866.668	14554.22
866.989	14595.8
867.309	14524.39
867.63	14521.91
867.95	14517.84
868.27	14429.71
868.59	14457.05
868.91	14444.62
869.23	14444.17
869.55	14223.84
869.87	14338.18
870.19	14380.89
870.51	14286.66
870.83	14360.78
871.15	14149.03
871.469	14239.43
871.789	14155.14
872.109	14119.66
872.428	14105.87
872.748	14132.99
873.067	14066.1
873.386	14111.3
873.706	14066.55
874.025	13988.36
874.344	13976.61
874.663	13983.62
874.982	14023.39
875.301	13950.62
875.62	13981.36
875.939	13862.26
876.258	13870.4
876.577	13842.83
876.896	13794.24
877.214	13794.02
877.533	13762.38
877.852	13781.36
878.17	13760.12
878.489	13687.13
878.807	13825.65
879.125	13694.13
879.444	13698.43
879.762	13534.59
880.08	13523.06
880.398	13497.98
880.716	13535.94
881.034	13446.45
881.352	13457.75
881.67	13351.32
881.988	13361.26
882.306	13399.68
882.624	13389.05
882.941	13275.84
883.259	13261.37
883.577	13154.26
883.894	13155.61
884.212	13217.31
884.529	13096.63
884.846	13168.27
885.164	13054.6
885.481	12996.52
885.798	13029.29
886.115	12915.85
886.432	12908.62
886.75	12853.93
887.067	12940.03
887.383	12845.11
887.7	12827.71
888.017	12712.69
888.334	12768.05
888.651	12746.59
888.967	12845.11
889.284	12708.62
889.6	12669.3
889.917	12595.4
890.233	12497.78
890.55	12496.65
890.866	12514.95
891.182	12443.77
891.498	12418.91
891.815	12380.72
892.131	12298.01
892.447	12280.16
892.763	12265.69
893.079	12242.42
893.395	12221.85
893.71	12209.88
894.026	12122.42
894.342	12078.13
894.657	11978.02
894.973	11972.59
895.289	11971.46
895.604	11911.81
895.92	11905.25
896.235	11815.99
896.55	11871.81
896.865	11745.93
897.181	11802.88
897.496	11731.25
897.811	11659.38
898.126	11581.87
898.441	11620.06
898.756	11527.86
899.071	11486.96
899.386	11498.48
899.7	11384.81
900.015	11317.24
900.33	11244.48
900.644	11237.02
900.959	11243.35
901.273	11230.92
901.588	11201.54
901.902	11079.28
902.216	11073.64
902.531	11016.91
902.845	11018.5
903.159	10961.55
903.473	10883.58
903.787	10949.57
904.101	10763.14
904.415	10737.83
904.729	10739.41
905.042	10735.57
905.356	10731.95
905.67	10656.47
905.984	10632.07
906.297	10541.22
906.611	10492.63
906.924	10500.32
907.237	10426.42
907.551	10397.49
907.864	10373.77
908.177	10388.46
908.491	10239.53
908.804	10229.82
909.117	10100.1
909.43	10167.22
909.743	10138.29
910.056	10055.81
910.368	10062.14
910.681	9960.22
910.994	9958.64
911.307	9934.46
911.619	9842.93
911.932	9889.49
912.244	9706.44
912.557	9696.27
912.869	9714.58
913.181	9652.66
913.494	9597.29
913.806	9563.84
914.118	9489.04
914.43	9406.11
914.742	9461.47
915.054	9369.73
915.366	9341.48
915.678	9336.51
915.99	9276.17
916.302	9229.16
916.613	9259.22
916.925	9188.49
917.236	9115.49
917.548	9114.82
917.859	9089.51
918.171	8987.59
918.482	8990.3
918.794	8916.86
919.105	8897.65
919.416	8839.8
919.727	8815.16
920.038	8825.56
920.349	8736.52
920.66	8688.39
920.971	8691.78
921.282	8642.06
921.593	8555.96
921.903	8575.17
922.214	8538.56
922.525	8520.26
922.835	8472.57
923.146	8373.82
923.456	8376.31
923.767	8393.03
924.077	8322.3
924.387	8369.75
924.697	8192.36
925.008	8174.73
925.318	8204.33
925.628	8162.07
925.938	8130.44
926.248	8045.47
926.558	8055.41
926.867	8027.61
927.177	7940.84
927.487	7916.88
927.796	7863.78
928.106	7883.21
928.416	7780.16
928.725	7835.3
929.034	7744.91
929.344	7828.97
929.653	7697
929.962	7693.61
930.271	7600.05
930.581	7588.08
930.89	7525.25
931.199	7528.64
931.508	7435.31
931.817	7524.12
932.125	7410.45
932.434	7367.52
932.743	7325.94
933.051	7288.2
933.36	7299.27
933.669	7247.07
933.977	7204.13
934.286	7181.99
934.594	7171.59
934.902	7099.28
935.21	7111.48
935.519	7018.6
935.827	7037.58
936.135	6973.4
936.443	6932.28
936.751	6922.11
937.059	6892.28
937.367	6879.4
937.674	6857.02
937.982	6835.1
938.29	6750.13
938.597	6763.92
938.905	6673.98
939.213	6652.06
939.52	6671.27
939.827	6696.58
940.135	6639.4
940.442	6603.02
940.749	6539.52
941.056	6552.85
941.363	6483.47
941.67	6435.11
941.977	6384.95
942.284	6392.4
942.591	6325.96
942.898	6335.45
943.205	6340.2
943.511	6301.11
943.818	6275.8
944.125	6168
944.431	6197.83
944.738	6163.26
945.044	6173.43
945.35	6158.06
945.657	6113.99
945.963	6037.84
946.269	6078.51
946.575	6034.67
946.881	6011.62
947.187	5975.01
947.493	5953.09
947.799	5973.88
948.105	5849.59
948.41	5836.26
948.716	5852.76
949.022	5838.29
949.327	5778.18
949.633	5711.74
949.938	5728.01
950.244	5714.23
950.549	5656.38
950.854	5627.45
951.16	5601.01
951.465	5537.06
951.77	5509.49
952.075	5508.58
952.38	5526.66
952.685	5525.31
952.99	5443.95
953.294	5478.98
953.599	5399.66
953.904	5424.52
954.209	5351.53
954.513	5374.58
954.818	5348.36
955.122	5298.65
955.426	5250.51
955.731	5258.65
956.035	5219.1
956.339	5210.29
956.643	5205.77
956.948	5215.48
957.252	5136.84
957.556	5102.49
957.86	5102.04
958.163	5073.79
958.467	5054.36
958.771	5022.5
959.075	5010.97
959.378	5025.43
959.682	4992.44
959.985	4949.73
960.289	4907.02
960.592	4924.19
960.896	4881.26
961.199	4840.8
961.502	4846.68
961.805	4769.17
962.108	4798.32
962.411	4779.34
962.714	4766.91
963.017	4730.75
963.32	4770.07
963.623	4708.15
963.926	4722.84
964.228	4632
964.531	4581.6
964.833	4558.33
965.136	4556.97
965.438	4562.62
965.741	4542.28
966.043	4484.88
966.345	4471.55
966.648	4460.7
966.95	4453.24
967.252	4487.14
967.554	4406.47
967.856	4404.66
968.158	4358.11
968.46	4343.87
968.761	4333.93
969.063	4356.52
969.365	4296.41
969.666	4260.03
969.968	4275.4
970.269	4262.06
970.571	4241.5
970.872	4211.67
971.174	4189.3
971.475	4133.25
971.776	4126.47
972.077	4152.24
972.378	4118.56
972.679	4135.74
972.98	4081.05
973.281	4095.51
973.582	4034.72
973.883	4053.48
974.183	3990.88
974.484	3959.92
974.785	3960.83
975.085	3948.62
975.386	3994.73
975.686	3907.95
975.986	3874.73
976.287	3833.37
976.587	3886.71
976.887	3786.14
977.187	3804.67
977.487	3806.48
977.787	3798.8
978.087	3750.21
978.387	3710.44
978.687	3769.42
978.987	3732.13
979.286	3667.5
979.586	3701.4
979.885	3671.8
980.185	3700.5
980.484	3642.42
980.784	3655.3
981.083	3620.95
981.382	3575.53
981.682	3568.07
981.981	3544.34
982.28	3517.22
982.579	3568.52
982.878	3530.78
983.177	3566.04
983.475	3490.11
983.774	3478.13
984.073	3417.11
984.372	3459.82
984.67	3436.1
984.969	3423.89
985.267	3388.87
985.566	3387.96
985.864	3392.48
986.162	3323.56
986.461	3320.39
986.759	3335.08
987.057	3260.73
987.355	3295.99
987.653	3263.67
987.951	3258.25
988.249	3215.31
988.547	3212.83
988.844	3180.96
989.142	3161.98
989.44	3188.64
989.737	3139.38
990.035	3134.18
990.332	3148.19
990.63	3101.19
990.927	3090.12
991.224	3094.64
991.521	3076.56
991.819	3055.32
992.116	3074.07
992.413	3026.62
992.71	2985.49
993.006	2990.46
993.303	2979.84
993.6	2983.45
993.897	2944.13
994.193	2934.64
994.49	2951.14
994.787	2903.23
995.083	2869.33
995.379	2862.33
995.676	2856
995.972	2853.96
996.268	2807.64
996.565	2811.93
996.861	2743.68
997.157	2791.59
997.453	2763.57
997.749	2750.46
998.044	2722.44
998.34	2760.18
998.636	2725.15
998.932	2679.96
999.227	2670.47
999.523	2648.55
999.818	2646.96
1000.114	2660.52
1000.409	2640.64
1000.704	2649.9
1001	2564.71
1001.295	2570.13
1001.59	2592.73
1001.885	2556.12
1002.18	2538.49
1002.475	2518.38
1002.77	2545.05
1003.065	2499.17
1003.359	2474.09
1003.654	2497.36
1003.949	2472.28
1004.243	2439.29
1004.538	2434.77
1004.832	2462.11
1005.127	2409.46
1005.421	2441.09
1005.715	2393.86
1006.009	2371.72
1006.304	2343.02
1006.598	2339.4
1006.892	2345.96
1007.186	2297.14
1007.48	2291.95
1007.773	2241.33
1008.067	2216.69
1008.361	2235.9
1008.655	2222.79
1008.948	2246.97
1009.242	2213.98
1009.535	2156.36
1009.829	2192.51
1010.122	2153.87
1010.415	2171.04
1010.708	2098.96
1011.001	2099.18
1011.295	2119.07
1011.588	2093.98
1011.881	2069.58
1012.173	2073.19
1012.466	2051.27
1012.759	2069.58
1013.052	2070.26
1013.344	2036.13
1013.637	2019.18
1013.93	1989.13
1014.222	2002.01
1014.514	1986.87
1014.807	1985.96
1015.099	1985.96
1015.391	1939.41
1015.683	1923.37
1015.976	1919.07
1016.268	1866.42
1016.56	1887.89
1016.851	1888.57
1017.143	1884.72
1017.435	1870.26
1017.727	1868.91
1018.018	1836.36
1018.31	1819.42
1018.602	1832.97
1018.893	1819.87
1019.185	1778.96
1019.476	1797.27
1019.767	1792.75
1020.058	1757.5
1020.35	1715.92
1020.641	1713.66
1020.932	1737.61
1021.223	1732.86
1021.514	1684.28
1021.804	1706.65
1022.095	1655.35
1022.386	1654.22
1022.677	1628.23
1022.967	1624.62
1023.258	1635.92
1023.548	1622.81
1023.839	1626.2
1024.129	1626.88
1024.419	1579.2
1024.709	1554.56
1025	1566.77
1025.29	1576.26
1025.58	1558.18
1025.87	1552.53
1026.16	1505.98
1026.449	1524.73
1026.739	1467.11
1027.029	1490.16
1027.319	1494.68
1027.608	1458.75
1027.898	1448.58
1028.187	1455.58
1028.477	1456.04
1028.766	1421.69
1029.055	1434.79
1029.344	1405.64
1029.634	1371.97
1029.923	1376.72
1030.212	1372.87
1030.501	1380.78
1030.79	1352.99
1031.078	1371.97
1031.367	1343.27
1031.656	1333.55
1031.945	1319.32
1032.233	1350.28
1032.522	1284.74
1032.81	1303.04
1033.099	1255.14
1033.387	1282.25
1033.675	1281.58
1033.963	1267.57
1034.251	1273.67
1034.54	1219.21
1034.828	1202.71
1035.116	1216.04
1035.403	1237.96
1035.691	1202.93
1035.979	1198.19
1036.267	1190.73
1036.554	1196.61
1036.842	1185.76
1037.129	1167.23
1037.417	1148.47
1037.704	1154.35
1037.992	1138.98
1038.279	1137.85
1038.566	1138.76
1038.853	1138.76
1039.14	1138.76
