Data from white_poster_card_FLMS001491_00010.txt Node
Date: Wed Feb 08 11:50:58 GMT 2017
User: dcchb
Spectrometer: FLMS00149
Trigger mode: 0
Integration Time (sec): 2.000000E-2
Scans to average: 10
Electric dark correction enabled: true
Nonlinearity correction enabled: false
Boxcar width: 0
XAxis mode: Wavelengths
Number of Pixels in Spectrum: 2048
>>>>>Begin Spectral Data<<<<<
341.393	-11.07
341.776	-11.07
342.16	-11.07
342.543	-56.72
342.927	-72.77
343.31	-66.21
343.693	-61.47
344.077	-57.4
344.46	-57.63
344.843	-43.39
345.226	-56.72
345.61	-28.93
345.993	-5.65
346.376	-14.46
346.759	21.92
347.142	9.94
347.525	61.47
347.908	58.3
348.291	54.46
348.674	74.57
349.057	111.18
349.44	123.61
349.823	140.34
350.206	157.28
350.588	200.22
350.971	224.63
351.354	239.99
351.737	243.84
352.119	252.42
352.502	264.4
352.884	282.48
353.267	287.9
353.65	303.95
354.032	326.09
354.414	304.4
354.797	313.44
355.179	317.05
355.562	316.15
355.944	328.58
356.326	353.66
356.709	322.03
357.091	347.11
357.473	362.48
357.855	365.64
358.238	346.88
358.62	338.07
359.002	357.73
359.384	358.63
359.766	345.3
360.148	341.46
360.53	352.76
360.912	337.62
361.294	333.78
361.676	331.52
362.057	317.51
362.439	356.83
362.821	330.61
363.203	334.45
363.584	317.73
363.966	332.19
364.348	322.03
364.729	333.1
365.111	320.9
365.493	319.99
365.874	349.14
366.256	310.73
366.637	335.58
367.019	334.45
367.4	329.71
367.781	336.26
368.163	331.29
368.544	315.02
368.925	333.1
369.306	325.87
369.688	325.42
370.069	319.99
370.45	319.77
370.831	321.35
371.212	320.9
371.593	306.66
371.974	320.22
372.355	324.29
372.736	331.06
373.117	340.78
373.498	329.93
373.879	350.05
374.26	328.8
374.641	348.24
375.021	358.18
375.402	337.39
375.783	342.59
376.163	355.02
376.544	334.91
376.925	322.03
377.305	344.85
377.686	347.56
378.066	339.88
378.447	353.44
378.827	352.31
379.208	349.37
379.588	342.14
379.968	348.92
380.349	339.65
380.729	326.09
381.109	363.38
381.489	373.55
381.87	364.51
382.25	346.21
382.63	357.28
383.01	360.44
383.39	356.15
383.77	343.49
384.15	366.32
384.53	352.08
384.91	343.27
385.29	346.88
385.67	380.78
386.049	374.68
386.429	392.98
386.809	368.35
387.189	381.23
387.568	374.68
387.948	392.31
388.328	385.3
388.707	395.7
389.087	403.38
389.466	412.19
389.846	400.44
390.225	418.97
390.605	414.45
390.984	391.85
391.363	396.37
391.743	395.47
392.122	428.69
392.501	419.88
392.881	417.16
393.26	417.84
393.639	427.11
394.018	421.46
394.397	402.48
394.776	435.69
395.155	440.89
395.534	434.56
395.913	441.8
396.292	437.95
396.671	456.49
397.05	450.84
397.429	453.1
397.808	431.85
398.186	450.38
398.565	434.11
398.944	442.93
399.323	445.19
399.701	467.78
400.08	461
400.458	467.56
400.837	497.61
401.215	470.5
401.594	486.77
401.972	483.6
402.351	484.73
402.729	497.16
403.107	514.34
403.486	505.3
403.864	506.2
404.242	518.18
404.62	527.67
404.999	502.36
405.377	534.68
405.755	544.84
406.133	551.17
406.511	528.35
406.889	556.82
407.267	587.78
407.645	568.8
408.023	583.71
408.401	583.94
408.779	572.87
409.156	594.79
409.534	587.1
409.912	639.31
410.29	629.59
410.667	661.9
411.045	650.38
411.422	685.63
411.8	706.65
412.178	703.71
412.555	717.95
412.933	701.22
413.31	717.5
413.687	753.2
414.065	785.52
414.442	785.97
414.819	799.98
415.197	795.23
415.574	828.9
415.951	864.38
416.328	874.78
416.705	887.43
417.082	881.33
417.46	904.61
417.837	936.02
418.214	931.95
418.591	972.63
418.967	971.05
419.344	1023.48
419.721	1030.48
420.098	1024.61
420.475	1051.27
420.852	1042.46
421.228	1083.36
421.605	1102.12
421.982	1096.92
422.358	1105.28
422.735	1135.11
423.111	1172.17
423.488	1189.35
423.864	1181.89
424.241	1213.75
424.617	1210.82
424.994	1231.38
425.37	1276.58
425.746	1273.64
426.123	1282.45
426.499	1279.51
426.875	1323.58
427.251	1352.96
427.627	1375.56
428.003	1383.01
428.379	1370.13
428.756	1429.79
429.132	1432.05
429.507	1474.31
429.883	1508.43
430.259	1528.77
430.635	1509.79
431.011	1550.69
431.387	1568.55
431.763	1599.96
432.138	1583.91
432.514	1644.25
432.89	1657.58
433.265	1708.66
433.641	1696.23
434.016	1704.81
434.392	1778.03
434.767	1817.13
435.143	1791.37
435.518	1822.78
435.894	1867.75
436.269	1918.37
436.644	1899.16
437.02	1909.1
437.395	1920.63
437.77	1966.28
438.145	1994.07
438.52	1999.5
438.895	2029.55
439.271	2023.22
439.646	2059.15
440.021	2103.22
440.395	2071.13
440.77	2102.77
441.145	2084.24
441.52	2154.97
441.895	2099.38
442.27	2147.06
442.645	2167.4
443.019	2183.22
443.394	2203.56
443.769	2209.21
444.143	2216.89
444.518	2296.89
444.892	2229.09
445.267	2280.84
445.641	2266.61
446.016	2316.1
446.39	2310
446.764	2355.42
447.139	2337.57
447.513	2378.02
447.887	2341.63
448.262	2365.14
448.636	2361.97
449.01	2437.68
449.384	2496.21
449.758	2432.7
450.132	2475.64
450.506	2505.24
450.88	2507.73
451.254	2538.46
451.628	2577.56
452.002	2572.81
452.376	2581.85
452.75	2636.54
453.123	2665.24
453.497	2716.99
453.871	2747.05
454.244	2757.67
454.618	2788.4
454.992	2810.1
455.365	2791.11
455.739	2932.13
456.112	2918.12
456.486	2924.22
456.859	2907.72
457.232	3004.89
457.606	3004.21
457.979	3068.17
458.352	3130.31
458.725	3164.21
459.099	3176.41
459.472	3232.91
459.845	3253.25
460.218	3293.02
460.591	3327.37
460.964	3333.47
461.337	3431.55
461.71	3457.54
462.083	3470.42
462.456	3496.63
462.829	3515.39
463.201	3539.12
463.574	3596.29
463.947	3663.63
464.32	3732.78
464.692	3750.64
465.065	3780.69
465.438	3842.16
465.81	3876.51
466.183	3935.72
466.555	4010.97
466.928	3983.17
467.3	4034.92
467.672	4115.15
468.045	4200.12
468.417	4215.48
468.789	4241.24
469.161	4302.03
469.534	4374.8
469.906	4447.34
470.278	4490.73
470.65	4559.88
471.022	4614.12
471.394	4726.66
471.766	4736.37
472.138	4794.45
472.51	4905.86
472.882	4898.63
473.253	5022.69
473.625	5081.45
473.997	5151.73
474.369	5188.11
474.74	5292.29
475.112	5333.65
475.484	5466.75
475.855	5526.86
476.227	5564.15
476.598	5730.24
476.97	5771.6
477.341	5868.55
477.713	6012.72
478.084	6035.1
478.455	6178.14
478.827	6205.26
479.198	6357.35
479.569	6403.45
479.94	6662.2
480.311	6652.93
480.682	6791.01
481.053	6889.76
481.424	7030.78
481.795	7092.47
482.166	7249.53
482.537	7302.41
482.908	7435.96
483.279	7565.68
483.65	7661.49
484.021	7855.61
484.391	7950.53
484.762	7951.43
485.133	8044.31
485.503	8168.6
485.874	8358.2
486.244	8429.16
486.615	8590.06
486.985	8645.65
487.356	8857.62
487.726	8884.06
488.097	9105.3
488.467	9148.69
488.837	9345.07
489.207	9353.65
489.578	9508
489.948	9597.94
490.318	9799.52
490.688	9776.92
491.058	9981.21
491.428	10036.57
491.798	10268.88
492.168	10410.8
492.538	10493.51
492.908	10576.22
493.278	10749.77
493.648	10791.35
494.017	10815.08
494.387	11011.46
494.757	11126.71
495.126	11239.93
495.496	11273.38
495.866	11331.45
496.235	11450.55
496.605	11538.68
496.974	11712.69
497.344	11773.48
497.713	11822.06
498.082	11908.16
498.452	12017.99
498.821	12110.42
499.19	12198.1
499.559	12356.96
499.928	12434.7
500.298	12392.22
500.667	12622.49
501.036	12604.87
501.405	12733.22
501.774	12734.13
502.143	12950.39
502.512	12934.8
502.88	13082.14
503.249	13028.36
503.618	13267.22
503.987	13266.54
504.356	13381.8
504.724	13496.59
505.093	13533.88
505.462	13617.04
505.83	13715.35
506.199	13808.22
506.567	14000.54
506.936	14008.67
507.304	14157.59
507.672	14237.82
508.041	14311.71
508.409	14439.17
508.777	14619.95
509.145	14654.76
509.514	14793.06
509.882	14833.96
510.25	14871.7
510.618	15028.31
510.986	15049.55
511.354	15167.28
511.722	15358.47
512.09	15607.73
512.458	15527.73
512.826	15710.55
513.193	15792.81
513.561	15838
513.929	15844.1
514.297	16133.36
514.664	16242.51
515.032	16362.06
515.4	16403.64
515.767	16488.61
516.135	16655.61
516.502	16613.35
516.869	16966.56
517.237	16987.58
517.604	16958.2
517.972	17244.97
518.339	17301.24
518.706	17388.7
519.073	17572.87
519.44	17625.75
519.808	17816.71
520.175	17825.52
520.542	18115.91
520.909	18174.89
521.276	18219.86
521.643	18408.78
522.009	18541.21
522.376	18747.3
522.743	18835.66
523.11	19025.49
523.477	19168.31
523.843	19302.77
524.21	19517.45
524.577	19660.05
524.943	19760.61
525.31	19967.61
525.676	20012.58
526.043	20246.7
526.409	20305.91
526.776	20511.78
527.142	20613.92
527.508	20669.29
527.874	20932.78
528.241	20962.61
528.607	21123.74
528.973	21224.98
529.339	21356.95
529.705	21513.11
530.071	21781.8
530.437	21843.49
530.803	21947.67
531.169	22116.25
531.535	22036.26
531.901	22293.43
532.267	22311.5
532.632	22609.12
532.998	22579.75
533.364	22782.23
533.73	22762.79
534.095	23029.68
534.461	23021.54
534.826	23218.6
535.192	23325.71
535.557	23586.27
535.923	23419.72
536.288	23540.85
536.653	23751.92
537.019	23718.47
537.384	23815.64
537.749	23846.83
538.114	23880.05
538.479	24064.23
538.845	24218.35
539.21	24141.74
539.575	24187.61
539.94	24376.31
540.305	24595.96
540.67	24568.17
541.034	24623.76
541.399	24813.13
541.764	24926.35
542.129	24947.82
542.494	25060.36
542.858	25196.85
543.223	25278.43
543.587	25399.78
543.952	25388.71
544.316	25466
544.681	25477.97
545.045	25648.14
545.41	25706.89
545.774	25751.64
546.138	25804.29
546.503	25930.62
546.867	26044.96
547.231	26221.68
547.595	26298.52
547.959	26430.72
548.324	26393.43
548.688	26443.15
549.052	26632.29
549.416	26616.93
549.779	26625.51
550.143	26809.69
550.507	27071.83
550.871	27105.95
551.235	27130.36
551.599	27354.76
551.962	27395.66
552.326	27511.14
552.689	27705.03
553.053	27522.44
553.417	27676.11
553.78	28022.99
554.143	27910
554.507	28081.07
554.87	28176.43
555.234	28498.91
555.597	28310.67
555.96	28545.92
556.323	28772.58
556.686	28728.74
557.05	28948.84
557.413	28965.79
557.776	29081.95
558.139	29305.67
558.502	29309.29
558.865	29380.47
559.228	29694.36
559.59	29648.03
559.953	29855.94
560.316	30177.06
560.679	30170.05
561.041	30161.69
561.404	30392.42
561.767	30674.67
562.129	30572.53
562.492	30862.92
562.854	30837.83
563.217	30984.04
563.579	31086.19
563.941	31295.67
564.304	31419.51
564.666	31585.16
565.028	31646.85
565.39	31789.22
565.753	31885.94
566.115	32040.06
566.477	32333.61
566.839	32216.33
567.201	32487.73
567.563	32523.66
567.925	32658.12
568.287	32783.32
568.648	32932.02
569.01	33109.86
569.372	33339.91
569.734	33097.66
570.095	33480.7
570.457	33545.33
570.819	33689.96
571.18	33664.43
571.542	33946.23
571.903	33971.08
572.265	34191.87
572.626	34251.75
572.987	34198.42
573.349	34247.69
573.71	34371.3
574.071	34567.23
574.432	34703.04
574.794	34887.22
575.155	34929.93
575.516	34790.27
575.877	34974.67
576.238	35136.25
576.599	35318.17
576.96	35309.58
577.32	35205.18
577.681	35439.75
578.042	35452.4
578.403	35452.4
578.763	35582.12
579.124	35541.89
579.485	35647.42
579.845	35726.52
580.206	35694.88
580.566	35809.68
580.927	35854.88
581.287	35970.35
581.648	35895.33
582.008	35942.11
582.368	35954.99
582.728	36116.79
583.089	35915.67
583.449	35972.84
583.809	36118.15
584.169	36191.82
584.529	36068.66
584.889	36336.67
585.249	35960.41
585.609	35873.41
585.969	36164.92
586.329	36194.3
586.688	36127.41
587.048	36061.88
587.408	36111.37
587.768	36041.76
588.127	36077.02
588.487	35997.25
588.846	36333.51
589.206	36060.75
589.565	36307.07
589.925	36343.45
590.284	36288.31
590.643	36291.02
591.003	36298.48
591.362	36511.36
591.721	36335.77
592.08	36295.54
592.44	36404.01
592.799	36411.47
593.158	36432.49
593.517	36361.08
593.876	36379.16
594.235	36308.42
594.593	36477.23
594.952	36374.64
595.311	36315.66
595.67	36356.78
596.029	36676.32
596.387	36673.16
596.746	36628.87
597.104	36597
597.463	36518.14
597.822	36734.4
598.18	36590
598.538	36469.32
598.897	36631.13
599.255	36429.1
599.613	37082.87
599.972	36738.24
600.33	36755.87
600.688	36744.57
601.046	36892.59
601.404	37061.17
601.762	36782.08
602.12	37144.56
602.478	37053.04
602.836	37113.15
603.194	36933.27
603.552	36998.12
603.91	36942.08
604.268	37116.31
604.625	36971.23
604.983	37137.33
605.341	36954.96
605.698	37175.29
606.056	37326.25
606.413	37279.92
606.771	37328.06
607.128	37505.91
607.485	37181.17
607.843	37326.93
608.2	37576.87
608.557	37734.83
608.914	37426.59
609.272	37713.13
609.629	37842.62
609.986	37928.72
610.343	37699.8
610.7	37966.69
611.057	37813.02
611.414	37874.94
611.771	37831.1
612.127	37920.36
612.484	38024.08
612.841	38085.78
613.198	37799.23
613.554	37916.07
613.911	38332.55
614.267	38097.98
614.624	38050.07
614.98	38232.44
615.337	38372.55
615.693	38250.07
616.05	38292.78
616.406	38399.89
616.762	38292.1
617.118	38276.73
617.475	38313.79
617.831	38453.23
618.187	38554.24
618.543	38472.89
618.899	38649.38
619.255	38603.05
619.611	38525.09
619.967	38736.83
620.323	38737.06
620.678	38544.3
621.034	38545.88
621.39	38573
621.746	38544.52
622.101	38985.19
622.457	38527.12
622.812	38599.44
623.168	38839.88
623.523	38810.05
623.879	38922.14
624.234	38589.95
624.589	38826.1
624.945	38737.74
625.3	38741.81
625.655	38692.54
626.01	38832.88
626.365	38804.4
626.72	38770.05
627.075	38752.88
627.43	38739.55
627.785	38663.16
628.14	38606.22
628.495	38683.5
628.85	38600.79
629.205	38545.88
629.559	38708.81
629.914	38539.55
630.269	38620.68
630.623	38377.07
630.978	38419.55
631.332	38481.7
631.687	38572.09
632.041	38374.58
632.396	38497.29
632.75	38248.94
633.104	38333
633.459	38273.12
633.813	38156.06
634.167	38119
634.521	38120.81
634.875	38246.68
635.229	37970.3
635.583	37944.54
635.937	37846.01
636.291	37823.64
636.645	37729.63
636.999	37745.22
637.352	37768.05
637.706	37580.71
638.06	37895.27
638.413	37721.95
638.767	37652.12
639.121	37669.74
639.474	37230.89
639.828	37478.11
640.181	37516.08
640.534	37448.05
640.888	37207.61
641.241	37067.5
641.594	37280.6
641.947	37417.55
642.301	37167.84
642.654	37127.39
643.007	37234.73
643.36	37155.63
643.713	36980.04
644.066	37232.69
644.419	36892.36
644.771	36609.21
645.124	36366.5
645.477	36345.03
645.83	35990.92
646.182	35881.09
646.535	35698.95
646.888	35844.48
647.24	35705.5
647.593	35783.01
647.945	35664.6
648.298	35571.72
648.65	35536.01
649.002	35317.26
649.355	35486.75
649.707	35344.83
650.059	35524.49
650.411	35870.24
650.763	35972.16
651.115	36362.89
651.467	36145.04
651.819	36084.7
652.171	35895.78
652.523	35936
652.875	35978.49
653.227	35754.09
653.578	36006.28
653.93	35848.55
654.282	35768.33
654.633	35748.21
654.985	35657.59
655.337	35661.89
655.688	35665.95
656.039	35976.91
656.391	35569.46
656.742	35710.47
657.094	35479.29
657.445	35658.72
657.796	35647.2
658.147	35504.83
658.498	35510.93
658.849	35608.1
659.2	35515
659.551	35347.32
659.902	35421.22
660.253	35431.61
660.604	35402.46
660.955	35197.49
661.306	35424.38
661.656	35254.89
662.007	35290.6
662.358	35173.31
662.708	35207.44
663.059	35121.56
663.409	35042.69
663.76	35311.84
664.11	35184.84
664.461	35197.04
664.811	35237.49
665.161	35085.86
665.511	35030.49
665.862	35175.35
666.212	35304.83
666.562	35122.92
666.912	35158.62
667.262	35195.91
667.612	35078.17
667.962	35087.21
668.312	34974.9
668.662	35179.19
669.011	34967.22
669.361	35022.13
669.711	34842.93
670.06	34887.9
670.41	34848.35
670.76	34653.55
671.109	34924.73
671.459	34699.65
671.808	34681.12
672.157	34724.74
672.507	34545.76
672.856	34519.32
673.205	34717.51
673.554	34637.96
673.904	34567.45
674.253	34836.37
674.602	34587.57
674.951	34154.58
675.3	33934.02
675.649	34568.58
675.998	34396.84
676.346	34387.12
676.695	34435.93
677.044	34218.99
677.393	34284.75
677.741	34275.03
678.09	34303.5
678.438	34086.34
678.787	34198.2
679.135	34224.18
679.484	34107.58
679.832	34130.4
680.181	33930.63
680.529	33958.88
680.877	33808.38
681.225	33885.66
681.573	34018.31
681.922	33830.07
682.27	33582.62
682.618	33714.14
682.966	33583.52
683.314	33694.48
683.661	33591.89
684.009	33498.1
684.357	33366.13
684.705	33392.79
685.053	33235.96
685.4	33296.75
685.748	33160.71
686.095	33117.77
686.443	33080.71
686.79	32906.03
687.138	32931.11
687.485	33026.93
687.832	32880.27
688.18	32836.2
688.527	32684.56
688.874	32581.52
689.221	32513.27
689.568	32428.98
689.915	32422.42
690.262	32324.57
690.609	32377.68
690.956	32174.75
691.303	32019.72
691.65	31971.59
691.997	31995.32
692.344	31761.2
692.69	31802.55
693.037	31706.51
693.383	31615.21
693.73	31588.55
694.077	31250.7
694.423	31379.29
694.769	31171.16
695.116	31133.19
695.462	31204.15
695.808	31024.72
696.155	31156.02
696.501	30893.2
696.847	30772.75
697.193	30715.35
697.539	30798.29
697.885	30527.33
698.231	30376.38
698.577	30398.75
698.923	30472.19
699.269	30257.06
699.614	30133.44
699.96	30044.41
700.306	29906.11
700.651	29855.03
700.997	29758.31
701.342	29790.63
701.688	29656.85
702.033	29650.75
702.379	29593.57
702.724	29492.56
703.069	29487.36
703.415	29138.67
703.76	29208.5
704.105	29121.49
704.45	29027.26
704.795	28963.76
705.14	28886.92
705.485	28849.41
705.83	28749.53
706.175	28741.39
706.52	28766.25
706.865	28525.35
707.209	28579.14
707.554	28347.05
707.899	28424.34
708.243	28260.05
708.588	28271.8
708.932	28200.16
709.277	27981.86
709.621	28019.6
709.966	27852.38
710.31	27886.95
710.654	27620.29
710.998	27711.14
711.342	27687.63
711.687	27597.69
712.031	27496
712.375	27319.28
712.719	27476.34
713.063	27452.61
713.407	27456
713.75	27366.51
714.094	27282.9
714.438	27183.92
714.782	27179.4
715.125	27106.86
715.469	27193.64
715.812	26871.61
716.156	26829.8
716.499	26898.73
716.843	26805.4
717.186	26642.92
717.53	26749.35
717.873	26765.4
718.216	26687.89
718.559	26512.98
718.902	26267.78
719.246	26437.27
719.589	26444.5
719.932	26141.69
720.275	26259.87
720.617	26246.54
720.96	26081.8
721.303	26175.58
721.646	26155.02
721.989	25986.21
722.331	26014.23
722.674	25881.58
723.016	25966.55
723.359	25799.55
723.701	25863.73
724.044	25670.06
724.386	25591.42
724.729	25769.04
725.071	25557.97
725.413	25621.25
725.755	25600
726.097	25513.91
726.439	25343.51
726.782	25370.41
727.124	25419.67
727.465	25260.35
727.807	25343.74
728.149	25204.31
728.491	25206.34
728.833	25137.64
729.175	24988.04
729.516	25014.26
729.858	24984.2
730.199	24929.97
730.541	24878.22
730.882	24812.91
731.224	25017.87
731.565	24836.86
731.906	24675.28
732.248	24707.82
732.589	24612.69
732.93	24431
733.271	24604.1
733.612	24486.81
733.953	24635.96
734.294	24408.85
734.635	24359.36
734.976	24414.27
735.317	24419.7
735.658	24340.83
735.999	24299.7
736.339	24303.09
736.68	24433.48
737.021	24247.95
737.361	24098.12
737.702	24210.21
738.042	24089.76
738.383	24003.44
738.723	24046.15
739.063	23961.63
739.404	23988.75
739.744	23842.99
740.084	23881.41
740.424	23808.87
740.764	23791.69
741.104	23777.23
741.444	23692.26
741.784	23617.46
742.124	23567.29
742.464	23529.1
742.804	23550.57
743.143	23415.88
743.483	23409.78
743.823	23347.18
744.162	23328.65
744.502	23379.5
744.841	23224.47
745.181	23345.83
745.52	23174.98
745.86	23262.89
746.199	23108.09
746.538	23075.78
746.877	23167.07
747.216	23075.78
747.556	23101.54
747.895	22977.47
748.234	22923.92
748.573	22848.44
748.911	22870.81
749.25	22824.03
749.589	22782
749.928	22642.12
750.267	22678.27
750.605	22601.44
750.944	22608.22
751.283	22493.87
751.621	22573.42
751.96	22366.42
752.298	22352.18
752.636	22363.71
752.975	22213.88
753.313	22229.47
753.651	22291.39
753.989	22161
754.327	22228.12
754.666	22105.41
755.004	22089.36
755.342	22061.57
755.679	21991.74
756.017	21962.81
756.355	21915.81
756.693	21881.46
757.031	21819.54
757.368	21698.86
757.706	21597.85
758.044	21584.29
758.381	21618.41
758.719	21548.81
759.056	21427.69
759.394	21384.3
759.731	21161.7
760.068	21179.56
760.405	21191.99
760.743	20999.45
761.08	21209.84
761.417	20932.33
761.754	20884.42
762.091	20877.87
762.428	20823.18
762.765	20641.49
763.102	20678.1
763.438	20562.62
763.775	20460.7
764.112	20498.44
764.449	20430.2
764.785	20455.06
765.122	20247.83
765.458	20062.07
765.795	20081.28
766.131	20125.8
766.467	20056.65
766.804	19869.31
767.14	19761.51
767.476	19819.14
767.812	19704.11
768.148	19741.4
768.485	19573.72
768.821	19501.63
769.157	19468.19
769.492	19445.59
769.828	19464.57
770.164	19193.85
770.5	19225.71
770.836	19178.03
771.171	19050.8
771.507	18997.69
771.842	18913.85
772.178	18916.34
772.513	18839.05
772.849	18836.34
773.184	18771.48
773.519	18720.41
773.855	18606.06
774.19	18531.94
774.525	18328.56
774.86	18526.29
775.195	18406.97
775.53	18200.88
775.865	18187.09
776.2	18116.13
776.535	17922.01
776.87	18024.61
777.205	17901.45
777.539	17804.28
777.874	17805.41
778.209	17651.51
778.543	17627.33
778.878	17501.69
779.212	17534.68
779.547	17379.66
779.881	17481.57
780.215	17362.48
780.55	17414.46
780.884	17226.44
781.218	17109.83
781.552	17154.35
781.886	17046.33
782.22	16892.89
782.554	16969.72
782.888	16811.08
783.222	16731.54
783.556	16639.34
783.889	16683.86
784.223	16571.09
784.557	16375.16
784.89	16516.4
785.224	16434.37
785.557	16339.01
785.891	16311.21
786.224	16263.53
786.558	16175.17
786.891	16105.79
787.224	15979.47
787.557	16043.42
787.891	15893.37
788.224	15953.25
788.557	15933.59
788.89	15803.2
789.223	15739.93
789.556	15642.53
789.888	15626.03
790.221	15627.39
790.554	15385.81
790.887	15425.58
791.219	15400.5
791.552	15400.73
791.884	15264.91
792.217	15185.82
792.549	15136.55
792.882	15008.42
793.214	15033.73
793.546	15115.08
793.879	14923.68
794.211	14893.39
794.543	14999.61
794.875	14829.67
795.207	14871.47
795.539	14845.71
795.871	14819.95
796.203	14601.42
796.535	14558.71
796.867	14595.32
797.198	14514.87
797.53	14601.65
797.862	14457.92
798.193	14445.5
798.525	14406.85
798.856	14329.11
799.188	14141.78
799.519	14177.25
799.85	14022.46
800.182	14100.19
800.513	14135.9
800.844	13998.95
801.175	14018.84
801.506	13940.2
801.837	13907.66
802.168	13773.65
802.499	13763.48
802.83	13666.31
803.161	13636.93
803.491	13653.65
803.822	13621.79
804.153	13532.3
804.483	13472.41
804.814	13445.97
805.145	13372.3
805.475	13428.12
805.805	13367.33
806.136	13355.58
806.466	13336.6
806.796	13237.17
807.126	13205.75
807.457	13132.31
807.787	13196.26
808.117	13135.47
808.447	13052.31
808.777	13083.95
809.107	12982.71
809.436	12964.4
809.766	12966.89
810.096	12868.81
810.426	12899.32
810.755	12845.76
811.085	12742.94
811.414	12762.83
811.744	12729.61
812.073	12592.21
812.403	12594.47
812.732	12611.19
813.061	12613.91
813.39	12479.67
813.719	12502.5
814.049	12471.08
814.378	12413.46
814.707	12420.92
815.036	12388.15
815.365	12292.78
815.693	12269.06
816.022	12267.02
816.351	12312.44
816.68	12139.57
817.008	12220.7
817.337	12042.62
817.665	12077.42
817.994	12066.12
818.322	12047.82
818.651	11956.75
818.979	11909.29
819.307	11969.18
819.636	11963.3
819.964	11833.81
820.292	11879.46
820.62	11910.65
820.948	11849.41
821.276	11890.76
821.604	11796.98
821.932	11886.47
822.259	11866.58
822.587	11830.2
822.915	11796.75
823.243	11766.02
823.57	11823.64
823.898	11794.72
824.225	11700.71
824.553	11690.54
824.88	11836.3
825.207	11789.07
825.535	11786.58
825.862	11757.88
826.189	11658
826.516	11778.67
826.843	11877.88
827.17	11782.74
827.497	11825.9
827.824	11850.31
828.151	11783.87
828.478	11752.46
828.805	11782.52
829.131	11729.86
829.458	11748.62
829.785	11686.7
830.111	11762.63
830.438	11783.42
830.764	11683.99
831.09	11730.99
831.417	11654.16
831.743	11726.47
832.069	11756.08
832.395	11673.59
832.722	11726.47
833.048	11627.94
833.374	11647.15
833.7	11664.1
834.026	11650.09
834.351	11566.25
834.677	11554.72
835.003	11621.84
835.329	11585.91
835.654	11584.1
835.98	11552.24
836.306	11524.89
836.631	11513.6
836.956	11506.14
837.282	11551.11
837.607	11462.75
837.932	11404.9
838.258	11310.89
838.583	11391.34
838.908	11325.8
839.233	11316.99
839.558	11290.1
839.883	11296.43
840.208	11226.6
840.533	11287.16
840.858	11330.32
841.182	11192.93
841.507	11200.16
841.832	11128.75
842.156	11209.42
842.481	11116.77
842.805	11091.23
843.13	11117
843.454	11078.13
843.778	11066.38
844.103	11034.29
844.427	10979.6
844.751	11056.66
845.075	10897.79
845.399	10917.91
845.723	10845.82
846.047	10827.74
846.371	10760.17
846.695	10787.06
847.019	10644.69
847.343	10662.32
847.666	10581.64
847.99	10552.94
848.313	10522.44
848.637	10460.06
848.96	10498.71
849.284	10440.18
849.607	10351.59
849.931	10291.71
850.254	10228.66
850.577	10244.02
850.9	10099.17
851.223	10124.48
851.546	10091.94
851.869	10038.38
852.192	10094.2
852.515	9961.09
852.838	9992.28
853.161	9989.34
853.483	9905.73
853.806	9865.5
854.129	9882.23
854.451	9764.04
854.774	9757.71
855.096	9685.62
855.419	9657.37
855.741	9686.98
856.063	9631.84
856.385	9651.72
856.708	9602.01
857.03	9518.85
857.352	9528.79
857.674	9511.16
857.996	9424.38
858.318	9426.42
858.64	9437.72
858.961	9320.66
859.283	9332.18
859.605	9290.38
859.926	9331.28
860.248	9251.28
860.57	9171.51
860.891	9228.91
861.212	9184.84
861.534	9143.49
861.855	9148.91
862.176	9144.17
862.498	9178.97
862.819	9112.75
863.14	9110.72
863.461	9105.52
863.782	9056.03
864.103	9043.38
864.424	8981.46
864.745	9013.55
865.065	8978.75
865.386	8917.51
865.707	8905.3
866.027	8934.23
866.348	8848.35
866.668	8895.13
866.989	8901.23
867.309	8807.9
867.63	8872.54
867.95	8775.14
868.27	8811.07
868.59	8770.39
868.91	8818.3
869.23	8701.24
869.55	8728.13
869.87	8798.41
870.19	8727
870.51	8713.67
870.83	8728.58
871.15	8674.12
871.469	8656.72
871.789	8637.51
872.109	8635.25
872.428	8561.81
872.748	8656.72
873.067	8583.05
873.386	8564.75
873.706	8592.99
874.025	8531.3
874.344	8517.97
874.663	8534.46
874.982	8518.19
875.301	8455.82
875.62	8441.36
875.939	8462.83
876.258	8408.37
876.577	8393.23
876.896	8456.73
877.214	8380.8
877.533	8419.67
877.852	8419.44
878.17	8412.89
878.489	8372.66
878.807	8356.62
879.125	8318.43
879.444	8276.84
879.762	8291.53
880.08	8296.05
880.398	8335.37
880.716	8268.26
881.034	8263.51
881.352	8273.91
881.67	8184.42
881.988	8177.86
882.306	8138.32
882.624	8110.97
882.941	8138.77
883.259	8101.93
883.577	8061.48
883.894	8014.93
884.212	8074.82
884.529	8045.66
884.846	8058.32
885.164	7999.34
885.481	7910.75
885.798	8005.21
886.115	7964.54
886.432	7905.78
886.75	7903.52
887.067	7867.59
887.383	7898.32
887.7	7887.48
888.017	7793.69
888.334	7850.19
888.651	7774.94
888.967	7766.35
889.284	7707.37
889.6	7737.42
889.917	7630.31
890.233	7680.93
890.55	7649.29
890.866	7641.83
891.182	7611.1
891.498	7556.41
891.815	7567.26
892.131	7527.94
892.447	7476.19
892.763	7493.81
893.079	7428.96
893.395	7414.04
893.71	7428.05
894.026	7384.89
894.342	7342.86
894.657	7364.55
894.973	7294.5
895.289	7273.26
895.604	7295.63
895.92	7221.28
896.235	7224.22
896.55	7226.48
896.865	7139.25
897.181	7120.49
897.496	7100.83
897.811	7089.31
898.126	7103.32
898.441	7030.1
898.756	7024.9
899.071	7049.31
899.386	6985.81
899.7	6922.53
900.015	6937.67
900.33	6857.45
900.644	6884.56
900.959	6889.54
901.273	6852.02
901.588	6799.6
901.902	6831.01
902.216	6754.17
902.531	6713.27
902.845	6709.43
903.159	6660.39
903.473	6638.92
903.787	6646.38
904.101	6571.35
904.415	6547.62
904.729	6566.38
905.042	6484.8
905.356	6492.71
905.67	6473.73
905.984	6497.68
906.297	6479.83
906.611	6449.32
906.924	6394.41
907.237	6430.11
907.551	6337.91
907.864	6362.54
908.177	6318.03
908.491	6325.26
908.804	6259.5
909.117	6244.13
909.43	6240.29
909.743	6175.66
910.056	6174.53
910.368	6132.95
910.681	6101.31
910.994	6092.5
911.307	6076.22
911.619	6016.11
911.932	6042.1
912.244	5948.09
912.557	6025.6
912.869	5946.74
913.181	5895.66
913.494	5942.44
913.806	5859.05
914.118	5865.61
914.43	5800.75
914.742	5813.86
915.054	5756.23
915.366	5768.89
915.678	5767.08
915.99	5700.42
916.302	5645.05
916.613	5664.71
916.925	5607.99
917.236	5612.28
917.548	5531.83
917.859	5597.37
918.171	5503.36
918.482	5534.09
918.794	5515.56
919.105	5556.69
919.416	5481.44
919.727	5372.51
920.038	5433.98
920.349	5399.18
920.66	5337.71
920.971	5338.84
921.282	5322.12
921.593	5316.92
921.903	5294.32
922.214	5226.76
922.525	5261.1
922.835	5173.88
923.146	5177.26
923.456	5202.8
923.767	5163.48
924.077	5133.2
924.387	5113.54
924.697	5156.25
925.008	5103.14
925.318	5031.73
925.628	5063.37
925.938	5017.72
926.248	4964.62
926.558	4932.98
926.867	4984.05
927.177	4901.11
927.487	4888.91
927.796	4862.02
928.106	4881
928.416	4879.42
928.725	4856.14
929.034	4820.66
929.344	4799.65
929.653	4738.18
929.962	4791.96
930.271	4700.44
930.581	4723.49
930.89	4678.07
931.199	4653.66
931.508	4657.96
931.817	4645.53
932.125	4569.82
932.434	4590.39
932.743	4554.91
933.051	4532.54
933.36	4555.59
933.669	4496.38
933.977	4501.8
934.286	4475.14
934.594	4454.57
934.902	4416.83
935.21	4428.81
935.519	4381.81
935.827	4372.54
936.135	4351.75
936.443	4291.86
936.751	4300.68
937.059	4304.75
937.367	4325.08
937.674	4268.81
937.982	4268.14
938.29	4228.14
938.597	4228.59
938.905	4198.53
939.213	4198.08
939.52	4159.66
939.827	4157.86
940.135	4158.99
940.442	4119.44
940.749	4098.88
941.056	4112.43
941.363	4026.33
941.67	4085.77
941.977	3996.51
942.284	4017.52
942.591	3976.39
942.898	3974.81
943.205	3975.94
943.511	3945.66
943.818	3893.23
944.125	3922.83
944.431	3860.46
944.738	3882.38
945.044	3850.07
945.35	3853.46
945.657	3815.49
945.963	3833.8
946.269	3784.53
946.575	3796.06
946.881	3778.66
947.187	3769.84
947.493	3786.34
947.799	3758.09
948.105	3675.38
948.41	3669.51
948.716	3684.2
949.022	3625.44
949.327	3651.43
949.633	3621.15
949.938	3559.68
950.244	3599
950.549	3589.28
950.854	3568.04
951.16	3555.39
951.465	3531.21
951.77	3547.03
952.075	3502.05
952.38	3461.6
952.685	3478.78
952.99	3484.88
953.294	3411.44
953.599	3419.12
953.904	3403.53
954.209	3377.76
954.513	3413.47
954.818	3336.86
955.122	3340.7
955.426	3369.18
955.731	3325.79
956.035	3315.62
956.339	3304.55
956.643	3283.3
956.948	3264.55
957.252	3231.78
957.556	3262.51
957.86	3231.78
958.163	3245.34
958.467	3223.64
958.771	3174.61
959.075	3226.58
959.378	3192.23
959.682	3179.58
959.985	3138.45
960.289	3164.21
960.592	3147.49
960.896	3113.82
961.199	3099.81
961.502	3117.43
961.805	3058.9
962.108	3059.81
962.411	3033.82
962.714	3037.43
963.017	3012.35
963.32	2992.01
963.623	2986.59
963.926	2981.62
964.228	2985.23
964.531	2964.67
964.833	2912.92
965.136	2937.32
965.438	2920.83
965.741	2899.13
966.043	2880.6
966.345	2899.36
966.648	2835.63
966.95	2866.82
967.252	2845.57
967.554	2830.43
967.856	2831.34
968.158	2776.65
968.46	2801.51
968.761	2797.44
969.063	2774.16
969.365	2757.67
969.666	2742.07
969.968	2730.1
970.269	2730.55
970.571	2708.63
970.872	2709.08
971.174	2692.13
971.475	2687.39
971.776	2643.55
972.077	2651.23
972.378	2656.88
972.679	2629.31
972.98	2647.39
973.281	2592.25
973.582	2596.32
973.883	2561.74
974.183	2576.43
974.484	2571.91
974.785	2542.08
975.085	2566.26
975.386	2529.65
975.686	2567.39
975.986	2535.07
976.287	2477.9
976.587	2489.2
976.887	2495.3
977.187	2504.34
977.487	2458.47
977.787	2446.49
978.087	2404
978.387	2450.56
978.687	2420.05
978.987	2426.38
979.286	2382.08
979.586	2409.65
979.885	2380.95
980.185	2371.01
980.484	2381.18
980.784	2334.4
981.083	2329.43
981.382	2333.27
981.682	2326.49
981.981	2323.33
982.28	2305.48
982.579	2272.93
982.878	2266.83
983.177	2274.74
983.475	2277
983.774	2269.54
984.073	2238.59
984.372	2259.38
984.67	2225.03
984.969	2199.94
985.267	2212.6
985.566	2189.55
985.864	2189.55
986.162	2172.15
986.461	2192.71
986.759	2135.76
987.057	2147.29
987.355	2129.66
987.653	2102.09
987.951	2126.95
988.249	2079.72
988.547	2104.58
988.844	2070.68
989.142	2094.63
989.44	2053.28
989.737	2059.15
990.035	2060.51
990.332	2041.98
990.63	2020.29
990.927	2030.68
991.224	2012.38
991.521	2023.22
991.819	1987.07
992.116	2019.61
992.413	2003.56
992.71	1986.16
993.006	1969.21
993.303	1967.41
993.6	1948.88
993.897	1938.71
994.193	1916.11
994.49	1913.17
994.787	1908.42
995.083	1885.83
995.379	1903.9
995.676	1869.78
995.972	1897.13
996.268	1880.4
996.565	1871.36
996.861	1835.43
997.157	1833.17
997.453	1820.97
997.749	1797.69
998.044	1804.47
998.34	1792.27
998.636	1765.83
998.932	1785.49
999.227	1772.61
999.523	1780.52
999.818	1792.04
1000.114	1710.46
1000.409	1745.26
1000.704	1712.27
1001	1718.37
1001.295	1729.22
1001.59	1722.89
1001.885	1707.3
1002.18	1698.71
1002.475	1677.24
1002.77	1683.12
1003.065	1658.94
1003.359	1683.8
1003.654	1638.15
1003.949	1623.69
1004.243	1628.66
1004.538	1642.22
1004.832	1634.99
1005.127	1617.81
1005.421	1566.96
1005.715	1594.31
1006.009	1590.69
1006.304	1575.33
1006.598	1570.35
1006.892	1569.68
1007.186	1543.69
1007.48	1543.69
1007.773	1532.84
1008.067	1525.16
1008.361	1482.22
1008.655	1491.26
1008.948	1496.01
1009.242	1507.08
1009.535	1492.39
1009.829	1476.8
1010.122	1463.24
1010.415	1477.48
1010.708	1447.65
1011.001	1458.49
1011.295	1430.47
1011.588	1424.14
1011.881	1410.81
1012.173	1416.01
1012.466	1388.89
1012.759	1404.48
1013.052	1392.05
1013.344	1404.03
1013.637	1390.7
1013.93	1348.21
1014.222	1374.2
1014.514	1337.82
1014.807	1330.13
1015.099	1332.39
1015.391	1329
1015.683	1293.98
1015.976	1300.53
1016.268	1319.97
1016.56	1296.69
1016.851	1308.89
1017.143	1290.59
1017.435	1262.57
1017.727	1259.18
1018.018	1249.68
1018.31	1264.37
1018.602	1260.98
1018.893	1242
1019.185	1259.18
1019.476	1218.95
1019.767	1226.41
1020.058	1242.68
1020.35	1221.21
1020.641	1162
1020.932	1180.99
1021.223	1196.35
1021.514	1173.53
1021.804	1135.11
1022.095	1171.95
1022.386	1162.68
1022.677	1130.37
1022.967	1110.48
1023.258	1100.31
1023.548	1119.52
1023.839	1094.43
1024.129	1110.48
1024.419	1126.07
1024.709	1086.98
1025	1085.62
1025.29	1078.39
1025.58	1081.33
1025.87	1074.77
1026.16	1081.78
1026.449	1046.98
1026.739	1023.7
1027.029	1032.97
1027.319	1019.86
1027.608	1048.11
1027.898	1028
1028.187	1032.06
1028.477	994.78
1028.766	1012.4
1029.055	997.71
1029.344	978.05
1029.634	984.38
1029.923	973.53
1030.212	949.35
1030.501	940.31
1030.79	965.62
1031.078	960.2
1031.367	945.51
1031.656	953.42
1031.945	940.77
1032.233	948.68
1032.522	927.21
1032.81	944.61
1033.099	917.04
1033.387	943.25
1033.675	908
1033.963	912.07
1034.251	897.6
1034.54	916.59
1034.828	880.43
1035.116	868
1035.403	880.88
1035.691	882.24
1035.979	886.76
1036.267	841.79
1036.554	841.33
1036.842	854.89
1037.129	830.03
1037.417	859.64
1037.704	822.8
1037.992	828.45
1038.279	831.16
1038.566	835.68
1038.853	835.68
1039.14	835.68
