Data from white_wall_FLMS001491_004.txt Node
Date: Tue Feb 07 11:03:11 GMT 2017
User: dcchb
Spectrometer: FLMS00149
Trigger mode: 0
Integration Time (sec): 2.000000E-2
Scans to average: 10
Electric dark correction enabled: true
Nonlinearity correction enabled: false
Boxcar width: 0
XAxis mode: Wavelengths
Number of Pixels in Spectrum: 2048
>>>>>Begin Spectral Data<<<<<
341.393	-12.08
341.776	-12.08
342.16	-12.08
342.543	-58.4
342.927	-85.75
343.31	-75.13
343.693	-70.61
344.077	-61.57
344.46	-59.08
344.843	-54.79
345.226	-29.25
345.61	-29.93
345.993	-28.35
346.376	-12.3
346.759	8.49
347.142	29.05
347.525	38.09
347.908	80.8
348.291	88.94
348.674	79.22
349.057	96.4
349.44	122.61
349.823	125.32
350.206	162.61
350.588	209.84
350.971	220.01
351.354	249.39
351.737	237.41
352.119	278.99
352.502	295.49
352.884	293.68
353.267	310.63
353.65	299.55
354.032	304.98
354.414	322.15
354.797	320.8
355.179	338.2
355.562	334.13
355.944	353.34
356.326	369.38
356.709	351.98
357.091	354.02
357.473	376.84
357.855	363.28
358.238	373.9
358.62	368.7
359.002	376.61
359.384	372.77
359.766	357.63
360.148	363.06
360.53	367.8
360.912	343.62
361.294	365.54
361.676	353.56
362.057	366.67
362.439	336.39
362.821	344.3
363.203	340.01
363.584	354.24
363.966	346.56
364.348	343.62
364.729	357.63
365.111	336.16
365.493	337.52
365.874	342.49
366.256	351.3
366.637	334.58
367.019	333.68
367.4	358.76
367.781	328.03
368.163	347.46
368.544	351.3
368.925	327.8
369.306	351.3
369.688	335.26
370.069	327.12
370.45	349.95
370.831	356.05
371.212	348.82
371.593	341.36
371.974	341.59
372.355	361.7
372.736	343.62
373.117	339.33
373.498	339.1
373.879	358.31
374.26	351.98
374.641	357.41
375.021	351.08
375.402	342.94
375.783	357.41
376.163	356.95
376.544	374.58
376.925	360.12
377.305	370.51
377.686	373.22
378.066	362.38
378.447	371.87
378.827	364.41
379.208	371.19
379.588	382.94
379.968	377.07
380.349	377.52
380.729	380
381.109	373.45
381.489	380.23
381.87	396.95
382.25	387.24
382.63	387.01
383.01	402.6
383.39	397.4
383.77	389.72
384.15	397.86
384.53	400.57
384.91	382.94
385.29	399.21
385.67	415.94
386.049	409.16
386.429	398.31
386.809	419.1
387.189	428.36
387.568	417.97
387.948	450.96
388.328	438.53
388.707	464.3
389.087	440.57
389.466	456.16
389.846	463.39
390.225	460.91
390.605	448.25
390.984	485.09
391.363	474.92
391.743	471.75
392.122	482.83
392.501	480.34
392.881	510.4
393.26	515.82
393.639	511.75
394.018	518.53
394.397	556.95
394.776	528.93
395.155	516.27
395.534	549.49
395.913	550.85
396.292	557.17
396.671	572.09
397.05	570.28
397.429	571.86
397.808	588.59
398.186	623.39
398.565	631.07
398.944	628.59
399.323	634.23
399.701	638.75
400.08	644.63
400.458	648.7
400.837	690.28
401.215	688.24
401.594	685.31
401.972	724.4
402.351	737.73
402.729	724.18
403.107	750.84
403.486	763.04
403.864	789.03
404.242	776.83
404.62	789.94
404.999	805.53
405.377	848.92
405.755	855.02
406.133	874
406.511	863.16
406.889	908.13
407.267	921.46
407.645	927.56
408.023	944.74
408.401	929.14
408.779	975.92
409.156	1012.98
409.534	987.9
409.912	1063.6
410.29	1054.34
410.667	1075.58
411.045	1079.42
411.422	1099.08
411.8	1132.75
412.178	1133.43
412.555	1144.28
412.933	1193.09
413.31	1186.76
413.687	1211.17
414.065	1211.39
414.442	1259.98
414.819	1267.66
415.197	1236.93
415.574	1291.39
415.951	1283.03
416.328	1331.62
416.705	1332.52
417.082	1349.24
417.46	1364.61
417.837	1390.37
418.214	1401.22
418.591	1393.76
418.967	1419.75
419.344	1429.24
419.721	1461.78
420.098	1467.89
420.475	1486.87
420.852	1494.78
421.228	1549.24
421.605	1552.63
421.982	1548.56
422.358	1563.7
422.735	1572.52
423.111	1606.41
423.488	1647.77
423.864	1623.81
424.241	1689.12
424.617	1679.4
424.994	1703.13
425.37	1717.37
425.746	1763.7
426.123	1778.61
426.499	1763.24
426.875	1815.9
427.251	1825.16
427.627	1874.43
428.003	1861.55
428.379	1886.41
428.756	1925.73
429.132	1958.04
429.507	1986.97
429.883	2018.83
430.259	2033.07
430.635	2033.97
431.011	2073.29
431.387	2134.31
431.763	2144.7
432.138	2176.12
432.514	2236.9
432.89	2206.62
433.265	2261.08
433.641	2294.98
434.016	2339.27
434.392	2367.07
434.767	2405.71
435.143	2417.01
435.518	2443.9
435.894	2454.75
436.269	2493.62
436.644	2520.96
437.02	2552.15
437.395	2538.14
437.77	2644.35
438.145	2672.15
438.52	2687.51
438.895	2680.28
439.271	2688.64
439.646	2770.68
440.021	2800.05
440.395	2797.12
440.77	2825.82
441.145	2823.56
441.52	2890.45
441.895	2892.48
442.27	2909.66
442.645	2925.02
443.019	2963.21
443.394	2984
443.769	3019.71
444.143	3014.96
444.518	3080.95
444.892	3035.3
445.267	3108.52
445.641	3132.02
446.016	3148.97
446.39	3143.77
446.764	3213.83
447.139	3196.2
447.513	3261.74
447.887	3260.15
448.262	3304.45
448.636	3287.72
449.01	3380.83
449.384	3358.68
449.758	3377.44
450.132	3400.49
450.506	3491.79
450.88	3504.44
451.254	3499.02
451.628	3560.49
452.002	3581.73
452.376	3648.62
452.75	3682.52
453.123	3710.09
453.497	3759.12
453.871	3750.54
454.244	3826.24
454.618	3924.09
454.992	3948.5
455.365	3981.72
455.739	4090.42
456.112	4105.56
456.486	4171.09
456.859	4199.56
457.232	4279.34
457.606	4254.03
457.979	4352.33
458.352	4490.63
458.725	4489.73
459.099	4530.18
459.472	4607.46
459.845	4670.29
460.218	4721.36
460.591	4757.52
460.964	4710.51
461.337	4896.72
461.71	4965.19
462.083	5005.87
462.456	5053.1
462.829	5039.09
463.201	5172.42
463.574	5158.86
463.947	5281.34
464.32	5366.09
464.692	5484.28
465.065	5479.53
465.438	5568.12
465.81	5667.1
466.183	5674.1
466.555	5852.4
466.928	5908.45
467.3	5868.22
467.672	6002.46
468.045	6152.51
468.417	6133.75
468.789	6264.37
469.161	6321.32
469.534	6455.55
469.906	6584.13
470.278	6598.15
470.65	6707.3
471.022	6829.55
471.394	6952.94
471.766	7039.04
472.138	7092.82
472.51	7277.9
472.882	7387.96
473.253	7535.07
473.625	7624.33
473.997	7821.62
474.369	7843.76
474.74	7974.15
475.112	8118.78
475.484	8254.15
475.855	8358.78
476.227	8444.65
476.598	8676.74
476.97	8711.54
477.341	8890.51
477.713	9036.27
478.084	9200.56
478.455	9392.2
478.827	9520.33
479.198	9764.39
479.569	9817.27
479.94	10126.41
480.311	10193.53
480.682	10473.98
481.053	10642.56
481.424	10923
481.795	10996.22
482.166	11102.43
482.537	11285.25
482.908	11510.78
483.279	11680.05
483.65	11922.98
484.021	12079.36
484.391	12162.07
484.762	12336.07
485.133	12561.83
485.503	12703.75
485.874	12958.2
486.244	13078.65
486.615	13325.88
486.985	13532.88
487.356	13794.34
487.726	13861.23
488.097	14170.6
488.467	14253.54
488.837	14666.41
489.207	14811.04
489.578	14949.79
489.948	15090.58
490.318	15375.77
490.688	15442.66
491.058	15645.14
491.428	15851.46
491.798	16147.95
492.168	16398.79
492.538	16479.02
492.908	16649.18
493.278	16885.33
493.648	17019.11
494.017	17149.73
494.387	17453.45
494.757	17533
495.126	17665.43
495.496	17788.36
495.866	17874.69
496.235	18202.59
496.605	18316.48
496.974	18420.66
497.344	18639.64
497.713	18737.49
498.082	18941.78
498.452	19049.8
498.821	19142.45
499.19	19266.06
499.559	19510.8
499.928	19715.09
500.298	19719.16
500.667	20017
501.036	19941.75
501.405	20285.92
501.774	20330.89
502.143	20470.78
502.512	20565.01
502.88	20841.16
503.249	20784.67
503.618	21019.24
503.987	21186.46
504.356	21409.06
504.724	21564.53
505.093	21580.12
505.462	21656.96
505.83	21972.2
506.199	22051.52
506.567	22420.1
506.936	22420.33
507.304	22685.41
507.672	22816.25
508.041	22962.24
508.409	23090.82
508.777	23273.64
509.145	23426.18
509.514	23502.33
509.882	23752.95
510.25	23784.13
510.618	23981.64
510.986	24184.35
511.354	24421.41
511.722	24520.61
512.09	24829.3
512.458	24782.07
512.826	24973.71
513.193	25294.83
513.561	25321.27
513.929	25654.14
514.297	25807.36
514.664	26103.17
515.032	26296.16
515.4	26450.28
515.767	26491.41
516.135	26640.78
516.502	26616.38
516.869	27142.92
517.237	27318.5
517.604	27140.88
517.972	27539.97
518.339	27808.66
518.706	27845.04
519.073	28057.47
519.44	28417.46
519.808	28576.32
520.175	28588.3
520.542	28916.43
520.909	29062.19
521.276	29172.69
521.643	29517.54
522.009	29652.45
522.376	29925.67
522.743	30069.39
523.11	30447.91
523.477	30602.49
523.843	30898.3
524.21	31173.77
524.577	31404.73
524.943	31490.6
525.31	31704.38
525.676	32011.71
526.043	32140.52
526.409	32385.49
526.776	32678.59
527.142	32793.84
527.508	33140.5
527.874	33342.08
528.241	33462.52
528.607	33524.22
528.973	33882.63
529.339	33912.46
529.705	34260.02
530.071	34584.08
530.437	34643.28
530.803	34927.12
531.169	35066.78
531.535	35073.78
531.901	35398.07
532.267	35469.03
532.632	35761.9
532.998	35946.07
533.364	36127.54
533.73	36136.58
534.095	36538.38
534.461	36539.28
534.826	36812.94
535.192	36936.33
535.557	37093.62
535.923	37112.82
536.288	37270.79
536.653	37435.53
537.019	37450.44
537.384	37593.49
537.749	37929.07
538.114	37920.94
538.479	37987.83
538.845	38174.49
539.21	38308.27
539.575	38457.65
539.94	38600.24
540.305	39008.37
540.67	38747.36
541.034	39131.98
541.399	39288.13
541.764	39291.3
542.129	39429.82
542.494	39656.94
542.858	39786.88
543.223	39898.97
543.587	40086.53
543.952	40093.31
544.316	40403.13
544.681	40242.46
545.045	40602
545.41	40734.42
545.774	40913.4
546.138	41037.24
546.503	41061.87
546.867	41159.27
547.231	41559.71
547.595	41707.28
547.959	41743.21
548.324	41848.52
548.688	42015.29
549.052	42320.14
549.416	42235.4
549.779	42412.35
550.143	42488.05
550.507	42830.19
550.871	42861.15
551.235	43037.64
551.599	43313.56
551.962	43475.59
552.326	43592.43
552.689	43722.37
553.053	43731.63
553.417	43975.02
553.78	44405.51
554.143	44327.55
554.507	44540.2
554.87	44678.27
555.234	45106.29
555.597	45015.44
555.96	45234.19
556.323	45368.43
556.686	45570.23
557.05	45834.18
557.413	46021.97
557.776	46030.33
558.139	46395.07
558.502	46431.45
558.865	46612.23
559.228	46939.91
559.59	47015.16
559.953	47144.88
560.316	47329.28
560.679	47631.64
561.041	47778.08
561.404	47882.48
561.767	48262.13
562.129	48126.55
562.492	48679.3
562.854	48637.72
563.217	48698.96
563.579	48731.28
563.941	49103.47
564.304	49269.34
564.666	49481.99
565.028	49467.53
565.39	49716.79
565.753	49861.87
566.115	50004.69
566.477	50053.95
566.839	50163.55
567.201	50462.3
567.563	50498.01
567.925	50720.38
568.287	50691.9
568.648	50784.78
569.01	50994.49
569.372	51252.56
569.734	51174.37
570.095	51355.16
570.457	51414.82
570.819	51566.68
571.18	51576.4
571.542	51867.69
571.903	51813.23
572.265	51926.9
572.626	51956.73
572.987	52062.71
573.349	52189.04
573.71	52261.13
574.071	52344.29
574.432	52523.49
574.794	52709.93
575.155	52643.94
575.516	52607.33
575.877	52729.59
576.238	52833.54
576.599	52982.46
576.96	52929.13
577.32	52953.54
577.681	53096.58
578.042	53202.34
578.403	53206.41
578.763	53188.33
579.124	53371.61
579.485	53408.89
579.845	53500.42
580.206	53400.08
580.566	53480.3
580.927	53445.5
581.287	53489.34
581.648	53432.62
582.008	53638.94
582.368	53572.96
582.728	53642.56
583.089	53571.6
583.449	53588.1
583.809	53662.67
584.169	53601.66
584.529	53652.05
584.889	53849.33
585.249	53657.7
585.609	53601.66
585.969	53831.71
586.329	53722.78
586.688	53823.34
587.048	53724.59
587.408	53712.61
587.768	53791.93
588.127	53769.11
588.487	53766.4
588.846	53918.94
589.206	53760.75
589.565	53809.56
589.925	53956.67
590.284	53900.63
590.643	53882.78
591.003	53920.52
591.362	53968.65
591.721	53950.12
592.08	53913.51
592.44	53984.92
592.799	53972.04
593.158	53902.89
593.517	53918.48
593.876	54050.68
594.235	53831.03
594.593	53881.87
594.952	54031.25
595.311	53922.55
595.67	53952.38
596.029	54189.66
596.387	54141.98
596.746	54247.74
597.104	54124.58
597.463	54052.27
597.822	54239.38
598.18	54076.22
598.538	54050.23
598.897	54321.86
599.255	53953.74
599.613	54356.66
599.972	54167.97
600.33	54323.22
600.688	54181.08
601.046	54397.11
601.404	54399.15
601.762	54446.15
602.12	54475.08
602.478	54403.67
602.836	54521.18
603.194	54381.3
603.552	54459.71
603.91	54353.27
604.268	54521.86
604.625	54402.54
604.983	54519.82
605.341	54412.93
605.698	54593.27
606.056	54621.97
606.413	54623.55
606.771	54740.16
607.128	54669.88
607.485	54640.05
607.843	54672.36
608.2	54805.24
608.557	54877.1
608.914	54822.64
609.272	54980.38
609.629	54960.72
609.986	55056.98
610.343	54880.49
610.7	55063.54
611.057	55115.29
611.414	55030.09
611.771	55087.27
612.127	55173.82
612.484	55165.91
612.841	55308.28
613.198	55219.47
613.554	55188.28
613.911	55404.77
614.267	55287.26
614.624	55386.24
614.98	55425.11
615.337	55565.9
615.693	55463.53
616.05	55454.71
616.406	55665.33
616.762	55527.48
617.118	55536.07
617.475	55495.62
617.831	55676.63
618.187	55624.88
618.543	55706.01
618.899	55842.73
619.255	55779.9
619.611	55707.36
619.967	55876.4
620.323	55932.89
620.678	55840.92
621.034	55773.58
621.39	55797.3
621.746	55710.07
622.101	55992.33
622.457	55815.16
622.812	55850.86
623.168	55916.17
623.523	55892.89
623.879	56057.64
624.234	55805.67
624.589	55948.26
624.945	55930.86
625.3	55970.86
625.655	55853.57
626.01	55943.29
626.365	55988.03
626.72	55897.64
627.075	55932.67
627.43	55905.55
627.785	55762.05
628.14	55873.69
628.495	55861.48
628.85	55826.23
629.205	55767.7
629.559	55960.46
629.914	55871.65
630.269	55865.55
630.623	55696.06
630.978	55659.45
631.332	55755.05
631.687	55819
632.041	55688.83
632.396	55784.2
632.75	55569.06
633.104	55723.63
633.459	55513.47
633.813	55696.52
634.167	55546.69
634.521	55521.61
634.875	55523.86
635.229	55481.83
635.583	55397.09
635.937	55370.65
636.291	55372.46
636.645	55392.57
636.999	55182.63
637.352	55361.84
637.706	55259.01
638.06	55269.41
638.413	55184.66
638.767	55086.36
639.121	55136.53
639.474	55026.93
639.828	55128.62
640.181	55179.47
640.534	55012.92
640.888	54913.94
641.241	54770.21
641.594	54895.41
641.947	54952.58
642.301	54851.57
642.654	54935.18
643.007	54782.64
643.36	54812.02
643.713	54844.33
644.066	54854.73
644.419	54671.68
644.771	54475.08
645.124	54228.08
645.477	54148.08
645.83	53955.32
646.182	53866.28
646.535	53742.89
646.888	53811.59
647.24	53723.91
647.593	53811.37
647.945	53720.3
648.298	53620.41
648.65	53491.6
649.002	53470.13
649.355	53656.57
649.707	53542
650.059	53614.08
650.411	53993.28
650.763	53999.61
651.115	54285.03
651.467	54225.14
651.819	54151.25
652.171	54048.2
652.523	54075.54
652.875	54081.19
653.227	53895.89
653.578	54154.64
653.93	54050.01
654.282	53893.63
654.633	53875.32
654.985	53915.55
655.337	53908.09
655.688	53872.61
656.039	53932.72
656.391	53665.83
656.742	53804.14
657.094	53770.01
657.445	53893.17
657.796	53797.81
658.147	53698.6
658.498	53645.95
658.849	53737.25
659.2	53728.88
659.551	53640.52
659.902	53672.84
660.253	53709.45
660.604	53717.58
660.955	53556.23
661.306	53680.52
661.656	53558.04
662.007	53567.08
662.358	53596.46
662.708	53474.2
663.059	53524.6
663.409	53294.55
663.76	53431.04
664.11	53520.08
664.461	53554.2
664.811	53457.25
665.161	53464.03
665.511	53354.2
665.862	53391.27
666.212	53441.43
666.562	53383.58
666.912	53357.82
667.262	53275.11
667.612	53276.69
667.962	53346.07
668.312	53281.66
668.662	53419.74
669.011	53260.2
669.361	53191.5
669.711	53234.89
670.06	53136.36
670.41	53088.22
670.76	53090.71
671.109	53160.76
671.459	53141.1
671.808	53139.52
672.157	53197.15
672.507	52968.68
672.856	52956.47
673.205	52982.01
673.554	53069.92
673.904	52928.45
674.253	53086.64
674.602	52853.43
674.951	52453.89
675.3	52254.35
675.649	52791.06
675.998	52643.49
676.346	52742.92
676.695	52833.99
677.044	52582.93
677.393	52650.49
677.741	52606.65
678.09	52558.07
678.438	52406.88
678.787	52561.46
679.135	52577.28
679.484	52268.13
679.832	52502.48
680.181	52240.79
680.529	52439.88
680.877	52228.81
681.225	52249.6
681.573	52390.16
681.922	52136.38
682.27	52027.69
682.618	51979.33
682.966	51967.8
683.314	52076.95
683.661	51900.01
684.009	51719.45
684.357	51749.27
684.705	51633.57
685.053	51693.91
685.4	51629.96
685.748	51414.37
686.095	51481.26
686.443	51231.77
686.79	51286.69
687.138	51314.03
687.485	51235.62
687.832	51108.61
688.18	51165.34
688.527	50963.98
688.874	50956.3
689.221	50779.36
689.568	50734.39
689.915	50611.23
690.262	50656.42
690.609	50488.29
690.956	50475.64
691.303	50300.5
691.65	50165.36
691.997	50164.23
692.344	49947.97
692.69	49894.18
693.037	49858.25
693.383	49594.76
693.73	49756.33
694.077	49518.37
694.423	49564.7
694.769	49363.35
695.116	49338.26
695.462	49268.89
695.808	49124.71
696.155	49143.69
696.501	48954.77
696.847	48932.63
697.193	48613.54
697.539	48707.32
697.885	48472.98
698.231	48341.23
698.577	48364.51
698.923	48305.52
699.269	48154.12
699.614	47823.05
699.96	47854.24
700.306	47920.68
700.651	47795.03
700.997	47530.4
701.342	47468.71
701.688	47446.56
702.033	47298.54
702.379	47270.07
702.724	47162.5
703.069	47328.37
703.415	46925.45
703.76	46862.85
704.105	46774.04
704.45	46767.26
704.795	46548.51
705.14	46329.53
705.485	46434.61
705.83	46146.48
706.175	46080.05
706.52	46040.72
706.865	46045.47
707.209	45801.86
707.554	45715.76
707.899	45919.15
708.243	45645.03
708.588	45626.72
708.932	45337.69
709.277	45333.17
709.621	45405.03
709.966	45052.73
710.31	45254.76
710.654	44789.46
710.998	44888.66
711.342	44983.35
711.687	44752.17
712.031	44600.54
712.375	44537.94
712.719	44647.77
713.063	44483.48
713.407	44615.68
713.75	44377.72
714.094	44218.85
714.438	44032.64
714.782	44143.37
715.125	43994.45
715.469	44111.74
715.812	43654.12
716.156	43650.5
716.499	43593.33
716.843	43702.48
717.186	43340.23
717.53	43637.17
717.873	43485.76
718.216	43292.1
718.559	43182.27
718.902	42950.64
719.246	43051.42
719.589	43002.61
719.932	42836.29
720.275	42883.07
720.617	42817.08
720.96	42600.59
721.303	42772.11
721.646	42713.35
721.989	42399.92
722.331	42642.85
722.674	42465.23
723.016	42477.65
723.359	42337.77
723.701	42327.15
724.044	42153.6
724.386	41932.13
724.729	42100.49
725.071	41966.48
725.413	41985.69
725.755	41757
726.097	41708.18
726.439	41443.56
726.782	41571.69
727.124	41684.23
727.465	41448.98
727.807	41325.37
728.149	41342.99
728.491	41258.93
728.833	41272.49
729.175	41158.14
729.516	40997.47
729.858	41125.83
730.199	41003.79
730.541	40953.17
730.882	40850.13
731.224	40986.85
731.565	40690.13
731.906	40745.5
732.248	40719.28
732.589	40598.38
732.93	40441.78
733.271	40440.65
733.612	40465.73
733.953	40527.2
734.294	40261.22
734.635	40152.74
734.976	40242.23
735.317	40024.84
735.658	40171.73
735.999	39997.04
736.339	40049.7
736.68	40146.87
737.021	39941.9
737.361	39658.97
737.702	40007.89
738.042	39686.77
738.383	39624.4
738.723	39743.04
739.063	39427.79
739.404	39579.43
739.744	39316.16
740.084	39221.69
740.424	39185.99
740.764	39215.14
741.104	39382.82
741.444	38960.46
741.784	38888.14
742.124	39036.16
742.464	38881.14
742.804	39034.13
743.143	38786.45
743.483	38820.58
743.823	38634.14
744.162	38543.29
744.502	38745.78
744.841	38465.78
745.181	38536.29
745.52	38395.28
745.86	38356.41
746.199	38318.22
746.538	38259.01
746.877	38276.86
747.216	38271.89
747.556	38056.98
747.895	38095.62
748.234	37950.99
748.573	37878.68
748.911	37723.43
749.25	37655.86
749.589	37562.98
749.928	37452.93
750.267	37642.98
750.605	37369.77
750.944	37421.06
751.283	37384
751.621	37404.79
751.96	37120.28
752.298	37055.65
752.636	37010.91
752.975	36888.42
753.313	36862.43
753.651	36866.73
753.989	36717.58
754.327	36677.13
754.666	36497.02
755.004	36513.97
755.342	36323.69
755.679	36363.01
756.017	36212.28
756.355	36138.61
756.693	36071.04
757.031	36162.11
757.368	35871.95
757.706	35957.83
758.044	35710.6
758.381	35829.92
758.719	35615.46
759.056	35713.31
759.394	35579.53
759.731	35413.66
760.068	35236.49
760.405	35144.51
760.743	35029.04
761.08	35058.19
761.417	34900.9
761.754	34755.37
762.091	34521.25
762.428	34538.65
762.765	34447.58
763.102	34507.02
763.438	34341.6
763.775	34176.63
764.112	34228.38
764.449	34238.77
764.785	33914.72
765.122	33782.06
765.458	33605.57
765.795	33607.83
766.131	33598.11
766.467	33462.3
766.804	33181.18
767.14	32997.9
767.476	33006.72
767.812	32840.62
768.148	32981.86
768.485	32786.84
768.821	32564.69
769.157	32602.89
769.492	32538.03
769.828	32348.43
770.164	32082.45
770.5	32097.59
770.836	31987.08
771.171	31792.96
771.507	31773.98
771.842	31526.3
772.178	31465.29
772.513	31384.39
772.849	31290.15
773.184	31097.16
773.519	31105.3
773.855	30873.44
774.19	30847.68
774.525	30784.85
774.86	30728.81
775.195	30637.74
775.53	30490.4
775.865	30338.54
776.2	30204.3
776.535	30092.22
776.87	30017.19
777.205	29875.27
777.539	29771.77
777.874	29829.17
778.209	29549.41
778.543	29367.26
778.878	29224.22
779.212	29275.52
779.547	29254.5
779.881	29172.69
780.215	28915.75
780.55	29007.05
780.884	28861.97
781.218	28636.66
781.552	28657.9
781.886	28582.43
782.22	28280.97
782.554	28304.24
782.888	28041.2
783.222	28060.63
783.556	27870.13
783.889	27837.59
784.223	27618.84
784.557	27572.28
784.89	27598.95
785.224	27462.91
785.557	27391.95
785.891	27316.02
786.224	27200.54
786.558	27093.2
786.891	26824.96
787.224	26827.44
787.557	26672.87
787.891	26632.87
788.224	26620.22
788.557	26629.26
788.89	26508.13
789.223	26397.4
789.556	26190.62
789.888	26231.08
790.221	26002.38
790.554	25836.51
790.887	25856.85
791.219	25769.17
791.552	25782.73
791.884	25599
792.217	25429.97
792.549	25413.24
792.882	25200.37
793.214	25233.81
793.546	25211.44
793.879	25095.96
794.211	24989.98
794.543	25030.66
794.875	24846.03
795.207	24935.97
795.539	24800.15
795.871	24682.19
796.203	24579.82
796.535	24409.88
796.867	24336.44
797.198	24307.28
797.53	24282.88
797.862	24157.01
798.193	24055.09
798.525	24016.22
798.856	24032.94
799.188	23786.39
799.519	23685.61
799.85	23477.25
800.182	23612.61
800.513	23580.07
800.844	23297.82
801.175	23464.37
801.506	23326.29
801.837	23250.14
802.168	23138.05
802.499	23029.8
802.83	22931.05
803.161	22908.68
803.491	22978.05
803.822	22852.63
804.153	22817.15
804.483	22566.31
804.814	22508.46
805.145	22536.94
805.475	22427.11
805.805	22386.43
806.136	22384.4
806.466	22307.56
806.796	22244.74
807.126	22087.46
807.457	22045.88
807.787	22055.37
808.117	21826.45
808.447	21842.26
808.777	21875.48
809.107	21784.19
809.436	21734.24
809.766	21730.18
810.096	21686.34
810.426	21556.85
810.755	21584.87
811.085	21414.93
811.414	21512.56
811.744	21286.35
812.073	21282.05
812.403	21143.53
812.732	21049.52
813.061	21026.47
813.39	20982.4
813.719	20883.42
814.049	21061.95
814.378	20892.69
814.707	20739.47
815.036	20756.19
815.365	20700.83
815.693	20524.11
816.022	20546.48
816.351	20450.89
816.68	20315.53
817.008	20438.23
817.337	20238.47
817.665	20154.85
817.994	20208.64
818.322	20230.78
818.651	20112.59
818.979	20053.61
819.307	20154.17
819.636	19982.2
819.964	19884.8
820.292	19979.94
820.62	19889.1
820.948	19844.8
821.276	19904.01
821.604	19826.27
821.932	19883.22
822.259	19855.65
822.587	19828.98
822.915	19871.47
823.243	19916.89
823.57	19811.58
823.898	19899.94
824.225	19654.98
824.553	19715.31
824.88	19727.74
825.207	19874.41
825.535	19657.46
825.862	19738.14
826.189	19711.25
826.516	19813.17
826.843	19828.53
827.17	19856.55
827.497	19715.09
827.824	19733.39
828.151	19748.53
828.478	19625.83
828.805	19822.43
829.131	19679.16
829.458	19652.94
829.785	19549.9
830.111	19644.36
830.438	19759.38
830.764	19707.41
831.09	19649.33
831.417	19645.94
831.743	19665.15
832.069	19643.9
832.395	19506.28
832.722	19561.65
833.048	19509.67
833.374	19518.71
833.7	19382.89
834.026	19453.17
834.351	19641.87
834.677	19475.77
835.003	19524.81
835.329	19549.9
835.654	19460.18
835.98	19365.04
836.306	19374.76
836.631	19307.19
836.956	19308.09
837.282	19392.16
837.607	19283.46
837.932	19165.5
838.258	19238.49
838.583	19195.55
838.908	18930.48
839.233	19164.82
839.558	19098.38
839.883	18884.6
840.208	18960.53
840.533	18954.88
840.858	18880.31
841.182	18958.27
841.507	18750.14
841.832	18822.01
842.156	18836.92
842.481	18851.38
842.805	18683.7
843.13	18680.99
843.454	18680.99
843.778	18551.28
844.103	18591.28
844.427	18501.56
844.751	18490.71
845.075	18464.05
845.399	18395.12
845.723	18296.37
846.047	18290.72
846.371	18083.72
846.695	18082.36
847.019	17945.19
847.343	17868.13
847.666	17763.5
847.99	17692.54
848.313	17686.44
848.637	17544.07
848.96	17545.88
849.284	17469.27
849.607	17326.68
849.931	17354.25
850.254	17194.25
850.577	17148.6
850.9	17023.41
851.223	17020.47
851.546	16960.59
851.869	16892.79
852.192	16899.8
852.515	16695.06
852.838	16624.77
853.161	16718.11
853.483	16582.29
853.806	16497.55
854.129	16568.51
854.451	16429.53
854.774	16418.45
855.096	16344.1
855.419	16164.22
855.741	16276.99
856.063	16164.9
856.385	16053.26
856.708	16014.62
857.03	16029.08
857.352	16020.72
857.674	15893.95
857.996	15798.58
858.318	15740.5
858.64	15741.18
858.961	15636.33
859.283	15724.46
859.605	15616.67
859.926	15619.15
860.248	15512.49
860.57	15499.15
860.891	15559.27
861.212	15372.83
861.534	15307.75
861.855	15287.41
862.176	15350.46
862.498	15287.41
862.819	15323.57
863.14	15253.29
863.461	15267.75
863.782	15209.44
864.103	15173.74
864.424	15107.07
864.745	15058.26
865.065	15018.49
865.386	14940.3
865.707	14938.49
866.027	15023.46
866.348	14992.05
866.668	14980.3
866.989	14918.6
867.309	14757.25
867.63	14834.54
867.95	14760.19
868.27	14681.32
868.59	14661.66
868.91	14641.78
869.23	14669.35
869.55	14576.47
869.87	14609.91
870.19	14626.64
870.51	14542.8
870.83	14518.84
871.15	14405.17
871.469	14436.58
871.789	14412.18
872.109	14323.59
872.428	14360.88
872.748	14394.78
873.067	14332.86
873.386	14343.48
873.706	14320.43
874.025	14218.51
874.344	14258.96
874.663	14277.04
874.982	14174.9
875.301	14217.61
875.62	14121.11
875.939	14138.51
876.258	14149.59
876.577	14023.04
876.896	14052.41
877.214	13913.21
877.533	13974.67
877.852	14012.19
878.17	14090.15
878.489	13966.77
878.807	13969.03
879.125	13926.31
879.444	13941.23
879.762	13813.78
880.08	13838.63
880.398	13801.12
880.716	13769.03
881.034	13751.63
881.352	13792.76
881.67	13708.69
881.988	13737.84
882.306	13589.6
882.624	13616.49
882.941	13562.93
883.259	13577.4
883.577	13456.5
883.894	13446.33
884.212	13386.89
884.529	13394.58
884.846	13347.12
885.164	13338.31
885.481	13272.32
885.798	13408.81
886.115	13247.46
886.432	13242.49
886.75	13223.06
887.067	13219.21
887.383	13150.06
887.7	13133.34
888.017	13096.05
888.334	13089.27
888.651	12939.67
888.967	12955.49
889.284	12947.81
889.6	12873.01
889.917	12832.33
890.233	12825.1
890.55	12757.76
890.866	12734.26
891.182	12673.47
891.498	12657.87
891.815	12644.09
892.131	12619.23
892.447	12569.97
892.763	12578.55
893.079	12475.73
893.395	12445.9
893.71	12341.95
894.026	12370.65
894.342	12318.67
894.657	12211.11
894.973	12210.2
895.289	12189.86
895.604	12181.73
895.92	12124.1
896.235	12020.6
896.55	12056.99
896.865	11998.23
897.181	11987.83
897.496	11922.53
897.811	11839.36
898.126	11902.41
898.441	11800.49
898.756	11747.39
899.071	11631.91
899.386	11738.35
899.7	11712.36
900.015	11581.52
900.33	11370
900.644	11489.77
900.959	11466.72
901.273	11389.88
901.588	11366.83
901.902	11286.16
902.216	11292.94
902.531	11179.04
902.845	11170.23
903.159	11167.97
903.473	11131.59
903.787	11063.57
904.101	10976.79
904.415	11006.62
904.729	10975.43
905.042	10901.08
905.356	10866.73
905.67	10843.91
905.984	10855.66
906.297	10819.96
906.611	10723.23
906.924	10730.92
907.237	10706.29
907.551	10509.91
907.864	10500.64
908.177	10559.4
908.491	10470.81
908.804	10425.84
909.117	10429.91
909.43	10337.71
909.743	10253.19
910.056	10264.49
910.368	10203.7
910.681	10236.24
910.994	10154.89
911.307	10139.75
911.619	10080.77
911.932	10072.4
912.244	9985.63
912.557	10026.98
912.869	9889.81
913.181	9899.3
913.494	9799.64
913.806	9795.58
914.118	9724.39
914.43	9717.84
914.742	9688.69
915.054	9617.95
915.366	9548.12
915.678	9495.24
915.99	9465.41
916.302	9419.77
916.613	9353.1
916.925	9335.47
917.236	9363.27
917.548	9292.31
917.859	9266.1
918.171	9222.26
918.482	9166.89
918.794	9129.6
919.105	9096.39
919.416	9054.35
919.727	9029.04
920.038	9006.9
920.349	8911.53
920.66	8881.02
920.971	8837.86
921.282	8822.49
921.593	8794.25
921.903	8695.72
922.214	8718.32
922.525	8693.68
922.835	8683.51
923.146	8631.76
923.456	8590.41
923.767	8501.37
924.077	8460.92
924.387	8431.32
924.697	8375.73
925.008	8379.12
925.318	8296.63
925.628	8394.03
925.938	8299.34
926.248	8165.79
926.558	8194.94
926.867	8136.41
927.177	8164.43
927.487	8086.47
927.796	7979.58
928.106	8056.86
928.416	8010.31
928.725	7978
929.034	7891.22
929.344	7902.97
929.653	7917.21
929.962	7816.19
930.271	7789.07
930.581	7732.81
930.89	7705.24
931.199	7656.87
931.508	7682.64
931.817	7559.25
932.125	7624.79
932.434	7664.33
932.743	7481.29
933.051	7499.82
933.36	7444.68
933.669	7359.71
933.977	7410.1
934.286	7382.98
934.594	7342.76
934.902	7218.47
935.21	7180.28
935.519	7210.11
935.827	7176.21
936.135	7106.15
936.443	7101.64
936.751	7065.7
937.059	7017.34
937.367	7034.52
937.674	6979.15
937.982	6915.43
938.29	6901.19
938.597	6964.92
938.905	6821.19
939.213	6798.82
939.52	6803.79
939.827	6755.43
940.135	6749.33
940.442	6678.82
940.749	6722.44
941.056	6634.75
941.363	6585.94
941.67	6562.67
941.977	6539.84
942.284	6522.67
942.591	6528.09
942.898	6505.27
943.205	6483.57
943.511	6406.96
943.818	6415.1
944.125	6354.54
944.431	6299.4
944.738	6299.4
945.044	6234.54
945.35	6197.25
945.657	6196.8
945.963	6200.87
946.269	6181.89
946.575	6141.66
946.881	6152.06
947.187	6104.6
947.493	6082.68
947.799	6073.87
948.105	5993.42
948.41	5945.06
948.716	5919.52
949.022	5902.8
949.327	5888.11
949.633	5825.28
949.938	5796.81
950.244	5828.22
950.549	5682.92
950.854	5786.87
951.16	5728.79
951.465	5663.26
951.77	5674.33
952.075	5646.08
952.38	5599.53
952.685	5590.26
952.99	5564.27
953.294	5523.6
953.599	5558.4
953.904	5447.67
954.209	5446.09
954.513	5485.63
954.818	5450.83
955.122	5435.69
955.426	5397.73
955.731	5346.2
956.035	5313.89
956.339	5386.88
956.643	5312.76
956.948	5264.85
957.252	5269.14
957.556	5239.31
957.86	5260.55
958.163	5227.79
958.467	5133.55
958.771	5143.49
959.075	5115.47
959.378	5068.02
959.682	5080.22
959.985	5074.34
960.289	5044.29
960.592	4967.23
960.896	4991.86
961.199	4958.64
961.502	4948.25
961.805	4885.87
962.108	4897.85
962.411	4872.99
962.714	4845.88
963.017	4781.02
963.32	4811.3
963.623	4765.43
963.926	4735.6
964.228	4689.95
964.531	4741.02
964.833	4693.56
965.136	4685.65
965.438	4647.24
965.741	4664.64
966.043	4617.41
966.345	4653.56
966.648	4612.89
966.95	4600.46
967.252	4517.52
967.554	4539.44
967.856	4512.32
968.158	4446.11
968.46	4449.5
968.761	4390.29
969.063	4406.11
969.365	4385.77
969.666	4322.05
969.968	4312.56
970.269	4308.26
970.571	4275.04
970.872	4332.89
971.174	4264.42
971.475	4277.08
971.776	4234.82
972.077	4201.82
972.378	4222.84
972.679	4211.54
972.98	4197.08
973.281	4086.57
973.582	4067.14
973.883	4099
974.183	4068.04
974.484	4104.43
974.785	4075.05
975.085	4038.89
975.386	4027.14
975.686	3977.65
975.986	3973.81
976.287	3968.84
976.587	3925.45
976.887	3906.69
977.187	3910.53
977.487	3901.95
977.787	3882.06
978.087	3886.8
978.387	3834.6
978.687	3841.61
978.987	3814.72
979.286	3770.2
979.586	3775.62
979.885	3770.2
980.185	3741.27
980.484	3728.39
980.784	3690.43
981.083	3699.24
981.382	3656.98
981.682	3630.09
981.981	3642.97
982.28	3601.61
982.579	3610.43
982.878	3591.9
983.177	3565.46
983.475	3560.94
983.774	3518.68
984.073	3539.47
984.372	3518.9
984.67	3496.76
984.969	3445.91
985.267	3456.99
985.566	3404.56
985.864	3452.01
986.162	3418.34
986.461	3364.33
986.759	3376.76
987.057	3338.12
987.355	3296.54
987.653	3322.53
987.951	3305.8
988.249	3303.32
988.547	3268.06
988.844	3235.52
989.142	3279.36
989.44	3193.26
989.737	3193.72
990.035	3194.39
990.332	3226.71
990.63	3168.63
990.927	3183.32
991.224	3199.82
991.521	3143.55
991.819	3087.05
992.116	3097.45
992.413	3058.35
992.71	3009.99
993.006	3061.29
993.303	3024.45
993.6	3005.02
993.897	3012.03
994.193	2978.58
994.49	2999.14
994.787	2965.92
995.083	2945.36
995.379	2958.92
995.676	2921.63
995.972	2943.1
996.268	2877.57
996.565	2872.82
996.861	2852.93
997.157	2801.18
997.453	2790.34
997.749	2819.26
998.044	2827.85
998.34	2785.59
998.636	2762.31
998.932	2763.67
999.227	2754.18
999.523	2672.15
999.818	2708.3
1000.114	2655.42
1000.409	2685.71
1000.704	2666.05
1001	2651.81
1001.295	2614.75
1001.59	2608.65
1001.885	2623.33
1002.18	2561.87
1002.475	2587.63
1002.77	2532.49
1003.065	2534.3
1003.359	2544.92
1003.654	2555.99
1003.949	2494.75
1004.243	2473.06
1004.538	2459.27
1004.832	2462.66
1005.127	2413.17
1005.421	2401.87
1005.715	2412.49
1006.009	2407.97
1006.304	2393.06
1006.598	2381.31
1006.892	2367.07
1007.186	2362.78
1007.48	2351.25
1007.773	2346.73
1008.067	2302.89
1008.361	2296.56
1008.655	2250.92
1008.948	2288.2
1009.242	2290.24
1009.535	2254.08
1009.829	2226.74
1010.122	2231.93
1010.415	2237.13
1010.708	2214.76
1011.001	2180.86
1011.295	2193.06
1011.588	2122.33
1011.881	2140.18
1012.173	2128.43
1012.466	2103.8
1012.759	2085.27
1013.052	2078.72
1013.344	2086.63
1013.637	2086.85
1013.93	2048.21
1014.222	2026.29
1014.514	2016.12
1014.807	2008.21
1015.099	1988.78
1015.391	1975.44
1015.683	2000.98
1015.976	1961.21
1016.268	1997.36
1016.56	1916.46
1016.851	1945.16
1017.143	1918.95
1017.435	1892.05
1017.727	1907.2
1018.018	1864.26
1018.31	1879.4
1018.602	1865.39
1018.893	1844.15
1019.185	1798.72
1019.476	1822.45
1019.767	1790.36
1020.058	1823.58
1020.35	1810.93
1020.641	1779.29
1020.932	1756.24
1021.223	1749.91
1021.514	1722.12
1021.804	1701.78
1022.095	1707.2
1022.386	1673.76
1022.677	1686.18
1022.967	1669.24
1023.258	1675.79
1023.548	1659.52
1023.839	1634.43
1024.129	1636.24
1024.419	1629.46
1024.709	1611.38
1025	1604.38
1025.29	1572.74
1025.58	1560.54
1025.87	1582.91
1026.16	1548.11
1026.449	1549.46
1026.739	1529.8
1027.029	1505.4
1027.319	1513.76
1027.608	1492.52
1027.898	1534.78
1028.187	1493.2
1028.477	1446.64
1028.766	1497.94
1029.055	1433.99
1029.344	1432.86
1029.634	1437.15
1029.923	1417.94
1030.212	1384.5
1030.501	1381.56
1030.79	1400.09
1031.078	1374.55
1031.367	1339.98
1031.656	1358.96
1031.945	1352.63
1032.233	1334.1
1032.522	1335.46
1032.81	1315.12
1033.099	1299.3
1033.387	1279.87
1033.675	1271.96
1033.963	1287.55
1034.251	1254.78
1034.54	1260.88
1034.828	1222.47
1035.116	1258.17
1035.403	1214.56
1035.691	1226.08
1035.979	1233.32
1036.267	1209.81
1036.554	1179.76
1036.842	1196.48
1037.129	1188.57
1037.417	1166.65
1037.704	1178.85
1037.992	1148.12
1038.279	1155.58
1038.566	1152.64
1038.853	1152.64
1039.14	1152.64
