Data from White_paper_FLMS001491_007.txt Node
Date: Tue Feb 07 10:34:35 GMT 2017
User: dcchb
Spectrometer: FLMS00149
Trigger mode: 0
Integration Time (sec): 2.000000E-2
Scans to average: 10
Electric dark correction enabled: true
Nonlinearity correction enabled: false
Boxcar width: 0
XAxis mode: Wavelengths
Number of Pixels in Spectrum: 2048
>>>>>Begin Spectral Data<<<<<
341.393	-9.35
341.776	-9.35
342.16	-9.35
342.543	-53.42
342.927	-83.7
343.31	-69.24
343.693	-55.22
344.077	-84.83
344.46	-53.64
344.843	-50.48
345.226	-51.61
345.61	-21.33
345.993	-10.48
346.376	-13.87
346.759	21.16
347.142	20.71
347.525	47.82
347.908	67.48
348.291	60.93
348.674	86.92
349.057	105.68
349.44	102.29
349.823	150.87
350.206	182.28
350.588	224.77
350.971	222.28
351.354	232
351.737	256.41
352.119	291.21
352.502	290.08
352.884	301.38
353.267	303.18
353.65	319.91
354.032	310.87
354.414	362.39
354.797	361.04
355.179	337.76
355.562	360.81
355.944	351.54
356.326	379.57
356.709	375.27
357.091	358.32
357.473	374.59
357.855	380.02
358.238	361.94
358.62	348.38
359.002	363.97
359.384	375.72
359.766	366.23
360.148	398.32
360.53	357.87
360.912	356.97
361.294	374.59
361.676	352.45
362.057	387.48
362.439	374.37
362.821	371.2
363.203	371.66
363.584	372.79
363.966	375.05
364.348	379.79
364.729	366.91
365.111	343.18
365.493	368.95
365.874	356.74
366.256	327.14
366.637	349.06
367.019	361.71
367.4	347.48
367.781	356.52
368.163	364.65
368.544	367.59
368.925	355.61
369.306	367.82
369.688	358.32
370.069	372.11
370.45	371.43
370.831	380.92
371.212	370.98
371.593	387.48
371.974	352.9
372.355	368.72
372.736	372.11
373.117	383.41
373.498	373.24
373.879	367.59
374.26	364.2
374.641	368.27
375.021	377.98
375.402	386.57
375.783	375.72
376.163	402.62
376.544	394.48
376.925	392.67
377.305	381.15
377.686	407.81
378.066	384.09
378.447	398.55
378.827	399.23
379.208	388.83
379.588	395.84
379.968	413.46
380.349	394.71
380.729	415.95
381.109	415.5
381.489	411.2
381.87	417.31
382.25	399.68
382.63	420.24
383.01	411.88
383.39	424.08
383.77	434.71
384.15	446.91
384.53	455.5
384.91	436.06
385.29	422.05
385.67	444.2
386.049	460.92
386.429	475.16
386.809	463.18
387.189	476.51
387.568	445.55
387.948	457.08
388.328	482.61
388.707	493.24
389.087	491.65
389.466	478.55
389.846	484.87
390.225	491.88
390.605	495.04
390.984	493.69
391.363	503.63
391.743	514.03
392.122	541.14
392.501	504.76
392.881	507.92
393.26	539.34
393.639	531.65
394.018	521.26
394.397	555.15
394.776	536.85
395.155	549.28
395.534	565.32
395.913	571.65
396.292	582.05
396.671	574.82
397.05	580.24
397.429	592.44
397.808	598.09
398.186	599.67
398.565	620.92
398.944	620.92
399.323	615.04
399.701	624.31
400.08	643.74
400.458	642.38
400.837	662.5
401.215	662.04
401.594	653.23
401.972	636.73
402.351	680.58
402.729	686.22
403.107	712.21
403.486	720.57
403.864	721.7
404.242	709.73
404.62	754.7
404.999	763.51
405.377	765.77
405.755	779.78
406.133	791.76
406.511	809.16
406.889	832.21
407.267	858.65
407.645	879.67
408.023	888.48
408.401	897.52
408.779	894.81
409.156	949.04
409.534	947.23
409.912	987.23
410.29	1031.53
410.667	1023.39
411.045	1041.47
411.422	1074.92
411.8	1104.97
412.178	1122.6
412.555	1184.97
412.933	1193.1
413.31	1208.47
413.687	1247.57
414.065	1287.11
414.442	1302.48
414.819	1333.44
415.197	1373.66
415.574	1415.25
415.951	1422.02
416.328	1429.03
416.705	1461.8
417.082	1505.86
417.46	1520.55
417.837	1547.22
418.214	1570.04
418.591	1591.29
418.967	1594.45
419.344	1662.02
419.721	1678.29
420.098	1696.14
420.475	1692.53
420.852	1729.14
421.228	1799.42
421.605	1779.08
421.982	1815.01
422.358	1840.09
422.735	1903.82
423.111	1873.09
423.488	1906.76
423.864	1962.35
424.241	1948.56
424.617	1991.73
424.994	2026.3
425.37	2035.57
425.746	2080.76
426.123	2082.35
426.499	2119.41
426.875	2156.69
427.251	2196.47
427.627	2243.47
428.003	2289.57
428.379	2285.28
428.756	2323.92
429.132	2370.02
429.507	2419.74
429.883	2419.29
430.259	2451.6
430.635	2477.82
431.011	2534.76
431.387	2584.71
431.763	2659.28
432.138	2609.11
432.514	2710.13
432.89	2733.63
433.265	2766.85
433.641	2846.39
434.016	2860.63
434.392	2898.14
434.767	2948.09
435.143	2945.15
435.518	3036.22
435.894	3061.98
436.269	3092.94
436.644	3122.55
437.02	3153.96
437.395	3167.06
437.77	3176.33
438.145	3290
438.52	3275.76
438.895	3311.01
439.271	3388.75
439.646	3418.13
440.021	3466.49
440.395	3466.04
440.77	3466.94
441.145	3478.69
441.52	3581.06
441.895	3557.79
442.27	3609.54
442.645	3598.01
443.019	3687.73
443.394	3632.14
443.769	3690.67
444.143	3666.49
444.518	3754.17
444.892	3748.29
445.267	3787.84
445.641	3794.84
446.016	3838.23
446.39	3863.99
446.764	3886.82
447.139	3873.94
447.513	3920.72
447.887	3932.24
448.262	3958
448.636	3928.63
449.01	4026.25
449.384	4066.47
449.758	4080.71
450.132	4159.58
450.506	4148.96
450.88	4197.32
451.254	4219.47
451.628	4254.04
452.002	4284.32
452.376	4315.06
452.75	4399.57
453.123	4377.65
453.497	4462.17
453.871	4536.97
454.244	4612.45
454.618	4602.28
454.992	4690.41
455.365	4705.55
455.739	4811.54
456.112	4858.09
456.486	4880.46
456.859	4980.12
457.232	5074.81
457.606	5014.25
457.979	5111.65
458.352	5192.77
458.725	5242.26
459.099	5275.48
459.472	5412.2
459.845	5448.81
460.218	5487.23
460.591	5616.04
460.964	5549.83
461.337	5753.89
461.71	5802.25
462.083	5844.51
462.456	5864.62
462.829	5927.67
463.201	6020.1
463.574	6038.4
463.947	6168.11
464.32	6291.95
464.692	6322.23
465.065	6385.96
465.438	6415.57
465.81	6532.85
466.183	6615.11
466.555	6803.58
466.928	6802.9
467.3	6772.62
467.672	6969.68
468.045	7086.96
468.417	7150.01
468.789	7198.6
469.161	7298.25
469.534	7408.76
469.906	7571.92
470.278	7622.09
470.65	7730.11
471.022	7850.1
471.394	8054.84
471.766	8037.22
472.138	8147.72
472.51	8336.42
472.882	8517.43
473.253	8598.33
473.625	8684.88
473.997	8846.01
474.369	8909.74
474.74	9013.92
475.112	9225.44
475.484	9370.97
475.855	9490.74
476.227	9554.01
476.598	9815.48
476.97	9958.98
477.341	10140.21
477.713	10253.2
478.084	10303.6
478.455	10617.94
478.827	10773.64
479.198	10986.75
479.569	11040.53
479.94	11370.46
480.311	11458.15
480.682	11744.47
481.053	11941.3
481.424	12167.96
481.795	12184.23
482.166	12481.17
482.537	12628.51
482.908	12937.65
483.279	12992.57
483.65	13189.62
484.021	13503.97
484.391	13636.39
484.762	13759.55
485.133	13968.14
485.503	14016.5
485.874	14385.07
486.244	14437.05
486.615	14709.81
486.985	14941.9
487.356	15218.5
487.726	15343.92
488.097	15539.85
488.467	15611.03
488.837	15940.29
489.207	16224.35
489.578	16330.79
489.948	16555.64
490.318	16771.45
490.688	16785.24
491.058	17133.7
491.428	17391.1
491.798	17469.74
492.168	17870.41
492.538	17854.81
492.908	18147.01
493.278	18304.29
493.648	18260.9
494.017	18559.2
494.387	18702.7
494.757	18865.18
495.126	19073.09
495.496	19115.57
495.866	19232.18
496.235	19517.37
496.605	19632.39
496.974	19656.35
497.344	19953.29
497.713	19991.71
498.082	20206.84
498.452	20425.59
498.821	20514.18
499.19	20581.75
499.559	20644.57
499.928	20917.78
500.298	20984.9
500.667	21305.34
501.036	21287.49
501.405	21364.55
501.774	21438
502.143	21647.93
502.512	21767.48
502.88	22028.49
503.249	22016.74
503.618	22209.05
503.987	22268.48
504.356	22374.69
504.724	22614.01
505.093	22618.98
505.462	22731.07
505.83	23000.21
506.199	23062.59
506.567	23301.22
506.936	23444.5
507.304	23694.66
507.672	23752.96
508.041	23869.8
508.409	24083.12
508.777	24297.36
509.145	24266.62
509.514	24491.25
509.882	24605.37
510.25	24748.19
510.618	24895.98
510.986	25004.46
511.354	25313.37
511.722	25337.33
512.09	25584.1
512.458	25601.73
512.826	25894.15
513.193	25939.57
513.561	26095.95
513.929	26298.43
514.297	26570.52
514.664	26851.19
515.032	26821.58
515.4	27099.32
515.767	27184.74
516.135	27209.37
516.502	27217.28
516.869	27632.18
517.237	27692.97
517.604	27752.18
517.972	28078.27
518.339	28283.47
518.706	28256.35
519.073	28430.13
519.44	28709.22
519.808	28926.61
520.175	28961.41
520.542	29235.08
520.909	29516.65
521.276	29475.75
521.643	29832.8
522.009	30061.95
522.376	30214.49
522.743	30465.33
523.11	30771.99
523.477	30927.69
523.843	31127.01
524.21	31389.6
524.577	31691.96
524.943	31765.18
525.31	32030.94
525.676	32227.77
526.043	32473.41
526.409	32494.88
526.776	32804.02
527.142	33007.86
527.508	33162.66
527.874	33348.87
528.241	33627.05
528.607	33656.88
528.973	33956.54
529.339	34105.01
529.705	34284.66
530.071	34665.67
530.437	34862.73
530.803	34940.92
531.169	35143.17
531.535	35079.44
531.901	35355.6
532.267	35506.78
532.632	35681.01
532.998	35745.19
533.364	36172.3
533.73	36151.73
534.095	36537.94
534.461	36544.94
534.826	36826.29
535.192	36905.16
535.557	37147.41
535.923	37150.12
536.288	37445.48
536.653	37514.86
537.019	37440.29
537.384	37835.3
537.749	37772.71
538.114	37996.43
538.479	38105.13
538.845	38327.72
539.21	38125.92
539.575	38503.76
539.94	38602.74
540.305	38752.79
540.67	38763.42
541.034	38969.06
541.399	39118.89
541.764	39295.61
542.129	39364.98
542.494	39521.14
542.858	39611.98
543.223	39719.55
543.587	39887
543.952	39860.11
544.316	40263.26
544.681	40203.83
545.045	40239.08
545.41	40740.09
545.774	40730.6
546.138	40658.73
546.503	40950.02
546.867	40897.14
547.231	41230.47
547.595	41300.75
547.959	41465.04
548.324	41572.38
548.688	41591.14
549.052	41788.65
549.416	41768.99
549.779	42036.78
550.143	42012.6
550.507	42362.87
550.871	42469.98
551.235	42545.24
551.599	42733.71
551.962	42873.59
552.326	42903.87
552.689	43281.26
553.053	43121.49
553.417	43217.99
553.78	43767.8
554.143	43486.68
554.507	43728.93
554.87	43862.72
555.234	44237.17
555.597	44256.15
555.96	44250.5
556.323	44461.57
556.686	44454.79
557.05	44805.29
557.413	44882.12
557.776	44981.11
558.139	45291.83
558.502	45345.39
558.865	45327.99
559.228	45655.66
559.59	45825.15
559.953	45962.77
560.316	46228.3
560.679	46210.23
561.041	46566.83
561.404	46685.02
561.767	47018.34
562.129	46878.46
562.492	47226.24
562.854	47110.77
563.217	47246.58
563.579	47371.78
563.941	47679.79
564.304	47897.86
564.666	48073.68
565.028	48044.75
565.39	48292.88
565.753	48463.73
566.115	48560.9
566.477	48746.88
566.839	48767.9
567.201	49154.1
567.563	48997.5
567.925	49478.84
568.287	49439.75
568.648	49551.38
569.01	49729.68
569.372	49896.46
569.734	49798.15
570.095	50056
570.457	50261.64
570.819	50357.91
571.18	50224.13
571.542	50641.97
571.903	50716.1
572.265	50747.73
572.626	50861.18
572.987	50958.58
573.349	51147.72
573.71	51190.21
574.071	51210.55
574.432	51428.62
574.794	51759.23
575.155	51613.47
575.516	51590.88
575.877	51690.99
576.238	51719.91
576.599	51909.96
576.96	51997.87
577.32	52022.5
577.681	52130.3
578.042	52227.92
578.403	52309.73
578.763	52288.26
579.124	52296.62
579.485	52447.35
579.845	52540.45
580.206	52450.97
580.566	52578.19
580.927	52719.43
581.287	52684.86
581.648	52669.49
582.008	52854.57
582.368	52777.74
582.728	52960.56
583.089	52833.33
583.449	52851.18
583.809	52909.48
584.169	53048.46
584.529	52945.64
584.889	53211.4
585.249	53048.46
585.609	52953.1
585.969	53131.85
586.329	53092.3
586.688	53141.12
587.048	53181.12
587.408	53123.94
587.768	53251.62
588.127	53128.91
588.487	53121.68
588.846	53413.88
589.206	53147.9
589.565	53178.4
589.925	53372.75
590.284	53288.01
590.643	53366.87
591.003	53445.06
591.362	53477.38
591.721	53431.96
592.08	53441.45
592.44	53566.64
592.799	53540.88
593.158	53526.42
593.517	53490.03
593.876	53579.75
594.235	53482.58
594.593	53601.9
594.952	53687.77
595.311	53560.31
595.67	53673.08
596.029	53840.31
596.387	53830.14
596.746	53846.41
597.104	53830.59
597.463	53761.67
597.822	53917.37
598.18	53815.68
598.538	53761.44
598.897	53920.53
599.255	53757.37
599.613	54132.96
599.972	54016.8
600.33	54042.34
600.688	53927.31
601.046	54100.87
601.404	54140.41
601.762	54090.47
602.12	54135.21
602.478	54224.03
602.836	54264.93
603.194	54007.31
603.552	54148.1
603.91	54131.83
604.268	54239.17
604.625	54093.86
604.983	54204.59
605.341	54174.76
605.698	54328.66
606.056	54334.08
606.413	54312.16
606.771	54451.14
607.128	54523.45
607.485	54301.09
607.843	54412.27
608.2	54580.63
608.557	54618.37
608.914	54555.99
609.272	54686.61
609.629	54670.34
609.986	54764.35
610.343	54632.38
610.7	54875.08
611.057	54818.59
611.414	54830.79
611.771	54777.23
612.127	54922.99
612.484	54813.16
612.841	54955.08
613.198	54926.38
613.554	54947.62
613.911	55086.38
614.267	55086.6
614.624	55092.03
614.98	55067.17
615.337	55177.22
615.693	55139.03
616.05	55141.06
616.406	55278.69
616.762	55130.44
617.118	55160.05
617.475	55137.67
617.831	55266.03
618.187	55261.51
618.543	55289.99
618.899	55473.94
619.255	55384
619.611	55347.16
619.967	55374.5
620.323	55468.97
620.678	55391.91
621.034	55386.93
621.39	55357.1
621.746	55364.34
622.101	55649.53
622.457	55348.52
622.812	55422.19
623.168	55551.9
623.523	55495.63
623.879	55602.97
624.234	55378.8
624.589	55508.74
624.945	55478.91
625.3	55553.93
625.655	55509.64
626.01	55593.03
626.365	55534.5
626.72	55433.26
627.075	55495.18
627.43	55452.92
627.785	55449.08
628.14	55479.36
628.495	55605.46
628.85	55498.12
629.205	55389.65
629.559	55583.31
629.914	55400.27
630.269	55448.17
630.623	55377.67
630.978	55346.48
631.332	55490.43
631.687	55562.97
632.041	55371.34
632.396	55507.83
632.75	55392.36
633.104	55410.89
633.459	55280.5
633.813	55270.33
634.167	55215.86
634.521	55232.59
634.875	55334.96
635.229	55190.33
635.583	55185.58
635.937	55167.96
636.291	55152.36
636.645	55203.44
636.999	55105.81
637.352	55199.14
637.706	55046.15
638.06	55142.42
638.413	55067.62
638.767	55117.79
639.121	55161.85
639.474	54966.83
639.828	54924.8
640.181	55094.06
640.534	55042.99
640.888	54934.52
641.241	54942.88
641.594	54978.58
641.947	55050.22
642.301	54855.2
642.654	54941.52
643.007	54927.28
643.36	54886.38
643.713	54888.87
644.066	54971.8
644.419	54793.5
644.771	54607.29
645.124	54252.95
645.477	54273.52
645.83	54129.34
646.182	54055.22
646.535	53869.69
646.888	53973.86
647.24	53834.21
647.593	54049.79
647.945	53906.97
648.298	53839.4
648.65	53786.52
649.002	53714.66
649.355	53830.82
649.707	53824.26
650.059	53997.37
650.411	54289.34
650.763	54368.43
651.115	54642.32
651.467	54549.89
651.819	54558.48
652.171	54398.94
652.523	54334.08
652.875	54414.76
653.227	54221.31
653.578	54524.13
653.93	54421.08
654.282	54319.84
654.633	54240.07
654.985	54294.31
655.337	54288.21
655.688	54307.87
656.039	54392.16
656.391	54036.46
656.742	54154.88
657.094	54206.17
657.445	54299.05
657.796	54186.51
658.147	54146.29
658.498	54226.06
658.849	54210.69
659.2	54162.11
659.551	54101.54
659.902	54172.95
660.253	54148.55
660.604	54214.31
660.955	53971.6
661.306	54087.53
661.656	54077.82
662.007	54036.23
662.358	54096.12
662.708	54091.15
663.059	54015.44
663.409	53736.13
663.76	54095.67
664.11	53978.83
664.461	54034.2
664.811	54071.71
665.161	54033.97
665.511	53932.28
665.862	54006.18
666.212	53980.42
666.562	54061.32
666.912	53980.19
667.262	53895
667.612	53923.92
667.962	53910.14
668.312	53818.61
668.662	53988.55
669.011	53857.71
669.361	53861.78
669.711	53785.85
670.06	53652.52
670.41	53706.53
670.76	53679.63
671.109	53674.89
671.459	53709.01
671.808	53646.64
672.157	53695.23
672.507	53585.62
672.856	53558.96
673.205	53625.62
673.554	53662.01
673.904	53493.2
674.253	53696.58
674.602	53537.49
674.951	53082.14
675.3	52982.7
675.649	53420.66
675.998	53438.28
676.346	53379.98
676.695	53481.67
677.044	53217.05
677.393	53282.58
677.741	53253.43
678.09	53195.8
678.438	53176.14
678.787	53242.81
679.135	53126.2
679.484	53012.08
679.832	53059.09
680.181	52875.59
680.529	52991.74
680.877	52846.21
681.225	52805.08
681.573	52951.29
681.922	52697.96
682.27	52624.07
682.618	52679.66
682.966	52533.22
683.314	52558.08
683.661	52611.19
684.009	52378.43
684.357	52278.09
684.705	52167.58
685.053	52342.95
685.4	52196.28
685.748	52032.67
686.095	52013.01
686.443	51937.98
686.79	51806.69
687.138	51869.96
687.485	51858.44
687.832	51615.73
688.18	51769.18
688.527	51454.16
688.874	51468.62
689.221	51492.35
689.568	51312.24
689.915	51207.16
690.262	51240.38
690.609	51139.81
690.956	50999.93
691.303	51035.86
691.65	50811.23
691.997	50808.52
692.344	50561.75
692.69	50614.18
693.037	50678.13
693.383	50306.84
693.73	50414.18
694.077	50147.75
694.423	50289.89
694.769	50115.21
695.116	49917.47
695.462	49960.18
695.808	49834.31
696.155	49858.49
696.501	49619.4
696.847	49586.86
697.193	49347.54
697.539	49531.27
697.885	49169.24
698.231	49111.84
698.577	49144.84
698.923	49079.75
699.269	48855.81
699.614	48697.39
699.96	48631.18
700.306	48697.62
700.651	48494.46
700.997	48221.25
701.342	48240.45
701.688	48277.06
702.033	48042.49
702.379	48195.71
702.724	47904.19
703.069	48010.86
703.415	47497.42
703.76	47566.12
704.105	47568.61
704.45	47454.49
704.795	47357.31
705.14	47106.7
705.485	47068.73
705.83	47042.29
706.175	47076.87
706.52	46798.91
706.865	46838.01
707.209	46675.52
707.554	46510.33
707.899	46651.57
708.243	46273.27
708.588	46397.11
708.932	46161.41
709.277	46051.36
709.621	46126.61
709.966	45818.6
710.31	45915.77
710.654	45638.26
710.998	45673.97
711.342	45691.6
711.687	45447.31
712.031	45375.22
712.375	45197.14
712.719	45299.74
713.063	45195.11
713.407	45441.21
713.75	45191.27
714.094	45013.65
714.438	44868.57
714.782	44881.22
715.125	44505.41
715.469	44720.55
715.812	44477.16
716.156	44194.01
716.499	44422.7
716.843	44429.26
717.186	44095.03
717.53	44321.91
717.873	44325.3
718.216	44110.39
718.559	43886.9
718.902	43840.34
719.246	43900.68
719.589	43692.55
719.932	43626.11
720.275	43648.49
720.617	43598.32
720.96	43373.01
721.303	43545.21
721.646	43427.47
721.989	43031.33
722.331	43259.57
722.674	43044.21
723.016	43164.88
723.359	43020.93
723.701	43122.17
724.044	42756.98
724.386	42686.02
724.729	42896.19
725.071	42698.68
725.413	42558.57
725.755	42561.73
726.097	42448.52
726.439	42339.37
726.782	42365.13
727.124	42529.64
727.465	42115.64
727.807	42379.14
728.149	42119.03
728.491	42181.63
728.833	42131.24
729.175	41977.34
729.516	41801.98
729.858	41747.29
730.199	41825.93
730.541	41887.18
730.882	41611.7
731.224	41725.37
731.565	41505.26
731.906	41651.02
732.248	41642.44
732.589	41325.16
732.93	41329.22
733.271	41313.41
733.612	41298.26
733.953	41338.26
734.294	41125.39
734.635	41112.51
734.976	41112.28
735.317	40914.77
735.658	41029.34
735.999	40997.93
736.339	40871.16
736.68	40794.32
737.021	40575.35
737.361	40546.65
737.702	40725.4
738.042	40609.02
738.383	40494.44
738.723	40594.1
739.063	40371.06
739.404	40466.42
739.744	40392.07
740.084	40223.04
740.424	40224.62
740.764	40143.72
741.104	40241.12
741.444	39992.76
741.784	39816.5
742.124	40028.47
742.464	39765.42
742.804	39828.25
743.143	39720.68
743.483	39775.37
743.823	39491.76
744.162	39589.61
744.502	39484.75
744.841	39412.44
745.181	39544.64
745.52	39437.07
745.86	39376.51
746.199	39238.21
746.538	39199.79
746.877	39395.26
747.216	39243.86
747.556	38999.57
747.895	39297.64
748.234	39055.61
748.573	38688.39
748.911	38795.51
749.25	38829.4
749.589	38752.79
749.928	38696.52
750.267	38636.87
750.605	38661.72
750.944	38486.36
751.283	38361.84
751.621	38458.79
751.96	38283.88
752.298	38195.97
752.636	38150.32
752.975	38082.53
753.313	37941.52
753.651	38096.77
753.989	37821.07
754.327	37692.94
754.666	37490.45
755.004	37641.64
755.342	37636.21
755.679	37440.74
756.017	37335.43
756.355	37657.46
756.693	37251.37
757.031	37364.81
757.368	37014.76
757.706	37033.29
758.044	36954.42
758.381	36935.67
758.719	36800.76
759.056	36775.67
759.394	36640.53
759.731	36386.53
760.068	36464.04
760.405	36121
760.743	35968.01
761.08	36121
761.417	35971.4
761.754	35856.37
762.091	35867.9
762.428	35707.22
762.765	35487.8
763.102	35736.15
763.438	35400.57
763.775	35148.14
764.112	35365.54
764.449	35203.74
764.785	35110.18
765.122	34849.17
765.458	34764.88
765.795	34723.75
766.131	34723.07
766.467	34585.22
766.804	34448.5
767.14	34200.15
767.476	34349.29
767.812	34065.01
768.148	34091.45
768.485	33867.27
768.821	33621.86
769.157	33604.23
769.492	33622.76
769.828	33550.67
770.164	33287.63
770.5	33138.93
770.836	33172.83
771.171	32981.65
771.507	32808.32
771.842	32690.58
772.178	32691.71
772.513	32594.76
772.849	32579.62
773.184	32252.85
773.519	32342.34
773.855	32213.31
774.19	32035.46
774.525	31980.77
774.86	32046.3
775.195	31834.11
775.53	31762.7
775.865	31616.71
776.2	31242.03
776.535	31122.03
776.87	31174.46
777.205	31123.62
777.539	30918.88
777.874	30845.66
778.209	30609.05
778.543	30589.62
778.878	30458.32
779.212	30350.08
779.547	30142.85
779.881	30325.9
780.215	30087.26
780.55	30145.79
780.884	30004.1
781.218	29760.04
781.552	29872.35
781.886	29719.13
782.22	29475.75
782.554	29470.33
782.888	29172.48
783.222	28954.63
783.556	28882.55
783.889	28946.5
784.223	28799.61
784.557	28727.07
784.89	28671.7
785.224	28550.58
785.557	28356.23
785.891	28286.63
786.224	28163.92
786.558	28157.14
786.891	27958.95
787.224	27944.27
787.557	27830.14
787.891	27785.85
788.224	27661.79
788.557	27696.59
788.89	27520.77
789.223	27345.64
789.556	27277.16
789.888	27163.49
790.221	27090.73
790.554	26904.74
790.887	27014.35
791.219	26780.91
791.552	26688.71
791.884	26614.13
792.217	26525.09
792.549	26481.25
792.882	26268.6
793.214	26191.09
793.546	26189.06
793.879	26142.96
794.211	25916.3
794.543	26049.17
794.875	25793.59
795.207	25992.23
795.539	25614.83
795.871	25747.03
796.203	25537.32
796.535	25353.37
796.867	25380.26
797.198	25305.46
797.53	25178.24
797.862	25043.55
798.193	25057.11
798.525	24964.23
798.856	24992.93
799.188	24723.78
799.519	24576.67
799.85	24507.97
800.182	24549.78
800.513	24451.48
800.844	24360.86
801.175	24413.96
801.506	24429.33
801.837	24222.56
802.168	24174.42
802.499	24103.91
802.83	23929
803.161	23802
803.491	23777.37
803.822	23850.59
804.153	23747.99
804.483	23460.32
804.814	23427.1
805.145	23500.54
805.475	23360.2
805.805	23320.88
806.136	23369.02
806.466	23155.46
806.796	23230.94
807.126	23034.11
807.457	22965.41
807.787	23066.65
808.117	22934.91
808.447	22788.92
808.777	22865.53
809.107	22803.61
809.436	22561.81
809.766	22739.88
810.096	22399.78
810.426	22431.64
810.755	22413.79
811.085	22348.71
811.414	22260.57
811.744	22078.43
812.073	22046.12
812.403	22098.77
812.732	21984.87
813.061	21939.45
813.39	21859
813.719	21756.41
814.049	21870.75
814.378	21744.2
814.707	21685.22
815.036	21642.28
815.365	21546.92
815.693	21380.14
816.022	21486.58
816.351	21267.6
816.68	21273.48
817.008	21314.84
817.337	21017.22
817.665	21076.2
817.994	21149.64
818.322	21081.17
818.651	21009.53
818.979	20822.19
819.307	21036.65
819.636	20860.16
819.964	20742.19
820.292	20887.73
820.62	20788.97
820.948	20736.09
821.276	20811.35
821.604	20661.74
821.932	20722.08
822.259	20759.14
822.587	20633.5
822.915	20639.15
823.243	20743.32
823.57	20763.89
823.898	20704.68
824.225	20576.78
824.553	20646.38
824.88	20550.34
825.207	20721.18
825.535	20586.94
825.862	20706.72
826.189	20520.51
826.516	20592.37
826.843	20636.66
827.17	20635.98
827.497	20518.7
827.824	20670.11
828.151	20706.72
828.478	20606.61
828.805	20685.93
829.131	20565.02
829.458	20554.86
829.785	20432.82
830.111	20468.53
830.438	20563.67
830.764	20537.23
831.09	20618.36
831.417	20443.67
831.743	20448.42
832.069	20568.41
832.395	20340.62
832.722	20481.18
833.048	20273.51
833.374	20366.61
833.7	20325.93
834.026	20399.15
834.351	20330.23
834.677	20240.06
835.003	20286.61
835.329	20449.1
835.654	20181.53
835.98	20305.14
836.306	20226.28
836.631	20132.27
836.956	20096.79
837.282	20179.72
837.607	20033.74
837.932	20043.46
838.258	19975.44
838.583	19911.26
838.908	19848.88
839.233	19833.97
839.558	19855.89
839.883	19780.19
840.208	19655.44
840.533	19703.35
840.858	19758.49
841.182	19697.25
841.507	19696.57
841.832	19531.83
842.156	19572.96
842.481	19549.46
842.805	19507.2
843.13	19457.26
843.454	19472.17
843.778	19371.84
844.103	19275.11
844.427	19152.63
844.751	19242.12
845.075	19087.55
845.399	19174.33
845.723	18998.51
846.047	19083.71
846.371	18904.95
846.695	18812.08
847.019	18688.01
847.343	18617.5
847.666	18490.28
847.99	18429.49
848.313	18497.51
848.637	18315.14
848.96	18237.18
849.284	18254.12
849.607	18078.99
849.931	18093.9
850.254	17977.07
850.577	17751.54
850.9	17768.04
851.223	17663.41
851.546	17713.57
851.869	17495.73
852.192	17538.21
852.515	17465.9
852.838	17375.05
853.161	17386.58
853.483	17240.82
853.806	17176.86
854.129	17177.32
854.451	17143.65
854.774	17125.57
855.096	16929.87
855.419	16900.71
855.741	16905.23
856.063	16835.18
856.385	16754.73
856.708	16662.08
857.03	16640.61
857.352	16704.33
857.674	16616.43
857.996	16453.04
858.318	16429.09
858.64	16426.38
858.961	16370.11
859.283	16338.24
859.605	16225.25
859.926	16276.78
860.248	16244.46
860.57	16105.03
860.891	16284.23
861.212	16143.9
861.534	16041.75
861.855	16061.41
862.176	15985.03
862.498	15955.2
862.819	15964.24
863.14	15824.13
863.461	15855.54
863.782	15763.79
864.103	15769.9
864.424	15813.74
864.745	15757.02
865.065	15682.89
865.386	15569.45
865.707	15684.93
866.027	15582.33
866.348	15531.48
866.668	15625.04
866.989	15610.35
867.309	15454.88
867.63	15415.33
867.95	15449
868.27	15372.62
868.59	15389.57
868.91	15351.15
869.23	15382.56
869.55	15283.13
869.87	15348.44
870.19	15280.64
870.51	15231.15
870.83	15279.97
871.15	15130.14
871.469	15139.4
871.789	15165.39
872.109	15114.55
872.428	15058.05
872.748	14994.32
873.067	15078.84
873.386	15087.2
873.706	14959.97
874.025	14951.61
874.344	14919.3
874.663	14906.87
874.982	14843.59
875.301	14835.91
875.62	14805.63
875.939	14730.38
876.258	14759.98
876.577	14683.82
876.896	14688.12
877.214	14521.57
877.533	14618.06
877.852	14621.9
878.17	14659.64
878.489	14643.37
878.807	14634.56
879.125	14538.29
879.444	14550.72
879.762	14432.98
880.08	14506.43
880.398	14365.19
880.716	14411.51
881.034	14341.69
881.352	14327.22
881.67	14296.49
881.988	14211.29
882.306	14224.63
882.624	14205.87
882.941	14183.5
883.259	14096.95
883.577	14141.01
883.894	14050.62
884.212	14082.26
884.529	13984.18
884.846	13979.66
885.164	13960.23
885.481	13876.39
885.798	13885.88
886.115	13755.49
886.432	13821.25
886.75	13767.91
887.067	13735.6
887.383	13678.2
887.7	13675.94
888.017	13521.37
888.334	13588.03
888.651	13582.83
888.967	13496.96
889.284	13463.29
889.6	13444.08
889.917	13378.09
890.233	13371.77
890.55	13337.87
890.866	13429.84
891.182	13188.27
891.498	13224.65
891.815	13218.78
892.131	13092.68
892.447	13068.05
892.763	12966.35
893.079	13022.17
893.395	12972
893.71	12948.5
894.026	12932.23
894.342	12833.48
894.657	12774.72
894.973	12788.51
895.289	12725.91
895.604	12689.07
895.92	12628.06
896.235	12509.64
896.55	12674.16
896.865	12632.58
897.181	12494.5
897.496	12539.47
897.811	12371.57
898.126	12354.62
898.441	12373.38
898.756	12269.2
899.071	12246.82
899.386	12210.22
899.7	12129.31
900.015	12026.49
900.33	11985.59
900.644	11977
900.959	11973.16
901.273	11973.84
901.588	11891.13
901.902	11819.49
902.216	11740.85
902.531	11753.73
902.845	11680.29
903.159	11630.8
903.473	11602.1
903.787	11512.15
904.101	11464.92
904.415	11504.47
904.729	11456.34
905.042	11346.51
905.356	11362.33
905.67	11267.87
905.984	11277.81
906.297	11273.52
906.611	11076.23
906.924	11151.26
907.237	11085.5
907.551	11060.19
907.864	11098.15
908.177	11027.65
908.491	10906.97
908.804	10839.18
909.117	10807.31
909.43	10785.85
909.743	10723.48
910.056	10656.36
910.368	10654.1
910.681	10555.34
910.994	10533.2
911.307	10487.1
911.619	10366.2
911.932	10463.14
912.244	10370.72
912.557	10398.51
912.869	10240.32
913.181	10185.41
913.494	10220.44
913.806	10215.47
914.118	10139.54
914.43	10085.07
914.742	10005.98
915.054	9987.22
915.366	9890.95
915.678	9940.22
915.99	9835.14
916.302	9721.47
916.613	9763.95
916.925	9724.18
917.236	9782.71
917.548	9633.79
917.859	9619.55
918.171	9541.36
918.482	9519.66
918.794	9488.71
919.105	9474.92
919.416	9383.62
919.727	9345.43
920.038	9364.87
920.349	9231.99
920.66	9201.71
920.971	9260.69
921.282	9237.64
921.593	9111.09
921.903	9063.86
922.214	9077.19
922.525	9003.07
922.835	9001.26
923.146	8867.7
923.456	8890.75
923.767	8784.77
924.077	8839.46
924.387	8775.96
924.697	8755.84
925.008	8696.41
925.318	8671.33
925.628	8634.72
925.938	8604.21
926.248	8537.32
926.558	8512.01
926.867	8441.73
927.177	8484.21
927.487	8376.42
927.796	8293.03
928.106	8309.3
928.416	8213.94
928.725	8249.19
929.034	8259.36
929.344	8294.16
929.653	8182.3
929.962	8105.92
930.271	8043.55
930.581	8019.82
930.89	8000.61
931.199	7895.98
931.508	7895.07
931.817	7961.74
932.125	7862.76
932.434	7839.03
932.743	7756.77
933.051	7779.6
933.36	7683.78
933.669	7667.06
933.977	7642.2
934.286	7622.09
934.594	7604.91
934.902	7499.15
935.21	7476.33
935.519	7517.23
935.827	7447.4
936.135	7404.47
936.443	7345.03
936.751	7318.59
937.059	7343.45
937.367	7284.7
937.674	7230.23
937.982	7206.05
938.29	7127.64
938.597	7221.65
938.905	7103.91
939.213	7057.13
939.52	7002.67
939.827	7043.57
940.135	6980.52
940.442	6919.51
940.749	6920.64
941.056	6950.69
941.363	6849.45
941.67	6838.61
941.977	6773.97
942.284	6744.82
942.591	6736.01
942.898	6676.12
943.205	6698.27
943.511	6637.25
943.818	6643.13
944.125	6664.6
944.431	6576.01
944.738	6502.12
945.044	6519.97
945.35	6496.69
945.657	6419.86
945.963	6401.33
946.269	6383.48
946.575	6397.49
946.881	6315.23
947.187	6312.29
947.493	6251.28
947.799	6227.77
948.105	6191.16
948.41	6232.07
948.716	6197.04
949.022	6089.25
949.327	6095.8
949.633	6063.94
949.938	5993.2
950.244	6026.88
950.549	5962.92
950.854	5960.44
951.16	5945.97
951.465	5872.08
951.77	5889.25
952.075	5849.7
952.38	5854.45
952.685	5858.29
952.99	5789.14
953.294	5786.43
953.599	5743.49
953.904	5751.63
954.209	5653.55
954.513	5660.33
954.818	5672.31
955.122	5608.36
955.426	5584.63
955.731	5541.46
956.035	5526.1
956.339	5544.63
956.643	5493.1
956.948	5435.25
957.252	5413.56
957.556	5413.56
957.86	5399.77
958.163	5363.62
958.467	5322.71
958.771	5308.48
959.075	5300.34
959.378	5274.8
959.682	5243.85
959.985	5240.91
960.289	5183.73
960.592	5137.63
960.896	5154.81
961.199	5107.35
961.502	5074.13
961.805	5055.83
962.108	5051.08
962.411	4988.71
962.714	4975.83
963.017	4961.14
963.32	4929.73
963.623	4911.65
963.926	4950.52
964.228	4882.27
964.531	4874.36
964.833	4821.03
965.136	4789.62
965.438	4791.88
965.741	4772.9
966.043	4798.66
966.345	4753.01
966.648	4700.36
966.95	4723.41
967.252	4649.51
967.554	4617.65
967.856	4627.82
968.158	4601.83
968.46	4546.46
968.761	4577.42
969.063	4552.34
969.365	4516.18
969.666	4494.03
969.968	4430.99
970.269	4496.75
970.571	4449.97
970.872	4398.67
971.174	4369.07
971.475	4387.14
971.776	4339.91
972.077	4320.71
972.378	4306.69
972.679	4285.23
972.98	4296.53
973.281	4301.27
973.582	4228.5
973.883	4243.65
974.183	4196.19
974.484	4193.7
974.785	4146.7
975.085	4165.23
975.386	4133.14
975.686	4088.85
975.986	4078.23
976.287	4073.48
976.587	4044.55
976.887	4044.78
977.187	4040.04
977.487	3983.09
977.787	3981.73
978.087	3931.79
978.387	3933.15
978.687	3916.87
978.987	3919.13
979.286	3857.67
979.586	3875.52
979.885	3845.92
980.185	3829.87
980.484	3830.1
980.784	3749.87
981.083	3752.81
981.382	3767.5
981.682	3728.63
981.981	3753.71
982.28	3734.73
982.579	3705.13
982.878	3666.03
983.177	3631.68
983.475	3623.55
983.774	3595.07
984.073	3587.84
984.372	3584.45
984.67	3566.83
984.969	3560.95
985.267	3527.96
985.566	3538.13
985.864	3524.12
986.162	3485.93
986.461	3499.26
986.759	3474.17
987.057	3428.07
987.355	3399.15
987.653	3370.22
987.951	3376.1
988.249	3411.12
988.547	3392.59
988.844	3389.2
989.142	3324.8
989.44	3316.66
989.737	3292.26
990.035	3266.72
990.332	3276.44
990.63	3241.19
990.927	3240.96
991.224	3251.36
991.521	3182.66
991.819	3218.59
992.116	3193.05
992.413	3153.73
992.71	3144.47
993.006	3128.19
993.303	3141.53
993.6	3116.44
993.897	3061.53
994.193	3054.52
994.49	3028.31
994.787	3028.99
995.083	3014.07
995.379	2989.89
995.676	2965.49
995.972	2989.44
996.268	2989.67
996.565	2945.37
996.861	2937.01
997.157	2895.88
997.453	2894.53
997.749	2878.48
998.044	2856.34
998.34	2863.12
998.636	2843
998.932	2800.52
999.227	2827.64
999.523	2785.38
999.818	2737.7
1000.114	2723.23
1000.409	2734.31
1000.704	2718.49
1001	2733.18
1001.295	2711.03
1001.59	2702.67
1001.885	2670.35
1002.18	2626.29
1002.475	2617.25
1002.77	2619.96
1003.065	2636.68
1003.359	2598.94
1003.654	2586.51
1003.949	2567.98
1004.243	2485.27
1004.538	2516.01
1004.832	2570.7
1005.127	2530.47
1005.421	2445.95
1005.715	2454.99
1006.009	2480.75
1006.304	2428.55
1006.598	2441.66
1006.892	2414.54
1007.186	2358.27
1007.48	2390.59
1007.773	2379.51
1008.067	2365.73
1008.361	2334.09
1008.655	2353.3
1008.948	2312.4
1009.242	2281.44
1009.535	2319.63
1009.829	2289.12
1010.122	2271.72
1010.415	2238.73
1010.708	2245.28
1011.001	2222.46
1011.295	2193.98
1011.588	2204.38
1011.881	2181.33
1012.173	2176.81
1012.466	2155.56
1012.759	2158.5
1013.052	2140.42
1013.344	2108.33
1013.637	2129.58
1013.93	2099.07
1014.222	2093.87
1014.514	2052.29
1014.807	2047.09
1015.099	2027.21
1015.391	2055.23
1015.683	2008.9
1015.976	2020.65
1016.268	1977.72
1016.56	1986.76
1016.851	1977.04
1017.143	1943.14
1017.435	1949.02
1017.727	1922.35
1018.018	1896.36
1018.31	1882.13
1018.602	1890.26
1018.893	1870.37
1019.185	1839.87
1019.476	1863.82
1019.767	1825.86
1020.058	1803.94
1020.35	1831.28
1020.641	1807.55
1020.932	1789.47
1021.223	1789.47
1021.514	1756.25
1021.804	1751.28
1022.095	1715.58
1022.386	1731.4
1022.677	1730.94
1022.967	1676.03
1023.258	1683.49
1023.548	1656.82
1023.839	1667.22
1024.129	1644.39
1024.419	1636.48
1024.709	1579.31
1025	1629.93
1025.29	1613.88
1025.58	1591.74
1025.87	1579.99
1026.16	1572.3
1026.449	1570.5
1026.739	1518.75
1027.029	1578.18
1027.319	1533.21
1027.608	1544.73
1027.898	1544.73
1028.187	1488.24
1028.477	1499.08
1028.766	1487.11
1029.055	1469.03
1029.344	1466.54
1029.634	1450.5
1029.923	1435.58
1030.212	1454.34
1030.501	1414.12
1030.79	1422.48
1031.078	1376.6
1031.367	1406.21
1031.656	1366.43
1031.945	1371.18
1032.233	1375.7
1032.522	1347.9
1032.81	1348.81
1033.099	1330.95
1033.387	1337.96
1033.675	1331.86
1033.963	1317.85
1034.251	1293.67
1034.54	1292.54
1034.828	1278.3
1035.116	1240.56
1035.403	1254.12
1035.691	1262.03
1035.979	1265.64
1036.267	1238.53
1036.554	1220.45
1036.842	1211.63
1037.129	1216.83
1037.417	1194.23
1037.704	1183.16
1037.992	1208.25
1038.279	1190.62
1038.566	1139.77
1038.853	1139.77
1039.14	1139.77
