Data from White_reflection_standard_FLMS001491_064.txt Node
Date: Tue Feb 07 10:32:08 GMT 2017
User: dcchb
Spectrometer: FLMS00149
Trigger mode: 0
Integration Time (sec): 2.000000E-2
Scans to average: 10
Electric dark correction enabled: true
Nonlinearity correction enabled: false
Boxcar width: 0
XAxis mode: Wavelengths
Number of Pixels in Spectrum: 2048
>>>>>Begin Spectral Data<<<<<
341.393	-8.93
341.776	-8.93
342.16	-8.93
342.543	-45.54
342.927	-71.3
343.31	-48.25
343.693	-72.43
344.077	-69.94
344.46	-73.11
344.843	-51.64
345.226	-41.24
345.61	-25.88
345.993	-15.25
346.376	-6.89
346.759	-3.05
347.142	36.04
347.525	42.15
347.908	72.88
348.291	68.81
348.674	88.02
349.057	99.77
349.44	123.73
349.823	129.38
350.206	182.26
350.588	224.29
350.971	251.41
351.354	291.63
351.737	288.92
352.119	293.21
352.502	288.92
352.884	316.04
353.267	345.87
353.65	328.01
354.032	332.99
354.414	353.32
354.797	367.11
355.179	376.83
355.562	374.57
355.944	377.73
356.326	391.52
356.709	384.96
357.091	389.93
357.473	398.07
357.855	387.67
358.238	407.56
358.62	399.88
359.002	411.18
359.384	396.03
359.766	419.99
360.148	416.83
360.53	393.1
360.912	392.87
361.294	403.72
361.676	396.26
362.057	397.16
362.439	386.32
362.821	390.39
363.203	391.29
363.584	414.57
363.966	409.14
364.348	400.78
364.729	400.33
365.111	393.77
365.493	406.88
365.874	394.9
366.256	407.79
366.637	411.4
367.019	426.77
367.4	423.15
367.781	404.85
368.163	420.67
368.544	412.98
368.925	433.77
369.306	434
369.688	435.81
370.069	401.46
370.45	417.5
370.831	440.1
371.212	424.51
371.593	447.11
371.974	431.06
372.355	435.58
372.736	450.27
373.117	450.5
373.498	428.58
373.879	428.35
374.26	427.67
374.641	430.38
375.021	440.78
375.402	459.54
375.783	464.28
376.163	487.11
376.544	496.6
376.925	495.69
377.305	493.21
377.686	480.33
378.066	487.56
378.447	486.65
378.827	498.4
379.208	507.44
379.588	525.3
379.968	528.69
380.349	520.33
380.729	516.48
381.109	539.76
381.489	531.17
381.87	549.03
382.25	561.68
382.63	550.83
383.01	560.55
383.39	552.19
383.77	552.19
384.15	560.1
384.53	591.06
384.91	568.23
385.29	586.09
385.67	618.18
386.049	608.46
386.429	604.39
386.809	626.76
387.189	631.51
387.568	629.25
387.948	616.82
388.328	628.35
388.707	668.8
389.087	670.15
389.466	646.65
389.846	678.51
390.225	691.62
390.605	693.2
390.984	700.43
391.363	712.18
391.743	705.18
392.122	749.02
392.501	728.23
392.881	735.46
393.26	787.66
393.639	775.01
394.018	781.11
394.397	775.23
394.776	762.35
395.155	758.96
395.534	807.78
395.913	781.11
396.292	803.26
396.671	845.74
397.05	827.44
397.429	847.1
397.808	822.46
398.186	848.68
398.565	864.5
398.944	850.26
399.323	892.07
399.701	885.29
400.08	894.78
400.458	904.72
400.837	925.96
401.215	898.17
401.594	911.5
401.972	945.4
402.351	951.05
402.729	955.79
403.107	975
403.486	977.71
403.864	989.47
404.242	1000.54
404.62	996.24
404.999	1008
405.377	1024.94
405.755	1039.63
406.133	1070.59
406.511	1090.71
406.889	1104.04
407.267	1128.44
407.645	1136.81
408.023	1126.86
408.401	1123.02
408.779	1172.96
409.156	1190.59
409.534	1189.91
409.912	1200.99
410.29	1247.09
410.667	1243.92
411.045	1279.18
411.422	1289.34
411.8	1295.45
412.178	1340.87
412.555	1347.65
412.933	1337.03
413.31	1364.6
413.687	1405.73
414.065	1424.71
414.442	1403.69
414.819	1416.35
415.197	1455.22
415.574	1486.63
415.951	1488.44
416.328	1509
416.705	1536.34
417.082	1498.83
417.46	1539.96
417.837	1554.87
418.214	1572.05
418.591	1586.06
418.967	1624.25
419.344	1615.44
419.721	1668.54
420.098	1631.71
420.475	1698.37
420.852	1709.9
421.228	1720.75
421.605	1712.38
421.982	1762.55
422.358	1774.53
422.735	1774.3
423.111	1775.21
423.488	1838.03
423.864	1843.91
424.241	1880.52
424.617	1890.68
424.994	1932.72
425.37	1947.63
425.746	1952.83
426.123	1955.77
426.499	1971.13
426.875	2031.7
427.251	2078.02
427.627	2086.84
428.003	2110.57
428.379	2190.56
428.756	2180.62
429.132	2186.5
429.507	2243.67
429.883	2253.16
430.259	2307.62
430.635	2344.01
431.011	2355.31
431.387	2421.74
431.763	2479.82
432.138	2460.16
432.514	2506.71
432.89	2524.57
433.265	2590.1
433.641	2600.04
434.016	2597.33
434.392	2627.84
434.767	2725.92
435.143	2724.34
435.518	2743.77
435.894	2776.99
436.269	2836.87
436.644	2914.39
437.02	2869.42
437.395	2913.93
437.77	2980.15
438.145	3010.88
438.52	3011.56
438.895	3071.22
439.271	3087.04
439.646	3150.09
440.021	3164.1
440.395	3161.16
440.77	3209.07
441.145	3229.41
441.52	3271.21
441.895	3252.23
442.27	3334.71
442.645	3328.16
443.019	3351.66
443.394	3386.69
443.769	3414.49
444.143	3407.93
444.518	3457.2
444.892	3450.19
445.267	3502.17
445.641	3518.89
446.016	3575.39
446.39	3562.96
446.764	3586.46
447.139	3609.74
447.513	3637.31
447.887	3661.71
448.262	3690.19
448.636	3729.28
449.01	3786
449.384	3829.39
449.758	3851.99
450.132	3903.06
450.506	3979.22
450.88	3967.92
451.254	3967.47
451.628	4030.29
452.002	4090.4
452.376	4079.78
452.75	4128.37
453.123	4194.8
453.497	4257.85
453.871	4268.7
454.244	4367.91
454.618	4414.23
454.992	4452.65
455.365	4510.73
455.739	4580.56
456.112	4607.22
456.486	4676.6
456.859	4679.09
457.232	4808.12
457.606	4814.9
457.979	4858.52
458.352	4987.1
458.725	5051.05
459.099	5060.54
459.472	5122.01
459.845	5213.99
460.218	5273.65
460.591	5365.62
460.964	5342.8
461.337	5473.87
461.71	5560.64
462.083	5687.87
462.456	5656.01
462.829	5709.79
463.201	5809.23
463.574	5825.95
463.947	5841.32
464.32	6055.1
464.692	6135.54
465.065	6130.57
465.438	6218.48
465.81	6318.14
466.183	6399.49
466.555	6503.9
466.928	6571.92
467.3	6634.06
467.672	6708.86
468.045	6843.1
468.417	6889.65
468.789	6930.55
469.161	7077.89
469.534	7164.67
469.906	7339.36
470.278	7364.67
470.65	7501.84
471.022	7650.99
471.394	7802.17
471.766	7811.88
472.138	7905.89
472.51	8111.54
472.882	8266.56
473.253	8298.65
473.625	8443.96
473.997	8624.07
474.369	8682.37
474.74	8826.77
475.112	8945.19
475.484	9092.3
475.855	9199.19
476.227	9297.04
476.598	9636.7
476.97	9659.75
477.341	9859.06
477.713	10079.17
478.084	10179.96
478.455	10394.19
478.827	10513.73
479.198	10842.09
479.569	10799.38
479.94	11212.93
480.311	11226.48
480.682	11514.61
481.053	11739.47
481.424	11974.94
481.795	11996.41
482.166	12249.28
482.537	12407.92
482.908	12688.14
483.279	12835.71
483.65	13077.74
484.021	13331.29
484.391	13432.75
484.762	13590.49
485.133	13672.07
485.503	13845.85
485.874	14203.13
486.244	14340.98
486.615	14511.37
486.985	14804.47
487.356	15086.27
487.726	15157
488.097	15537.33
488.467	15665.92
488.837	15978.22
489.207	16060.26
489.578	16298.44
489.948	16433.13
490.318	16655.49
490.688	16853.46
491.058	17005.99
491.428	17208.93
491.798	17421.12
492.168	17768.23
492.538	17854.56
492.908	18049.13
493.278	18294.32
493.648	18342.23
494.017	18591.04
494.387	18670.81
494.757	18866.28
495.126	19121.19
495.496	19182.43
495.866	19351.69
496.235	19583.1
496.605	19784.68
496.974	19855.86
497.344	20084.56
497.713	20139.02
498.082	20318.9
498.452	20599.8
498.821	20665.78
499.19	20778.1
499.559	20928.15
499.928	21070.29
500.298	21227.35
500.667	21449.27
501.036	21458.31
501.405	21746.89
501.774	21758.18
502.143	21921.34
502.512	22118.4
502.88	22384.84
503.249	22446.53
503.618	22520.2
503.987	22647.65
504.356	22826.63
504.724	23035.21
505.093	23134.19
505.462	23127.41
505.83	23318.82
506.199	23512.04
506.567	23924
506.936	23837
507.304	24195.18
507.672	24229.76
508.041	24448.74
508.409	24658.9
508.777	24806.24
509.145	24892.34
509.514	25017.53
509.882	25303.63
510.25	25410.29
510.618	25537.52
510.986	25640.79
511.354	25964.18
511.722	26208.69
512.09	26447.1
512.458	26405.75
512.826	26747.66
513.193	26791.5
513.561	26960.99
513.929	27099.74
514.297	27493.63
514.664	27643
515.032	27839.16
515.4	28029.43
515.767	28090.45
516.135	28296.09
516.502	28226.26
516.869	28675.74
517.237	28878.22
517.604	28661.73
517.972	29131.78
518.339	29450.19
518.706	29509.62
519.073	29663.51
519.44	29939.89
519.808	30268.7
520.175	30185.53
520.542	30683.15
520.909	30921.56
521.276	30962.01
521.643	31288.1
522.009	31527.42
522.376	31743.69
522.743	31869.56
523.11	32196.78
523.477	32444.68
523.843	32721.96
524.21	33028.4
524.577	33273.14
524.943	33469.97
525.31	33555.39
525.676	34091.19
526.043	34177.75
526.409	34231.3
526.776	34762.14
527.142	34789.93
527.508	35000.1
527.874	35440.76
528.241	35422.91
528.607	35641.89
528.973	35884.59
529.339	35998.26
529.705	36353.28
530.071	36539.94
530.437	36732.03
530.803	37015.86
531.169	37294.5
531.535	37259.7
531.901	37358.68
532.267	37654.26
532.632	37861.72
532.998	37992.79
533.364	38153.69
533.73	38331.76
534.095	38546.44
534.461	38829.6
534.826	38804.29
535.192	38990.5
535.557	39358.17
535.923	39401.34
536.288	39578.51
536.653	39721.1
537.019	39628.9
537.384	39900.53
537.749	40053.75
538.114	40180.75
538.479	40390.69
538.845	40538.26
539.21	40532.61
539.575	40736.89
539.94	40878.36
540.305	41025.02
540.67	41136.66
541.034	41354.51
541.399	41523.09
541.764	41580.04
542.129	41881.05
542.494	41753.37
542.858	42038.56
543.223	42076.97
543.587	42327.36
543.952	42413.01
544.316	42419.34
544.681	42403.97
545.045	42764.41
545.41	42831.76
545.774	43034.91
546.138	43071.52
546.503	43255.7
546.867	43249.6
547.231	43686.42
547.595	43697.95
547.959	43828.79
548.324	43978.84
548.688	43989.69
549.052	44323.24
549.416	44362.34
549.779	44482.56
550.143	44627.64
550.507	44862.44
550.871	44985.82
551.235	44894.98
551.599	45275.76
551.962	45387.62
552.326	45515.07
552.689	45646.14
553.053	45497.45
553.417	45755.97
553.78	46340.59
554.143	46143.76
554.507	46339.69
554.87	46593.69
555.234	46855.6
555.597	46529.29
555.96	46902.16
556.323	47065.54
556.686	47209.95
557.05	47481.35
557.413	47514.57
557.776	47666.88
558.139	47977.38
558.502	48193.87
558.865	48077.72
559.228	48454.66
559.59	48450.14
559.953	48554.32
560.316	48991.82
560.679	49078.37
561.041	49223.68
561.404	49333.05
561.767	49584.12
562.129	49584.35
562.492	49921.29
562.854	49833.38
563.217	49853.27
563.579	50162.18
563.941	50366.92
564.304	50543.19
564.666	50842.17
565.028	50771.43
565.39	50897.53
565.753	51168.03
566.115	51250.52
566.477	51397.63
566.839	51428.82
567.201	51661.13
567.563	51672.43
567.925	51883.27
568.287	51907.22
568.648	51972.98
569.01	52228.34
569.372	52463.82
569.734	52337.27
570.095	52662.23
570.457	52823.36
570.819	52757.82
571.18	52815
571.542	53026.97
571.903	53034.42
572.265	53101.32
572.626	53246.4
572.987	53294.53
573.349	53407.97
573.71	53496.11
574.071	53548.54
574.432	53722.77
574.794	53872.59
575.155	53883.22
575.516	53751.92
575.877	53907.62
576.238	53986.26
576.599	54132.47
576.96	54166.15
577.32	54059.93
577.681	54232.36
578.042	54296.99
578.403	54339.7
578.763	54287.27
579.124	54406.82
579.485	54567.49
579.845	54573.14
580.206	54590.99
580.566	54523.2
580.927	54537.66
581.287	54704.89
581.648	54549.87
582.008	54750.31
582.368	54646.13
582.728	54697.88
583.089	54652.91
583.449	54636.19
583.809	54718.9
584.169	54874.15
584.529	54852
584.889	54961.38
585.249	54788.73
585.609	54715.96
585.969	54810.2
586.329	54742.63
586.688	54806.58
587.048	54786.92
587.408	54758
587.768	54757.32
588.127	54815.17
588.487	54718.22
588.846	54938.56
589.206	54741.72
589.565	54743.98
589.925	54855.39
590.284	54833.47
590.643	54872.12
591.003	54964.32
591.362	54974.49
591.721	54873.47
592.08	54868.05
592.44	55019.46
592.799	55028.95
593.158	54950.53
593.517	54977.2
593.876	55094.94
594.235	54938.78
594.593	55017.2
594.952	55034.37
595.311	54948.72
595.67	55049.51
596.029	55202.05
596.387	55186.91
596.746	55178.32
597.104	55099.46
597.463	55079.34
597.822	55281.82
598.18	55040.02
598.538	54983.3
598.897	55227.14
599.255	55006.12
599.613	55412.89
599.972	55258.32
600.33	55360.69
600.688	55249.73
601.046	55396.85
601.404	55409.05
601.762	55409.28
602.12	55580.12
602.478	55567.24
602.836	55509.16
603.194	55388.49
603.552	55468.26
603.91	55354.14
604.268	55593.68
604.625	55453.12
604.983	55619.89
605.341	55412.89
605.698	55596.84
606.056	55622.38
606.413	55631.87
606.771	55703.96
607.128	55779.44
607.485	55640.01
607.843	55656.5
608.2	55775.14
608.557	55855.82
608.914	55811.3
609.272	55922.71
609.629	56006.78
609.986	56020.56
610.343	55892.43
610.7	56081.35
611.057	55938.98
611.414	55986.89
611.771	56062.82
612.127	56188.47
612.484	56074.8
612.841	56179.88
613.198	56098.52
613.554	56075.93
613.911	56291.74
614.267	56293.55
614.624	56233.66
614.98	56268.69
615.337	56424.39
615.693	56323.15
616.05	56322.93
616.406	56432.75
616.762	56359.08
617.118	56312.98
617.475	56338.97
617.831	56451.06
618.187	56520.66
618.543	56474.56
618.899	56573.31
619.255	56614.22
619.611	56565.86
619.967	56648.12
620.323	56649.24
620.678	56530.6
621.034	56489.93
621.39	56472.98
621.746	56463.94
622.101	56799.3
622.457	56532.41
622.812	56574.44
623.168	56683.59
623.523	56611.96
623.879	56757.49
624.234	56533.54
624.589	56590.49
624.945	56648.12
625.3	56629.81
625.655	56622.58
626.01	56707.55
626.365	56687.44
626.72	56580.09
627.075	56616.48
627.43	56565.41
627.785	56548
628.14	56569.7
628.495	56649.02
628.85	56505.75
629.205	56475.46
629.559	56601.79
629.914	56468.46
630.269	56496.03
630.623	56424.17
630.978	56338.52
631.332	56426.65
631.687	56464.62
632.041	56339.87
632.396	56358.63
632.75	56312.76
633.104	56309.59
633.459	56138.3
633.813	56204.06
634.167	56175.13
634.521	56103.5
634.875	56199.99
635.229	56075.93
635.583	56031.18
635.937	56001.13
636.291	55968.36
636.645	55952.31
636.999	55922.03
637.352	55917.96
637.706	55831.64
638.06	55959.55
638.413	55852.2
638.767	55722.72
639.121	55784.63
639.474	55688.82
639.828	55698.99
640.181	55657.63
640.534	55752.32
640.888	55520.01
641.241	55464.19
641.594	55505.32
641.947	55511.2
642.301	55445.43
642.654	55356.85
643.007	55365.66
643.36	55297.19
643.713	55297.64
644.066	55411.99
644.419	55138.32
644.771	55065.78
645.124	54744.66
645.477	54636.42
645.83	54481.84
646.182	54397.1
646.535	54362.07
646.888	54320.94
647.24	54221.74
647.593	54238.01
647.945	54312.36
648.298	54086.15
648.65	54052.03
649.002	53972.48
649.355	54134.06
649.707	54021.97
650.059	54150.33
650.411	54507.38
650.763	54539.7
651.115	54783.31
651.467	54697.88
651.819	54586.02
652.171	54592.35
652.523	54489.53
652.875	54541.73
653.227	54410.21
653.578	54589.41
653.93	54346.25
654.282	54336.76
654.633	54245.92
654.985	54307.39
655.337	54383.09
655.688	54112.59
656.039	54341.73
656.391	54077.56
656.742	54145.13
657.094	54129.76
657.445	54283.21
657.796	54268.74
658.147	54070.1
658.498	54062.65
658.849	54136.77
659.2	54134.96
659.551	54009.77
659.902	54114.62
660.253	53973.84
660.604	54066.94
660.955	53799.38
661.306	53944.01
661.656	53939.26
662.007	53894.52
662.358	53928.64
662.708	53808.87
663.059	53699.72
663.409	53657.46
663.76	53840.05
664.11	53728.42
664.461	53841.41
664.811	53807.96
665.161	53751.02
665.511	53675.76
665.862	53702.2
666.212	53772.26
666.562	53790.79
666.912	53670.34
667.262	53702.66
667.612	53589.66
667.962	53574.52
668.312	53572.26
668.662	53746.72
669.011	53636.22
669.361	53621.98
669.711	53525.26
670.06	53533.17
670.41	53414.53
670.76	53332.04
671.109	53492.04
671.459	53418.37
671.808	53330.01
672.157	53325.26
672.507	53170.24
672.856	53205.04
673.205	53260.41
673.554	53284.14
673.904	53136.34
674.253	53398.71
674.602	53184.03
674.951	52804.15
675.3	52550.14
675.649	53186.96
675.998	53093.63
676.346	52971.6
676.695	53111.71
677.044	52902.68
677.393	53027.87
677.741	53045.95
678.09	52806.41
678.438	52781.78
678.787	52912.17
679.135	52890.25
679.484	52715.34
679.832	52824.94
680.181	52563.7
680.529	52699.97
680.877	52603.7
681.225	52495.46
681.573	52662.23
681.922	52453.88
682.27	52370.04
682.618	52356.25
682.966	52389.47
683.314	52304.95
683.661	52202.81
684.009	52016.6
684.357	52042.36
684.705	51932.08
685.053	51942.48
685.4	51883.27
685.748	51793.1
686.095	51722.82
686.443	51592.88
686.79	51548.81
687.138	51604.18
687.485	51582.03
687.832	51455.71
688.18	51493.9
688.527	51321.93
688.874	51206
689.221	51199.9
689.568	51017.75
689.915	51024.99
690.262	50987.7
690.609	50850.53
690.956	50768.95
691.303	50699.12
691.65	50635.62
691.997	50507.26
692.344	50308.85
692.69	50319.69
693.037	50205.8
693.383	49964.22
693.73	50155.18
694.077	49940.27
694.423	49897.78
694.769	49745.92
695.116	49650.33
695.462	49550.45
695.808	49461.86
696.155	49529.88
696.501	49337.35
696.847	49139.84
697.193	48968.77
697.539	49139.39
697.885	48856
698.231	48721.09
698.577	48731.71
698.923	48647.2
699.269	48526.07
699.614	48301.22
699.96	48243.59
700.306	48272.74
700.651	48059.41
700.997	47940.77
701.342	47749.82
701.688	47702.59
702.033	47671.63
702.379	47683.15
702.724	47544.85
703.069	47596.83
703.415	46978.54
703.76	47106.9
704.105	47082.94
704.45	46977.63
704.795	46678.89
705.14	46552.11
705.485	46595.5
705.83	46444.09
706.175	46530.87
706.52	46242.51
706.865	46127.94
707.209	46072.35
707.554	45939.24
707.899	46234.6
708.243	45727.72
708.588	45825.35
708.932	45580.84
709.277	45476.66
709.621	45558.46
709.966	45259.26
710.31	45353.5
710.654	44942.43
710.998	45044.35
711.342	45005.03
711.687	44839.61
712.031	44815.21
712.375	44569.79
712.719	44739.05
713.063	44612.5
713.407	44583.57
713.75	44401.21
714.094	44389.45
714.438	44110.37
714.782	44205.73
715.125	43882.8
715.469	44173.87
715.812	43878.51
716.156	43581.79
716.499	43643.94
716.843	43686.87
717.186	43576.14
717.53	43531.4
717.873	43662.92
718.216	43382.48
718.559	43262.48
718.902	43004.63
719.246	43057.74
719.589	43009.6
719.932	42728.48
720.275	42728.71
720.617	42812.32
720.96	42680.35
721.303	42684.41
721.646	42659.1
721.989	42396.29
722.331	42551.99
722.674	42438.32
723.016	42335.05
723.359	42340.69
723.701	42211.88
724.044	41985.68
724.386	41746.36
724.729	41920.59
725.071	41747.72
725.413	41838.11
725.755	41828.39
726.097	41598.12
726.439	41405.8
726.782	41483.99
727.124	41509.76
727.465	41214.85
727.807	41249.65
728.149	41105.7
728.491	41200.16
728.833	41207.17
729.175	41073.84
729.516	40925.36
729.858	40846.95
730.199	40832.26
730.541	40730.57
730.882	40671.81
731.224	40755.2
731.565	40508.88
731.906	40496.22
732.248	40417.81
732.589	40267.3
732.93	40196.12
733.271	40202.9
733.612	40148.21
733.953	40257.36
734.294	39927.65
734.635	39814.89
734.976	39986.18
735.317	39780.54
735.658	39726.53
735.999	39764.27
736.339	39604.95
736.68	39684.72
737.021	39427.32
737.361	39415.12
737.702	39484.95
738.042	39418.29
738.383	39244.05
738.723	39240.44
739.063	38979.2
739.404	39124.28
739.744	39051.52
740.084	38861.24
740.424	39035.47
740.764	38876.15
741.104	39025.75
741.444	38945.3
741.784	38643.16
742.124	38679.55
742.464	38652.66
742.804	38562.04
743.143	38390.74
743.483	38514.35
743.823	38228.94
744.162	38151.2
744.502	38244.31
744.841	38194.36
745.181	38209.28
745.52	38012.67
745.86	38189.17
746.199	37863.07
746.538	37749.4
746.877	38024.88
747.216	37876.18
747.556	37798.89
747.895	37690.65
748.234	37570.2
748.573	37409.75
748.911	37514.83
749.25	37349.87
749.589	37283.65
749.928	37109.42
750.267	37284.33
750.605	37123.2
750.944	37013.83
751.283	36802.31
751.621	36950.55
751.96	36648.87
752.298	36774.51
752.636	36681.86
752.975	36458.14
753.313	36362.32
753.651	36539.72
753.989	36349.67
754.327	36261.98
754.666	36078.26
755.004	36073.06
755.342	36011.14
755.679	35745.61
756.017	35762.79
756.355	35768.66
756.693	35592.17
757.031	35676.01
757.368	35475.34
757.706	35296.81
758.044	35171.62
758.381	35199.41
758.719	35155.12
759.056	35084.84
759.394	34979.31
759.731	34784.96
760.068	34664.29
760.405	34531.63
760.743	34364.41
761.08	34427.46
761.417	34350.4
761.754	34169.61
762.091	34230.63
762.428	34047.58
762.765	33712.22
763.102	33969.39
763.438	33744.54
763.775	33672.67
764.112	33580.47
764.449	33539.57
764.785	33446.01
765.122	33118.11
765.458	33072.24
765.795	33128.96
766.131	33038.57
766.467	32848.06
766.804	32664.11
767.14	32551.12
767.476	32612.36
767.812	32391.35
768.148	32399.04
768.485	32135.31
768.821	32011.47
769.157	32011.02
769.492	31926.73
769.828	31805.38
770.164	31532.84
770.5	31511.6
770.836	31454.43
771.171	31276.35
771.507	31214.89
771.842	30979.41
772.178	31046.75
772.513	30913.65
772.849	30719.76
773.184	30604.73
773.519	30591.85
773.855	30452.65
774.19	30328.13
774.525	30187.57
774.86	30179.88
775.195	30150.96
775.53	29920
775.865	29860.34
776.2	29622.61
776.535	29450.86
776.87	29492.44
777.205	29375.16
777.539	29073.25
777.874	29277.31
778.209	29011.55
778.543	28936.08
778.878	28809.52
779.212	28808.4
779.547	28597.78
779.881	28602.98
780.215	28390.55
780.55	28506.03
780.884	28319.82
781.218	28196.89
781.552	28158.92
781.886	27988.3
782.22	27776.33
782.554	27728.2
782.888	27421.76
783.222	27414.99
783.556	27356.68
783.889	27178.61
784.223	26944.94
784.557	27054.99
784.89	26985.84
785.224	26762.8
785.557	26695.68
785.891	26540.21
786.224	26620.88
786.558	26571.84
786.891	26353.54
787.224	26263.38
787.557	26205.75
787.891	26095.25
788.224	26068.81
788.557	26029.49
788.89	25964.18
789.223	25868.13
789.556	25673.34
789.888	25580.46
790.221	25564.41
790.554	25287.81
790.887	25354.02
791.219	25202.61
791.552	25141.15
791.884	25054.6
792.217	24968.27
792.549	24875.84
792.882	24676.98
793.214	24570.77
793.546	24578.45
793.879	24410.77
794.211	24297.78
794.543	24378.68
794.875	24271.57
795.207	24298.01
795.539	24219.82
795.871	24198.35
796.203	24001.29
796.535	23780.73
796.867	23757.68
797.198	23691.69
797.53	23734.63
797.862	23512.72
798.193	23617.57
798.525	23376.45
798.856	23405.83
799.188	23098.49
799.519	23224.59
799.85	22974.88
800.182	23032.5
800.513	22931.26
800.844	22896.23
801.175	22916.12
801.506	22816.69
801.837	22654.43
802.168	22717.71
802.499	22501.44
802.83	22430.03
803.161	22343.93
803.491	22318.85
803.822	22445.85
804.153	22178.96
804.483	22125.63
804.814	21987.78
805.145	21982.36
805.475	21958.86
805.805	21815.36
806.136	21898.97
806.466	21793.21
806.796	21740.56
807.126	21602.48
807.457	21564.29
807.787	21587.79
808.117	21377.18
808.447	21355.26
808.777	21353.9
809.107	21399.32
809.436	21245.2
809.766	21148.71
810.096	21103.06
810.426	21024.19
810.755	21105.55
811.085	20888.6
811.414	20866.01
811.744	20630.76
812.073	20591.89
812.403	20634.15
812.732	20517.54
813.061	20517.31
813.39	20497.43
813.719	20402.97
814.049	20562.51
814.378	20286.59
814.707	20363.65
815.036	20229.19
815.365	20107.83
815.693	19997.55
816.022	20097.89
816.351	19930.44
816.68	19714.62
817.008	19957.55
817.337	19736.32
817.665	19628.98
817.994	19727.28
818.322	19686.15
818.651	19543.1
818.979	19475.08
819.307	19583.55
819.636	19485.7
819.964	19396.44
820.292	19435.99
820.62	19359.38
820.948	19360.28
821.276	19503.78
821.604	19364.8
821.932	19365.03
822.259	19382.88
822.587	19248.65
822.915	19310.79
823.243	19514.85
823.57	19246.39
823.898	19356.44
824.225	19335.42
824.553	19252.71
824.88	19205.26
825.207	19327.29
825.535	19195.99
825.862	19313.05
826.189	19173.39
826.516	19271.47
826.843	19298.59
827.17	19260.62
827.497	19361.64
827.824	19184.47
828.151	19308.53
828.478	19216.33
828.805	19380.39
829.131	19121.64
829.458	19146.05
829.785	19059.05
830.111	19196.44
830.438	19352.37
830.764	19220.4
831.09	19238.48
831.417	19117.8
831.743	19060.85
832.069	19091.81
832.395	19033.74
832.722	19103.11
833.048	19099.95
833.374	19002.33
833.7	18901.76
834.026	18952.38
834.351	19070.8
834.677	18996.45
835.003	19057.47
835.329	18988.99
835.654	18982.44
835.98	18877.58
836.306	18872.16
836.631	18774.99
836.956	18866.96
837.282	18793.97
837.607	18685.5
837.932	18701.99
838.258	18738.15
838.583	18683.46
838.908	18580.87
839.233	18416.13
839.558	18607.99
839.883	18526.86
840.208	18380.65
840.533	18404.83
840.858	18416.58
841.182	18477.14
841.507	18318.95
841.832	18298.16
842.156	18285.51
842.481	18205.28
842.805	18119.41
843.13	18192.18
843.454	18107.43
843.778	18019.07
844.103	18070.82
844.427	18015.91
844.751	17896.14
845.075	17853.65
845.399	17824.05
845.723	17747.22
846.047	17704.05
846.371	17559.65
846.695	17603.27
847.019	17366.66
847.343	17393.78
847.666	17273.11
847.99	17246.67
848.313	17226.55
848.637	17081.7
848.96	17119.66
849.284	17055.03
849.607	16917.41
849.931	16707.24
850.254	16787.24
850.577	16602.84
850.9	16545.67
851.223	16543.63
851.546	16375.95
851.869	16368.5
852.192	16375.5
852.515	16223.19
852.838	16154.49
853.161	16221.61
853.483	16105.45
853.806	16036.98
854.129	16049.63
854.451	15953.14
854.774	15916.76
855.096	15735.07
855.419	15763.31
855.741	15627.5
856.063	15549.53
856.385	15637.89
856.708	15552.92
857.03	15453.94
857.352	15444.9
857.674	15423.44
857.996	15417.33
858.318	15349.77
858.64	15259.37
858.961	15188.87
859.283	15248.07
859.605	15047.85
859.926	15192.26
860.248	15088.76
860.57	15042.66
860.891	15026.61
861.212	15004.69
861.534	14826.84
861.855	14896.44
862.176	14921.75
862.498	14908.2
862.819	14934.41
863.14	14708.65
863.461	14790.46
863.782	14717.92
864.103	14780.52
864.424	14642.89
864.745	14736.22
865.065	14590.01
865.386	14633.17
865.707	14508.66
866.027	14474.53
866.348	14464.82
866.668	14453.52
866.989	14419.39
867.309	14335.78
867.63	14363.35
867.95	14361.54
868.27	14242.45
868.59	14272.96
868.91	14250.59
869.23	14211.49
869.55	14131.27
869.87	14306.63
870.19	14148.67
870.51	14208.78
870.83	14105.5
871.15	14109.57
871.469	14081.32
871.789	14107.09
872.109	14064.6
872.428	13955.68
872.748	13999.97
873.067	14027.54
873.386	13989.12
873.706	13986.19
874.025	13924.27
874.344	13851.73
874.663	13860.77
874.982	13848.34
875.301	13866.19
875.62	13752.97
875.939	13728.34
876.258	13788
876.577	13631.17
876.896	13652.18
877.214	13594.78
877.533	13678.62
877.852	13672.52
878.17	13599.08
878.489	13583.48
878.807	13590.04
879.125	13560.21
879.444	13591.17
879.762	13437.95
880.08	13489.93
880.398	13389.14
880.716	13451.74
881.034	13363.6
881.352	13301.01
881.67	13294
881.988	13302.81
882.306	13330.38
882.624	13228.01
882.941	13223.95
883.259	13126.1
883.577	13152.08
883.894	13051.75
884.212	13001.58
884.529	13089.49
884.846	12999.55
885.164	13032.76
885.481	12950.05
885.798	12959.09
886.115	12858.53
886.432	12868.02
886.75	12852.88
887.067	12855.14
887.383	12673.23
887.7	12748.48
888.017	12707.35
888.334	12649.72
888.651	12695.37
888.967	12565.88
889.284	12506.45
889.6	12530.4
889.917	12408.15
890.233	12510.97
890.55	12433.68
890.866	12412.44
891.182	12289.73
891.498	12376.51
891.815	12310.52
892.131	12258.77
892.447	12241.37
892.763	12111.66
893.079	12154.14
893.395	12099
893.71	12075.28
894.026	11958.44
894.342	11968.61
894.657	11870.99
894.973	11875.05
895.289	11808.62
895.604	11880.25
895.92	11744.89
896.235	11715.96
896.55	11739.92
896.865	11611.11
897.181	11594.38
897.496	11645
897.811	11502.86
898.126	11577.44
898.441	11432.81
898.756	11393.94
899.071	11348.29
899.386	11354.84
899.7	11310.1
900.015	11278.69
900.33	11128.41
900.644	11159.82
900.959	11203.43
901.273	11044.12
901.588	11014.96
901.902	11032.37
902.216	10956.66
902.531	10979.03
902.845	10917.79
903.159	10784.46
903.473	10759.83
903.787	10723.45
904.101	10699.49
904.415	10725.25
904.729	10600.29
905.042	10616.56
905.356	10548.31
905.67	10546.28
905.984	10490.23
906.297	10477.8
906.611	10426.28
906.924	10392.61
907.237	10363.68
907.551	10319.16
907.864	10267.64
908.177	10234.65
908.491	10142.45
908.804	10143.8
909.117	10047.08
909.43	10035.78
909.743	9968.44
910.056	9931.15
910.368	9867.42
910.681	9845.73
910.994	9786.07
911.307	9775.45
911.619	9685.96
911.932	9765.96
912.244	9603.7
912.557	9619.97
912.869	9562.12
913.181	9629.69
913.494	9479.41
913.806	9451.62
914.118	9492.52
914.43	9309.7
914.742	9364.16
915.054	9309.47
915.366	9260.43
915.678	9251.85
915.99	9187.22
916.302	9146.54
916.613	9098.63
916.925	9127.78
917.236	9101.57
917.548	9038.75
917.859	8994.68
918.171	8902.7
918.482	8886.43
918.794	8844.85
919.105	8879.43
919.416	8780.9
919.727	8754.69
920.038	8721.92
920.349	8657.51
920.66	8620.23
920.971	8601.24
921.282	8504.07
921.593	8504.52
921.903	8465.43
922.214	8435.15
922.525	8425.43
922.835	8350.4
923.146	8333
923.456	8313.11
923.767	8238.31
924.077	8279.44
924.387	8167.81
924.697	8114.93
925.008	8121.93
925.318	8070.41
925.628	8067.02
925.938	8022.27
926.248	7927.81
926.558	7873.58
926.867	7893.01
927.177	7844.43
927.487	7857.76
927.796	7778.89
928.106	7739.8
928.416	7708.38
928.725	7704.09
929.034	7642.62
929.344	7591.78
929.653	7620.93
929.962	7511.33
930.271	7503.42
930.581	7490.99
930.89	7407.6
931.199	7416.64
931.508	7399.69
931.817	7433.36
932.125	7306.81
932.434	7281.73
932.743	7212.35
933.051	7163.54
933.36	7170.09
933.669	7183.2
933.977	7083.99
934.286	7089.19
934.594	7075.86
934.902	7065.46
935.21	6967.39
935.519	6964.22
935.827	6945.02
936.135	6909.31
936.443	6917.45
936.751	6794.28
937.059	6839.93
937.367	6755.42
937.674	6761.74
937.982	6732.59
938.29	6761.07
938.597	6759.71
938.905	6654.85
939.213	6582.09
939.52	6519.72
939.827	6554.52
940.135	6529.66
940.442	6451.69
940.749	6460.96
941.056	6444.24
941.363	6460.73
941.67	6392.26
941.977	6357.23
942.284	6296.9
942.591	6276.33
942.898	6230.23
943.205	6225.71
943.511	6223
943.818	6232.94
944.125	6135.32
944.431	6166.28
944.738	6103.23
945.044	6085.15
945.35	6060.29
945.657	5981.88
945.963	6039.73
946.269	5952.5
946.575	5978.71
946.881	5922.67
947.187	5879.05
947.493	5868.43
947.799	5853.07
948.105	5796.12
948.41	5728.78
948.716	5757.02
949.022	5738.49
949.327	5691.04
949.633	5665.05
949.938	5597.03
950.244	5645.61
950.549	5593.64
950.854	5525.84
951.16	5519.74
951.465	5500.53
951.77	5458.5
952.075	5419.41
952.38	5455.11
952.685	5437.03
952.99	5379.18
953.294	5408.78
953.599	5358.62
953.904	5307.77
954.209	5293.53
954.513	5347.32
954.818	5242.69
955.122	5218.05
955.426	5204.27
955.731	5151.39
956.035	5119.3
956.339	5146.87
956.643	5117.27
956.948	5123.82
957.252	5064.39
957.556	5061.9
957.86	5040.21
958.163	5054.44
958.467	4994.33
958.771	4974.45
959.075	4951.62
959.378	4918.63
959.682	4900.32
959.985	4917.72
960.289	4886.99
960.592	4841.12
960.896	4859.19
961.199	4793.21
961.502	4757.95
961.805	4730.84
962.108	4725.64
962.411	4720.44
962.714	4718.86
963.017	4698.75
963.32	4661.46
963.623	4628.24
963.926	4582.37
964.228	4587.34
964.531	4549.6
964.833	4527.45
965.136	4519.09
965.438	4517.28
965.741	4487
966.043	4445.42
966.345	4416.27
966.648	4419.88
966.95	4414.46
967.252	4344.41
967.554	4344.18
967.856	4272.32
968.158	4301.02
968.46	4323.62
968.761	4270.96
969.063	4258.98
969.365	4173.79
969.666	4238.42
969.968	4211.75
970.269	4181.47
970.571	4151.64
970.872	4141.47
971.174	4105.32
971.475	4096.95
971.776	4098.08
972.077	4063.06
972.378	4068.48
972.679	4065.09
972.98	4058.99
973.281	4016.5
973.582	4008.82
973.883	3976.05
974.183	3931.99
974.484	3930.18
974.785	3901.03
975.085	3891.31
975.386	3881.14
975.686	3831.88
975.986	3835.27
976.287	3826.45
976.587	3788.71
976.887	3790.3
977.187	3784.42
977.487	3781.48
977.787	3743.97
978.087	3725.21
978.387	3699.45
978.687	3720.92
978.987	3679.11
979.286	3628.94
979.586	3607.25
979.885	3592.79
980.185	3573.58
980.484	3579.45
980.784	3609.06
981.083	3537.65
981.382	3522.73
981.682	3506.91
981.981	3470.08
982.28	3486.57
982.579	3457.65
982.878	3468.95
983.177	3404.09
983.475	3443.86
983.774	3389.4
984.073	3367.71
984.372	3381.04
984.67	3347.82
984.969	3355.73
985.267	3281.83
985.566	3327.03
985.864	3279.12
986.162	3298.33
986.461	3253.81
986.759	3217.43
987.057	3202.51
987.355	3188.73
987.653	3204.32
987.951	3176.3
988.249	3188.73
988.547	3169.07
988.844	3147.6
989.142	3132.23
989.44	3105.34
989.737	3075.06
990.035	3067.83
990.332	3062.18
990.63	3038.45
990.927	3056.76
991.224	3026.93
991.521	2996.87
991.819	2995.97
992.116	2969.53
992.413	2970.66
992.71	2967.94
993.006	2948.28
993.303	2916.42
993.6	2936.53
993.897	2918
994.193	2901.73
994.49	2866.03
994.787	2858.79
995.083	2847.04
995.379	2795.75
995.676	2799.59
995.972	2772.02
996.268	2757.78
996.565	2736.09
996.861	2765.46
997.157	2743.09
997.453	2742.41
997.749	2704.67
998.044	2671.68
998.34	2686.37
998.636	2688.86
998.932	2649.99
999.227	2660.83
999.523	2603.43
999.818	2604.79
1000.114	2585.13
1000.409	2565.02
1000.704	2584.23
1001	2530.22
1001.295	2525.24
1001.59	2566.83
1001.885	2530.89
1002.18	2477.79
1002.475	2491.8
1002.77	2444.34
1003.065	2451.8
1003.359	2464.45
1003.654	2450.9
1003.949	2425.36
1004.243	2393.04
1004.538	2396.43
1004.832	2396.89
1005.127	2356.66
1005.421	2278.92
1005.715	2325.7
1006.009	2350.33
1006.304	2329.09
1006.598	2296.78
1006.892	2248.64
1007.186	2249.77
1007.48	2258.36
1007.773	2249.09
1008.067	2228.08
1008.361	2188.3
1008.655	2194.41
1008.948	2154.18
1009.242	2173.84
1009.535	2136.78
1009.829	2146.72
1010.122	2134.97
1010.415	2112.83
1010.708	2122.54
1011.001	2111.92
1011.295	2096.33
1011.588	2060.85
1011.881	2054.75
1012.173	2024.24
1012.466	2021.75
1012.759	2028.08
1013.052	2030.79
1013.344	1991.02
1013.637	1994.86
1013.93	1964.36
1014.222	1950.34
1014.514	1914.19
1014.807	1952.15
1015.099	1915.09
1015.391	1911.7
1015.683	1878.48
1015.976	1913.06
1016.268	1892.27
1016.56	1863.11
1016.851	1842.32
1017.143	1840.29
1017.435	1810.69
1017.727	1824.02
1018.018	1801.42
1018.31	1783.34
1018.602	1809.56
1018.893	1775.21
1019.185	1775.43
1019.476	1778.82
1019.767	1742.89
1020.058	1700.18
1020.35	1715.32
1020.641	1684.14
1020.932	1692.95
1021.223	1658.83
1021.514	1638.49
1021.804	1658.6
1022.095	1644.36
1022.386	1632.84
1022.677	1605.49
1022.967	1592.39
1023.258	1601.65
1023.548	1599.62
1023.839	1580.18
1024.129	1557.81
1024.419	1571.6
1024.709	1562.78
1025	1557.59
1025.29	1536.34
1025.58	1519.4
1025.87	1489.79
1026.16	1513.97
1026.449	1493.63
1026.739	1462.45
1027.029	1470.36
1027.319	1450.47
1027.608	1467.19
1027.898	1418.38
1028.187	1415.22
1028.477	1414.77
1028.766	1405.95
1029.055	1392.39
1029.344	1378.61
1029.634	1391.71
1029.923	1353.3
1030.212	1376.35
1030.501	1338.83
1030.79	1329.34
1031.078	1346.74
1031.367	1317.37
1031.656	1290.02
1031.945	1303.58
1032.233	1282.79
1032.522	1258.16
1032.81	1279.18
1033.099	1289.8
1033.387	1269.91
1033.675	1238.27
1033.963	1247.76
1034.251	1241.21
1034.54	1242.11
1034.828	1218.16
1035.116	1201.21
1035.403	1199.4
1035.691	1184.71
1035.979	1171.83
1036.267	1184.94
1036.554	1163.02
1036.842	1171.61
1037.129	1135.45
1037.417	1153.75
1037.704	1143.36
1037.992	1122.8
1038.279	1110.37
1038.566	1118.05
1038.853	1118.05
1039.14	1118.05
