Data from whiteboard_FLMS001491_00033.txt Node
Date: Wed Feb 08 11:26:16 GMT 2017
User: dcchb
Spectrometer: FLMS00149
Trigger mode: 0
Integration Time (sec): 2.000000E-2
Scans to average: 10
Electric dark correction enabled: true
Nonlinearity correction enabled: false
Boxcar width: 0
XAxis mode: Wavelengths
Number of Pixels in Spectrum: 2048
>>>>>Begin Spectral Data<<<<<
341.393	-11.98
341.776	-11.98
342.16	-11.98
342.543	-59.43
342.927	-69.38
343.31	-72.99
343.693	-57.17
344.077	-55.82
344.46	-39.77
344.843	-58.98
345.226	-69.38
345.61	-15.37
345.993	-22.6
346.376	-25.08
346.759	14.01
347.142	26.89
347.525	19.21
347.908	75.93
348.291	92.2
348.674	86.78
349.057	102.14
349.44	116.61
349.823	124.74
350.206	177.62
350.588	248.36
350.971	259.65
351.354	264.63
351.737	286.09
352.119	294
352.502	275.02
352.884	303.72
353.267	289.48
353.65	317.51
354.032	333.78
354.414	358.41
354.797	337.84
355.179	345.98
355.562	362.93
355.944	380.33
356.326	355.02
356.709	368.8
357.091	392.31
357.473	378.97
357.855	378.07
358.238	356.37
358.62	391.18
359.002	391.4
359.384	380.55
359.766	387.33
360.148	399.09
360.53	381.23
360.912	388.01
361.294	391.63
361.676	365.87
362.057	374.45
362.439	390.05
362.821	354.79
363.203	382.59
363.584	378.07
363.966	369.93
364.348	380.33
364.729	374.45
365.111	347.34
365.493	374.68
365.874	380.33
366.256	356.6
366.637	379.65
367.019	373.55
367.4	394.11
367.781	394.57
368.163	382.81
368.544	378.97
368.925	381.01
369.306	400.89
369.688	374.23
370.069	384.4
370.45	372.19
370.831	371.52
371.212	397.28
371.593	371.74
371.974	384.62
372.355	373.32
372.736	377.62
373.117	408.8
373.498	395.24
373.879	422.59
374.26	390.72
374.641	402.25
375.021	376.71
375.402	401.12
375.783	411.06
376.163	435.47
376.544	434.34
376.925	432.98
377.305	443.15
377.686	411.51
378.066	431.63
378.447	435.69
378.827	427.11
379.208	438.18
379.588	454.23
379.968	457.62
380.349	470.72
380.729	439.54
381.109	466.2
381.489	454.23
381.87	451.51
382.25	465.52
382.63	485.64
383.01	465.52
383.39	482.7
383.77	477.95
384.15	488.12
384.53	492.42
384.91	491.74
385.29	513.88
385.67	491.96
386.049	494.45
386.429	537.61
386.809	518.4
387.189	514.34
387.568	517.5
387.948	525.86
388.328	539.65
388.707	547.56
389.087	551.4
389.466	557.5
389.846	565.41
390.225	570.38
390.605	543.26
390.984	566.76
391.363	589.59
391.743	609.48
392.122	598.18
392.501	588.69
392.881	599.31
393.26	616.93
393.639	632.07
394.018	637.95
394.397	637.95
394.776	668.46
395.155	670.26
395.534	654.22
395.913	664.39
396.292	686.54
396.671	716.59
397.05	691.06
397.429	723.6
397.808	720.43
398.186	732.64
398.565	723.37
398.944	734.9
399.323	758.62
399.701	773.76
400.08	831.62
400.458	800.43
400.837	804.72
401.215	801.33
401.594	817.61
401.972	851.73
402.351	860.09
402.729	873.2
403.107	873.65
403.486	898.06
403.864	896.93
404.242	901.9
404.62	957.04
404.999	947.55
405.377	965.17
405.755	972.86
406.133	1001.1
406.511	995.91
406.889	1058.05
407.267	1059.18
407.645	1082.46
408.023	1097.82
408.401	1108.9
408.779	1112.74
409.156	1155.68
409.534	1160.87
409.912	1214.21
410.29	1216.92
410.667	1249.01
411.045	1256.24
411.422	1300.3
411.8	1320.42
412.178	1348.21
412.555	1349.12
412.933	1367.2
413.31	1428.44
413.687	1433.86
414.065	1448.78
414.442	1453.52
414.819	1471.83
415.197	1526.74
415.574	1535.78
415.951	1542.56
416.328	1561.31
416.705	1613.29
417.082	1601.09
417.46	1653.06
417.837	1668.88
418.214	1696.68
418.591	1684.02
418.967	1723.57
419.344	1739.39
419.721	1764.02
420.098	1750.24
420.475	1792.5
420.852	1831.59
421.228	1839.95
421.605	1858.93
421.982	1841.76
422.358	1918.14
422.735	1918.59
423.111	1954.07
423.488	1959.72
423.864	2015.09
424.241	2046.95
424.617	2058.25
424.994	2078.14
425.37	2122.88
425.746	2145.25
426.123	2166.95
426.499	2178.93
426.875	2185.71
427.251	2265.48
427.627	2309.54
428.003	2336.44
428.379	2358.58
428.756	2405.36
429.132	2436.09
429.507	2392.25
429.883	2467.96
430.259	2539.59
430.635	2547.05
431.011	2537.56
431.387	2611.91
431.763	2660.04
432.138	2674.73
432.514	2739.36
432.89	2787.95
433.265	2832.02
433.641	2839.93
434.016	2915.63
434.392	2950.88
434.767	2999.47
435.143	3025.01
435.518	3038.79
435.894	3102.97
436.269	3163.76
436.644	3180.71
437.02	3191.55
437.395	3222.51
437.77	3302.51
438.145	3322.85
438.52	3340.7
438.895	3408.72
439.271	3419.35
439.646	3543.18
440.021	3498.89
440.395	3551.09
440.77	3508.83
441.145	3568.04
441.52	3644.42
441.895	3646.46
442.27	3711.54
442.645	3695.5
443.019	3739.34
443.394	3751.99
443.769	3811.88
444.143	3822.05
444.518	3874.02
444.892	3869.05
445.267	3892.1
445.641	3962.16
446.016	3967.81
446.39	4065.43
446.764	4097.52
447.139	4040.8
447.513	4173
447.887	4137.07
448.262	4186.1
448.636	4233.56
449.01	4261.36
449.384	4326.89
449.758	4338.87
450.132	4418.87
450.506	4403.05
450.88	4486.44
451.254	4443.72
451.628	4557.62
452.002	4598.75
452.376	4625.64
452.75	4697.05
453.123	4765.52
453.497	4846.2
453.871	4863.37
454.244	4964.39
454.618	5013.2
454.992	5085.97
455.365	5050.71
455.739	5223.14
456.112	5273.08
456.486	5351.72
456.859	5384.94
457.232	5511.04
457.606	5465.62
457.979	5638.04
458.352	5671.72
458.725	5746.29
459.099	5879.62
459.472	5888.43
459.845	5977.92
460.218	6040.52
460.591	6121.42
460.964	6078.03
461.337	6271.7
461.71	6361.19
462.083	6469.21
462.456	6477.8
462.829	6534.07
463.201	6693.16
463.574	6746.72
463.947	6826.94
464.32	7021.51
464.692	7017.89
465.065	7090.21
465.438	7179.47
465.81	7316.19
466.183	7368.62
466.555	7570.87
466.928	7589.63
467.3	7711.44
467.672	7767.48
468.045	8009.73
468.417	7963.41
468.789	8039.56
469.161	8217.19
469.534	8341.93
469.906	8524.07
470.278	8583.28
470.65	8622.82
471.022	8859.43
471.394	9063.26
471.766	9086.09
472.138	9190.49
472.51	9460.09
472.882	9533.08
473.253	9709.12
473.625	9784.15
473.997	9963.81
474.369	10051.04
474.74	10210.58
475.112	10380.97
475.484	10622.09
475.855	10709.1
476.227	10797
476.598	11226.37
476.97	11290.32
477.341	11565.12
477.713	11759.24
478.084	11787.94
478.455	12168.49
478.827	12234.25
479.198	12675.6
479.569	12648.03
479.94	13060.22
480.311	13196.94
480.682	13519.42
481.053	13802.35
481.424	14033.98
481.795	14140.42
482.166	14427.87
482.537	14601.2
482.908	14946.05
483.279	15066.5
483.65	15396.21
484.021	15668.97
484.391	15913.71
484.762	16043.65
485.133	16213.13
485.503	16442.51
485.874	16770.41
486.244	16906
486.615	17270.28
486.985	17405.42
487.356	17723.6
487.726	17920.66
488.097	18245.4
488.467	18318.61
488.837	18781.65
489.207	18897.81
489.578	19140.06
489.948	19344.35
490.318	19756.54
490.688	19793.6
491.058	20114.73
491.428	20409.18
491.798	20694.82
492.168	20995.15
492.538	21114.93
492.908	21318.31
493.278	21651.18
493.648	21790.84
494.017	22184.05
494.387	22294.78
494.757	22561.21
495.126	22849.34
495.496	22903.13
495.866	23104.25
496.235	23342.66
496.605	23405.49
496.974	23708.08
497.344	23918.02
497.713	24127.28
498.082	24282.53
498.452	24465.12
498.821	24599.35
499.19	24656.98
499.559	24915.28
499.928	25139.9
500.298	25420.12
500.667	25436.17
501.036	25513
501.405	25732.66
501.774	25789.6
502.143	26127.67
502.512	26324.51
502.88	26434.11
503.249	26464.16
503.618	26742.57
503.987	27006.75
504.356	27039.29
504.724	27331.71
505.093	27241.09
505.462	27594.53
505.83	27782.09
506.199	27973.73
506.567	28384.79
506.936	28443.55
507.304	28794.72
507.672	28906.13
508.041	28959.01
508.409	29253.47
508.777	29599.22
509.145	29799.89
509.514	29877.18
509.882	30036.95
510.25	30331.63
510.618	30563.72
510.986	30650.72
511.354	30935.23
511.722	31229.24
512.09	31420.87
512.458	31553.07
512.826	31711.26
513.193	31899.27
513.561	32083.22
513.929	32314.63
514.297	32634.4
514.664	32757.1
515.032	33018.79
515.4	33216.3
515.767	33346.47
516.135	33610.87
516.502	33381.5
516.869	34103.96
517.237	34178.54
517.604	34208.14
517.972	34634.12
518.339	34966.31
518.706	34954.34
519.073	35095.35
519.44	35310.26
519.808	35727.87
520.175	35758.83
520.542	36205.38
520.909	36445.6
521.276	36567.63
521.643	36783.44
522.009	37240.83
522.376	37428.62
522.743	37697.31
523.11	38071.09
523.477	38521.02
523.843	38617.06
524.21	39232.64
524.577	39548.34
524.943	39549.02
525.31	39858.16
525.676	40363.46
526.043	40584.02
526.409	40767.06
526.776	41220.39
527.142	41212.02
527.508	41615.85
527.874	41833.93
528.241	42160.02
528.607	42253.8
528.973	42664.41
529.339	42718.88
529.705	42943.73
530.071	43243.16
530.437	43432.76
530.803	43782.58
531.169	43868.9
531.535	43867.1
531.901	44160.87
532.267	44291.49
532.632	44595.21
532.998	44688.32
533.364	44876.33
533.73	44868.88
534.095	45182.31
534.461	45204.01
534.826	45545.24
535.192	45666.6
535.557	45982.29
535.923	45885.8
536.288	46185.9
536.653	46355.84
537.019	46275.85
537.384	46544.31
537.749	46743.63
538.114	46852.55
538.479	46938.88
538.845	47173.22
539.21	47256.61
539.575	47390.62
539.94	47656.83
540.305	47861.11
540.67	47816.82
541.034	48067.66
541.399	48308.56
541.764	48465.62
542.129	48685.5
542.494	48856.34
542.858	48904.93
543.223	49097.01
543.587	49302.43
543.952	49281.87
544.316	49518.02
544.681	49450
545.045	49780.61
545.41	49810.44
545.774	49959.59
546.138	49985.35
546.503	50172.47
546.867	50101.73
547.231	50412.01
547.595	50500.82
547.959	50591.89
548.324	50428.96
548.688	50602.29
549.052	50691.77
549.416	50708.5
549.779	50835.73
550.143	50920.47
550.507	51101.26
550.871	51144.19
551.235	51116.4
551.599	51378.76
551.962	51382.83
552.326	51523.62
552.689	51640.22
553.053	51554.8
553.417	51700.56
553.78	51996.37
554.143	51959.54
554.507	52072.98
554.87	52144.17
555.234	52447.21
555.597	52308.23
555.96	52514.33
556.323	52628.67
556.686	52789.12
557.05	53018.49
557.413	53138.49
557.776	53192.73
558.139	53356.56
558.502	53460.06
558.865	53538.03
559.228	53864.35
559.59	53952.25
559.953	54027.73
560.316	54387.5
560.679	54402.19
561.041	54580.26
561.404	54760.14
561.767	54931.66
562.129	54978.89
562.492	55253.01
562.854	55182.5
563.217	55199.68
563.579	55375.27
563.941	55592.89
564.304	55621.14
564.666	55839.66
565.028	55799.21
565.39	55950.85
565.753	56117.62
566.115	56170.95
566.477	56367.78
566.839	56351.29
567.201	56467.67
567.563	56517.16
567.925	56710.83
568.287	56661.11
568.648	56725.29
569.01	56832.4
569.372	56911.95
569.734	56885.74
570.095	56987.2
570.457	57070.59
570.819	57078.95
571.18	57161.89
571.542	57285.27
571.903	57329.34
572.265	57319.17
572.626	57408.21
572.987	57447.98
573.349	57491.37
573.71	57614.08
574.071	57644.59
574.432	57788.31
574.794	57957.12
575.155	57858.82
575.516	57936.1
575.877	58007.51
576.238	58021.75
576.599	58157.57
576.96	58254.51
577.32	58170.45
577.681	58368.41
578.042	58409.76
578.403	58409.54
578.763	58523.66
579.124	58576.54
579.485	58703.77
579.845	58801.84
580.206	58742.64
580.566	58767.49
580.927	58799.36
581.287	58970.43
581.648	58872.12
582.008	59067.6
582.368	58985.79
582.728	59087.03
583.089	59053.59
583.449	59096.07
583.809	59185.34
584.169	59212
584.529	59105.56
584.889	59313.24
585.249	59118.22
585.609	59113.02
585.969	59221.49
586.329	59124.1
586.688	59193.47
587.048	59169.74
587.408	59176.07
587.768	59118.45
588.127	59058.79
588.487	59082.51
588.846	59200.7
589.206	58953.7
589.565	59014.04
589.925	59132.91
590.284	59021.5
590.643	59088.62
591.003	59122.29
591.362	59090.65
591.721	59069.18
592.08	59058.79
592.44	59076.19
592.799	59096.07
593.158	59082.29
593.517	59059.24
593.876	59119.58
594.235	59057.66
594.593	59056.3
594.952	59137.43
595.311	59028.73
595.67	59084.32
596.029	59283.41
596.387	59222.62
596.746	59243.41
597.104	59135.62
597.463	59147.37
597.822	59329.29
598.18	59247.48
598.538	59226.69
598.897	59418.55
599.255	59242.06
599.613	59587.36
599.972	59384.65
600.33	59506.01
600.688	59369.74
601.046	59524.54
601.404	59638.66
601.762	59638.43
602.12	59706
602.478	59748.03
602.836	59722.72
603.194	59641.6
603.552	59721.59
603.91	59697.19
604.268	59767.24
604.625	59754.59
604.983	59793
605.341	59698.77
605.698	59856.73
606.056	59899.44
606.413	59898.54
606.771	59991.19
607.128	59974.24
607.485	59881.14
607.843	59944.86
608.2	60036.61
608.557	60083.39
608.914	60005.2
609.272	60111.41
609.629	60089.72
609.986	60190.96
610.343	60139.66
610.7	60210.85
611.057	60154.8
611.414	60087.01
611.771	60140.34
612.127	60224.18
612.484	60207
612.841	60234.57
613.198	60146.67
613.554	60203.84
613.911	60246.1
614.267	60210.17
614.624	60209.94
614.98	60243.39
615.337	60312.99
615.693	60243.84
616.05	60164.07
616.406	60399.77
616.762	60261.01
617.118	60240.22
617.475	60261.24
617.831	60294.23
618.187	60350.05
618.543	60427.11
618.899	60503.49
619.255	60451.74
619.611	60526.54
619.967	60577.84
620.323	60609.48
620.678	60540.33
621.034	60470.27
621.39	60552.76
621.746	60507.34
622.101	60762.24
622.457	60604.51
622.812	60665.3
623.168	60766.31
623.523	60730.83
623.879	60797.05
624.234	60725.41
624.589	60806.31
624.945	60826.42
625.3	60846.76
625.655	60777.61
626.01	60830.26
626.365	60884.5
626.72	60823.49
627.075	60851.96
627.43	60858.74
627.785	60829.14
628.14	60849.25
628.495	60921.79
628.85	60837.04
629.205	60759.98
629.559	60899.87
629.914	60693.77
630.269	60732.41
630.623	60690.83
630.978	60589.82
631.332	60690.38
631.687	60626.65
632.041	60599.54
632.396	60577.62
632.75	60461.01
633.104	60594.56
633.459	60435.02
633.813	60359.54
634.167	60380.33
634.521	60312.09
634.875	60340.79
635.229	60272.54
635.583	60138.53
635.937	60147.8
636.291	60085.65
636.645	60108.7
636.999	59937.41
637.352	60012.89
637.706	59854.47
638.06	59953.45
638.413	59912.55
638.767	59854.02
639.121	59858.54
639.474	59625.78
639.828	59762.5
640.181	59716.85
640.534	59694.7
640.888	59618.55
641.241	59535.61
641.594	59519.34
641.947	59656.06
642.301	59557.08
642.654	59559.11
643.007	59585.33
643.36	59542.16
643.713	59442.28
644.066	59497.64
644.419	59454.93
644.771	59263.98
645.124	59102.4
645.477	59076.41
645.83	58936.76
646.182	58851.56
646.535	58739.92
646.888	58832.58
647.24	58675.97
647.593	58804.33
647.945	58706.7
648.298	58720.72
648.65	58645.69
649.002	58582.19
649.355	58770.66
649.707	58720.49
650.059	58891.56
650.411	59202.29
650.763	59130.2
651.115	59387.59
651.467	59284.32
651.819	59308.95
652.171	59219.91
652.523	59160.48
652.875	59249.52
653.227	59064.66
653.578	59257.88
653.93	59188.27
654.282	59121.16
654.633	58992.8
654.985	59153.7
655.337	59108.95
655.688	59041.16
656.039	59108.73
656.391	58895.4
656.742	58944.44
657.094	58890.2
657.445	58893.37
657.796	58879.36
658.147	58793.71
658.498	58708.96
658.849	58752.35
659.2	58734.73
659.551	58582.41
659.902	58704.67
660.253	58556.43
660.604	58583.32
660.955	58457.22
661.306	58515.52
661.656	58391.23
662.007	58449.31
662.358	58336.55
662.708	58366.37
663.059	58347.62
663.409	58105.36
663.76	58354.17
664.11	58296.77
664.461	58245.02
664.811	58217.23
665.161	58224.01
665.511	58126.16
665.862	58180.62
666.212	58161.41
666.562	58165.02
666.912	58077.57
667.262	58097.68
667.612	58057.68
667.962	57974.07
668.312	57988.76
668.662	58093.84
669.011	57980.4
669.361	57960.28
669.711	58017.46
670.06	57985.59
670.41	57997.35
670.76	57889.33
671.109	58045.93
671.459	57919.61
671.808	57934.3
672.157	58004.58
672.507	57862.66
672.856	57893.84
673.205	57954.41
673.554	58011.81
673.904	57923.45
674.253	58108.53
674.602	57968.87
674.951	57668.31
675.3	57540.18
675.649	57984.24
675.998	57988.76
676.346	58045.71
676.695	58047.06
677.044	57890.23
677.393	57967.52
677.741	58062.2
678.09	57965.26
678.438	57944.24
678.787	57988.53
679.135	57926.39
679.484	57759.39
679.832	57935.65
680.181	57763.68
680.529	57857.91
680.877	57733.4
681.225	57726.62
681.573	57835.77
681.922	57633.51
682.27	57471.26
682.618	57485.95
682.966	57401.88
683.314	57509.67
683.661	57365.05
684.009	57249.57
684.357	57204.15
684.705	57078.5
685.053	57128.22
685.4	57073.75
685.748	56975.9
686.095	56996.47
686.443	56852.97
686.79	56743.59
687.138	56737.72
687.485	56697.94
687.832	56577.27
688.18	56570.04
688.527	56358.29
688.874	56419.08
689.221	56252.76
689.568	56244.17
689.915	56163.72
690.262	56172.76
690.609	55980.45
690.956	55802.15
691.303	55777.52
691.65	55695.03
691.997	55634.92
692.344	55468.6
692.69	55451.65
693.037	55380.24
693.383	55194.71
693.73	55325.55
694.077	55048.95
694.423	54978.67
694.769	54957.65
695.116	54857.54
695.462	54778.45
695.808	54781.16
696.155	54698.67
696.501	54556.53
696.847	54449.87
697.193	54348.85
697.539	54532.13
697.885	54351.79
698.231	54125.58
698.577	54168.75
698.923	54087.62
699.269	54035.19
699.614	53928.75
699.96	53960.16
700.306	53955.19
700.651	53735.08
700.997	53732.6
701.342	53679.27
701.688	53672.49
702.033	53519.27
702.379	53536.45
702.724	53392.04
703.069	53507.97
703.415	53179.17
703.76	53230.24
704.105	53305.94
704.45	53214.19
704.795	53031.6
705.14	53050.58
705.485	53075.89
705.83	52936.69
706.175	52993.18
706.52	52850.14
706.865	52822.34
707.209	52773.98
707.554	52734.21
707.899	52814.2
708.243	52553.19
708.588	52405.85
708.932	52385.52
709.277	52268
709.621	52309.81
709.966	52153.88
710.31	52287.44
710.654	52009.25
710.998	52037.5
711.342	51986.2
711.687	51853.78
712.031	51642.94
712.375	51701.69
712.719	51707.34
713.063	51574.01
713.407	51586.67
713.75	51408.59
714.094	51480.68
714.438	51178.09
714.782	51191.2
715.125	51087.47
715.469	51146
715.812	50847.02
716.156	50663.53
716.499	50701.94
716.843	50765.9
717.186	50514.38
717.53	50602.96
717.873	50527.71
718.216	50447.71
718.559	50293.37
718.902	49944.45
719.246	50029.19
719.589	50029.19
719.932	49760.95
720.275	49804.11
720.617	49664.23
720.96	49470.34
721.303	49519.38
721.646	49457.68
721.989	49159.61
722.331	49433.95
722.674	49099.5
723.016	49158.26
723.359	48968.2
723.701	49093.62
724.044	48775.67
724.386	48593.98
724.729	48748.77
725.071	48357.37
725.413	48533.64
725.755	48353.98
726.097	48248.9
726.439	48093.2
726.782	48078.06
727.124	48242.8
727.465	47940.21
727.807	47873.32
728.149	47756.03
728.491	47593.55
728.833	47808.23
729.175	47579.54
729.516	47514.68
729.858	47306.55
730.199	47566.66
730.541	47317.4
730.882	47252.09
731.224	47377.96
731.565	47129.61
731.906	47131.19
732.248	47111.76
732.589	47147.23
732.93	46895.94
733.271	46974.58
733.612	47032.66
733.953	46990.85
734.294	46843.51
734.635	46766.68
734.976	46920.8
735.317	46590.19
735.658	46683.29
735.999	46691.43
736.339	46524.2
736.68	46647.36
737.021	46480.13
737.361	46384.09
737.702	46489.63
738.042	46463.41
738.383	46249.18
738.723	46437.65
739.063	46206.24
739.404	46392
739.744	46204.21
740.084	46139.13
740.424	46150.65
740.764	46179.12
741.104	46218.9
741.444	46055.96
741.784	45749.53
742.124	46003.76
742.464	45909.53
742.804	45761.51
743.143	45776.42
743.483	45673.83
743.823	45514.51
744.162	45518.8
744.502	45487.62
744.841	45374.85
745.181	45563.32
745.52	45319.26
745.86	45261.18
746.199	45164.24
746.538	45127.18
746.877	45310.22
747.216	45107.97
747.556	45079.04
747.895	45063.9
748.234	44836.79
748.573	44813.74
748.911	44630.69
749.25	44662.33
749.589	44380.98
749.928	44376.46
750.267	44482.45
750.605	44280.19
750.944	44135.34
751.283	43947.32
751.621	44004.49
751.96	43681.34
752.298	43708.46
752.636	43707.78
752.975	43518.4
753.313	43423.94
753.651	43524.51
753.989	43296.71
754.327	43130.17
754.666	42832.32
755.004	42902.37
755.342	42844.75
755.679	42699.22
756.017	42336.74
756.355	42562.5
756.693	42427.58
757.031	42321.6
757.368	42149.85
757.706	41801.61
758.044	41858.56
758.381	41808.17
758.719	41597.32
759.056	41505.58
759.394	41403.21
759.731	41210.67
760.068	41060.62
760.405	40992.37
760.743	40862.65
761.08	40971.13
761.417	40555.77
761.754	40457.02
762.091	40457.24
762.428	40217.7
762.765	40059.96
763.102	40119.17
763.438	39934.77
763.775	39818.61
764.112	39713.08
764.449	39675.79
764.785	39482.13
765.122	39230.38
765.458	39198.97
765.795	39081.23
766.131	38965.98
766.467	38750.39
766.804	38839.43
767.14	38403.51
767.476	38381.82
767.812	38299.33
768.148	38432.66
768.485	38107.25
768.821	38014.59
769.157	38027.47
769.492	37914.71
769.828	37879.46
770.164	37580.93
770.5	37529.18
770.836	37482.63
771.171	37327.15
771.507	37176.88
771.842	37005.35
772.178	37007.84
772.513	36967.84
772.849	36855.75
773.184	36676.78
773.519	36612.14
773.855	36542.77
774.19	36389.78
774.525	36141.87
774.86	36294.19
775.195	36169.67
775.53	35943.01
775.865	35798.38
776.2	35444.27
776.535	35410.14
776.87	35473.64
777.205	35196.14
777.539	35007.67
777.874	35112.52
778.209	34846.77
778.543	34826.2
778.878	34669.82
779.212	34607.23
779.547	34385.54
779.881	34420.34
780.215	34198.65
780.55	34305.99
780.884	34140.8
781.218	33984.64
781.552	33855.16
781.886	33675.05
782.22	33477.76
782.554	33454.26
782.888	33129.75
783.222	33027.61
783.556	33001.84
783.889	32795.3
784.223	32628.29
784.557	32522.31
784.89	32562.76
785.224	32439.6
785.557	32202.77
785.891	32201.64
786.224	32155.54
786.558	32112.38
786.891	31695.66
787.224	31631.48
787.557	31557.36
787.891	31571.83
788.224	31397.59
788.557	31289.12
788.89	31170.71
789.223	31147.66
789.556	30911.73
789.888	30874.89
790.221	30741.34
790.554	30442.82
790.887	30504.73
791.219	30251.63
791.552	30272.2
791.884	30170.28
792.217	29888.03
792.549	29975.71
792.882	29720.57
793.214	29572.33
793.546	29599.22
793.879	29410.53
794.211	29180.7
794.543	29345.22
794.875	29172.34
795.207	29258.67
795.539	28991.78
795.871	28960.59
796.203	28716.08
796.535	28615.52
796.867	28514.73
797.198	28284.45
797.53	28355.19
797.862	28099.6
798.193	28210.56
798.525	27979.83
798.856	27997.46
799.188	27750
799.519	27643.57
799.85	27514.08
800.182	27568.77
800.513	27568.54
800.844	27326.97
801.175	27491.03
801.506	27354.31
801.837	27136.69
802.168	27067.54
802.499	27093.98
802.83	27045.39
803.161	26928.56
803.491	26830.03
803.822	27003.58
804.153	26779.86
804.483	26546.42
804.814	26368.8
805.145	26502.35
805.475	26397.05
805.805	26256.03
806.136	26427.1
806.466	26249.48
806.796	26117.51
807.126	25893.1
807.457	25962.93
807.787	25923.61
808.117	25885.65
808.447	25748.7
808.777	25860.34
809.107	25646.11
809.436	25706.67
809.766	25684.52
810.096	25567.01
810.426	25360.69
810.755	25399.33
811.085	25478.65
811.414	25245.21
811.744	25151.88
812.073	25130.19
812.403	25143.97
812.732	24952.11
813.061	25032.11
813.39	24863.98
813.719	24804.32
814.049	24801.16
814.378	24783.53
814.707	24576.75
815.036	24593.48
815.365	24558
815.693	24292.47
816.022	24358
816.351	24173.6
816.68	24065.58
817.008	24198.01
817.337	23989.65
817.665	23971.8
817.994	24113.94
818.322	23924.34
818.651	23950.1
818.979	23734.52
819.307	23838.24
819.636	23689.55
819.964	23554.41
820.292	23637.12
820.62	23577.69
820.948	23434.64
821.276	23606.84
821.604	23509.66
821.932	23556.89
822.259	23549.21
822.587	23435.99
822.915	23448.2
823.243	23463.11
823.57	23442.55
823.898	23378.14
824.225	23392.15
824.553	23327.07
824.88	23340.4
825.207	23531.36
825.535	23356.22
825.862	23469.89
826.189	23238.71
826.516	23396.9
826.843	23394.64
827.17	23347.18
827.497	23362.78
827.824	23328.2
828.151	23356.9
828.478	23178.37
828.805	23280.29
829.131	23150.13
829.458	23139.28
829.785	23026.97
830.111	23143.35
830.438	23267.64
830.764	23042.11
831.09	23198.71
831.417	22974.54
831.743	23009.11
832.069	23077.81
832.395	22880.08
832.722	22925.95
833.048	22951.71
833.374	22831.94
833.7	22723.7
834.026	22861.32
834.351	22807.76
834.677	22699.06
835.003	22835.78
835.329	22759.63
835.654	22748.55
835.98	22600.76
836.306	22626.75
836.631	22591.95
836.956	22653.87
837.282	22675.34
837.607	22497.26
837.932	22438.28
838.258	22407.55
838.583	22365.51
838.908	22300.66
839.233	22227.66
839.558	22226.99
839.883	22211.62
840.208	22147.89
840.533	22106.99
840.858	22083.94
841.182	22224.27
841.507	22062.7
841.832	21965.98
842.156	21980.89
842.481	21905.86
842.805	21912.64
843.13	21859.09
843.454	21814.79
843.778	21745.42
844.103	21765.3
844.427	21742.71
844.751	21656.83
845.075	21586.55
845.399	21559.21
845.723	21403.73
846.047	21476.5
846.371	21326.22
846.695	21236.96
847.019	21144.98
847.343	21071.08
847.666	20990.63
847.99	21043.51
848.313	20843.52
848.637	20815.05
848.96	20797.87
849.284	20791.32
849.607	20552.91
849.931	20514.04
850.254	20328.96
850.577	20218.68
850.9	20024.11
851.223	20128.28
851.546	20046.03
851.869	19885.8
852.192	20185.23
852.515	19884.45
852.838	19782.3
853.161	19862.53
853.483	19647.84
853.806	19630.9
854.129	19614.85
854.451	19485.14
854.774	19349.77
855.096	19351.81
855.419	19307.97
855.741	19287.18
856.063	19183.22
856.385	19121.76
856.708	19112.94
857.03	19064.58
857.352	19059.16
857.674	18899.39
857.996	18801.99
858.318	18738.72
858.64	18816.91
858.961	18750.02
859.283	18686.29
859.605	18519.29
859.926	18677.7
860.248	18463.02
860.57	18464.6
860.891	18496.01
861.212	18460.31
861.534	18327.88
861.855	18368.56
862.176	18354.09
862.498	18313.42
862.819	18346.18
863.14	18269.58
863.461	18282.23
863.782	18176.25
864.103	18111.16
864.424	17996.36
864.745	18075.91
865.065	17990.26
865.386	17982.13
865.707	17968.79
866.027	17958.62
866.348	17901.68
866.668	17883.37
866.989	17784.62
867.309	17726.31
867.63	17738.52
867.95	17797.72
868.27	17606.99
868.59	17682.7
868.91	17634.11
869.23	17621.91
869.55	17506.21
869.87	17515.92
870.19	17472.76
870.51	17441.12
870.83	17525.19
871.15	17303.05
871.469	17336.04
871.789	17438.41
872.109	17331.07
872.428	17175.14
872.748	17272.09
873.067	17234.58
873.386	17275.7
873.706	17188.47
874.025	17093.56
874.344	17088.14
874.663	17093.34
874.982	17038.87
875.301	16988.25
875.62	16867.35
875.939	16777.64
876.258	16813.34
876.577	16777.86
876.896	16693.35
877.214	16663.74
877.533	16666
877.852	16715.49
878.17	16649.05
878.489	16670.75
878.807	16504.65
879.125	16458.55
879.444	16549.4
879.762	16429.62
880.08	16471.43
880.398	16395.05
880.716	16331.1
881.034	16321.6
881.352	16282.74
881.67	16218.78
881.988	16276.86
882.306	16248.39
882.624	16103.31
882.941	16047.26
883.259	15963.65
883.577	16000.26
883.894	16018.11
884.212	15913.03
884.529	15851.33
884.846	15933.37
885.164	15799.81
885.481	15774.5
885.798	15754.16
886.115	15650.21
886.432	15681.4
886.75	15625.13
887.067	15623.54
887.383	15559.82
887.7	15693.37
888.017	15542.64
888.334	15618.12
888.651	15475.75
888.967	15472.81
889.284	15348.07
889.6	15201.86
889.917	15200.28
890.233	15197.57
890.55	15160.96
890.866	15199.15
891.182	15023.11
891.498	15040.96
891.815	15020.17
892.131	14980.85
892.447	14921.42
892.763	14796
893.079	14766.84
893.395	14740.18
893.71	14772.49
894.026	14748.76
894.342	14723.45
894.657	14569.33
894.973	14544.02
895.289	14544.48
895.604	14546.06
895.92	14429.45
896.235	14312.39
896.55	14403.92
896.865	14319.85
897.181	14264.26
897.496	14200.3
897.811	14198.95
898.126	14129.12
898.441	14033.98
898.756	14034.21
899.071	13956.24
899.386	13955.34
899.7	13820.88
900.015	13826.53
900.33	13737.27
900.644	13711.05
900.959	13744.95
901.273	13540.66
901.588	13586.54
901.902	13554.67
902.216	13457.05
902.531	13483.49
902.845	13373.66
903.159	13314
903.473	13249.37
903.787	13270.16
904.101	13236.71
904.415	13149.03
904.729	13109.71
905.042	13027.23
905.356	12980.68
905.67	12954.24
905.984	13005.31
906.297	12879.89
906.611	12835.14
906.924	12943.61
907.237	12840.34
907.551	12732.55
907.864	12643.28
908.177	12668.37
908.491	12585.43
908.804	12624.07
909.117	12489.84
909.43	12443.29
909.743	12338.66
910.056	12329.62
910.368	12331.2
910.681	12240.36
910.994	12131.88
911.307	12135.95
911.619	12049.63
911.932	12096.86
912.244	11977.99
912.557	11952.45
912.869	11909.74
913.181	11843.98
913.494	11860.93
913.806	11780.93
914.118	11795.85
914.43	11678.56
914.742	11628.17
915.054	11572.58
915.366	11532.35
915.678	11528.74
915.99	11490.55
916.302	11382.75
916.613	11413.94
916.925	11371.9
917.236	11291.68
917.548	11199.71
917.859	11271.57
918.171	11187.73
918.482	11132.59
918.794	10985.47
919.105	11004.46
919.416	10900.73
919.727	10906.15
920.038	10928.98
920.349	10836.78
920.66	10779.6
920.971	10737.34
921.282	10610.79
921.593	10600.63
921.903	10519.27
922.214	10544.81
922.525	10475.88
922.835	10491.02
923.146	10422.55
923.456	10271.59
923.767	10257.36
924.077	10273.63
924.387	10169.9
924.697	10148.66
925.008	10187.98
925.318	10092.39
925.628	10046.52
925.938	9997.48
926.248	9897.82
926.558	9868.67
926.867	9852.17
927.177	9805.39
927.487	9802
927.796	9678.16
928.106	9726.98
928.416	9658.28
928.725	9625.96
929.034	9476.59
929.344	9554.33
929.653	9533.76
929.962	9417.61
930.271	9393.43
930.581	9402.46
930.89	9318.63
931.199	9258.74
931.508	9231.85
931.817	9180.78
932.125	9144.62
932.434	9096.94
932.743	9088.12
933.051	9039.76
933.36	8977.84
933.669	8943.04
933.977	8845.87
934.286	8877.05
934.594	8814.91
934.902	8799.32
935.21	8688.36
935.519	8739.66
935.827	8746.21
936.135	8700.56
936.443	8538.31
936.751	8603.16
937.059	8621.92
937.367	8474.35
937.674	8495.82
937.982	8413.11
938.29	8392.55
938.597	8359.33
938.905	8286.34
939.213	8327.46
939.52	8272.55
939.827	8288.37
940.135	8218.09
940.442	8114.81
940.749	8163.63
941.056	8108.94
941.363	8017.42
941.67	8001.37
941.977	7973.58
942.284	7975.38
942.591	7939.68
942.898	7866.69
943.205	7863.3
943.511	7768.38
943.818	7813.35
944.125	7688.39
944.431	7689.74
944.738	7627.6
945.044	7559.35
945.35	7562.06
945.657	7481.84
945.963	7525
946.269	7428.73
946.575	7417.66
946.881	7357.32
947.187	7366.36
947.493	7265.12
947.799	7280.71
948.105	7241.39
948.41	7154.39
948.716	7207.49
949.022	7171.56
949.327	7096.31
949.633	7019.02
949.938	7021.51
950.244	7050.89
950.549	6953.26
950.854	6942.87
951.16	6886.37
951.465	6922.08
951.77	6861.29
952.075	6796.21
952.38	6812.02
952.685	6815.87
952.99	6739.94
953.294	6718.69
953.599	6696.55
953.904	6627.85
954.209	6567.06
954.513	6586.49
954.818	6515.99
955.122	6506.72
955.426	6437.12
955.731	6427.4
956.035	6422.43
956.339	6339.49
956.643	6336.78
956.948	6289.1
957.252	6282.32
957.556	6265.82
957.86	6264.02
958.163	6219.27
958.467	6177.46
958.771	6233.06
959.075	6164.81
959.378	6129.56
959.682	6097.01
959.985	6070.35
960.289	5994.64
960.592	5998.71
960.896	6007.07
961.199	5930.69
961.502	5945.61
961.805	5857.02
962.108	5843.01
962.411	5847.76
962.714	5856.12
963.017	5828.32
963.32	5805.5
963.623	5710.81
963.926	5752.17
964.228	5679.17
964.531	5673.07
964.833	5637.37
965.136	5656.35
965.438	5603.47
965.741	5543.81
966.043	5508.33
966.345	5535.9
966.648	5553.07
966.95	5553.3
967.252	5437.15
967.554	5439.63
967.856	5455.68
968.158	5358.05
968.46	5364.6
968.761	5363.7
969.063	5357.15
969.365	5226.3
969.666	5256.36
969.968	5237.38
970.269	5180.43
970.571	5217.49
970.872	5177.72
971.174	5187.66
971.475	5181.56
971.776	5078.28
972.077	5059.53
972.378	5107.44
972.679	5002.35
972.98	5030.38
973.281	4992.86
973.582	4979.76
973.883	4937.72
974.183	4915.35
974.484	4942.47
974.785	4885.52
975.085	4885.07
975.386	4867.22
975.686	4826.31
975.986	4757.62
976.287	4779.08
976.587	4714.23
976.887	4693.66
977.187	4691.63
977.487	4737.28
977.787	4721.91
978.087	4640.33
978.387	4603.04
978.687	4603.72
978.987	4570.05
979.286	4530.28
979.586	4536.83
979.885	4502.93
980.185	4516.27
980.484	4493.22
980.784	4442.82
981.083	4449.15
981.382	4393.56
981.682	4355.37
981.981	4392.2
982.28	4325.08
982.579	4343.16
982.878	4339.55
983.177	4297.97
983.475	4285.99
983.774	4237.63
984.073	4217.52
984.372	4206.9
984.67	4224.52
984.969	4189.95
985.267	4162.15
985.566	4141.81
985.864	4085.09
986.162	4140.23
986.461	4058.65
986.759	4073.34
987.057	4039.22
987.355	4023.62
987.653	4017.97
987.951	4006.22
988.249	3966.9
988.547	3968.48
988.844	3948.37
989.142	3921.48
989.44	3940.69
989.737	3896.62
990.035	3848.03
990.332	3847.58
990.63	3855.04
990.927	3789.05
991.224	3803.97
991.521	3807.13
991.819	3797.19
992.116	3735.27
992.413	3751.09
992.71	3766.23
993.006	3707.7
993.303	3700.02
993.6	3696.17
993.897	3668.15
994.193	3688.49
994.49	3654.37
994.787	3593.58
995.083	3571.43
995.379	3619.57
995.676	3605.33
995.972	3563.3
996.268	3567.82
996.565	3540.25
996.861	3468.61
997.157	3469.97
997.453	3479.23
997.749	3461.15
998.044	3447.82
998.34	3407.59
998.636	3388.16
998.932	3333.02
999.227	3356.75
999.523	3303.64
999.818	3287.37
1000.114	3297.77
1000.409	3293.02
1000.704	3284.89
1001	3260.03
1001.295	3203.76
1001.59	3201.95
1001.885	3192.91
1002.18	3168.96
1002.475	3173.02
1002.77	3136.64
1003.065	3154.95
1003.359	3118.56
1003.654	3138
1003.949	3083.08
1004.243	3055.74
1004.538	3031.11
1004.832	3030.43
1005.127	3017.77
1005.421	2992.69
1005.715	2969.41
1006.009	2943.88
1006.304	2945.23
1006.598	2889.42
1006.892	2859.59
1007.186	2867.27
1007.48	2867.27
1007.773	2827.5
1008.067	2817.55
1008.361	2801.28
1008.655	2772.58
1008.948	2791.11
1009.242	2728.06
1009.535	2731
1009.829	2706.82
1010.122	2712.92
1010.415	2678.57
1010.708	2666.82
1011.001	2626.37
1011.295	2630.44
1011.588	2611.68
1011.881	2600.84
1012.173	2603.1
1012.466	2557.22
1012.759	2525.36
1013.052	2562.42
1013.344	2503.44
1013.637	2519.26
1013.93	2486.94
1014.222	2447.17
1014.514	2443.1
1014.807	2430.44
1015.099	2414.85
1015.391	2410.78
1015.683	2380.73
1015.976	2391.12
1016.268	2352.93
1016.56	2327.17
1016.851	2354.97
1017.143	2279.71
1017.435	2286.95
1017.727	2270.67
1018.018	2287.17
1018.31	2259.38
1018.602	2237.23
1018.893	2237.68
1019.185	2234.29
1019.476	2185.93
1019.767	2215.31
1020.058	2176.21
1020.35	2120.85
1020.641	2098.02
1020.932	2067.29
1021.223	2077.01
1021.514	2081.75
1021.804	2045.14
1022.095	2074.3
1022.386	2039.27
1022.677	2044.47
1022.967	2042.88
1023.258	2000.17
1023.548	1997.01
1023.839	1976.67
1024.129	1940.29
1024.419	1940.74
1024.709	1907.97
1025	1905.71
1025.29	1880.63
1025.58	1854.87
1025.87	1877.46
1026.16	1881.08
1026.449	1857.13
1026.739	1811.7
1027.029	1827.3
1027.319	1818.94
1027.608	1797.69
1027.898	1755.66
1028.187	1776.9
1028.477	1753.4
1028.766	1739.39
1029.055	1734.64
1029.344	1742.78
1029.634	1719.28
1029.923	1692.84
1030.212	1683.57
1030.501	1676.34
1030.79	1625.72
1031.078	1648.09
1031.367	1593.18
1031.656	1606.06
1031.945	1597.7
1032.233	1612.16
1032.522	1562.67
1032.81	1561.31
1033.099	1554.31
1033.387	1545.95
1033.675	1517.7
1033.963	1517.47
1034.251	1540.3
1034.54	1501.2
1034.828	1514.31
1035.116	1461.43
1035.403	1474.31
1035.691	1459.85
1035.979	1482.45
1036.267	1437.7
1036.554	1425.27
1036.842	1420.75
1037.129	1419.17
1037.417	1373.98
1037.704	1399.51
1037.992	1371.26
1038.279	1377.59
1038.566	1380.98
1038.853	1380.98
1039.14	1380.98
