Data from White_reflection_standard_FLMS001491_065.txt Node
Date: Tue Feb 07 10:32:08 GMT 2017
User: dcchb
Spectrometer: FLMS00149
Trigger mode: 0
Integration Time (sec): 2.000000E-2
Scans to average: 10
Electric dark correction enabled: true
Nonlinearity correction enabled: false
Boxcar width: 0
XAxis mode: Wavelengths
Number of Pixels in Spectrum: 2048
>>>>>Begin Spectral Data<<<<<
341.393	-0.9
341.776	-0.9
342.16	-0.9
342.543	-73.67
342.927	-57.17
343.31	-66.89
343.693	-75.03
344.077	-66.21
344.46	-60.11
344.843	-49.94
345.226	-54.24
345.61	-27.57
345.993	-9.27
346.376	-13.78
346.759	0.23
347.142	27.12
347.525	50.39
347.908	51.98
348.291	98.08
348.674	102.37
349.057	92.88
349.44	134.46
349.823	135.14
350.206	210.16
350.588	231.41
350.971	233.67
351.354	261.91
351.737	280.44
352.119	305.08
352.502	316.83
352.884	300.56
353.267	315.25
353.65	312.08
354.032	346.66
354.414	348.01
354.797	353.21
355.179	368.13
355.562	370.84
355.944	395.92
356.326	362.7
356.709	404.96
357.091	385.53
357.473	393.89
357.855	411.97
358.238	398.86
358.62	392.98
359.002	431.4
359.384	411.29
359.766	399.31
360.148	409.71
360.53	394.11
360.912	392.08
361.294	432.76
361.676	404.74
362.057	420.55
362.439	374.68
362.821	398.86
363.203	375.58
363.584	405.19
363.966	386.66
364.348	406.99
364.729	398.18
365.111	407.9
365.493	401.8
365.874	414.9
366.256	404.28
366.637	430.5
367.019	402.7
367.4	412.19
367.781	411.06
368.163	427.11
368.544	401.8
368.925	437.05
369.306	437.95
369.688	427.56
370.069	432.76
370.45	448.35
370.831	430.95
371.212	443.38
371.593	426.43
371.974	444.96
372.355	429.37
372.736	440.89
373.117	459.87
373.498	436.6
373.879	439.54
374.26	432.08
374.641	426.2
375.021	443.15
375.402	446.54
375.783	467.56
376.163	507.56
376.544	513.43
376.925	498.52
377.305	493.32
377.686	472.76
378.066	456.03
378.447	490.61
378.827	505.3
379.208	523.15
379.588	510.04
379.968	530.83
380.349	529.25
380.729	506.65
381.109	528.8
381.489	544.17
381.87	556.82
382.25	536.94
382.63	560.66
383.01	551.4
383.39	551.4
383.77	564.05
384.15	573.77
384.53	577.39
384.91	574.45
385.29	586.88
385.67	583.71
386.049	598.4
386.429	610.61
386.809	614.67
387.189	626.42
387.568	592.3
387.948	610.61
388.328	665.97
388.707	659.19
389.087	658.29
389.466	668.68
389.846	686.08
390.225	671.17
390.605	694.22
390.984	670.94
391.363	702.81
391.743	695.12
392.122	734.22
392.501	733.31
392.881	731.96
393.26	743.03
393.639	737.61
394.018	752.07
394.397	767.44
394.776	762.69
395.155	788.91
395.534	793.65
395.913	805.63
396.292	823.03
396.671	829.13
397.05	829.36
397.429	825.06
397.808	838.4
398.186	831.39
398.565	846.31
398.944	849.47
399.323	862.58
399.701	902.58
400.08	900.32
400.458	913.42
400.837	924.04
401.215	922.69
401.594	937.15
401.972	929.47
402.351	960.65
402.729	985.74
403.107	974.21
403.486	989.58
403.864	1005.62
404.242	998.84
404.62	1037.94
404.999	1040.65
405.377	1039.75
405.755	1011.72
406.133	1071.38
406.511	1044.72
406.889	1066.64
407.267	1102.57
407.645	1140.31
408.023	1128.78
408.401	1153.64
408.779	1167.2
409.156	1187.09
409.534	1191.61
409.912	1227.76
410.29	1231.61
410.667	1247.42
411.045	1262.57
411.422	1283.13
411.8	1297.14
412.178	1308.44
412.555	1291.49
412.933	1364.94
413.31	1383.24
413.687	1373.75
414.065	1390.25
414.442	1428.21
414.819	1430.02
415.197	1456.01
415.574	1450.36
415.951	1479.06
416.328	1493.52
416.705	1496.46
417.082	1537.36
417.46	1540.75
417.837	1577.81
418.214	1566.06
418.591	1635.44
418.967	1606.51
419.344	1625.27
419.721	1672.27
420.098	1676.79
420.475	1694.19
420.852	1696.9
421.228	1730.58
421.605	1739.39
421.982	1768.09
422.358	1760.86
422.735	1814.42
423.111	1797.69
423.488	1791.37
423.864	1847.18
424.241	1879.5
424.617	1887.41
424.994	1931.7
425.37	1925.83
425.746	1973.06
426.123	2006.27
426.499	1978.48
426.875	1985.26
427.251	2078.36
427.627	2108.87
428.003	2127.63
428.379	2145.71
428.756	2190.9
429.132	2160.62
429.507	2248.08
429.883	2246.27
430.259	2260.96
430.635	2317.68
431.011	2351.12
431.387	2417.79
431.763	2471.57
432.138	2499.14
432.514	2497.56
432.89	2499.6
433.265	2576.66
433.641	2602.19
434.016	2593.6
434.392	2695.52
434.767	2742.3
435.143	2736.65
435.518	2736.88
435.894	2791.57
436.269	2837.89
436.644	2850.55
437.02	2889.64
437.395	2919.7
437.77	2975.51
438.145	3010.77
438.52	3037.66
438.895	3086.02
439.271	3078.79
439.646	3152.46
440.021	3138.22
440.395	3174.83
440.77	3154.95
441.145	3187.71
441.52	3241.72
441.895	3234.94
442.27	3302.96
442.645	3265.45
443.019	3393.36
443.394	3384.09
443.769	3375.05
444.143	3379.8
444.518	3487.37
444.892	3458.21
445.267	3503.18
445.641	3519.91
446.016	3539.57
446.39	3588.61
446.764	3624.31
447.139	3612.33
447.513	3680.58
447.887	3659.56
448.262	3713.57
448.636	3747.92
449.01	3796.74
449.384	3807.13
449.758	3820.46
450.132	3907.69
450.506	3939.78
450.88	3928.71
451.254	3924.19
451.628	3970.74
452.002	4080.57
452.376	4059.55
452.75	4177.29
453.123	4168.93
453.497	4239.44
453.871	4258.87
454.244	4355.59
454.618	4402.6
454.992	4377.74
455.365	4494.35
455.739	4557.85
456.112	4657.05
456.486	4666.09
456.859	4690.95
457.232	4854.34
457.606	4767.33
457.979	4852.53
458.352	4998.06
458.725	4979.98
459.099	5064.5
459.472	5172.07
459.845	5244.83
460.218	5233.31
460.591	5290.48
460.964	5349.01
461.337	5507.43
461.71	5556.01
462.083	5597.82
462.456	5690.25
462.829	5640.08
463.201	5809.11
463.574	5836.23
463.947	5923.69
464.32	6050.46
464.692	6064.47
465.065	6147.41
465.438	6221.98
465.81	6279.16
466.183	6310.57
466.555	6534.97
466.928	6532.03
467.3	6581.97
467.672	6665.59
468.045	6828.75
468.417	6887.73
468.789	6939.03
469.161	7067.16
469.534	7099.25
469.906	7352.35
470.278	7364.55
470.65	7425.57
471.022	7667.6
471.394	7782.17
471.766	7839.79
472.138	7942.62
472.51	8077.08
472.882	8255.15
473.253	8302.61
473.625	8431.19
473.997	8650.17
474.369	8727.91
474.74	8744.4
475.112	8963.15
475.484	9111.4
475.855	9205.18
476.227	9306.2
476.598	9587.77
476.97	9698.28
477.341	9914.54
477.713	10016.01
478.084	10079.51
478.455	10407.41
478.827	10501.87
479.198	10844.23
479.569	10738.7
479.94	11114.96
480.311	11229.31
480.682	11512.24
481.053	11724.44
481.424	11876.52
481.795	12071.32
482.166	12235.16
482.537	12408.71
482.908	12749.5
483.279	12836.95
483.65	13038.53
484.021	13245.08
484.391	13301.8
484.762	13603.71
485.133	13746.08
485.503	13948.56
485.874	14180.19
486.244	14300.41
486.615	14589.67
486.985	14791.48
487.356	15040.06
487.726	15181.07
488.097	15473.72
488.467	15454.06
488.837	15887.27
489.207	16061.27
489.578	16307.82
489.948	16480.92
490.318	16628.26
490.688	16822.83
491.058	17037.07
491.428	17274.8
491.798	17435.25
492.168	17865.97
492.538	17851.51
492.908	18023.25
493.278	18280.42
493.648	18361.1
494.017	18677.7
494.387	18813.74
494.757	18920.86
495.126	19148.65
495.496	19200.17
495.866	19286.95
496.235	19536.44
496.605	19830.44
496.974	19812.13
497.344	20138.23
497.713	20166.7
498.082	20340.03
498.452	20641.04
498.821	20691.66
499.19	20735.5
499.559	21033.8
499.928	21087.36
500.298	21255.49
500.667	21505.42
501.036	21527.57
501.405	21735.93
501.774	21719.43
502.143	22037.84
502.512	22155.35
502.88	22222.92
503.249	22360.09
503.618	22587.88
503.987	22652.51
504.356	22782.68
504.724	22888.21
505.093	23189.45
505.462	23192.38
505.83	23363.91
506.199	23641.86
506.567	23936.77
506.936	23891.58
507.304	24255.63
507.672	24266.03
508.041	24371.56
508.409	24592.12
508.777	24797.31
509.145	25005.44
509.514	24963.41
509.882	25323.85
510.25	25421.25
510.618	25562.27
510.986	25668.48
511.354	25978.53
511.722	26151.63
512.09	26387.78
512.458	26416.48
512.826	26827.54
513.193	26800.65
513.561	26922
513.929	27171.04
514.297	27322.22
514.664	27502.1
515.032	27725.6
515.4	27896.22
515.767	28098.92
516.135	28275.41
516.502	28136.44
516.869	28763.31
517.237	28847.83
517.604	28808.06
517.972	29275.16
518.339	29397.19
518.706	29468.15
519.073	29664.08
519.44	29809.84
519.808	30225.19
520.175	30277.85
520.542	30680.32
520.909	30779.53
521.276	30885.29
521.643	31296.13
522.009	31516.01
522.376	31631.71
522.743	31900.86
523.11	32287.96
523.477	32515.3
523.843	32566.15
524.21	33078.68
524.577	33266.24
524.943	33399.35
525.31	33665.78
525.676	33898.77
526.043	34013.79
526.409	34275.03
526.776	34698.97
527.142	34765.41
527.508	35092.86
527.874	35210.37
528.241	35503.25
528.607	35599.52
528.973	35972.61
529.339	35875.21
529.705	36284.47
530.071	36696.21
530.437	36803.33
530.803	36966.26
531.169	37298
531.535	37222.98
531.901	37425
532.267	37572.57
532.632	37894.37
532.998	37983.41
533.364	38289.16
533.73	38287.58
534.095	38630.17
534.461	38686.89
534.826	38926.66
535.192	39092.31
535.557	39400.77
535.923	39342.92
536.288	39496.14
536.653	39835.34
537.019	39699.97
537.384	39984.94
537.749	40181.32
538.114	40176.12
538.479	40346.28
538.845	40532.04
539.21	40618.37
539.575	40730.91
539.94	40861.75
540.305	41112.82
540.67	40991.69
541.034	41348.74
541.399	41533.15
541.764	41520.26
542.129	41758
542.494	41950.54
542.858	42149.4
543.223	42009.52
543.587	42364.76
543.952	42261.04
544.316	42499
544.681	42513.01
545.045	42635.26
545.41	42841.13
545.774	43047.68
546.138	43109.6
546.503	43259.65
546.867	43227.34
547.231	43652.41
547.595	43637.27
547.959	43815.12
548.324	43930.14
548.688	44041.33
549.052	44284.26
549.416	44218.5
549.779	44451.03
550.143	44548.66
550.507	44836.56
550.871	45018.93
551.235	44878.14
551.599	45354.97
551.962	45377.79
552.326	45474.51
552.689	45757.89
553.053	45708.63
553.417	45995.17
553.78	46221.61
554.143	46112.91
554.507	46385.22
554.87	46456.86
555.234	46842.61
555.597	46658.89
555.96	46829.73
556.323	47066.11
556.686	47146.33
557.05	47434.23
557.413	47577.51
557.776	47623.83
558.139	47949.47
558.502	47991.73
558.865	48236.7
559.228	48463.36
559.59	48495
559.953	48584.94
560.316	48968.88
560.679	48950.8
561.041	49230.8
561.404	49352.37
561.767	49701.29
562.129	49491.35
562.492	49949.42
562.854	49895.41
563.217	49936.09
563.579	50190.09
563.941	50390.99
564.304	50557.09
564.666	50673.24
565.028	50774.94
565.39	50891.54
565.753	51159.56
566.115	51254.7
566.477	51428.48
566.839	51456.73
567.201	51672.31
567.563	51779.66
567.925	51936.49
568.287	52015.58
568.648	51965.41
569.01	52287.89
569.372	52506.42
569.734	52430.49
570.095	52618.5
570.457	52745.73
570.819	52885.62
571.18	52889
571.542	52982.34
571.903	52963.35
572.265	53151.6
572.626	53238.37
572.987	53279.73
573.349	53441.31
573.71	53444.47
574.071	53579.83
574.432	53609.44
574.794	53770.11
575.155	53852.14
575.516	53782.99
575.877	54008.3
576.238	53891.69
576.599	54119.71
576.96	54158.8
577.32	54125.58
577.681	54249.87
578.042	54339.14
578.403	54201.74
578.763	54335.75
579.124	54362.19
579.485	54561.5
579.845	54601.95
580.206	54428.4
580.566	54494.61
580.927	54631.33
581.287	54694.16
581.648	54554.05
582.008	54708.62
582.368	54682.86
582.728	54716.53
583.089	54643.31
583.449	54673.82
583.809	54773.7
584.169	54774.38
584.529	54739.35
584.889	54947.71
585.249	54786.13
585.609	54753.36
585.969	54865.9
586.329	54669.07
586.688	54829.29
587.048	54798.56
587.408	54789.52
587.768	54775.51
588.127	54788.84
588.487	54754.27
588.846	54923.75
589.206	54723.08
589.565	54748.62
589.925	54923.3
590.284	54832
590.643	54793.81
591.003	54909.97
591.362	54995.16
591.721	54961.94
592.08	54945.9
592.44	54961.27
592.799	54984.32
593.158	54963.98
593.517	54982.51
593.876	55043.98
594.235	54909.74
594.593	54883.53
594.952	55080.13
595.311	54986.35
595.67	55086.01
596.029	55230.86
596.387	55108.16
596.746	55254.59
597.104	55080.81
597.463	55074.94
597.822	55243.29
598.18	55148.38
598.538	55103.64
598.897	55276.96
599.255	55083.3
599.613	55431.76
599.972	55253.46
600.33	55282.16
600.688	55229.51
601.046	55363.06
601.404	55398.32
601.762	55302.95
602.12	55555.15
602.478	55504.98
602.836	55437.64
603.194	55377.75
603.552	55514.02
603.91	55404.87
604.268	55540.46
604.625	55484.64
604.983	55589.95
605.341	55454.14
605.698	55575.49
606.056	55622.72
606.413	55664.75
606.771	55777.29
607.128	55707.46
607.485	55631.98
607.843	55608.48
608.2	55787.91
608.557	55914.24
608.914	55801.24
609.272	55936.16
609.629	55959.88
609.986	56029.71
610.343	55882.82
610.7	56095.25
611.057	56058.41
611.414	56032.43
611.771	56124.85
612.127	56142.7
612.484	56142.7
612.841	56147
613.198	56142.25
613.554	56173.89
613.911	56263.15
614.267	56343.38
614.624	56207.56
614.98	56280.78
615.337	56422.7
615.693	56309.71
616.05	56323.49
616.406	56454.33
616.762	56405.97
617.118	56367.33
617.475	56388.12
617.831	56454.33
618.187	56467.22
618.543	56502.7
618.899	56651.39
619.255	56574.78
619.611	56506.31
619.967	56626.53
620.323	56688.23
620.678	56606.87
621.034	56487.1
621.39	56493.88
621.746	56474
622.101	56762.35
622.457	56550.6
622.812	56620.88
623.168	56632.41
623.523	56601.9
623.879	56667.21
624.234	56562.58
624.589	56644.39
624.945	56615.01
625.3	56645.06
625.655	56639.87
626.01	56597.38
626.365	56683.03
626.72	56602.81
627.075	56625.4
627.43	56557.61
627.785	56507.89
628.14	56632.18
628.495	56626.99
628.85	56569.59
629.205	56448.23
629.559	56635.8
629.914	56485.29
630.269	56469.7
630.623	56396.71
630.978	56382.02
631.332	56440.78
631.687	56499.08
632.041	56393.77
632.396	56449.14
632.75	56315.58
633.104	56306.99
633.459	56211.4
633.813	56196.94
634.167	56137.73
634.521	56126.43
634.875	56218.18
635.229	56090.5
635.583	55997.62
635.937	55988.58
636.291	55964.4
636.645	55981.13
636.999	55911.75
637.352	56019.54
637.706	55850.96
638.06	55911.98
638.413	55824.97
638.767	55717.18
639.121	55808.25
639.474	55613.23
639.828	55613.45
640.181	55661.59
640.534	55669.04
640.888	55523.96
641.241	55425.89
641.594	55577.07
641.947	55525.55
642.301	55506.79
642.654	55420.92
643.007	55437.86
643.36	55315.16
643.713	55316.51
644.066	55366.23
644.419	55229.51
644.771	54981.61
645.124	54666.59
645.477	54696.87
645.83	54526.7
646.182	54334.16
646.535	54356.54
646.888	54382.07
647.24	54163.32
647.593	54372.58
647.945	54287.61
648.298	54186.82
648.65	54055.53
649.002	54025.47
649.355	54004.68
649.707	54025.92
650.059	54130.1
650.411	54504.1
650.763	54487.15
651.115	54785.45
651.467	54651.22
651.819	54622.07
652.171	54517.21
652.523	54541.39
652.875	54463.65
653.227	54391.11
653.578	54598.56
653.93	54396.54
654.282	54262.53
654.633	54240.38
654.985	54291.91
655.337	54218.91
655.688	54304.56
656.039	54303.66
656.391	54077
656.742	54173.04
657.094	54141.85
657.445	54234.73
657.796	54128.52
658.147	54021.63
658.498	54049.43
658.849	54070.44
659.2	54032.7
659.551	53987.96
659.902	54089.65
660.253	53973.27
660.604	54036.77
660.955	53819.15
661.306	53969.43
661.656	53947.28
662.007	53866.83
662.358	53892.14
662.708	53925.59
663.059	53893.05
663.409	53682.66
663.76	53854.4
664.11	53758.59
664.461	53807.4
664.811	53780.28
665.161	53790.22
665.511	53684.69
665.862	53689.44
666.212	53765.37
666.562	53767.4
666.912	53650.34
667.262	53758.59
667.612	53629.1
667.962	53629.1
668.312	53528.08
668.662	53723.56
669.011	53552.26
669.361	53510.91
669.711	53548.65
670.06	53444.92
670.41	53500.97
670.76	53338.26
671.109	53517.01
671.459	53406.73
671.808	53330.35
672.157	53393.4
672.507	53282.21
672.856	53149.34
673.205	53247.19
673.554	53352.72
673.904	53212.16
674.253	53301.2
674.602	53192.05
674.951	52771.95
675.3	52580.31
675.649	53104.59
675.998	52970.36
676.346	53119.96
676.695	53184.59
677.044	52897.59
677.393	53094.65
677.741	52961.09
678.09	52930.13
678.438	52892.39
678.787	52920.42
679.135	52867.99
679.484	52688.11
679.832	52795.67
680.181	52564.72
680.529	52629.8
680.877	52518.17
681.225	52582.57
681.573	52699.18
681.922	52450.82
682.27	52454.44
682.618	52310.94
682.966	52201.11
683.314	52299.42
683.661	52275.69
684.009	52104.39
684.357	51988.69
684.705	51968.8
685.053	52006.32
685.4	51916.15
685.748	51757.28
686.095	51807.68
686.443	51632.54
686.79	51628.25
687.138	51636.16
687.485	51627.12
687.832	51436.39
688.18	51399.78
688.527	51305.77
688.874	51336.28
689.221	51110.75
689.568	51086.11
689.915	50976.96
690.262	50882.73
690.609	50911.43
690.956	50795.05
691.303	50719.12
691.65	50560.48
691.997	50534.04
692.344	50362.97
692.69	50307.83
693.037	50294.5
693.383	50009.98
693.73	50148.96
694.077	49874.17
694.423	49894.96
694.769	49798.69
695.116	49726.15
695.462	49698.35
695.808	49451.81
696.155	49441.86
696.501	49202.1
696.847	49247.29
697.193	48891.82
697.539	49149.89
697.885	48750.58
698.231	48801.65
698.577	48726.18
698.923	48687.53
699.269	48446.86
699.614	48239.86
699.96	48201.22
700.306	48166.87
700.651	48003.71
700.997	47918.29
701.342	47910.83
701.688	47809.82
702.033	47685.3
702.379	47665.64
702.724	47546.09
703.069	47561.69
703.415	47148.36
703.76	47135.94
704.105	47092.1
704.45	46938.2
704.795	46827.24
705.14	46727.13
705.485	46627.02
705.83	46479.91
706.175	46480.81
706.52	46382.74
706.865	46185
707.209	46155.17
707.554	45970.32
707.899	46062.29
708.243	45830.89
708.588	45846.48
708.932	45572.36
709.277	45434.29
709.621	45534.85
709.966	45193.61
710.31	45384.8
710.654	44977.57
710.998	44977.12
711.342	45077.01
711.687	44829.1
712.031	44798.37
712.375	44499.17
712.719	44796.34
713.063	44625.49
713.407	44622.33
713.75	44332.39
714.094	44413.97
714.438	44185.28
714.782	44243.13
715.125	43997.71
715.469	44051.5
715.812	43883.37
716.156	43632.75
716.499	43660.77
716.843	43699.42
717.186	43453.55
717.53	43548.23
717.873	43588.23
718.216	43390.5
718.559	43234.57
718.902	42974.24
719.246	43078.42
719.589	42965.42
719.932	42823.96
720.275	42796.84
720.617	42749.38
720.96	42631.87
721.303	42640.46
721.646	42695.37
721.989	42312.56
722.331	42457.87
722.674	42365.44
723.016	42318.44
723.359	42204.54
723.701	42259.91
724.044	41949.41
724.386	41821.27
724.729	42022.62
725.071	41894.49
725.413	41844.78
725.755	41722.52
726.097	41600.26
726.439	41453.6
726.782	41373.15
727.124	41520.94
727.465	41336.99
727.807	41174.96
728.149	41077.79
728.491	40982.88
728.833	41178.58
729.175	40997.11
729.516	40834.86
729.858	40920.96
730.199	40886.16
730.541	40822.88
730.882	40787.4
731.224	40761.64
731.565	40432.61
731.906	40622.21
732.248	40481.2
732.589	40287.08
732.93	40190.13
733.271	40266.96
733.612	40324.36
733.953	40246.85
734.294	39970.02
734.635	40010.47
734.976	40062.68
735.317	39746.07
735.658	39776.81
735.999	39723.02
736.339	39535.68
736.68	39695.91
737.021	39574.78
737.361	39332.3
737.702	39504.27
738.042	39310.38
738.383	39205.07
738.723	39305.86
739.063	39048.69
739.404	39214.56
739.744	39061.8
740.084	39024.06
740.424	38921.01
740.764	38778.19
741.104	38930.73
741.444	38796.04
741.784	38723.95
742.124	38694.35
742.464	38568.7
742.804	38515.82
743.143	38416.17
743.483	38438.99
743.823	38295.72
744.162	38113.35
744.502	38245.32
744.841	38147.7
745.181	38246.68
745.52	38049.62
745.86	38031.32
746.199	37912.22
746.538	37881.49
746.877	37927.14
747.216	37957.42
747.556	37747.48
747.895	37612.34
748.234	37573.93
748.573	37474.04
748.911	37491.67
749.25	37452.12
749.589	37279.02
749.928	37247.38
750.267	37241.73
750.605	37215.07
750.944	37095.97
751.283	36897.56
751.621	37031.79
751.96	36658.25
752.298	36710.67
752.636	36645.36
752.975	36435.65
753.313	36183.68
753.651	36478.59
753.989	36256.22
754.327	36341.87
754.666	36009
755.004	35940.52
755.342	35993.86
755.679	35875.44
756.017	35712.51
756.355	35758.16
756.693	35628.67
757.031	35687.42
757.368	35429.35
757.706	35468.22
758.044	35146.87
758.381	35281.33
758.719	35121.11
759.056	35033.43
759.394	34903.26
759.731	34674.12
760.068	34733.1
760.405	34622.59
760.743	34414.91
761.08	34480.45
761.417	34288.36
761.754	34188.48
762.091	34145.99
762.428	34049.05
762.765	33869.84
763.102	33872.78
763.438	33636.86
763.775	33605.22
764.112	33592.79
764.449	33562.73
764.785	33339.46
765.122	33231.67
765.458	33114.61
765.795	33013.14
766.131	32948.29
766.467	32842.98
766.804	32681.4
767.14	32499.48
767.476	32581.06
767.812	32359.83
768.148	32386.72
768.485	32020.85
768.821	31974.98
769.157	31960.74
769.492	31970.23
769.828	31884.13
770.164	31575.21
770.5	31416.8
770.836	31516.91
771.171	31222.91
771.507	31257.26
771.842	30986.3
772.178	31029.69
772.513	30809.13
772.849	30781.34
773.184	30575.47
773.519	30712.41
773.855	30494.11
774.19	30329.15
774.525	30175.48
774.86	30260.67
775.195	30062.71
775.53	29877.86
775.865	29786.56
776.2	29640.58
776.535	29444.88
776.87	29417.53
777.205	29363.75
777.539	29187.93
777.874	29229.74
778.209	28957.66
778.543	28897.55
778.878	28743.2
779.212	28719.7
779.547	28589.76
779.881	28596.54
780.215	28397.67
780.55	28482.87
780.884	28222.53
781.218	28216.89
781.552	28133.95
781.886	27964.91
782.22	27772.15
782.554	27773.06
782.888	27490.12
783.222	27485.83
783.556	27285.16
783.889	27242.67
784.223	27010.14
784.557	26991.61
784.89	27128.1
785.224	26877.71
785.557	26757.04
785.891	26685.17
786.224	26632.75
786.558	26578.96
786.891	26290.83
787.224	26236.82
787.557	26164.96
787.891	26137.84
788.224	26080.44
788.557	26044.96
788.89	26047.22
789.223	25767.01
789.556	25623.73
789.888	25632.09
790.221	25461.7
790.554	25294.48
790.887	25371.31
791.219	25191.43
791.552	25059.45
791.884	24956.86
792.217	24969.51
792.549	24873.92
792.882	24663.76
793.214	24677.77
793.546	24644.32
793.879	24469.41
794.211	24334.95
794.543	24419.24
794.875	24261.51
795.207	24304.67
795.539	24139.48
795.871	24146.94
796.203	23935.87
796.535	23886.6
796.867	23828.53
797.198	23703.56
797.53	23834.18
797.862	23549.89
798.193	23540.17
798.525	23345.83
798.856	23330.01
799.188	23160.97
799.519	23007.76
799.85	23029.22
800.182	23164.81
800.513	23006.63
800.844	22827.87
801.175	22941.77
801.506	22852.96
801.837	22673.3
802.168	22698.61
802.499	22543.59
802.83	22482.12
803.161	22428.56
803.491	22364.16
803.822	22327.77
804.153	22220.66
804.483	22055.47
804.814	22011.62
805.145	21959.42
805.475	21888.92
805.805	21891.18
806.136	21874
806.466	21864.28
806.796	21773.44
807.126	21602.37
807.457	21520.56
807.787	21556.72
808.117	21400.79
808.447	21365.09
808.777	21304.3
809.107	21197.63
809.436	21242.38
809.766	21262.94
810.096	21135.72
810.426	20947.92
810.755	21079.22
811.085	20886
811.414	20933.69
811.744	20761.49
812.073	20619.8
812.403	20623.19
812.732	20533.02
813.061	20650.08
813.39	20446.02
813.719	20320.14
814.049	20528.05
814.378	20413.47
814.707	20270.88
815.036	20222.07
815.365	20170.32
815.693	19911.79
816.022	19978.46
816.351	19878.57
816.68	19804
817.008	19881.74
817.337	19731.01
817.665	19719.48
817.994	19719.03
818.322	19707.73
818.651	19582.54
818.979	19481.52
819.307	19560.16
819.636	19516.32
819.964	19328.53
820.292	19506.83
820.62	19465.7
820.948	19320.62
821.276	19378.47
821.604	19398.36
821.932	19372.6
822.259	19405.14
822.587	19368.08
822.915	19308.19
823.243	19435.42
823.57	19231.36
823.898	19333.05
824.225	19202.21
824.553	19294.18
824.88	19290.34
825.207	19295.76
825.535	19332.15
825.862	19302.09
826.189	19153.62
826.516	19227.74
826.843	19295.54
827.17	19322.66
827.497	19236.56
827.824	19279.95
828.151	19278.82
828.478	19297.12
828.805	19263.67
829.131	19130.34
829.458	19100.06
829.785	19034.08
830.111	19166.28
830.438	19251.92
830.764	19228.65
831.09	19179.16
831.417	19144.36
831.743	19179.61
832.069	19160.4
832.395	19072.04
832.722	19137.58
833.048	19034.53
833.374	19118.82
833.7	18983.91
834.026	19025.71
834.351	18978.94
834.677	19052.38
835.003	18963.34
835.329	18988.88
835.654	18973.51
835.98	18833.86
836.306	18891.03
836.631	18799.05
836.956	18781.43
837.282	18805.61
837.607	18662.56
837.932	18710.24
838.258	18689
838.583	18635.89
838.908	18591.38
839.233	18592.73
839.558	18511.15
839.883	18583.01
840.208	18501.89
840.533	18420.53
840.858	18382.79
841.182	18378.95
841.507	18413.75
841.832	18263.25
842.156	18334.43
842.481	18296.02
842.805	18260.99
843.13	18124.5
843.454	18180.54
843.778	18038.4
844.103	18002.24
844.427	17837.72
844.751	17906.87
845.075	17816.25
845.399	17770.83
845.723	17734.22
846.047	17737.39
846.371	17612.64
846.695	17564.28
847.019	17442.48
847.343	17407
847.666	17301.01
847.99	17151.19
848.313	17180.11
848.637	17084.3
848.96	17029.38
849.284	16972.44
849.607	16883.4
849.931	16857.41
850.254	16714.36
850.577	16674.14
850.9	16498.32
851.223	16502.84
851.546	16433.24
851.869	16329.51
852.192	16467.59
852.515	16261.27
852.838	16237.77
853.161	16120.03
853.483	16065.57
853.806	15981.05
854.129	16024.66
854.451	15905.12
854.774	15917.55
855.096	15761.17
855.419	15754.61
855.741	15692.02
856.063	15747.16
856.385	15674.84
856.708	15577.67
857.03	15504
857.352	15451.35
857.674	15406.6
857.996	15392.82
858.318	15292.25
858.64	15244.8
858.961	15246.83
859.283	15308.07
859.605	15111.24
859.926	15183.33
860.248	15015.2
860.57	15064.46
860.891	15098.81
861.212	14940.62
861.534	14940.62
861.855	14890.23
862.176	14921.64
862.498	14859.72
862.819	14772.94
863.14	14850.23
863.461	14677.35
863.782	14651.82
864.103	14733.17
864.424	14680.52
864.745	14686.39
865.065	14577.7
865.386	14520.75
865.707	14592.16
866.027	14498.15
866.348	14541.99
866.668	14492.05
866.989	14431.03
867.309	14331.83
867.63	14396.23
867.95	14417.25
868.27	14325.95
868.59	14191.27
868.91	14239.85
869.23	14231.49
869.55	14170.47
869.87	14254.31
870.19	14185.39
870.51	14087.99
870.83	14207.99
871.15	14038.95
871.469	14033.08
871.789	14097.48
872.109	14123.02
872.428	13976.81
872.748	14042.34
873.067	13987.88
873.386	13971.61
873.706	14036.02
874.025	13865.62
874.344	13853.2
874.663	13897.04
874.982	13873.31
875.301	13850.48
875.62	13774.78
875.939	13695.69
876.258	13732.52
876.577	13696.82
876.896	13667.89
877.214	13624.5
877.533	13642.81
877.852	13688
878.17	13643.48
878.489	13585.86
878.807	13615.24
879.125	13562.13
879.444	13527.1
879.762	13537.72
880.08	13502.47
880.398	13388.8
880.716	13423.38
881.034	13262.7
881.352	13383.6
881.67	13222.93
881.988	13325.3
882.306	13221.35
882.624	13235.13
882.941	13162.59
883.259	13182.93
883.577	13105.87
883.894	13081.92
884.212	13055.48
884.529	13077.4
884.846	13032.2
885.164	12970.51
885.481	12917.63
885.798	12987.68
886.115	12868.36
886.432	12847.57
886.75	12841.02
887.067	12843.05
887.383	12773.45
887.7	12756.73
888.017	12690.06
888.334	12639.44
888.651	12665.66
888.967	12580.23
889.284	12546.11
889.6	12499.56
889.917	12381.6
890.233	12421.82
890.55	12434.02
890.866	12415.27
891.182	12364.87
891.498	12299.34
891.815	12265.44
892.131	12189.06
892.447	12212.33
892.763	12128.27
893.079	12096.86
893.395	12045.33
893.71	12048.72
894.026	12013.7
894.342	11897.09
894.657	11875.62
894.973	11927.6
895.289	11872.91
895.604	11889.18
895.92	11765.57
896.235	11712.91
896.55	11678.11
896.865	11696.64
897.181	11614.61
897.496	11585.68
897.811	11543.88
898.126	11514.27
898.441	11450.55
898.756	11419.13
899.071	11277.9
899.386	11338.68
899.7	11241.96
900.015	11186.15
900.33	11078.35
900.644	11191.12
900.959	11152.7
901.273	11064.57
901.588	10971.91
901.902	10992.48
902.216	10964.01
902.531	10951.58
902.845	10949.09
903.159	10904.57
903.473	10783.9
903.787	10762.88
904.101	10700.51
904.415	10670.23
904.729	10648.76
905.042	10539.38
905.356	10572.83
905.67	10520.4
905.984	10570.12
906.297	10452.83
906.611	10467.07
906.924	10368.09
907.237	10356.79
907.551	10286.06
907.864	10229.79
908.177	10178.94
908.491	10213.52
908.804	10070.02
909.117	10038.83
909.43	10006.97
909.743	10003.35
910.056	9950.7
910.368	9950.92
910.681	9891.27
910.994	9829.12
911.307	9754.55
911.619	9723.36
911.932	9764.04
912.244	9646.07
912.557	9657.6
912.869	9585.28
913.181	9590.03
913.494	9528.79
913.806	9414.44
914.118	9425.06
914.43	9357.27
914.742	9313.2
915.054	9289.93
915.366	9298.51
915.678	9254.22
915.99	9163.15
916.302	9150.49
916.613	9139.42
916.925	9130.16
917.236	9035.24
917.548	8972.87
917.859	9054.68
918.171	8838.41
918.482	8914.79
918.794	8900.56
919.105	8897.85
919.416	8755.25
919.727	8757.96
920.038	8713.9
920.349	8646.55
920.66	8601.36
920.971	8584.63
921.282	8519.32
921.593	8458.08
921.903	8481.58
922.214	8428.7
922.525	8461.47
922.835	8328.14
923.146	8330.85
923.456	8273.23
923.767	8246.11
924.077	8185.55
924.387	8218.31
924.697	8154.36
925.008	8121.14
925.318	8124.31
925.628	8073.46
925.938	7992.78
926.248	7904.88
926.558	7988.26
926.867	7979
927.177	7887.93
927.487	7804.31
927.796	7785.11
928.106	7820.13
928.416	7757.08
928.725	7707.82
929.034	7667.37
929.344	7652.91
929.653	7616.75
929.962	7621.27
930.271	7475.74
930.581	7541.27
930.89	7456.3
931.199	7410.65
931.508	7361.61
931.817	7352.8
932.125	7329.52
932.434	7283.42
932.743	7230.09
933.051	7223.54
933.36	7197.32
933.669	7142.19
933.977	7116.88
934.286	7143.77
934.594	7076.42
934.902	6981.51
935.21	7012.92
935.519	6930.89
935.827	6917.78
936.135	6913.04
936.443	6863.32
936.751	6811.57
937.059	6892.47
937.367	6790.78
937.674	6755.53
937.982	6781.74
938.29	6649.99
938.597	6685.93
938.905	6619.71
939.213	6604.12
939.52	6565.93
939.827	6576.32
940.135	6540.17
940.442	6520.28
940.749	6487.96
941.056	6450.68
941.363	6344.01
941.67	6381.53
941.977	6346.27
942.284	6229.89
942.591	6277.8
942.898	6239.38
943.205	6268.99
943.511	6173.4
943.818	6180.4
944.125	6151.02
944.431	6149.89
944.738	6074.42
945.044	6057.92
945.35	6065.38
945.657	6023.12
945.963	6034.42
946.269	5961.2
946.575	5950.13
946.881	5911.48
947.187	5888.66
947.493	5858.15
947.799	5823.58
948.105	5775.67
948.41	5765.5
948.716	5803.69
949.022	5759.17
949.327	5789.9
949.633	5665.16
949.938	5665.61
950.244	5599.85
950.549	5572.06
950.854	5617.03
951.16	5594.43
951.465	5544.94
951.77	5467.43
952.075	5478.73
952.38	5461.33
952.685	5449.8
952.99	5378.16
953.294	5368.67
953.599	5320.99
953.904	5356.02
954.209	5254.33
954.513	5287.32
954.818	5272.18
955.122	5250.48
955.426	5241.44
955.731	5243.48
956.035	5174.1
956.339	5164.38
956.643	5176.36
956.948	5130.03
957.252	5083.71
957.556	5061.79
957.86	5031.28
958.163	4986.99
958.467	5001.45
958.771	4970.26
959.075	4951.28
959.378	4875.8
959.682	4899.53
959.985	4880.78
960.289	4873.09
960.592	4873.54
960.896	4801.23
961.199	4798.74
961.502	4755.81
961.805	4724.62
962.108	4707.9
962.411	4731.4
962.714	4648.92
963.017	4674
963.32	4616.6
963.623	4602.14
963.926	4550.61
964.228	4572.31
964.531	4541.12
964.833	4526.43
965.136	4501.35
965.438	4505.19
965.741	4510.16
966.043	4447.79
966.345	4463.84
966.648	4415.7
966.95	4422.48
967.252	4399.21
967.554	4380
967.856	4316.04
968.158	4257.74
968.46	4327.8
968.761	4254.35
969.063	4280.11
969.365	4276.72
969.666	4191.53
969.968	4215.48
970.269	4135.26
970.571	4152.21
970.872	4146.33
971.174	4149.95
971.475	4146.11
971.776	4098.42
972.077	4069.27
972.378	4051.87
972.679	3995.15
972.98	3989.27
973.281	3994.92
973.582	3964.19
973.883	3961.93
974.183	3949.73
974.484	3902.04
974.785	3896.39
975.085	3897.98
975.386	3907.47
975.686	3867.69
975.986	3819.11
976.287	3814.14
976.587	3780.24
976.887	3818.2
977.187	3753.57
977.487	3760.35
977.787	3752.44
978.087	3727.59
978.387	3646.01
978.687	3690.07
978.987	3707.7
979.286	3634.03
979.586	3669.96
979.885	3580.47
980.185	3589.74
980.484	3567.59
980.784	3559.23
981.083	3521.49
981.382	3537.99
981.682	3537.76
981.981	3516.74
982.28	3477.65
982.579	3466.8
982.878	3464.99
983.177	3443.3
983.475	3400.59
983.774	3376.18
984.073	3373.02
984.372	3363.75
984.67	3347.48
984.969	3365.34
985.267	3319.69
985.566	3315.17
985.864	3290.53
986.162	3295.51
986.461	3296.86
986.759	3264.55
987.057	3198.79
987.355	3233.36
987.653	3176.41
987.951	3209.63
988.249	3192.01
988.547	3154.49
988.844	3132.35
989.142	3159.69
989.44	3110.2
989.737	3136.64
990.035	3066.81
990.332	3076.3
990.63	3052.35
990.927	3008.96
991.224	3012.12
991.521	3033.59
991.819	3025.23
992.116	2979.13
992.413	2982.29
992.71	2943.43
993.006	2915.4
993.303	2928.06
993.6	2921.05
993.897	2883.31
994.193	2903.43
994.49	2880.38
994.787	2843.54
995.083	2800.6
995.379	2813.94
995.676	2815.52
995.972	2777.33
996.268	2754.5
996.565	2778.91
996.861	2709.08
997.157	2734.62
997.453	2705.47
997.749	2703.66
998.044	2709.76
998.34	2670.66
998.636	2669.76
998.932	2638.8
999.227	2670.66
999.523	2610.55
999.818	2633.6
1000.114	2608.07
1000.409	2578.01
1000.704	2563.32
1001	2528.3
1001.295	2538.24
1001.59	2510.89
1001.885	2507.5
1002.18	2521.52
1002.475	2497.79
1002.77	2488.3
1003.065	2415.3
1003.359	2426.15
1003.654	2422.99
1003.949	2424.57
1004.243	2404
1004.538	2372.37
1004.832	2336.66
1005.127	2308.64
1005.421	2348.86
1005.715	2360.62
1006.009	2309.54
1006.304	2287.62
1006.598	2299.83
1006.892	2274.29
1007.186	2273.16
1007.48	2300.28
1007.773	2244.46
1008.067	2228.19
1008.361	2206.5
1008.655	2206.95
1008.948	2201.07
1009.242	2175.08
1009.535	2152.71
1009.829	2139.38
1010.122	2135.76
1010.415	2115.88
1010.708	2080.4
1011.001	2082.66
1011.295	2065.26
1011.588	2074.97
1011.881	2054.18
1012.173	2018.48
1012.466	2048.31
1012.759	2014.64
1013.052	2013.28
1013.344	2004.02
1013.637	1979.61
1013.93	1963.34
1014.222	1966.5
1014.514	1912.94
1014.807	1914.75
1015.099	1929.44
1015.391	1902.77
1015.683	1905.26
1015.976	1874.3
1016.268	1910.68
1016.56	1875.66
1016.851	1856.9
1017.143	1878.14
1017.435	1799.95
1017.727	1796.11
1018.018	1794.3
1018.31	1784.81
1018.602	1782.78
1018.893	1754.98
1019.185	1767.41
1019.476	1744.81
1019.767	1763.57
1020.058	1719.5
1020.35	1711.37
1020.641	1699.39
1020.932	1697.36
1021.223	1691.93
1021.514	1666.4
1021.804	1615.55
1022.095	1634.76
1022.386	1619.84
1022.677	1625.04
1022.967	1616.45
1023.258	1586.17
1023.548	1545.27
1023.839	1553.63
1024.129	1557.7
1024.419	1543.69
1024.709	1545.95
1025	1555.89
1025.29	1506.85
1025.58	1542.78
1025.87	1513.18
1026.16	1483.8
1026.449	1468.89
1026.739	1456.23
1027.029	1434.99
1027.319	1442.22
1027.608	1446.29
1027.898	1407.87
1028.187	1434.09
1028.477	1413.07
1028.766	1405.61
1029.055	1416.91
1029.344	1382.79
1029.634	1369.23
1029.923	1363.35
1030.212	1339.63
1030.501	1359.06
1030.79	1308.67
1031.078	1352.73
1031.367	1326.07
1031.656	1308.21
1031.945	1286.75
1032.233	1296.46
1032.522	1254.2
1032.81	1292.4
1033.099	1265.96
1033.387	1245.17
1033.675	1233.87
1033.963	1244.26
1034.251	1220.31
1034.54	1211.72
1034.828	1210.14
1035.116	1218.95
1035.403	1196.8
1035.691	1170.14
1035.979	1182.57
1036.267	1174.88
1036.554	1176.69
1036.842	1161.78
1037.129	1160.2
1037.417	1158.84
1037.704	1120.42
1037.992	1118.16
1038.279	1103.25
1038.566	1092.63
1038.853	1092.63
1039.14	1092.63
