Data from White_reflection_standard_FLMS001491_048.txt Node
Date: Tue Feb 07 10:32:04 GMT 2017
User: dcchb
Spectrometer: FLMS00149
Trigger mode: 0
Integration Time (sec): 2.000000E-2
Scans to average: 10
Electric dark correction enabled: true
Nonlinearity correction enabled: false
Boxcar width: 0
XAxis mode: Wavelengths
Number of Pixels in Spectrum: 2048
>>>>>Begin Spectral Data<<<<<
341.393	7.51
341.776	7.51
342.16	7.51
342.543	-54.41
342.927	-65.93
343.31	-71.13
343.693	-76.33
344.077	-71.13
344.46	-51.92
344.843	-59.15
345.226	-30.45
345.61	-36.55
345.993	-26.38
346.376	-11.02
346.759	12.71
347.142	29.66
347.525	54.07
347.908	53.16
348.291	92.26
348.674	97.91
349.057	94.29
349.44	128.19
349.823	152.14
350.206	181.75
350.588	244.57
350.971	235.53
351.354	271.24
351.737	284.79
352.119	303.1
352.502	318.01
352.884	301.29
353.267	327.73
353.65	318.69
354.032	346.26
354.414	357.79
354.797	376.09
355.179	384.68
355.562	385.58
355.944	385.58
356.326	396.2
356.709	393.49
357.091	381.97
357.473	400.5
357.855	404.34
358.238	409.54
358.62	394.4
359.002	424.23
359.384	390.78
359.766	414.06
360.148	400.05
360.53	397.56
360.912	389.42
361.294	410.22
361.676	402.53
362.057	402.08
362.439	401.18
362.821	435.53
363.203	424.45
363.584	395.98
363.966	412.93
364.348	405.47
364.729	416.54
365.111	432.36
365.493	408.18
365.874	411.57
366.256	413.6
366.637	438.01
367.019	409.31
367.4	403.66
367.781	411.57
368.163	426.49
368.544	429.2
368.925	422.19
369.306	413.83
369.688	431.91
370.069	438.46
370.45	439.37
370.831	436.2
371.212	430.78
371.593	429.2
371.974	440.04
372.355	435.75
372.736	438.46
373.117	452.7
373.498	440.72
373.879	442.08
374.26	422.64
374.641	447.73
375.021	441.17
375.402	461.97
375.783	471.46
376.163	489.31
376.544	496.77
376.925	492.92
377.305	493.38
377.686	489.08
378.066	490.44
378.447	512.59
378.827	488.86
379.208	523.21
379.588	530.66
379.968	529.53
380.349	542.19
380.729	524.79
381.109	522.75
381.489	557.78
381.87	554.62
382.25	536.09
382.63	558.91
383.01	563.88
383.39	557.78
383.77	574.5
384.15	555.75
384.53	576.99
384.91	566.82
385.29	600.94
385.67	574.05
386.049	590.32
386.429	592.81
386.809	629.42
387.189	648.85
387.568	629.42
387.948	641.4
388.328	667.16
388.707	678.46
389.087	655.41
389.466	670.32
389.846	665.12
390.225	691.56
390.605	689.53
390.984	694.5
391.363	723.88
391.743	720.94
392.122	726.14
392.501	737.21
392.881	728.85
393.26	766.14
393.639	729.53
394.018	769.08
394.397	786.02
394.776	794.61
395.155	774.05
395.534	801.17
395.913	809.98
396.292	807.49
396.671	798.91
397.05	840.49
397.429	823.99
397.808	820.37
398.186	859.92
398.565	876.87
398.944	876.64
399.323	870.54
399.701	898.34
400.08	901.05
400.458	907.15
400.837	915.06
401.215	924.55
401.594	925.91
401.972	951.44
402.351	954.61
402.729	941.05
403.107	961.39
403.486	984.44
403.864	1004.1
404.242	1016.07
404.62	1040.93
404.999	1050.88
405.377	1023.08
405.755	1056.98
406.133	1066.92
406.511	1094.72
406.889	1091.1
407.267	1127.03
407.645	1120.25
408.023	1122.51
408.401	1150.76
408.779	1179.23
409.156	1157.99
409.534	1186.47
409.912	1235.96
410.29	1252.68
410.667	1241.38
411.045	1281.6
411.422	1280.93
411.8	1305.78
412.178	1296.07
412.555	1331.55
412.933	1366.8
413.31	1392.34
413.687	1395.05
414.065	1414.03
414.442	1428.04
414.819	1460.13
415.197	1444.31
415.574	1477.98
415.951	1500.81
416.328	1532.9
416.705	1520.24
417.082	1535.61
417.46	1559.11
417.837	1543.52
418.214	1593.91
418.591	1600.69
418.967	1618.77
419.344	1635.27
419.721	1659.45
420.098	1668.49
420.475	1684.53
420.852	1717.07
421.228	1724.3
421.605	1735.6
421.982	1761.59
422.358	1768.82
422.735	1794.81
423.111	1817.41
423.488	1869.39
423.864	1837.52
424.241	1856.73
424.617	1913.23
424.994	1909.38
425.37	1945.32
425.746	1960.68
426.123	2011.53
426.499	1957.97
426.875	2018.99
427.251	2059.44
427.627	2132.66
428.003	2113
428.379	2152.32
428.756	2192.09
429.132	2202.71
429.507	2255.59
429.883	2265.31
430.259	2340.11
430.635	2340.11
431.011	2335.81
431.387	2424.17
431.763	2432.31
432.138	2439.54
432.514	2483.16
432.89	2536.94
433.265	2570.84
433.641	2576.26
434.016	2654.9
434.392	2662.13
434.767	2729.93
435.143	2749.81
435.518	2767.89
435.894	2783.03
436.269	2825.29
436.644	2837.72
437.02	2932.63
437.395	2879.75
437.77	2973.31
438.145	3003.82
438.52	3052.18
438.895	3082.46
439.271	3096.92
439.646	3137.6
440.021	3169.69
440.395	3181.22
440.77	3161.78
441.145	3226.86
441.52	3251.27
441.895	3274.55
442.27	3319.74
442.645	3291.72
443.019	3363.13
443.394	3373.08
443.769	3399.74
444.143	3362.91
444.518	3489.68
444.892	3456.01
445.267	3472.51
445.641	3520.19
446.016	3535.78
446.39	3567.19
446.764	3608.32
447.139	3634.09
447.513	3628.44
447.887	3656.01
448.262	3707.08
448.636	3720.86
449.01	3820.75
449.384	3835.21
449.758	3829.56
450.132	3895.32
450.506	3949.11
450.88	3927.41
451.254	3936.22
451.628	4007.18
452.002	4062.77
452.376	4105.94
452.75	4131.93
453.123	4216.22
453.497	4258.25
453.871	4240.62
454.244	4354.07
454.618	4423.67
454.992	4487.17
455.365	4463.89
455.739	4617.56
456.112	4626.6
456.486	4681.29
456.859	4696.66
457.232	4788.86
457.606	4806.48
457.979	4904.56
458.352	4960.38
458.725	5048.06
459.099	5081.28
459.472	5148.62
459.845	5239.47
460.218	5243.53
460.591	5346.13
460.964	5352.23
461.337	5462.74
461.71	5543.41
462.083	5628.16
462.456	5674.03
462.829	5702.05
463.201	5845.1
463.574	5810.98
463.947	5941.14
464.32	6047.58
464.692	6107.92
465.065	6145.88
465.438	6209.16
465.81	6282.83
466.183	6374.13
466.555	6530.73
466.928	6551.07
467.3	6568.92
467.672	6666.77
468.045	6813.66
468.417	6867.22
468.789	6909.25
469.161	7055.01
469.534	7127.55
469.906	7302.69
470.278	7351.95
470.65	7479.86
471.022	7587.65
471.394	7738.61
471.766	7838.95
472.138	7894.99
472.51	8117.81
472.882	8212.27
473.253	8309.44
473.625	8439.38
473.997	8611.81
474.369	8668.76
474.74	8788.75
475.112	8892.25
475.484	9086.82
475.855	9268.06
476.227	9353.48
476.598	9583.53
476.97	9679.12
477.341	9885.45
477.713	10084.31
478.084	10131.99
478.455	10449.95
478.827	10428.93
479.198	10792.77
479.569	10833.9
479.94	11105.98
480.311	11215.58
480.682	11510.26
481.053	11762.91
481.424	11908.44
481.795	12031.15
482.166	12209
482.537	12461.65
482.908	12644.24
483.279	12825.26
483.65	13004.91
484.021	13264.57
484.391	13490.1
484.762	13563.99
485.133	13708.85
485.503	13925.57
485.874	14204.43
486.244	14308.38
486.615	14716.05
486.985	14787.24
487.356	15040.11
487.726	15133.44
488.097	15444.17
488.467	15570.49
488.837	15940.65
489.207	16122.8
489.578	16421.32
489.948	16487.98
490.318	16721.88
490.688	16810.91
491.058	17030.34
491.428	17230.56
491.798	17500.16
492.168	17770.66
492.538	17857.67
492.908	18026.7
493.278	18325.9
493.648	18370.42
494.017	18615.16
494.387	18813.35
494.757	18859.67
495.126	19179.89
495.496	19146.67
495.866	19403.61
496.235	19590.28
496.605	19836.15
496.974	19929.02
497.344	20148.45
497.713	20218.96
498.082	20367.88
498.452	20532.62
498.821	20741.66
499.19	20824.82
499.559	20988.66
499.928	21105.94
500.298	21186.39
500.667	21480.85
501.036	21453.5
501.405	21691.01
501.774	21886.71
502.143	21970.1
502.512	22087.39
502.88	22299.36
503.249	22402.86
503.618	22620.7
503.987	22679.91
504.356	22748.38
504.724	22919.91
505.093	23087.13
505.462	23276.73
505.83	23379.78
506.199	23472.43
506.567	23840.33
506.936	23879.88
507.304	24158.07
507.672	24201.45
508.041	24347.89
508.409	24539.52
508.777	24783.59
509.145	24959.4
509.514	24970.47
509.882	25234.65
510.25	25372.04
510.618	25640.96
510.986	25718.25
511.354	25947.62
511.722	26187.39
512.09	26371.34
512.458	26378.8
512.826	26744.21
513.193	26823.76
513.561	26892.46
513.929	27067.14
514.297	27431.43
514.664	27588.03
515.032	27646.56
515.4	27943.73
515.767	28056.72
516.135	28286.09
516.502	28252.42
516.869	28712.52
517.237	28975.57
517.604	28655.35
517.972	29270.25
518.339	29470.92
518.706	29434.99
519.073	29663.46
519.44	29857.58
519.808	30254.18
520.175	30298.02
520.542	30620.72
520.909	30851.22
521.276	30860.26
521.643	31415.5
522.009	31457.99
522.376	31637.87
522.743	31857.75
523.11	32199.89
523.477	32482.59
523.843	32580.44
524.21	33088.45
524.577	33178.39
524.943	33426.52
525.31	33691.15
525.676	34016.56
526.043	34152.83
526.409	34364.35
526.776	34722.76
527.142	34818.12
527.508	35030.77
527.874	35289.3
528.241	35539.01
528.607	35517.09
528.973	35905.1
529.339	36021.71
529.705	36431.41
530.071	36556.61
530.437	36825.53
530.803	37139.19
531.169	37276.14
531.535	37241.56
531.901	37402.91
532.267	37580.09
532.632	37921.55
532.998	38003.13
533.364	38152.05
533.73	38190.46
534.095	38612.37
534.461	38684.01
534.826	38961.52
535.192	39085.13
535.557	39319.47
535.923	39296.88
536.288	39660.03
536.653	39793.36
537.019	39759.69
537.384	39871.1
537.749	40135.95
538.114	40266.79
538.479	40294.82
538.845	40552.21
539.21	40540.91
539.575	40741.81
539.94	40986.32
540.305	41109.71
540.67	40976.83
541.034	41348.57
541.399	41382.25
541.764	41584.95
542.129	41870.14
542.494	41895.9
542.858	42058.16
543.223	42190.13
543.587	42373.63
543.952	42266.06
544.316	42421.54
544.681	42411.82
545.045	42744.7
545.41	42996.44
545.774	43032.15
546.138	43207.96
546.503	43289.09
546.867	43316.88
547.231	43806.59
547.595	43719.58
547.959	43760.04
548.324	43923.65
548.688	44049.52
549.052	44272.56
549.416	44271.43
549.779	44408.15
550.143	44549.85
550.507	44898.08
550.871	44979.66
551.235	44996.84
551.599	45263.5
551.962	45484.06
552.326	45527.45
552.689	45669.59
553.053	45548.24
553.417	45657.16
553.78	46295.56
554.143	46188.22
554.507	46318.61
554.87	46494.2
555.234	46943.23
555.597	46767.41
555.96	47005.15
556.323	47179.83
556.686	47214.18
557.05	47488.53
557.413	47526.72
557.776	47634.28
558.139	47787.5
558.502	48005.8
558.865	48114.72
559.228	48421.83
559.59	48533.7
559.953	48618.44
560.316	49078.99
560.679	48996.06
561.041	49321.25
561.404	49359.21
561.767	49671.07
562.129	49652.54
562.492	49976.82
562.854	50030.61
563.217	50042.36
563.579	50176.82
563.941	50456.36
564.304	50440.99
564.666	50816.12
565.028	50764.15
565.39	51018.15
565.753	51127.07
566.115	51275.32
566.477	51387.18
566.839	51519.61
567.201	51727.74
567.563	51761.41
567.925	51951.01
568.287	52030.33
568.648	51995.07
569.01	52295.18
569.372	52471.9
569.734	52326.14
570.095	52569.97
570.457	52776.3
570.819	52730.2
571.18	52802.96
571.542	53023.07
571.903	53034.14
572.265	53223.52
572.626	53213.35
572.987	53292.21
573.349	53395.26
573.71	53457.18
574.071	53647.01
574.432	53643.62
574.794	53832.54
575.155	53788.47
575.516	53806.55
575.877	53971.74
576.238	53952.76
576.599	54071.4
576.96	54149.37
577.32	54065.53
577.681	54315.24
578.042	54336.25
578.403	54295.8
578.763	54367.89
579.124	54374.9
579.485	54440.21
579.845	54585.97
580.206	54484.27
580.566	54570.83
580.927	54568.57
581.287	54687.43
581.648	54522.69
582.008	54702.35
582.368	54637.04
582.728	54749.13
583.089	54646.76
583.449	54689.92
583.809	54821.21
584.169	54800.65
584.529	54673.87
584.889	54898.5
585.249	54721.1
585.609	54740.54
585.969	54793.87
586.329	54811.04
586.688	54844.04
587.048	54846.3
587.408	54739.18
587.768	54792.97
588.127	54818.05
588.487	54747.54
588.846	54936.69
589.206	54782.12
589.565	54784.83
589.925	54970.81
590.284	54759.97
590.643	54858.28
591.003	54926.07
591.362	54958.16
591.721	54994.99
592.08	54877.03
592.44	54982.79
592.799	55053.98
593.158	54964.49
593.517	54981.44
593.876	55010.81
594.235	54964.94
594.593	54918.84
594.952	55077.48
595.311	54946.41
595.67	55036.8
596.029	55229.56
596.387	55270.69
596.746	55278.15
597.104	55153.63
597.463	55087.65
597.822	55233.18
598.18	55123.58
598.538	55079.96
598.897	55328.77
599.255	55043.81
599.613	55465.04
599.972	55285.16
600.33	55272.05
600.688	55214.2
601.046	55399.5
601.404	55407.87
601.762	55436.11
602.12	55519.95
602.478	55427.07
602.836	55497.13
603.194	55296.68
603.552	55381.65
603.91	55345.27
604.268	55497.58
604.625	55409.67
604.983	55625.71
605.341	55490.12
605.698	55621.42
606.056	55648.08
606.413	55577.8
606.771	55779.61
607.128	55795.43
607.485	55594.53
607.843	55682.89
608.2	55783
608.557	55858.02
608.914	55773.51
609.272	55954.97
609.629	56002.65
609.986	56084.68
610.343	55947.29
610.7	56057.79
611.057	56054.18
611.414	56072.03
611.771	56126.04
612.127	56180.5
612.484	56106.6
612.841	56192.25
613.198	56144.79
613.554	56156.55
613.911	56255.07
614.267	56292.81
614.624	56212.82
614.98	56326.71
615.337	56369.65
615.693	56278.35
616.05	56331.46
616.406	56475.86
616.762	56411.45
617.118	56346.82
617.475	56430.66
617.831	56424.56
618.187	56447.39
618.543	56556.31
618.899	56635.63
619.255	56595.18
619.611	56427.5
619.967	56619.36
620.323	56668.62
620.678	56577.33
621.034	56537.33
621.39	56502.75
621.746	56549.08
622.101	56772.12
622.457	56569.19
622.812	56634.73
623.168	56674.72
623.523	56676.98
623.879	56772.58
624.234	56535.52
624.589	56627.04
624.945	56566.25
625.3	56676.98
625.655	56639.92
626.01	56616.65
626.365	56616.87
626.72	56573.48
627.075	56624.1
627.43	56635.4
627.785	56552.24
628.14	56614.84
628.495	56604.9
628.85	56589.98
629.205	56455.97
629.559	56618.45
629.914	56486.03
630.269	56598.34
630.623	56442.64
630.978	56345.47
631.332	56456.2
631.687	56537.78
632.041	56324
632.396	56432.7
632.75	56327.84
633.104	56362.87
633.459	56194.96
633.813	56190.44
634.167	56250.33
634.521	56116.55
634.875	56097.79
635.229	56092.14
635.583	55982.31
635.937	55996.55
636.291	55980.73
636.645	55927.85
636.999	55890.79
637.352	55910.45
637.706	55770.34
638.06	55912.26
638.413	55834.07
638.767	55739.16
639.121	55797.69
639.474	55533.29
639.828	55649.89
640.181	55687.18
640.534	55687.86
640.888	55487.86
641.241	55475.21
641.594	55562.44
641.947	55599.5
642.301	55505.72
642.654	55448.99
643.007	55387.07
643.36	55368.54
643.713	55322.44
644.066	55377.36
644.419	55162.67
644.771	55046.74
645.124	54714.78
645.477	54728.33
645.83	54534.44
646.182	54388.23
646.535	54296.93
646.888	54346.42
647.24	54215.35
647.593	54397.95
647.945	54290.38
648.298	54132.87
648.65	54098.75
649.002	54000.9
649.355	54117.73
649.707	54052.87
650.059	54123.15
650.411	54566.76
650.763	54599.75
651.115	54847.2
651.467	54574.44
651.819	54649.24
652.171	54557.49
652.523	54514.78
652.875	54509.36
653.227	54386.42
653.578	54477.95
653.93	54406.99
654.282	54232.53
654.633	54254
654.985	54266.88
655.337	54250.61
655.688	54236.37
656.039	54288.57
656.391	54192.98
656.742	54161.57
657.094	54150.72
657.445	54247.44
657.796	54181.46
658.147	54069.37
658.498	54065.53
658.849	54117.96
659.2	54013.1
659.551	53993.44
659.902	54050.61
660.253	53946.66
660.604	53982.14
660.955	53922.93
661.306	53959.09
661.656	53953.21
662.007	53886.32
662.358	53852.88
662.708	53948.47
663.059	53760.45
663.409	53658.76
663.76	53816.04
664.11	53820.34
664.461	53828.47
664.811	53849.94
665.161	53774.69
665.511	53602.26
665.862	53694.01
666.212	53799.55
666.562	53763.39
666.912	53697.4
667.262	53570.85
667.612	53621.25
667.962	53694.46
668.312	53605.88
668.662	53715.48
669.011	53592.55
669.361	53574.24
669.711	53426.9
670.06	53447.69
670.41	53432.1
670.76	53362.5
671.109	53522.04
671.459	53426
671.808	53410.4
672.157	53422.15
672.507	53104.2
672.856	53256.06
673.205	53279.79
673.554	53392.55
673.904	53122.28
674.253	53318.2
674.602	53192.56
674.951	52668.05
675.3	52540.37
675.649	53136.06
675.998	53075.5
676.346	53118.43
676.695	53188.04
677.044	52864.66
677.393	52920.02
677.741	53040.7
678.09	52861.27
678.438	52877.54
678.787	52898.78
679.135	52844.54
679.484	52693.81
679.832	52811.32
680.181	52598
680.529	52725.22
680.877	52646.36
681.225	52606.58
681.573	52725.9
681.922	52453.82
682.27	52478
682.618	52382.86
682.966	52286.14
683.314	52387.83
683.661	52268.29
684.009	52034.85
684.357	51951.23
684.705	51996.66
685.053	52007.28
685.4	51952.14
685.748	51793.27
686.095	51713.05
686.443	51626.27
686.79	51616.78
687.138	51591.24
687.485	51521.64
687.832	51427.63
688.18	51410
688.527	51271.02
688.874	51291.82
689.221	51187.19
689.568	51102.89
689.915	50977.47
690.262	50984.03
690.609	50824.93
690.956	50743.36
691.303	50702.68
691.65	50535.22
691.997	50550.59
692.344	50358.05
692.69	50274.44
693.037	50259.53
693.383	49918.29
693.73	50133.88
694.077	49907.9
694.423	49924.39
694.769	49810.95
695.116	49661.35
695.462	49495.03
695.808	49492.54
696.155	49568.24
696.501	49293
696.847	49213.23
697.193	49092.55
697.539	49082.83
697.885	48781.82
698.231	48738.66
698.577	48762.62
698.923	48615.05
699.269	48454.83
699.614	48189.75
699.96	48223.2
700.306	48212.12
700.651	48007.83
700.997	47976.65
701.342	47873.6
701.688	47712.25
702.033	47601.29
702.379	47566.49
702.724	47513.16
703.069	47585.25
703.415	47167.4
703.76	47209.66
704.105	47121.98
704.45	46980.52
704.795	46705.95
705.14	46656.46
705.485	46599.74
705.83	46471.15
706.175	46539.62
706.52	46335.11
706.865	46145.74
707.209	46167.2
707.554	46024.16
707.899	45991.62
708.243	45821.45
708.588	45747.33
708.932	45580.78
709.277	45399.99
709.621	45479.76
709.966	45309.37
710.31	45314.35
710.654	44933.79
710.998	45063.73
711.342	44980.34
711.687	44937.63
712.031	44763.85
712.375	44584.42
712.719	44615.38
713.063	44570.86
713.407	44633.69
713.75	44385.1
714.094	44315.05
714.438	44169.74
714.782	44177.43
715.125	44096.98
715.469	44131.33
715.812	43861.95
716.156	43640.26
716.499	43656.31
716.843	43685.46
717.186	43430.78
717.53	43663.77
717.873	43571.57
718.216	43396.43
718.559	43271.46
718.902	42903.79
719.246	43025.59
719.589	42855.2
719.932	42792.15
720.275	42769.55
720.617	42793.96
720.96	42648.88
721.303	42695.21
721.646	42754.19
721.989	42337.7
722.331	42564.14
722.674	42333.18
723.016	42345.61
723.359	42229.91
723.701	42133.86
724.044	41988.11
724.386	41859.07
724.729	41946.75
725.071	41786.75
725.413	41744.04
725.755	41695.68
726.097	41649.58
726.439	41405.3
726.782	41423.37
727.124	41574.1
727.465	41386.99
727.807	41269.25
728.149	41110.61
728.491	41128.47
728.833	41093.89
729.175	40924.18
729.516	40925.31
729.858	40891.64
730.199	40848.47
730.541	40701.59
730.882	40689.38
731.224	40861.35
731.565	40380.01
731.906	40561.02
732.248	40544.53
732.589	40259.56
732.93	40223.41
733.271	40081.94
733.612	40240.58
733.953	40234.25
734.294	40081.49
734.635	39835.39
734.976	39982.51
735.317	39813.25
735.658	39774.6
735.999	39676.3
736.339	39582.29
736.68	39747.49
737.021	39465.01
737.361	39422.97
737.702	39566.25
738.042	39332.81
738.383	39321.28
738.723	39197.9
739.063	39135.52
739.404	39247.39
739.744	39072.93
740.084	38879.71
740.424	39039.93
740.764	38880.16
741.104	38932.37
741.444	38754.29
741.784	38675.2
742.124	38686.27
742.464	38542.32
742.804	38566.95
743.143	38335.09
743.483	38481.98
743.823	38368.77
744.162	38215.1
744.502	38224.81
744.841	38118.6
745.181	38183.46
745.52	38003.8
745.86	37979.17
746.199	37806.07
746.538	37894.88
746.877	37809.91
747.216	37954.09
747.556	37825.05
747.895	37799.74
748.234	37418.96
748.573	37328.57
748.911	37340.54
749.25	37329.92
749.589	37154.56
749.928	37266.42
750.267	37240.43
750.605	37161.11
750.944	37041.12
751.283	36903.72
751.621	37057.84
751.96	36752.54
752.298	36722.48
752.636	36683.39
752.975	36540.11
753.313	36377.18
753.651	36514.35
753.989	36286.56
754.327	36226.67
754.666	36001.6
755.004	36011.54
755.342	36070.29
755.679	36002.73
756.017	35725.9
756.355	35772.68
756.693	35734.71
757.031	35718.89
757.368	35447.26
757.706	35451.33
758.044	35364.32
758.381	35386.02
758.719	35054.95
759.056	35124.33
759.394	35013.6
759.731	34871.46
760.068	34668.75
760.405	34565.93
760.743	34309.66
761.08	34430.79
761.417	34240.06
761.754	34115.77
762.091	34076.22
762.428	34020.63
762.765	33890.24
763.102	33953.29
763.438	33741.09
763.775	33643.24
764.112	33590.59
764.449	33582.68
764.785	33401.21
765.122	33285.96
765.458	33218.39
765.795	33014.56
766.131	33018.85
766.467	32728.69
766.804	32588.13
767.14	32440.33
767.476	32579.09
767.812	32327.57
768.148	32428.58
768.485	32205.54
768.821	32057.52
769.157	31971.19
769.492	31816.85
769.828	31896.39
770.164	31509.74
770.5	31455.05
770.836	31484.2
771.171	31312.45
771.507	31073.82
771.842	30941.84
772.178	30945.91
772.513	30801.51
772.849	30743.2
773.184	30639.48
773.519	30751.34
773.855	30324.91
774.19	30360.61
774.525	30189.55
774.86	30158.36
775.195	30135.54
775.53	29991.58
775.865	29936.67
776.2	29647.86
776.535	29477.7
776.87	29338.95
777.205	29344.6
777.539	29183.92
777.874	29186.41
778.209	28990.93
778.543	28874.55
778.878	28728.11
779.212	28736.02
779.547	28505.52
779.881	28559.08
780.215	28315.02
780.55	28463.04
780.884	28272.76
781.218	28104.4
781.552	28129.49
781.886	27925.65
782.22	27833.67
782.554	27681.59
782.888	27562.27
783.222	27397.08
783.556	27255.84
783.889	27299.68
784.223	27059.91
784.557	27036.18
784.89	27102.17
785.224	26943.3
785.557	26729.52
785.891	26737.66
786.224	26520.04
786.558	26533.6
786.891	26413.15
787.224	26157.56
787.557	26118.92
787.891	26109.2
788.224	26061.52
788.557	26091.12
788.89	25985.81
789.223	25789.21
789.556	25706.5
789.888	25647.29
790.221	25528.42
790.554	25278.49
790.887	25380.63
791.219	25266.28
791.552	25053.41
791.884	25013.18
792.217	24917.82
792.549	24840.08
792.882	24603.03
793.214	24655
793.546	24584.95
793.879	24544.72
794.211	24372.3
794.543	24403.93
794.875	24330.94
795.207	24344.95
795.539	24130.27
795.871	24070.61
796.203	23871.52
796.535	23842.82
796.867	23749.04
797.198	23754.91
797.53	23620.68
797.862	23473.34
798.193	23551.98
798.525	23377.97
798.856	23515.82
799.188	23132.1
799.519	23090.07
799.85	23002.39
800.182	23060.47
800.513	23055.04
800.844	22787.03
801.175	22906.57
801.506	22765.33
801.837	22695.73
802.168	22605.11
802.499	22592.23
802.83	22434.49
803.161	22465.91
803.491	22383.87
803.822	22341.16
804.153	22255.97
804.483	22139.14
804.814	21916.54
805.145	22013.49
805.475	21957.9
805.805	21835.87
806.136	21949.76
806.466	21686.72
806.796	21796.55
807.126	21490.56
807.457	21404.47
807.787	21527.85
808.117	21459.15
808.447	21379.61
808.777	21352.26
809.107	21240.63
809.436	21169.22
809.766	21181.42
810.096	21141.65
810.426	20963.12
810.755	20941.88
811.085	20964.7
811.414	20891.03
811.744	20816.46
812.073	20766.29
812.403	20602.68
812.732	20596.13
813.061	20615.79
813.39	20470.48
813.719	20401.33
814.049	20536.01
814.378	20434.77
814.707	20232.97
815.036	20214.89
815.365	20116.82
815.693	20013.54
816.022	19925.18
816.351	20030.49
816.68	19823.04
817.008	19887.9
817.337	19615.81
817.665	19763.6
817.994	19756.37
818.322	19703.72
818.651	19559.09
818.979	19606.09
819.307	19594.57
819.636	19559.32
819.964	19406.33
820.292	19397.51
820.62	19548.7
820.948	19317.97
821.276	19502.59
821.604	19481.58
821.932	19430.28
822.259	19453.78
822.587	19360.68
822.915	19361.13
823.243	19379.43
823.57	19303.5
823.898	19395.48
824.225	19335.82
824.553	19207.91
824.88	19204.75
825.207	19280.91
825.535	19236.84
825.862	19328.59
826.189	19251.75
826.516	19303.28
826.843	19353.9
827.17	19325.2
827.497	19272.77
827.824	19209.72
828.151	19285.65
828.478	19114.36
828.805	19220.12
829.131	19276.61
829.458	19214.47
829.785	19100.35
830.111	19189.16
830.438	19292.88
830.764	19205.65
831.09	19242.04
831.417	19064.64
831.743	19213.79
832.069	19166.56
832.395	19018.99
832.722	19109.61
833.048	19015.6
833.374	19076.84
833.7	18917.53
834.026	19043.17
834.351	19122.49
834.677	18943.97
835.003	19017.86
835.329	18969.28
835.654	18860.8
835.98	18804.08
836.306	18869.16
836.631	18750.07
836.956	18800.47
837.282	18787.59
837.607	18802.05
837.932	18609.74
838.258	18722.28
838.583	18663.07
838.908	18544.2
839.233	18666.23
839.558	18482.73
839.883	18544.88
840.208	18407.71
840.533	18544.65
840.858	18402.28
841.182	18408.61
841.507	18365.68
841.832	18280.93
842.156	18288.39
842.481	18245.9
842.805	18169.07
843.13	18152.35
843.454	18139.47
843.778	17994.61
844.103	18003.2
844.427	17910.32
844.751	17901.51
845.075	17896.99
845.399	17773.37
845.723	17730.44
846.047	17822.41
846.371	17569.76
846.695	17634.4
847.019	17457.9
847.343	17380.84
847.666	17271.92
847.99	17150.11
848.313	17288.64
848.637	17071.7
848.96	17055.2
849.284	17070.79
849.607	16864.7
849.931	16798.03
850.254	16667.64
850.577	16635.33
850.9	16568.66
851.223	16523.46
851.546	16412.73
851.869	16327.31
852.192	16357.14
852.515	16241.44
852.838	16166.64
853.161	16137.49
853.483	16096.13
853.806	15974.1
854.129	15928.45
854.451	16008.68
854.774	15763.71
855.096	15804.39
855.419	15777.72
855.741	15704.95
856.063	15710.38
856.385	15585.64
856.708	15526.88
857.03	15492.98
857.352	15500.67
857.674	15443.04
857.996	15336.38
858.318	15293.67
858.64	15286.21
858.961	15276.49
859.283	15175.7
859.605	15116.95
859.926	15214.35
860.248	15123.27
860.57	15067.91
860.891	15024.29
861.212	14969.83
861.534	14832.89
861.855	14816.16
862.176	15004.18
862.498	14884.18
862.819	14822.72
863.14	14721.48
863.461	14689.84
863.782	14732.78
864.103	14672.67
864.424	14661.37
864.745	14660.69
865.065	14582.05
865.386	14535.72
865.707	14579.11
866.027	14531.88
866.348	14470.64
866.668	14534.59
866.989	14432.45
867.309	14391.54
867.63	14427.02
867.95	14398.1
868.27	14291.43
868.59	14289.85
868.91	14211.89
869.23	14269.06
869.55	14196.97
869.87	14210.98
870.19	14133.24
870.51	14236.07
870.83	14156.07
871.15	14077.88
871.469	14036.3
871.789	14065
872.109	14047.37
872.428	13976.64
872.748	14090.31
873.067	13930.09
873.386	14006.02
873.706	13920.37
874.025	13875.85
874.344	13883.53
874.663	13961.27
874.982	13854.61
875.301	13883.31
875.62	13759.02
875.939	13790.88
876.258	13788.39
876.577	13706.14
876.896	13661.17
877.214	13638.79
877.533	13662.75
877.852	13646.93
878.17	13623.88
878.489	13589.3
878.807	13657.32
879.125	13520.38
879.444	13547.72
879.762	13481.74
880.08	13407.84
880.398	13445.13
880.716	13399.03
881.034	13395.86
881.352	13418.01
881.67	13277.67
881.988	13420.27
882.306	13270.44
882.624	13327.84
882.941	13161.74
883.259	13175.3
883.577	13051.01
883.894	13122.42
884.212	13046.04
884.529	13044.69
884.846	13070.22
885.164	12982.77
885.481	13002.43
885.798	12977.79
886.115	12850.79
886.432	12908.64
886.75	12896.67
887.067	12844.46
887.383	12759.04
887.7	12674.98
888.017	12706.84
888.334	12708.87
888.651	12581.19
888.967	12597.69
889.284	12477.69
889.6	12503.68
889.917	12479.28
890.233	12482.67
890.55	12449.67
890.866	12448.99
891.182	12340.97
891.498	12376.68
891.815	12239.96
892.131	12286.74
892.447	12177.14
892.763	12152.28
893.079	12039.97
893.395	12099.85
893.71	12072.28
894.026	12033.19
894.342	11977.59
894.657	11900.53
894.973	11929.46
895.289	11884.49
895.604	11925.39
895.92	11724.27
896.235	11704.38
896.55	11684.95
896.865	11567.21
897.181	11628.68
897.496	11613.54
897.811	11527.44
898.126	11476.14
898.441	11484.73
898.756	11474.33
899.071	11370.6
899.386	11313.88
899.7	11324.05
900.015	11242.25
900.33	11175.81
900.644	11150.95
900.959	11090.39
901.273	11055.36
901.588	11002.71
901.902	10992.08
902.216	10943.05
902.531	10949.37
902.845	10909.6
903.159	10769.26
903.473	10766.78
903.787	10786.89
904.101	10697.4
904.415	10653.79
904.729	10628.48
905.042	10598.87
905.356	10569.72
905.67	10497.18
905.984	10493.57
906.297	10485.2
906.611	10396.39
906.924	10351.42
907.237	10358.88
907.551	10322.5
907.864	10214.03
908.177	10207.02
908.491	10150.75
908.804	10105.78
909.117	10019
909.43	9993.92
909.743	10024.88
910.056	9948.95
910.368	9986.69
910.681	9872.11
910.994	9870.08
911.307	9834.83
911.619	9661.5
911.932	9779.69
912.244	9691.1
912.557	9604.55
912.869	9570.88
913.181	9594.83
913.494	9559.13
913.806	9461.28
914.118	9420.15
914.43	9421.05
914.742	9356.65
915.054	9307.83
915.366	9323.2
915.678	9175.63
915.99	9235.52
916.302	9162.75
916.613	9109.87
916.925	9067.39
917.236	9060.16
917.548	9044.34
917.859	8984.45
918.171	8958.47
918.482	8828.75
918.794	8851.8
919.105	8784.01
919.416	8746.95
919.727	8798.47
920.038	8727.06
920.349	8627.85
920.66	8562.32
920.971	8577.23
921.282	8541.07
921.593	8479.61
921.903	8478.25
922.214	8441.19
922.525	8379.27
922.835	8322.1
923.146	8349.22
923.456	8325.94
923.767	8179.73
924.077	8255.21
924.387	8213.17
924.697	8156.45
925.008	8148.09
925.318	8133.63
925.628	8041.65
925.938	8005.27
926.248	7943.35
926.558	7951.94
926.867	7907.65
927.177	7888.44
927.487	7840.08
927.796	7717.59
928.106	7791.04
928.416	7691.15
928.725	7703.36
929.034	7676.24
929.344	7618.84
929.653	7593.3
929.962	7509.69
930.271	7504.49
930.581	7466.53
930.89	7459.75
931.199	7389.92
931.508	7390.37
931.817	7429.92
932.125	7349.92
932.434	7355.34
932.743	7228.79
933.051	7250.94
933.36	7241.67
933.669	7150.6
933.977	7124.61
934.286	7086.2
934.594	7069.02
934.902	7035.13
935.21	7007.1
935.519	7000.32
935.827	6989.7
936.135	6874
936.443	6890.04
936.751	6890.95
937.059	6804.85
937.367	6799.2
937.674	6783.83
937.982	6716.94
938.29	6669.49
938.597	6725.76
938.905	6588.13
939.213	6558.3
939.52	6553.56
939.827	6558.53
940.135	6557.4
940.442	6507.91
940.749	6500.45
941.056	6397.18
941.363	6390.17
941.67	6386.33
941.977	6365.99
942.284	6315.82
942.591	6353.11
942.898	6260
943.205	6213.68
943.511	6185.43
943.818	6187.01
944.125	6086.68
944.431	6140.91
944.738	6134.36
945.044	6072.21
945.35	6048.94
945.657	6020.24
945.963	6011.65
946.269	5953.8
946.575	5942.27
946.881	5895.95
947.187	5881.48
947.493	5846.46
947.799	5823.41
948.105	5786.8
948.41	5784.99
948.716	5721.04
949.022	5747.93
949.327	5753.35
949.633	5627.25
949.938	5649.63
950.244	5645.56
950.549	5618.21
950.854	5550.19
951.16	5559.91
951.465	5490.76
951.77	5501.83
952.075	5464.09
952.38	5426.58
952.685	5442.17
952.99	5398.11
953.294	5409.41
953.599	5352.23
953.904	5337.32
954.209	5305.23
954.513	5310.43
954.818	5206.93
955.122	5233.82
955.426	5214.61
955.731	5189.98
956.035	5158.34
956.339	5146.81
956.643	5105.68
956.948	5056.87
957.252	5082.41
957.556	5043.09
957.86	5032.01
958.163	5053.03
958.467	5012.35
958.771	4978.91
959.075	4940.94
959.378	4923.32
959.682	4940.94
959.985	4908.4
960.289	4840.16
960.592	4846.26
960.896	4801.06
961.199	4786.6
961.502	4768.97
961.805	4787.28
962.108	4750.21
962.411	4735.07
962.714	4629.09
963.017	4678.35
963.32	4654.62
963.623	4604
963.926	4628.86
964.228	4547.06
964.531	4577.56
964.833	4564.46
965.136	4490.33
965.438	4482.88
965.741	4471.8
966.043	4460.5
966.345	4451.46
966.648	4366.04
966.95	4387.29
967.252	4351.81
967.554	4339.15
967.856	4342.77
968.158	4298.25
968.46	4334.63
968.761	4324.69
969.063	4263.9
969.365	4230
969.666	4199.27
969.968	4179.83
970.269	4190.45
970.571	4133.96
970.872	4142.77
971.174	4117.69
971.475	4102.77
971.776	4070.23
972.077	4052.61
972.378	4056
972.679	4038.82
972.98	4015.54
973.281	3990.91
973.582	3960.63
973.883	3955.43
974.183	3961.31
974.484	3945.04
974.785	3912.04
975.085	3866.17
975.386	3856.68
975.686	3849.9
975.986	3824.81
976.287	3799.96
976.587	3752.73
976.887	3776
977.187	3760.18
977.487	3778.94
977.787	3710.24
978.087	3702.11
978.387	3706.85
978.687	3706.17
978.987	3671.15
979.286	3631.37
979.586	3610.81
979.885	3623.46
980.185	3579.62
980.484	3552.96
980.784	3606.06
981.083	3584.82
981.382	3536.69
981.682	3533.75
981.981	3492.17
982.28	3460.53
982.579	3445.62
982.878	3452.4
983.177	3445.84
983.475	3453.53
983.774	3372.17
984.073	3381.21
984.372	3384.15
984.67	3366.97
984.969	3315
985.267	3320.65
985.566	3326.75
985.864	3264.6
986.162	3317.94
986.461	3281.1
986.759	3303.25
987.057	3201.78
987.355	3210.14
987.653	3195.68
987.951	3212.18
988.249	3220.76
988.547	3170.14
988.844	3142.35
989.142	3148
989.44	3141.67
989.737	3083.14
990.035	3089.92
990.332	3073.65
990.63	3036.36
990.927	3008.56
991.224	3036.13
991.521	3033.88
991.819	3015.8
992.116	2980.77
992.413	2979.19
992.71	2988.9
993.006	2947.78
993.303	2930.83
993.6	2951.84
993.897	2909.36
994.193	2895.8
994.49	2891.73
994.787	2844.5
995.083	2816.93
995.379	2802.92
995.676	2810.38
995.972	2832.07
996.268	2794.56
996.565	2743.71
996.861	2762.7
997.157	2761.34
997.453	2710.49
997.749	2690.16
998.044	2691.29
998.34	2677.05
998.636	2659.2
998.932	2671.62
999.227	2628.46
999.523	2639.54
999.818	2634.11
1000.114	2574
1000.409	2588.01
1000.704	2564.28
1001	2545.53
1001.295	2540.78
1001.59	2539.42
1001.885	2541.68
1002.18	2525.87
1002.475	2502.36
1002.77	2482.03
1003.065	2452.65
1003.359	2468.47
1003.654	2444.96
1003.949	2411.52
1004.243	2426.43
1004.538	2395.47
1004.832	2414.46
1005.127	2376.72
1005.421	2346.89
1005.715	2287.23
1006.009	2347.34
1006.304	2313.67
1006.598	2303.5
1006.892	2256.72
1007.186	2216.72
1007.48	2243.16
1007.773	2213.11
1008.067	2253.1
1008.361	2196.38
1008.655	2189.83
1008.948	2141.92
1009.242	2161.36
1009.535	2140.11
1009.829	2134.69
1010.122	2146.89
1010.415	2141.47
1010.708	2076.39
1011.001	2099.66
1011.295	2092.43
1011.588	2064.63
1011.881	2048.59
1012.173	2041.36
1012.466	2011.76
1012.759	2022.38
1013.052	2041.13
1013.344	2026.9
1013.637	1969.5
1013.93	1960.46
1014.222	1955.94
1014.514	1964.52
1014.807	1935.6
1015.099	1939.21
1015.391	1919.1
1015.683	1927.01
1015.976	1914.58
1016.268	1879.33
1016.56	1884.3
1016.851	1864.41
1017.143	1864.41
1017.435	1830.74
1017.727	1818.99
1018.018	1804.3
1018.31	1787.58
1018.602	1777.64
1018.893	1772.21
1019.185	1751.42
1019.476	1738.09
1019.767	1731.31
1020.058	1738.32
1020.35	1715.04
1020.641	1700.35
1020.932	1688.15
1021.223	1665.55
1021.514	1671.42
1021.804	1651.31
1022.095	1644.31
1022.386	1642.27
1022.677	1619.45
1022.967	1653.57
1023.258	1633.91
1023.548	1591.88
1023.839	1586.23
1024.129	1610.18
1024.419	1553.91
1024.709	1560.92
1025	1541.94
1025.29	1512.79
1025.58	1515.04
1025.87	1483.63
1026.16	1507.14
1026.449	1469.85
1026.739	1467.14
1027.029	1470.53
1027.319	1458.1
1027.608	1446.12
1027.898	1432.34
1028.187	1413.13
1028.477	1407.03
1028.766	1433.47
1029.055	1372
1029.344	1362.96
1029.634	1358.44
1029.923	1352.34
1030.212	1341.04
1030.501	1343.52
1030.79	1324.32
1031.078	1328.84
1031.367	1305.33
1031.656	1318.89
1031.945	1324.54
1032.233	1273.7
1032.522	1292.9
1032.81	1255.16
1033.099	1259.91
1033.387	1256.97
1033.675	1237.54
1033.963	1251.32
1034.251	1229.63
1034.54	1185.34
1034.828	1240.02
1035.116	1208.84
1035.403	1201.38
1035.691	1205.22
1035.979	1184.66
1036.267	1160.03
1036.554	1158.22
1036.842	1153.02
1037.129	1146.69
1037.417	1140.37
1037.704	1122.06
1037.992	1129.07
1038.279	1128.39
1038.566	1130.42
1038.853	1130.42
1039.14	1130.42
