Data from whiteboard_FLMS001491_00052.txt Node
Date: Wed Feb 08 11:27:05 GMT 2017
User: dcchb
Spectrometer: FLMS00149
Trigger mode: 0
Integration Time (sec): 2.000000E-2
Scans to average: 10
Electric dark correction enabled: true
Nonlinearity correction enabled: false
Boxcar width: 0
XAxis mode: Wavelengths
Number of Pixels in Spectrum: 2048
>>>>>Begin Spectral Data<<<<<
341.393	0.11
341.776	0.11
342.16	0.11
342.543	-46.21
342.927	-67.68
343.31	-72.43
343.693	-55.03
344.077	-69.49
344.46	-52.09
344.843	-55.03
345.226	-54.57
345.61	-40.79
345.993	-2.6
346.376	-3.73
346.759	-5.99
347.142	4.18
347.525	45.31
347.908	61.13
348.291	65.42
348.674	115.36
349.057	120.34
349.44	132.99
349.823	143.84
350.206	167.57
350.588	213.67
350.971	245.08
351.354	272.2
351.737	267
352.119	283.95
352.502	285.53
352.884	290.95
353.267	319.88
353.65	334.34
354.032	337.51
354.414	347
354.797	336.38
355.179	337.05
355.562	361.46
355.944	352.19
356.326	376.6
356.709	366.21
357.091	378.63
357.473	372.31
357.855	390.16
358.238	380.89
358.62	359.88
359.002	387.45
359.384	391.74
359.766	365.3
360.148	373.66
360.53	366.88
360.912	371.18
361.294	376.83
361.676	377.05
362.057	354.68
362.439	376.37
362.821	351.06
363.203	358.07
363.584	370.05
363.966	362.82
364.348	362.36
364.729	361.23
365.111	378.41
365.493	370.27
365.874	370.72
366.256	370.05
366.637	375.02
367.019	359.88
367.4	367.33
367.781	367.79
368.163	366.88
368.544	374.79
368.925	374.11
369.306	366.43
369.688	375.02
370.069	377.5
370.45	363.04
370.831	376.83
371.212	372.98
371.593	368.01
371.974	338.41
372.355	366.88
372.736	387
373.117	368.46
373.498	393.32
373.879	365.75
374.26	375.92
374.641	366.21
375.021	361.23
375.402	383.61
375.783	385.87
376.163	419.76
376.544	388.35
376.925	414.11
377.305	421.12
377.686	398.52
378.066	397.84
378.447	393.77
378.827	397.84
379.208	421.57
379.588	417.05
379.968	419.76
380.349	435.13
380.729	414.11
381.109	415.7
381.489	445.3
381.87	404.62
382.25	423.83
382.63	450.27
383.01	441.46
383.39	460.89
383.77	435.13
384.15	455.69
384.53	448.91
384.91	481.91
385.29	485.52
385.67	464.96
386.049	483.26
386.429	471.29
386.809	468.35
387.189	489.59
387.568	499.99
387.948	490.5
388.328	519.42
388.707	486.2
389.087	502.7
389.466	510.16
389.846	502.7
390.225	517.39
390.605	508.35
390.984	516.03
391.363	528.91
391.743	541.79
392.122	546.54
392.501	552.87
392.881	525.75
393.26	586.76
393.639	583.37
394.018	583.6
394.397	612.3
394.776	597.61
395.155	593.09
395.534	643.03
395.913	614.33
396.292	606.42
396.671	628.57
397.05	630.15
397.429	662.47
397.808	650.49
398.186	674.9
398.565	687.1
398.944	675.58
399.323	679.87
399.701	696.59
400.08	717.16
400.458	731.85
400.837	737.04
401.215	749.02
401.594	758.29
401.972	772.07
402.351	796.7
402.729	809.13
403.107	828.57
403.486	838.74
403.864	838.74
404.242	844.61
404.62	876.02
404.999	887.1
405.377	892.52
405.755	923.25
406.133	951.95
406.511	932.29
406.889	949.69
407.267	999.41
407.645	993.31
408.023	1016.81
408.401	1010.93
408.779	1058.39
409.156	1064.94
409.534	1089.35
409.912	1142.68
410.29	1148.11
410.667	1166.18
411.045	1184.26
411.422	1215.67
411.8	1220.65
412.178	1244.37
412.555	1278.27
412.933	1285.95
413.31	1368.44
413.687	1327.31
414.065	1363.69
414.442	1390.36
414.819	1412.73
415.197	1436.46
415.574	1481.88
415.951	1478.72
416.328	1481.2
416.705	1472.62
417.082	1504.03
417.46	1550.35
417.837	1566.63
418.214	1561.65
418.591	1593.52
418.967	1605.27
419.344	1639.62
419.721	1640.3
420.098	1708.09
420.475	1709.67
420.852	1739.28
421.228	1754.19
421.605	1764.59
421.982	1763.23
422.358	1803.23
422.735	1852.27
423.111	1850.69
423.488	1910.8
423.864	1880.29
424.241	1904.02
424.617	1928.42
424.994	1938.14
425.37	1961.87
425.746	1989.44
426.123	2031.02
426.499	2053.84
426.875	2073.73
427.251	2132.03
427.627	2104.92
428.003	2184.01
428.379	2184.91
428.756	2238.92
429.132	2275.08
429.507	2292.71
429.883	2319.15
430.259	2401.63
430.635	2419.94
431.011	2439.6
431.387	2470.56
431.763	2544.9
432.138	2575.19
432.514	2577.9
432.89	2594.62
433.265	2691.34
433.641	2725.24
434.016	2746.48
434.392	2732.7
434.767	2814.95
435.143	2844.78
435.518	2838
435.894	2884.78
436.269	2952.58
436.644	2996.87
437.02	3019.24
437.395	3023.31
437.77	3091.56
438.145	3129.52
438.52	3195.28
438.895	3189.18
439.271	3191.89
439.646	3300.37
440.021	3314.38
440.395	3336.75
440.77	3288.61
441.145	3345.79
441.52	3441.6
441.895	3428.05
442.27	3454.71
442.645	3488.38
443.019	3538.55
443.394	3524.99
443.769	3599.79
444.143	3532.68
444.518	3634.37
444.892	3638.44
445.267	3648.38
445.641	3709.39
446.016	3710.75
446.39	3719.56
446.764	3777.64
447.139	3750.3
447.513	3851.09
447.887	3848.6
448.262	3855.6
448.636	3912.33
449.01	3971.76
449.384	4033.91
449.758	4029.16
450.132	4079.55
450.506	4106.45
450.88	4069.61
451.254	4160.46
451.628	4231.41
452.002	4277.06
452.376	4316.61
452.75	4360
453.123	4404.06
453.497	4474.35
453.871	4535.36
454.244	4599.09
454.618	4625.98
454.992	4676.83
455.365	4706.88
455.739	4836.82
456.112	4871.17
456.486	4937.16
456.859	4981.68
457.232	5113.65
457.606	5035.01
457.979	5148.45
458.352	5225.74
458.725	5291.27
459.099	5350.48
459.472	5462.34
459.845	5512.74
460.218	5592.51
460.591	5633.41
460.964	5655.56
461.337	5782.33
461.71	5858.72
462.083	5996.11
462.456	5945.27
462.829	5994.98
463.201	6151.59
463.574	6147.3
463.947	6226.39
464.32	6394.3
464.692	6434.75
465.065	6498.02
465.438	6589.77
465.81	6679.71
466.183	6859.82
466.555	6892.36
466.928	6991.34
467.3	6986.82
467.672	7119.02
468.045	7267.94
468.417	7281.28
468.789	7368.05
469.161	7448.73
469.534	7585.22
469.906	7774.37
470.278	7853.47
470.65	7951.54
471.022	8106.57
471.394	8315.15
471.766	8280.35
472.138	8410.06
472.51	8627.46
472.882	8721.92
473.253	8818.64
473.625	8937.28
473.997	9186.99
474.369	9190.83
474.74	9341.34
475.112	9509.02
475.484	9640.31
475.855	9853.87
476.227	9952.17
476.598	10264.7
476.97	10304.25
477.341	10545.6
477.713	10702.2
478.084	10792.82
478.455	11045.25
478.827	11207.5
479.198	11431
479.569	11489.53
479.94	11851.55
480.311	11877.77
480.682	12256.29
481.053	12465.55
481.424	12764.75
481.795	12843.62
482.166	12918.42
482.537	13192.53
482.908	13492.87
483.279	13571.73
483.65	13849.24
484.021	14158.61
484.391	14220.76
484.762	14411.49
485.133	14623.91
485.503	14874.98
485.874	15084.24
486.244	15238.81
486.615	15511.12
486.985	15711.56
487.356	16062.74
487.726	16155.39
488.097	16525.55
488.467	16558.77
488.837	16928.93
489.207	17099.78
489.578	17342.48
489.948	17604.17
490.318	17877.38
490.688	17911.05
491.058	18150.14
491.428	18441.66
491.798	18630.36
492.168	18962.1
492.538	19046.62
492.908	19335.42
493.278	19506.04
493.648	19590.56
494.017	19878.91
494.387	20094.5
494.757	20193.48
495.126	20445.45
495.496	20522.74
495.866	20706.91
496.235	20921.82
496.605	21055.83
496.974	21211.31
497.344	21503.73
497.713	21544.63
498.082	21693.33
498.452	21950.72
498.821	21982.59
499.19	22114.56
499.559	22299.19
499.928	22531.05
500.298	22627.31
500.667	22941.43
501.036	22945.27
501.405	23123.57
501.774	23133.97
502.143	23458.93
502.512	23431.59
502.88	23665.25
503.249	23767.62
503.618	23932.59
503.987	24090.1
504.356	24323.32
504.724	24302.75
505.093	24559.24
505.462	24620.03
505.83	24882.17
506.199	25066.12
506.567	25428.82
506.936	25257.98
507.304	25677.86
507.672	25850.51
508.041	25867.46
508.409	26065.87
508.777	26318.29
509.145	26554.89
509.514	26496.82
509.882	26839.86
510.25	26956.69
510.618	27172.28
510.986	27436.23
511.354	27577.47
511.722	27748.08
512.09	28075.98
512.458	28108.3
512.826	28409.54
513.193	28384.23
513.561	28723.43
513.929	28954.61
514.297	29069.63
514.664	29381.04
515.032	29420.36
515.4	29656.28
515.767	29843.62
516.135	30028.25
516.502	29845.66
516.869	30462.81
517.237	30647.67
517.604	30680.44
517.972	31111.39
518.339	31232.96
518.706	31359.74
519.073	31547.31
519.44	31653.07
519.808	32095.77
520.175	32093.28
520.542	32463.44
520.909	32723.77
521.276	32768.29
521.643	33089.64
522.009	33261.84
522.376	33534.15
522.743	33758.55
523.11	33984.76
523.477	34445.08
523.843	34619.77
524.21	34854.11
524.577	35179.08
524.943	35372.97
525.31	35575.67
525.676	35890.92
526.043	36097.92
526.409	36271.48
526.776	36570.22
527.142	36826.72
527.508	37072.58
527.874	37287.27
528.241	37438
528.607	37620.59
528.973	37957.53
529.339	37939.91
529.705	38342.16
530.071	38578.08
530.437	38865.08
530.803	39009.03
531.169	39165.18
531.535	39246.09
531.901	39334.22
532.267	39560.65
532.632	39823.92
532.998	39859.4
533.364	40251.71
533.73	40307.98
534.095	40601.31
534.461	40765.14
534.826	40883.78
535.192	40970.79
535.557	41377.1
535.923	41391.57
536.288	41617.55
536.653	41829.07
537.019	41803.99
537.384	42026.13
537.749	42233.13
538.114	42315.16
538.479	42537.53
538.845	42671.08
539.21	42623.85
539.575	42821.36
539.94	42918.76
540.305	43154.01
540.67	43238.75
541.034	43561.68
541.399	43750.6
541.764	43816.59
542.129	44106.07
542.494	44104.94
542.858	44386.06
543.223	44351.94
543.587	44644.59
543.952	44637.58
544.316	44984.01
544.681	44893.62
545.045	45183.11
545.41	45384.91
545.774	45454.96
546.138	45500.61
546.503	45680.72
546.867	45660.16
547.231	46181.72
547.595	46069.18
547.959	46291.55
548.324	46434.82
548.688	46516.86
549.052	46515.05
549.416	46567.25
549.779	46674.59
550.143	46796.17
550.507	46967.69
550.871	47067.12
551.235	46914.36
551.599	47358.19
551.962	47395.93
552.326	47591.63
552.689	47789.36
553.053	47630.73
553.417	47643.38
553.78	48129.24
554.143	48049.92
554.507	48237.94
554.87	48327.66
555.234	48661.66
555.597	48563.81
555.96	48724.48
556.323	48958.15
556.686	48970.58
557.05	49156.33
557.413	49357.23
557.776	49533.95
558.139	49607.17
558.502	49666.38
558.865	49815.3
559.228	50039.93
559.59	50159.47
559.953	50197.66
560.316	50518.56
560.679	50613.7
561.041	50799.68
561.404	50913.58
561.767	51121.71
562.129	51135.04
562.492	51415.26
562.854	51421.36
563.217	51465.88
563.579	51636.95
563.941	51888.69
564.304	52032.42
564.666	52246.2
565.028	52265.41
565.39	52337.49
565.753	52554.66
566.115	52790.14
566.477	52792.62
566.839	52989
567.201	53145.38
567.563	53165.49
567.925	53315.1
568.287	53393.29
568.648	53415.88
569.01	53631.47
569.372	53818.13
569.734	53710.11
570.095	53940.16
570.457	53988.52
570.819	54106.49
571.18	54079.82
571.542	54250.89
571.903	54375.86
572.265	54552.35
572.626	54546.25
572.987	54681.61
573.349	54774.49
573.71	54799.12
574.071	54904.66
574.432	55034.37
574.794	55127.03
575.155	55136.52
575.516	55083.18
575.877	55234.37
576.238	55301.71
576.599	55390.97
576.96	55458.32
577.32	55462.38
577.681	55504.42
578.042	55640.01
578.403	55529.27
578.763	55541.03
579.124	55652.66
579.485	55791.19
579.845	55795.48
580.206	55745.99
580.566	55789.38
580.927	55856.72
581.287	55979.21
581.648	55792.09
582.008	55900.56
582.368	55909.38
582.728	56005.87
583.089	55937.4
583.449	55963.16
583.809	55921.81
584.169	55972.88
584.529	55889.94
584.889	56112.54
585.249	55950.28
585.609	55944.63
585.969	56092.42
586.329	55942.82
586.688	56012.43
587.048	55958.64
587.408	55902.37
587.768	55998.41
588.127	55957.96
588.487	55872.77
588.846	56057.4
589.206	55902.6
589.565	55902.15
589.925	55978.98
590.284	55908.7
590.643	55912.54
591.003	56053.33
591.362	56120.9
591.721	56042.71
592.08	55995.02
592.44	56035.48
592.799	56011.52
593.158	56005.65
593.517	56089.26
593.876	55985.99
594.235	55945.31
594.593	55988.02
594.952	56138.52
595.311	56013.1
595.67	56093.33
596.029	56163.16
596.387	56258.97
596.746	56282.93
597.104	56219.2
597.463	56209.48
597.822	56383.26
598.18	56272.98
598.538	56305.3
598.897	56512.07
599.255	56248.13
599.613	56672.3
599.972	56533.54
600.33	56488.35
600.688	56574.67
601.046	56557.27
601.404	56651.05
601.762	56595.69
602.12	56714.55
602.478	56675.91
602.836	56713.2
603.194	56602.69
603.552	56752.75
603.91	56631.84
604.268	56755.91
604.625	56751.62
604.983	56767.66
605.341	56687.44
605.698	56815.57
606.056	56864.83
606.413	56836.36
606.771	56932.18
607.128	56970.14
607.485	56798.39
607.843	56818.05
608.2	57044.49
608.557	57017.14
608.914	57006.52
609.272	57099.4
609.629	57136.69
609.986	57199.74
610.343	57067.31
610.7	57244.48
611.057	57176.01
611.414	57122
611.771	57154.99
612.127	57249.46
612.484	57258.27
612.841	57242
613.198	57105.96
613.554	57220.3
613.911	57312.28
614.267	57278.15
614.624	57391.82
614.98	57337.14
615.337	57458.26
615.693	57414.65
616.05	57367.19
616.406	57503.01
616.762	57368.77
617.118	57377.14
617.475	57289.91
617.831	57389.34
618.187	57439.73
618.543	57481.99
618.899	57554.31
619.255	57564.48
619.611	57516.57
619.967	57557.02
620.323	57609.45
620.678	57466.17
621.034	57417.36
621.39	57385.95
621.746	57362.67
622.101	57634.08
622.457	57357.7
622.812	57476.79
623.168	57503.23
623.523	57439.05
623.879	57494.19
624.234	57414.42
624.589	57438.6
624.945	57473.18
625.3	57479.73
625.655	57479.28
626.01	57416
626.365	57529.67
626.72	57418.49
627.075	57466.85
627.43	57402.9
627.785	57340.3
628.14	57399.28
628.495	57416.91
628.85	57341.66
629.205	57280.87
629.559	57402.67
629.914	57261.88
630.269	57337.81
630.623	57220.76
630.978	57145.73
631.332	57277.48
631.687	57374.88
632.041	57209.91
632.396	57230.47
632.75	57209
633.104	57158.38
633.459	57063.25
633.813	57082
634.167	57140.31
634.521	57102.34
634.875	57047.65
635.229	57094.2
635.583	57008.56
635.937	57004.26
636.291	56990.03
636.645	57057.37
636.999	57010.82
637.352	57059.4
637.706	56906.64
638.06	57003.13
638.413	56947.32
638.767	56790.71
639.121	56864.61
639.474	56731.05
639.828	56829.58
640.181	56788
640.534	56729.69
640.888	56696.25
641.241	56616.25
641.594	56729.69
641.947	56808.34
642.301	56644.5
642.654	56675.91
643.007	56718.4
643.36	56667.55
643.713	56609.02
644.066	56704.61
644.419	56440.44
644.771	56289.25
645.124	56057.85
645.477	55938.53
645.83	55798.65
646.182	55640.46
646.535	55501.48
646.888	55586.9
647.24	55383.06
647.593	55579.44
647.945	55510.52
648.298	55387.36
648.65	55323.63
649.002	55193.46
649.355	55358.88
649.707	55195.27
650.059	55425.1
650.411	55671.19
650.763	55702.83
651.115	55956.38
651.467	55864.18
651.819	55798.87
652.171	55752.77
652.523	55658.76
652.875	55670.29
653.227	55549.39
653.578	55699.89
653.93	55631.64
654.282	55465.55
654.633	55332.44
654.985	55342.39
655.337	55360.01
655.688	55334.48
656.039	55493.8
656.391	55245.89
656.742	55235.27
657.094	55340.8
657.445	55367.47
657.796	55321.6
658.147	55232.33
658.498	55172.67
658.849	55233.91
659.2	55147.82
659.551	55051.77
659.902	55181.03
660.253	55095.16
660.604	55150.3
660.955	55004.99
661.306	55153.24
661.656	54974.94
662.007	55039.12
662.358	55074.15
662.708	55072.79
663.059	54933.36
663.409	54741.72
663.76	55009.97
664.11	54988.95
664.461	54938.78
664.811	54945.11
665.161	54864.43
665.511	54802.97
665.862	54783.98
666.212	54870.76
666.562	54783.08
666.912	54734.72
667.262	54734.49
667.612	54722.52
667.962	54724.1
668.312	54609.07
668.662	54766.58
669.011	54675.29
669.361	54595.06
669.711	54566.36
670.06	54503.31
670.41	54513.93
670.76	54441.39
671.109	54527.04
671.459	54431.45
671.808	54382.64
672.157	54422.86
672.507	54241.85
672.856	54200.27
673.205	54212.92
673.554	54337.67
673.904	54249.76
674.253	54358.68
674.602	54221.29
674.951	53793.5
675.3	53537.46
675.649	54055.64
675.998	54074.17
676.346	53986.04
676.695	54103.78
677.044	53968.19
677.393	54011.57
677.741	53950.78
678.09	54014.06
678.438	53914.63
678.787	53948.07
679.135	53863.1
679.484	53757.57
679.832	53903.78
680.181	53671.02
680.529	53774.07
680.877	53630.34
681.225	53719.6
681.573	53826.95
681.922	53592.38
682.27	53412.49
682.618	53472.15
682.966	53357.13
683.314	53560.74
683.661	53409.1
684.009	53294.98
684.357	53249.33
684.705	53313.06
685.053	53329.33
685.4	53205.49
685.748	53019.74
686.095	53092.05
686.443	53035.78
686.79	53079.17
687.138	53203.23
687.485	53003.69
687.832	52875.78
688.18	52942.45
688.527	52725.73
688.874	52772.51
689.221	52701.33
689.568	52597.37
689.915	52525.29
690.262	52487.55
690.609	52407.77
690.956	52402.58
691.303	52294.78
691.65	52126.2
691.997	52074.45
692.344	51906.54
692.69	51906.32
693.037	51861.57
693.383	51620.68
693.73	51801.46
694.077	51469.49
694.423	51457.29
694.769	51358.54
695.116	51222.04
695.462	51206.68
695.808	51137.98
696.155	51109.5
696.501	50721.94
696.847	50748.16
697.193	50611.89
697.539	50667.93
697.885	50287.38
698.231	50189.98
698.577	50289.41
698.923	50141.17
699.269	49938.01
699.614	49683.55
699.96	49499.6
700.306	49596.1
700.651	49347.29
700.997	49295.54
701.342	49139.84
701.688	49010.8
702.033	48963.8
702.379	48876.34
702.724	48801.54
703.069	48776.23
703.415	48304.61
703.76	48325.85
704.105	48137.15
704.45	48089.24
704.795	47811.06
705.14	47853.77
705.485	47840.66
705.83	47479.99
706.175	47544.17
706.52	47459.66
706.865	47348.02
707.209	47337.17
707.554	47110.29
707.899	47264.86
708.243	46932.44
708.588	46976.05
708.932	46554.82
709.277	46603.18
709.621	46609.28
709.966	46365.67
710.31	46431.21
710.654	46026.7
710.998	46171.33
711.342	46029.19
711.687	45928.17
712.031	45930.66
712.375	45635.75
712.719	45684.56
713.063	45595.07
713.407	45764.79
713.75	45410.67
714.094	45369.54
714.438	45277.34
714.782	45446.38
715.125	45144.01
715.469	45281.86
715.812	44989.66
716.156	44800.52
716.499	44908.99
716.843	44756
717.186	44572.05
717.53	44722.1
717.873	44724.81
718.216	44560.07
718.559	44485.5
718.902	44115.56
719.246	44218.39
719.589	44099.74
719.932	44113.3
720.275	43977.94
720.617	43968.22
720.96	43864.27
721.303	44049.35
721.646	43926.42
721.989	43707.89
722.331	43840.99
722.674	43430.16
723.016	43662.92
723.359	43481.91
723.701	43608.23
724.044	43416.6
724.386	43121.47
724.729	43322.82
725.071	43183.61
725.413	43147.68
725.755	43171.86
726.097	42936.84
726.439	42752.66
726.782	42743.62
727.124	42817.52
727.465	42502.72
727.807	42626.11
728.149	42530.75
728.491	42345.44
728.833	42563.29
729.175	42284.2
729.516	42393.8
729.858	42105.45
730.199	42166.01
730.541	42135.5
730.882	41898.22
731.224	42051.66
731.565	41826.58
731.906	41773.03
732.248	41859.35
732.589	41573.26
732.93	41572.58
733.271	41558.57
733.612	41674.72
733.953	41596.53
734.294	41479.7
734.635	41461.4
734.976	41387.27
735.317	41147.73
735.658	41170.56
735.999	41086.26
736.339	41045.59
736.68	41189.09
737.021	40885.59
737.361	40659.16
737.702	40927.4
738.042	40817.12
738.383	40734.86
738.723	40900.51
739.063	40600.18
739.404	40504.13
739.744	40473.63
740.084	40449.67
740.424	40232.28
740.764	40255.33
741.104	40414.42
741.444	40116.8
741.784	39844.49
742.124	40094.2
742.464	39790.93
742.804	40114.31
743.143	39750.93
743.483	39900.76
743.823	39626.87
744.162	39749.35
744.502	39665.28
744.841	39472.75
745.181	39465.06
745.52	39444.05
745.86	39432.75
746.199	39404.27
746.538	39263.04
746.877	39191.4
747.216	39086.99
747.556	39010.39
747.895	38972.2
748.234	38760.9
748.573	38656.05
748.911	38776.49
749.25	38790.73
749.589	38473.68
749.928	38397.97
750.267	38414.7
750.605	38312.78
750.944	38235.72
751.283	38070.98
751.621	38059.23
751.96	37966.8
752.298	37755.73
752.636	37713.7
752.975	37512.35
753.313	37461.73
753.651	37562.52
753.989	37149.87
754.327	37125.24
754.666	37030.78
755.004	37067.39
755.342	36953.94
755.679	36808.64
756.017	36662.88
756.355	36687.28
756.693	36562.99
757.031	36595.76
757.368	36370.23
757.706	36159.39
758.044	35953.29
758.381	36038.71
758.719	35852.73
759.056	35871.03
759.394	35740.42
759.731	35477.15
760.068	35444.15
760.405	35231.73
760.743	35272.86
761.08	35195.12
761.417	34941.34
761.754	34932.98
762.091	34732.76
762.428	34729.6
762.765	34345.2
763.102	34450.73
763.438	34387.23
763.775	34168.03
764.112	34099.1
764.449	34271.3
764.785	33958.09
765.122	33728.72
765.458	33624.99
765.795	33521.94
766.131	33449.18
766.467	33349.52
766.804	33170.99
767.14	33026.36
767.476	33036.53
767.812	32965.57
768.148	32890.32
768.485	32639.48
768.821	32483.78
769.157	32519.26
769.492	32422.09
769.828	32265.48
770.164	31891.25
770.5	31982.77
770.836	31894.42
771.171	31735.1
771.507	31617.59
771.842	31496.23
772.178	31452.39
772.513	31336.24
772.849	31269.57
773.184	31211.72
773.519	31070.48
773.855	30966.98
774.19	30709.36
774.525	30689.48
774.86	30768.57
775.195	30638.4
775.53	30634.11
775.865	30435.92
776.2	30250.84
776.535	30122.03
776.87	29981.47
777.205	29857.63
777.539	29738.99
777.874	29769.95
778.209	29541.26
778.543	29542.84
778.878	29391.66
779.212	29265.11
779.547	29102.62
779.881	29302.85
780.215	29110.76
780.55	29054.72
780.884	28849.75
781.218	28849.52
781.552	28843.65
781.886	28649.53
782.22	28502.64
782.554	28315.98
782.888	28315.3
783.222	28093.16
783.556	28062.2
783.889	27990.11
784.223	27701.08
784.557	27712.15
784.89	27832.6
785.224	27603.68
785.557	27482.1
785.891	27344.7
786.224	27394.42
786.558	27257.02
786.891	26923.92
787.224	26969.8
787.557	26829.24
787.891	26829.92
788.224	26779.07
788.557	26736.81
788.89	26570.94
789.223	26496.82
789.556	26266.99
789.888	26275.58
790.221	26148.13
790.554	25978.41
790.887	26081.24
791.219	25896.83
791.552	25912.65
791.884	25796.5
792.217	25714.69
792.549	25668.14
792.882	25420.69
793.214	25240.13
793.546	25391.76
793.879	25097.53
794.211	25205.1
794.543	25070.64
794.875	25134.82
795.207	25098.89
795.539	24896.86
795.871	24959
796.203	24699.8
796.535	24604.66
796.867	24625.45
797.198	24435.18
797.53	24533.25
797.862	24285.12
798.193	24396.53
798.525	24181.85
798.856	24265.69
799.188	23960.39
799.519	23841.52
799.85	23709.55
800.182	23723.33
800.513	23719.04
800.844	23485.6
801.175	23570.79
801.506	23572.37
801.837	23368.54
802.168	23318.82
802.499	23202.44
802.83	23146.17
803.161	22999.96
803.491	22971.49
803.822	22992.5
804.153	22849
804.483	22689.69
804.814	22604.49
805.145	22508.22
805.475	22533.31
805.805	22460.54
806.136	22414.66
806.466	22462.12
806.796	22346.87
807.126	22202.02
807.457	22043.38
807.787	22061.68
808.117	21945.3
808.447	21924.06
808.777	21950.72
809.107	21893.1
809.436	21791.63
809.766	21899.65
810.096	21697.85
810.426	21627.11
810.755	21539.21
811.085	21408.59
811.414	21414.92
811.744	21126.34
812.073	21173.34
812.403	21191.65
812.732	21045.66
813.061	21084.76
813.39	20895.61
813.719	20864.2
814.049	20989.39
814.378	20806.8
814.707	20798.21
815.036	20659.68
815.365	20572
815.693	20340.6
816.022	20379.24
816.351	20337.66
816.68	20217.66
817.008	20255.17
817.337	20085.23
817.665	20010.21
817.994	20027.61
818.322	19988.51
818.651	19909.65
818.979	19807.05
819.307	19817.45
819.636	19799.14
819.964	19476.21
820.292	19673.95
820.62	19679.37
820.948	19523.22
821.276	19659.94
821.604	19522.76
821.932	19588.07
822.259	19588.3
822.587	19470.79
822.915	19385.82
823.243	19413.39
823.57	19388.53
823.898	19340.4
824.225	19370
824.553	19333.39
824.88	19265.37
825.207	19319.83
825.535	19259.95
825.862	19358.7
826.189	19183.11
826.516	19269.66
826.843	19290.45
827.17	19355.76
827.497	19365.03
827.824	19320.06
828.151	19245.48
828.478	19151.02
828.805	19211.81
829.131	19158.48
829.458	19184.69
829.785	19065.6
830.111	19103.34
830.438	19139.72
830.764	19068.31
831.09	19188.76
831.417	19013.17
831.743	19102.21
832.069	19133.4
832.395	18928.65
832.722	19025.6
833.048	18943.34
833.374	19014.3
833.7	18901.31
834.026	18996
834.351	18985.15
834.677	18942.21
835.003	18912.16
835.329	19033.51
835.654	18983.57
835.98	18741.77
836.306	18916.23
836.631	18769.79
836.956	18864.25
837.282	18821.09
837.607	18719.62
837.932	18738.83
838.258	18744.25
838.583	18655.22
838.908	18636.23
839.233	18691.6
839.558	18659.28
839.883	18553.3
840.208	18415.45
840.533	18585.84
840.858	18581.09
841.182	18631.49
841.507	18504.94
841.832	18430.36
842.156	18443.47
842.481	18429.23
842.805	18333.19
843.13	18235.79
843.454	18323.25
843.778	18194.21
844.103	18267.88
844.427	18167.32
844.751	18182.46
845.075	18089.58
845.399	18073.99
845.723	17996.48
846.047	18059.07
846.371	17904.27
846.695	17902.24
847.019	17750.61
847.343	17604.85
847.666	17597.39
847.99	17469.94
848.313	17451.63
848.637	17388.36
848.96	17477.62
849.284	17321.47
849.607	17291.41
849.931	17180
850.254	17139.1
850.577	17121.92
850.9	16903.62
851.223	16925.09
851.546	16869.05
851.869	16747.02
852.192	16848.03
852.515	16704.31
852.838	16615.72
853.161	16588.15
853.483	16409.17
853.806	16442.17
854.129	16332.79
854.451	16293.92
854.774	16176.41
855.096	16147.26
855.419	16165.34
855.741	16027.71
856.063	16030.65
856.385	16016.19
856.708	15889.86
857.03	15793.6
857.352	15929.19
857.674	15853.48
857.996	15730.32
858.318	15634.5
858.64	15631.79
858.961	15615.07
859.283	15532.36
859.605	15397.67
859.926	15449.65
860.248	15446.71
860.57	15417.33
860.891	15494.17
861.212	15309.31
861.534	15319.71
861.855	15325.13
862.176	15235.42
862.498	15187.51
862.819	15178.7
863.14	15065.25
863.461	15046.27
863.782	15078.36
864.103	15058.7
864.424	14997.23
864.745	15044.24
865.065	14904.35
865.386	14842.43
865.707	14906.84
866.027	14871.81
866.348	14795.43
866.668	14867.29
866.989	14800.4
867.309	14664.13
867.63	14663.23
867.95	14586.4
868.27	14517.47
868.59	14583.46
868.91	14588.43
869.23	14483.35
869.55	14436.8
869.87	14541.88
870.19	14478.83
870.51	14441.32
870.83	14450.13
871.15	14321.54
871.469	14306.18
871.789	14335.56
872.109	14330.13
872.428	14298.04
872.748	14321.32
873.067	14329.45
873.386	14340.75
873.706	14243.81
874.025	14126.52
874.344	14062.57
874.663	14094.66
874.982	14032.29
875.301	14080.19
875.62	14018.28
875.939	13991.16
876.258	13909.35
876.577	13883.14
876.896	13900.09
877.214	13806.53
877.533	13900.54
877.852	13810.6
878.17	13747.32
878.489	13757.72
878.807	13826.64
879.125	13797.04
879.444	13737.83
879.762	13666.65
880.08	13634.1
880.398	13638.62
880.716	13550.49
881.034	13544.84
881.352	13586.65
881.67	13486.54
881.988	13442.92
882.306	13358.63
882.624	13424.62
882.941	13317.5
883.259	13208.13
883.577	13222.14
883.894	13318.18
884.212	13234.57
884.529	13281.12
884.846	13196.38
885.164	13166.55
885.481	13004.29
885.798	13072.31
886.115	12880.9
886.432	12968.59
886.75	12900.79
887.067	12925.42
887.383	12897.85
887.7	12912.54
888.017	12791.19
888.334	12837.97
888.651	12724.3
888.967	12747.8
889.284	12613.57
889.6	12628.26
889.917	12517.75
890.233	12586.22
890.55	12538.31
890.866	12540.35
891.182	12364.53
891.498	12395.72
891.815	12357.3
892.131	12204.09
892.447	12265.55
892.763	12237.53
893.079	12175.39
893.395	12063.75
893.71	12067.59
894.026	12027.82
894.342	12050.87
894.657	11838.67
894.973	11887.94
895.289	11908.95
895.604	11901.72
895.92	11674.16
896.235	11609.3
896.55	11722.74
896.865	11659.24
897.181	11559.58
897.496	11528.62
897.811	11459.02
898.126	11414.5
898.441	11351.68
898.756	11314.84
899.071	11360.04
899.386	11312.58
899.7	11133.61
900.015	11089.09
900.33	11042.53
900.644	11065.36
900.959	10986.94
901.273	10963.44
901.588	10889.32
901.902	10844.57
902.216	10952.37
902.531	10828.75
902.845	10753.95
903.159	10717.35
903.473	10702.43
903.787	10626.05
904.101	10610.68
904.415	10583.79
904.729	10572.26
905.042	10459.27
905.356	10457.69
905.67	10443.45
905.984	10370.91
906.297	10329.78
906.611	10283.91
906.924	10271.48
907.237	10208.66
907.551	10143.35
907.864	10069.23
908.177	10089.57
908.491	10072.62
908.804	9949
909.117	9907.65
909.43	9823.81
909.743	9824.49
910.056	9829.23
910.368	9791.49
910.681	9762.79
910.994	9731.16
911.307	9716.47
911.619	9624.49
911.932	9588.34
912.244	9528.68
912.557	9513.31
912.869	9453.88
913.181	9430.15
913.494	9421.56
913.806	9344.73
914.118	9324.84
914.43	9275.58
914.742	9324.61
915.054	9203.03
915.366	9171.4
915.678	9119.65
915.99	9109.03
916.302	9019.08
916.613	9038.97
916.925	8989.71
917.236	8973.44
917.548	8881.24
917.859	8881.91
918.171	8791.97
918.482	8855.7
918.794	8750.84
919.105	8719.88
919.416	8692.09
919.727	8670.62
920.038	8633.33
920.349	8566.44
920.66	8572.09
920.971	8597.63
921.282	8589.49
921.593	8497.52
921.903	8421.13
922.214	8411.64
922.525	8437.86
922.835	8440.34
923.146	8370.29
923.456	8286.9
923.767	8260.01
924.077	8256.39
924.387	8174.59
924.697	8198.32
925.008	8206.9
925.318	8139.56
925.628	8122.16
925.938	8112.89
926.248	8018.66
926.558	8022.5
926.867	7989.51
927.177	7951.32
927.487	7926.01
927.796	7855.95
928.106	7849.62
928.416	7792.22
928.725	7874.71
929.034	7753.13
929.344	7764.65
929.653	7745.45
929.962	7665.45
930.271	7629.97
930.581	7668.39
930.89	7627.71
931.199	7534.83
931.508	7545.23
931.817	7581.83
932.125	7546.13
932.434	7463.87
932.743	7410.31
933.051	7449.41
933.36	7381.61
933.669	7330.32
933.977	7304.1
934.286	7290.77
934.594	7246.93
934.902	7217.32
935.21	7205.12
935.519	7236.98
935.827	7174.61
936.135	7116.99
936.443	7110.66
936.751	7098.91
937.059	7133.71
937.367	6970.33
937.674	7009.19
937.982	6980.72
938.29	6912.02
938.597	6938.69
938.905	6829.99
939.213	6767.17
939.52	6808.07
939.827	6803.32
940.135	6739.14
940.442	6683.55
940.749	6682.42
941.056	6731.01
941.363	6642.2
941.67	6604.46
941.977	6577.57
942.284	6525.82
942.591	6533.27
942.898	6515.42
943.205	6509.77
943.511	6427.97
943.818	6390.68
944.125	6385.93
944.431	6317.69
944.738	6340.29
945.044	6332.83
945.35	6282.66
945.657	6178.03
945.963	6184.81
946.269	6159.73
946.575	6152.95
946.881	6103.23
947.187	6126.96
947.493	6049.22
947.799	6070.24
948.105	5945.27
948.41	5910.47
948.716	5955.66
949.022	5894.65
949.327	5917.25
949.633	5869.34
949.938	5847.64
950.244	5807.64
950.549	5727.65
950.854	5766.52
951.16	5736.69
951.465	5725.16
951.77	5664.6
952.075	5644.71
952.38	5589.34
952.685	5568.78
952.99	5532.85
953.294	5544.83
953.599	5477.03
953.904	5420.08
954.209	5448.11
954.513	5437.03
954.818	5398.62
955.122	5332.63
955.426	5303.93
955.731	5298.73
956.035	5291.05
956.339	5217.83
956.643	5216.02
956.948	5213.08
957.252	5168.79
957.556	5138.96
957.86	5126.53
958.163	5104.61
958.467	5076.14
958.771	5070.71
959.075	5036.36
959.378	5010.38
959.682	5003.37
959.985	4959.98
960.289	4924.96
960.592	4886.31
960.896	4841.79
961.199	4834.79
961.502	4875.92
961.805	4806.31
962.108	4749.82
962.411	4769.48
962.714	4730.16
963.017	4714.57
963.32	4684.51
963.623	4614.23
963.926	4678.41
964.228	4593.89
964.531	4578.98
964.833	4561.57
965.136	4507.79
965.438	4532.88
965.741	4484.74
966.043	4450.17
966.345	4458.98
966.648	4429.6
966.95	4366.78
967.252	4339.66
967.554	4371.98
967.856	4329.94
968.158	4294.92
968.46	4245.43
968.761	4297.63
969.063	4250.85
969.365	4218.76
969.666	4217.63
969.968	4206.78
970.269	4177.18
970.571	4151.64
970.872	4134.69
971.174	4101.47
971.475	4065.99
971.776	4032.1
972.077	4046.79
972.378	4029.61
972.679	4023.96
972.98	3985.54
973.281	3961.82
973.582	3970.18
973.883	3905.32
974.183	3940.8
974.484	3910.52
974.785	3891.31
975.085	3884.98
975.386	3875.27
975.686	3867.13
975.986	3797.3
976.287	3791.43
976.587	3778.54
976.887	3781.48
977.187	3739
977.487	3706.68
977.787	3692.67
978.087	3678.66
978.387	3673.01
978.687	3659.45
978.987	3628.49
979.286	3628.72
979.586	3603.18
979.885	3541.04
980.185	3585.33
980.484	3560.25
980.784	3503.3
981.083	3498.55
981.382	3482.28
981.682	3458.1
981.981	3449.74
982.28	3430.53
982.579	3441.15
982.878	3440.02
983.177	3391.89
983.475	3396.86
983.774	3357.09
984.073	3353.47
984.372	3275.96
984.67	3320.25
984.969	3296.75
985.267	3280.48
985.566	3255.85
985.864	3273.93
986.162	3236.19
986.461	3218.11
986.759	3203.87
987.057	3171.33
987.355	3151.22
987.653	3150.99
987.951	3153.48
988.249	3115.74
988.547	3116.64
988.844	3076.19
989.142	3091.56
989.44	3046.81
989.737	3024.67
990.035	3047.04
990.332	3055.85
990.63	3018.11
990.927	2985.8
991.224	2983.99
991.521	2964.55
991.819	2948.51
992.116	2933.37
992.413	2954.61
992.71	2909.19
993.006	2906.25
993.303	2898.34
993.6	2907.16
993.897	2845.01
994.193	2860.38
994.49	2877.33
994.787	2833.48
995.083	2796.65
995.379	2790.77
995.676	2792.36
995.972	2753.94
996.268	2737.44
996.565	2737.67
996.861	2724.79
997.157	2730.89
997.453	2711.45
997.749	2724.79
998.044	2696.54
998.34	2679.36
998.636	2661.96
998.932	2645.69
999.227	2608.63
999.523	2615.41
999.818	2583.55
1000.114	2568.63
1000.409	2571.8
1000.704	2565.7
1001	2552.14
1001.295	2552.36
1001.59	2540.84
1001.885	2481.86
1002.18	2489.77
1002.475	2494.06
1002.77	2438.24
1003.065	2437.79
1003.359	2467.39
1003.654	2435.76
1003.949	2451.35
1004.243	2403.44
1004.538	2340.16
1004.832	2361.86
1005.127	2346.94
1005.421	2348.53
1005.715	2295.19
1006.009	2315.76
1006.304	2325.93
1006.598	2288.87
1006.892	2302.88
1007.186	2275.76
1007.48	2290.67
1007.773	2253.84
1008.067	2247.06
1008.361	2193.95
1008.655	2220.17
1008.948	2172.26
1009.242	2199.38
1009.535	2180.17
1009.829	2161.64
1010.122	2144.24
1010.415	2133.16
1010.708	2132.49
1011.001	2113.96
1011.295	2114.18
1011.588	2108.31
1011.881	2060.62
1012.173	2061.98
1012.466	2069.44
1012.759	2025.6
1013.052	2035.99
1013.344	2014.07
1013.637	1965.94
1013.93	1998.03
1014.222	1975.2
1014.514	1952.15
1014.807	1954.64
1015.099	1941.76
1015.391	1932.72
1015.683	1910.8
1015.976	1914.64
1016.268	1902.44
1016.56	1885.49
1016.851	1888.2
1017.143	1872.15
1017.435	1872.38
1017.727	1828.54
1018.018	1815.66
1018.31	1815.43
1018.602	1784.47
1018.893	1781.54
1019.185	1790.35
1019.476	1767.3
1019.767	1775.89
1020.058	1775.66
1020.35	1765.72
1020.641	1739.05
1020.932	1692.72
1021.223	1713.74
1021.514	1698.83
1021.804	1675.78
1022.095	1692.5
1022.386	1696.57
1022.677	1675.32
1022.967	1645.04
1023.258	1654.76
1023.548	1598.49
1023.839	1598.04
1024.129	1635.55
1024.419	1614.76
1024.709	1604.36
1025	1580.64
1025.29	1585.16
1025.58	1570.69
1025.87	1537.02
1026.16	1530.92
1026.449	1557.59
1026.739	1529.56
1027.029	1538.15
1027.319	1487.08
1027.608	1518.94
1027.898	1490.47
1028.187	1438.72
1028.477	1466.06
1028.766	1462.45
1029.055	1450.7
1029.344	1448.89
1029.634	1408.44
1029.923	1411.38
1030.212	1407.31
1030.501	1378.61
1030.79	1367.99
1031.078	1380.19
1031.367	1348.78
1031.656	1350.59
1031.945	1325.28
1032.233	1349.68
1032.522	1341.32
1032.81	1304.71
1033.099	1294.99
1033.387	1301.1
1033.675	1306.52
1033.963	1284.6
1034.251	1260.64
1034.54	1287.54
1034.828	1283.92
1035.116	1244.6
1035.403	1249.8
1035.691	1225.62
1035.979	1238.05
1036.267	1236.46
1036.554	1203.92
1036.842	1223.36
1037.129	1180.42
1037.417	1161.44
1037.704	1199.4
1037.992	1155.34
1038.279	1124.15
1038.566	1165.05
1038.853	1165.05
1039.14	1165.05
