Data from White_paper_FLMS001491_013.txt Node
Date: Tue Feb 07 10:34:43 GMT 2017
User: dcchb
Spectrometer: FLMS00149
Trigger mode: 0
Integration Time (sec): 2.000000E-2
Scans to average: 10
Electric dark correction enabled: true
Nonlinearity correction enabled: false
Boxcar width: 0
XAxis mode: Wavelengths
Number of Pixels in Spectrum: 2048
>>>>>Begin Spectral Data<<<<<
341.393	-5.41
341.776	-5.41
342.16	-5.41
342.543	-65.75
342.927	-69.59
343.31	-67.55
343.693	-77.5
344.077	-74.56
344.46	-45.63
344.843	-46.76
345.226	-34.34
345.61	-19.87
345.993	-22.36
346.376	-2.92
346.759	12.9
347.142	24.87
347.525	37.08
347.908	54.93
348.291	69.84
348.674	82.27
349.057	109.62
349.44	134.02
349.823	146.9
350.206	159.56
350.588	223.06
350.971	245.66
351.354	263.28
351.737	255.83
352.119	275.26
352.502	299.67
352.884	289.05
353.267	293.34
353.65	310.06
354.032	309.61
354.414	329.05
354.797	357.74
355.179	363.17
355.562	353.68
355.944	345.54
356.326	388.25
356.709	365.43
357.091	348.93
357.473	376.95
357.855	400.46
358.238	398.2
358.62	386.22
359.002	376.05
359.384	380.34
359.766	373.56
360.148	364.98
360.53	366.33
360.912	382.15
361.294	366.33
361.676	355.26
362.057	374.69
362.439	368.59
362.821	349.38
363.203	338.31
363.584	358.65
363.966	371.76
364.348	363.85
364.729	361.81
365.111	385.54
365.493	354.13
365.874	347.12
366.256	362.72
366.637	344.86
367.019	368.59
367.4	374.69
367.781	330.63
368.163	350.74
368.544	364.07
368.925	363.85
369.306	354.81
369.688	364.3
370.069	366.33
370.45	367.69
370.831	359.78
371.212	361.59
371.593	380.8
371.974	348.03
372.355	369.5
372.736	372.21
373.117	380.57
373.498	364.07
373.879	364.98
374.26	377.63
374.641	361.36
375.021	349.16
375.402	369.5
375.783	369.04
376.163	394.35
376.544	393.45
376.925	407.46
377.305	374.02
377.686	375.15
378.066	409.72
378.447	399.33
378.827	407.46
379.208	395.94
379.588	380.8
379.968	398.65
380.349	403.17
380.729	421.02
381.109	408.14
381.489	409.95
381.87	411.3
382.25	400.46
382.63	410.62
383.01	400.46
383.39	407.69
383.77	441.13
384.15	425.77
384.53	433
384.91	435.26
385.29	436.61
385.67	436.16
386.049	456.73
386.429	448.82
386.809	442.04
387.189	456.27
387.568	460.34
387.948	467.35
388.328	464.86
388.707	472.32
389.087	485.43
389.466	511.64
389.846	478.65
390.225	486.56
390.605	508.02
390.984	484.3
391.363	491.75
391.743	521.13
392.122	494.69
392.501	527.91
392.881	532.88
393.26	516.61
393.639	541.02
394.018	537.4
394.397	553.45
394.776	535.14
395.155	551.86
395.534	548.25
395.913	577.4
396.292	560.9
396.671	578.53
397.05	565.65
397.429	575.37
397.808	593.22
398.186	568.59
398.565	600.45
398.944	605.2
399.323	593.22
399.701	609.04
400.08	619.21
400.458	636.83
400.837	637.29
401.215	650.39
401.594	648.36
401.972	640.45
402.351	683.84
402.729	691.3
403.107	702.82
403.486	704.63
403.864	703.05
404.242	706.21
404.62	724.97
404.999	757.06
405.377	745.76
405.755	778.75
406.133	774.01
406.511	795.7
406.889	809.26
407.267	838.18
407.645	844.96
408.023	876.38
408.401	892.19
408.779	920.89
409.156	921.35
409.534	942.81
409.912	962.02
410.29	1000.21
410.667	1018.74
411.045	1053.09
411.422	1077.95
411.8	1099.65
412.178	1116.82
412.555	1154.11
412.933	1155.24
413.31	1223.26
413.687	1233.2
414.065	1247.89
414.442	1309.58
414.819	1328.11
415.197	1327.21
415.574	1360.43
415.951	1414.67
416.328	1419.41
416.705	1470.48
417.082	1463.48
417.46	1526.08
417.837	1561.55
418.214	1561.55
418.591	1581.67
418.967	1635.23
419.344	1630.48
419.721	1656.02
420.098	1677.26
420.475	1703.02
420.852	1731.27
421.228	1745.5
421.605	1789.57
421.982	1806.97
422.358	1877.03
422.735	1884.26
423.111	1877.93
423.488	1918.83
423.864	1939.62
424.241	1988.44
424.617	1989.57
424.994	2032.73
425.37	2070.02
425.746	2093.52
426.123	2095.55
426.499	2112.5
426.875	2137.81
427.251	2213.74
427.627	2279.5
428.003	2256.45
428.379	2323.12
428.756	2343.68
429.132	2380.74
429.507	2388.65
429.883	2448.99
430.259	2499.61
430.635	2504.36
431.011	2537.12
431.387	2588.42
431.763	2618.48
432.138	2648.76
432.514	2685.82
432.89	2725.14
433.265	2799.04
433.641	2837.68
434.016	2851.92
434.392	2920.62
434.767	2983.44
435.143	2944.12
435.518	3046.04
435.894	3055.98
436.269	3099.37
436.644	3144.34
437.02	3182.3
437.395	3167.84
437.77	3252.81
438.145	3272.7
438.52	3302.07
438.895	3368.51
439.271	3352.69
439.646	3458.23
440.021	3467.27
440.395	3485.12
440.77	3478.11
441.145	3500.04
441.52	3558.11
441.895	3568.28
442.27	3638.56
442.645	3572.8
443.019	3701.84
443.394	3696.19
443.769	3727.15
444.143	3699.13
444.518	3740.25
444.892	3753.36
445.267	3787.26
445.641	3803.08
446.016	3820.03
446.39	3854.38
446.764	3888.73
447.139	3879.69
447.513	3926.69
447.887	3948.16
448.262	4017.76
448.636	3965.56
449.01	4055.5
449.384	4114.48
449.758	4088.72
450.132	4156.52
450.506	4166.91
450.88	4181.83
451.254	4218.89
451.628	4298.43
452.002	4328.71
452.376	4320.8
452.75	4412.33
453.123	4394.47
453.497	4503.4
453.871	4494.81
454.244	4619.33
454.618	4632.89
454.992	4711.08
455.365	4659.78
455.739	4843.73
456.112	4882.82
456.486	4908.13
456.859	4909.72
457.232	5010.73
457.606	5027.23
457.979	5160.33
458.352	5202.82
458.725	5241.91
459.099	5295.69
459.472	5378.86
459.845	5445.29
460.218	5529.36
460.591	5553.54
460.964	5573.2
461.337	5686.42
461.71	5791.95
462.083	5855.91
462.456	5882.57
462.829	5902.46
463.201	5957.6
463.574	6060.19
463.947	6179.96
464.32	6276.01
464.692	6358.04
465.065	6352.39
465.438	6469.9
465.81	6542.89
466.183	6641.42
466.555	6732.04
466.928	6840.06
467.3	6804.13
467.672	6960.51
468.045	7094.06
468.417	7137.91
468.789	7180.16
469.161	7304.68
469.534	7420.61
469.906	7599.59
470.278	7591.45
470.65	7712.35
471.022	7848.62
471.394	8030.09
471.766	8049.97
472.138	8154.83
472.51	8314.6
472.882	8467.14
473.253	8519.79
473.625	8620.35
473.997	8853.11
474.369	8847.47
474.74	9053.79
475.112	9170.62
475.484	9301.01
475.855	9516.83
476.227	9581.23
476.598	9808.8
476.97	9924.72
477.341	10105.51
477.713	10300.53
478.084	10364.04
478.455	10611.94
478.827	10630.02
479.198	10998.14
479.569	11006.05
479.94	11322.65
480.311	11427.28
480.682	11707.05
481.053	11923.77
481.424	12106.14
481.795	12247.6
482.166	12326.92
482.537	12560.14
482.908	12799.23
483.279	12923.74
483.65	13169.61
484.021	13425.42
484.391	13575.48
484.762	13674.46
485.133	13824.51
485.503	14025.86
485.874	14292.52
486.244	14413.65
486.615	14729.34
486.985	14827.19
487.356	15144.93
487.726	15273.74
488.097	15597.12
488.467	15523.9
488.837	15894.74
489.207	16101.29
489.578	16248.17
489.948	16434.84
490.318	16696.52
490.688	16779.46
491.058	17004.09
491.428	17310.07
491.798	17452.89
492.168	17687.91
492.538	17755.48
492.908	18105.3
493.278	18271.17
493.648	18189.59
494.017	18416.48
494.387	18613.54
494.757	18766.3
495.126	18948.67
495.496	19157.02
495.866	19236.34
496.235	19404.48
496.605	19650.8
496.974	19652.83
497.344	19792.26
497.713	19913.84
498.082	20144.57
498.452	20378.69
498.821	20510.44
499.19	20565.12
499.559	20703.88
499.928	20849.18
500.298	20933.7
500.667	21102.51
501.036	21163.07
501.405	21438.32
501.774	21427.02
502.143	21540.46
502.512	21720.8
502.88	21921.7
503.249	21927.35
503.618	22158.3
503.987	22309.94
504.356	22361.23
504.724	22477.84
505.093	22549.7
505.462	22695.46
505.83	22771.84
506.199	23031.72
506.567	23252.51
506.936	23298.38
507.304	23534.54
507.672	23697.24
508.041	23781.76
508.409	23937.69
508.777	24106.95
509.145	24287.96
509.514	24383.33
509.882	24478.01
510.25	24602.31
510.618	24806.59
510.986	24866.48
511.354	25000.49
511.722	25224.66
512.09	25515.73
512.458	25527.48
512.826	25853.35
513.193	25840.46
513.561	25928.15
513.929	26226.9
514.297	26378.76
514.664	26577.62
515.032	26760.89
515.4	26860.55
515.767	27046.53
516.135	27223.48
516.502	27103.93
516.869	27535.79
517.237	27571.27
517.604	27652.62
517.972	27882.22
518.339	28159.95
518.706	28141.42
519.073	28427.06
519.44	28578.7
519.808	28882.87
520.175	28816.66
520.542	29284.22
520.909	29349.75
521.276	29415.51
521.643	29704.77
522.009	29869.74
522.376	30168.71
522.743	30273.57
523.11	30447.8
523.477	30746.78
523.843	31026.77
524.21	31403.71
524.577	31501.33
524.943	31615.23
525.31	31718.28
525.676	32064.71
526.043	32306.74
526.409	32393.06
526.776	32709.44
527.142	32813.84
527.508	32976.55
527.874	33177.67
528.241	33370.89
528.607	33553.93
528.973	33939.46
529.339	33913.25
529.705	34275.95
530.071	34430.52
530.437	34639.33
530.803	34815.6
531.169	34935.14
531.535	35007.91
531.901	35205.19
532.267	35340.1
532.632	35669.81
532.998	35673.2
533.364	35946.19
533.73	36081.55
534.095	36366.52
534.461	36451.94
534.826	36642.89
535.192	36689.67
535.557	36985.26
535.923	36889.44
536.288	37100.73
536.653	37276.55
537.019	37262.09
537.384	37374.4
537.749	37779.13
538.114	37835.63
538.479	37880.37
538.845	38055.96
539.21	37992.01
539.575	38286.24
539.94	38297.31
540.305	38559
540.67	38615.27
541.034	38879.22
541.399	38817.98
541.764	38948.14
542.129	39229.72
542.494	39174.13
542.858	39483.72
543.223	39522.14
543.587	39859.31
543.952	39832.41
544.316	39957.61
544.681	40004.61
545.045	40179.52
545.41	40405.51
545.774	40342
546.138	40398.05
546.503	40596.69
546.867	40553.75
547.231	41052.04
547.595	41076.45
547.959	41197.12
548.324	41266.05
548.688	41436.21
549.052	41595.98
549.416	41636.43
549.779	41832.36
550.143	41847.73
550.507	42095.63
550.871	42333.82
551.235	42186.02
551.599	42665.56
551.962	42592.11
552.326	42794.6
552.689	42879.11
553.053	42967.02
553.417	42990.97
553.78	43470.74
554.143	43265.09
554.507	43522.94
554.87	43663.27
555.234	44048.12
555.597	43837.28
555.96	44023.49
556.323	44201.11
556.686	44351.84
557.05	44537.37
557.413	44739.85
557.776	44764.71
558.139	45217.36
558.502	45023.01
558.865	45166.96
559.228	45572.38
559.59	45418.93
559.953	45549.32
560.316	45967.85
560.679	46037.9
561.041	46219.59
561.404	46431.11
561.767	46757.2
562.129	46556.76
562.492	47113.8
562.854	47054.14
563.217	47097.31
563.579	47222.95
563.941	47495.26
564.304	47596.28
564.666	47952.88
565.028	47980.67
565.39	48034.91
565.753	48203.27
566.115	48374.11
566.477	48483.03
566.839	48692.07
567.201	48883.93
567.563	48911.72
567.925	49257.48
568.287	49204.6
568.648	49400.98
569.01	49553.51
569.372	49758.25
569.734	49635.55
570.095	49868.08
570.457	50060.84
570.819	50049.77
571.18	50195.76
571.542	50393.49
571.903	50545.58
572.265	50576.31
572.626	50657.67
572.987	50829.86
573.349	50865.8
573.71	50988.05
574.071	51139.23
574.432	51146.47
574.794	51539.68
575.155	51421.94
575.516	51303.3
575.877	51532.67
576.238	51630.97
576.599	51787.35
576.96	51819.22
577.32	51767.69
577.681	51883.4
578.042	52057.85
578.403	52053.56
578.763	52143.5
579.124	52208.36
579.485	52382.82
579.845	52395.47
580.206	52467.34
580.566	52402.48
580.927	52515.24
581.287	52626.65
581.648	52491.29
582.008	52736.03
582.368	52634.11
582.728	52726.09
583.089	52698.97
583.449	52657.61
583.809	52789.81
584.169	52883.82
584.529	52811.28
584.889	53099.63
585.249	52843.14
585.609	52823.71
585.969	53080.2
586.329	52925.85
586.688	52974.67
587.048	52978.51
587.408	52951.62
587.768	52992.75
588.127	53043.14
588.487	52970.6
588.846	53316.58
589.206	52952.07
589.565	53049.24
589.925	53141.89
590.284	53140.54
590.643	53106.64
591.003	53256.92
591.362	53361.32
591.721	53314.77
592.08	53298.05
592.44	53416.91
592.799	53427.54
593.158	53333.75
593.517	53392.28
593.876	53538.95
594.235	53368.1
594.593	53364.49
594.952	53558.38
595.311	53444.03
595.67	53481.55
596.029	53621.66
596.387	53615.78
596.746	53698.72
597.104	53635.44
597.463	53553.41
597.822	53742.1
598.18	53589.57
598.538	53629.34
598.897	53816.23
599.255	53560.87
599.613	54050.8
599.972	53860.29
600.33	53984.13
600.688	53797.7
601.046	53828.2
601.404	54039.95
601.762	53933.29
602.12	54058.25
602.478	54097.35
602.836	54068.65
603.194	53966.96
603.552	54012.15
603.91	53992.72
604.268	54107.52
604.625	54014.19
604.983	54157.91
605.341	54095.77
605.698	54216.44
606.056	54251.02
606.413	54161.3
606.771	54286.95
607.128	54308.42
607.485	54254.63
607.843	54176.89
608.2	54439.94
608.557	54432.93
608.914	54389.09
609.272	54442.2
609.629	54591.57
609.986	54610.1
610.343	54498.47
610.7	54677.22
611.057	54628.63
611.414	54691.68
611.771	54620.05
612.127	54756.54
612.484	54695.3
612.841	54803.77
613.198	54687.39
613.554	54789.31
613.911	54948.17
614.267	54907.04
614.624	54864.11
614.98	54908.85
615.337	54995.4
615.693	54936.65
616.05	54919.7
616.406	55054.16
616.762	54979.13
617.118	54971.68
617.475	54925.12
617.831	55077.89
618.187	55145.91
618.543	55102.97
618.899	55226.13
619.255	55128.28
619.611	55162.63
619.967	55218
620.323	55298.45
620.678	55216.87
621.034	55106.81
621.39	55201.27
621.746	55153.14
622.101	55396.07
622.457	55197.88
622.812	55209.41
623.168	55311.33
623.523	55360.59
623.879	55374.38
624.234	55190.88
624.589	55260.03
624.945	55274.94
625.3	55367.37
625.655	55370.08
626.01	55311.33
626.365	55321.72
626.72	55323.76
627.075	55251.44
627.43	55280.37
627.785	55215.29
628.14	55289.63
628.495	55442.62
628.85	55304.32
629.205	55237.43
629.559	55401.95
629.914	55246.02
630.269	55287.83
630.623	55168.06
630.978	55225
631.332	55282.18
631.687	55388.84
632.041	55207.83
632.396	55303.64
632.75	55228.84
633.104	55210.99
633.459	55071.33
633.813	55053.26
634.167	55116.76
634.521	55063.2
634.875	55100.71
635.229	55107.49
635.583	54927.84
635.937	54989.53
636.291	54964.9
636.645	54907.5
636.999	55006.25
637.352	55037.66
637.706	54929.19
638.06	54999.02
638.413	55020.26
638.767	54903.2
639.121	54928.51
639.474	54879.25
639.828	54745.24
640.181	54846.26
640.534	54851.45
640.888	54770.1
641.241	54693.72
641.594	54732.36
641.947	54862.07
642.301	54631.35
642.654	54733.04
643.007	54741.85
643.36	54727.84
643.713	54683.32
644.066	54679.03
644.419	54540.05
644.771	54368.75
645.124	54124.69
645.477	54099.38
645.83	53962.89
646.182	53851.93
646.535	53761.54
646.888	53889.22
647.24	53690.35
647.593	53860.07
647.945	53817.81
648.298	53642.22
648.65	53585.5
649.002	53529.68
649.355	53693.74
649.707	53569.45
650.059	53794.31
650.411	54107.29
650.763	54107.07
651.115	54394.74
651.467	54380.96
651.819	54310.9
652.171	54199.49
652.523	54188.87
652.875	54174.18
653.227	54036.11
653.578	54305.93
653.93	54283.56
654.282	54094.19
654.633	54088.08
654.985	54115.43
655.337	54092.6
655.688	54108.87
656.039	54208.53
656.391	53934.19
656.742	53912.95
657.094	54018.93
657.445	54162.43
657.796	54056.67
658.147	53948.88
658.498	54054.86
658.849	53987.07
659.2	53923.79
659.551	53886.96
659.902	53990.01
660.253	53856.23
660.604	53969.44
660.955	53747.98
661.306	53891.03
661.656	53872.5
662.007	53826.17
662.358	53785.27
662.708	53843.12
663.059	53789.11
663.409	53633.41
663.76	53902.78
664.11	53822.55
664.461	53794.98
664.811	53865.49
665.161	53755.44
665.511	53587.76
665.862	53665.5
666.212	53772.61
666.562	53825.49
666.912	53670.24
667.262	53635.89
667.612	53653.97
667.962	53661.2
668.312	53634.99
668.662	53776.45
669.011	53613.97
669.361	53653.52
669.711	53608.55
670.06	53527.19
670.41	53458.5
670.76	53413.75
671.109	53500.98
671.459	53409.68
671.808	53428.21
672.157	53436.12
672.507	53281.55
672.856	53328.56
673.205	53297.37
673.554	53341.21
673.904	53262.79
674.253	53397.93
674.602	53347.09
674.951	52882.01
675.3	52677.73
675.649	53133.08
675.998	53193.64
676.346	53150.71
676.695	53307.31
677.044	53026.87
677.393	53086.3
677.741	53011.5
678.09	52966.08
678.438	52853.31
678.787	52920.2
679.135	52881.79
679.484	52771.51
679.832	52790.26
680.181	52652.87
680.529	52729.25
680.877	52592.53
681.225	52570.84
681.573	52723.37
681.922	52500.55
682.27	52376.49
682.618	52462.14
682.966	52271.41
683.314	52358.19
683.661	52305.76
684.009	52149.38
684.357	52121.81
684.705	52014.47
685.053	52055.82
685.4	51931.98
685.748	51734.02
686.095	51826.67
686.443	51671.42
686.79	51589.39
687.138	51625.78
687.485	51593.01
687.832	51367.48
688.18	51484.54
688.527	51259.01
688.874	51256.29
689.221	51151.66
689.568	51045.68
689.915	51038.22
690.262	51038.67
690.609	50771.11
690.956	50779.02
691.303	50709.64
691.65	50494.05
691.997	50597.55
692.344	50391.68
692.69	50277.11
693.037	50178.13
693.383	50018.36
693.73	50214.29
694.077	49898.59
694.423	49983.33
694.769	49688.43
695.116	49711.48
695.462	49698.14
695.808	49429.9
696.155	49604.59
696.501	49259.28
696.847	49228.78
697.193	49045.96
697.539	49030.82
697.885	49065.39
698.231	48827.43
698.577	48677.83
698.923	48664.5
699.269	48472.41
699.614	48338.4
699.96	48114.23
700.306	48405.97
700.651	48001.01
700.997	47996.94
701.342	47969.37
701.688	47818.64
702.033	47744.52
702.379	47744.07
702.724	47687.35
703.069	47680.12
703.415	47159.9
703.76	47298.88
704.105	47332.55
704.45	47077.19
704.795	46856.18
705.14	46897.09
705.485	46815.28
705.83	46674.72
706.175	46707.03
706.52	46642.4
706.865	46511.56
707.209	46329.64
707.554	46206.48
707.899	46306.14
708.243	46009.88
708.588	46034.74
708.932	45835.19
709.277	45693.05
709.621	45748.64
709.966	45440.85
710.31	45679.94
710.654	45206.28
710.998	45343.68
711.342	45387.97
711.687	45255.32
712.031	44990.47
712.375	45010.13
712.719	45020.98
713.063	45144.36
713.407	44976.68
713.75	44727.2
714.094	44760.19
714.438	44470.26
714.782	44599.07
715.125	44411.28
715.469	44422.12
715.812	44339.87
716.156	44079.31
716.499	44133.99
716.843	44143.94
717.186	43894
717.53	44050.16
717.873	44041.79
718.216	43698.75
718.559	43704.18
718.902	43612.43
719.246	43486.55
719.589	43356.39
719.932	43219.22
720.275	43299.44
720.617	43291.76
720.96	43160.01
721.303	43111.65
721.646	43146
721.989	42904.42
722.331	42934.7
722.674	42869.85
723.016	42851.54
723.359	42814.93
723.701	42633.7
724.044	42587.14
724.386	42319.58
724.729	42466.69
725.071	42418.11
725.413	42242.97
725.755	42316.64
726.097	42166.82
726.439	42054.5
726.782	41891.57
727.124	42265.34
727.465	41852.47
727.807	41910.78
728.149	41797.33
728.491	41686.6
728.833	41737.9
729.175	41628.52
729.516	41564.34
729.858	41431.92
730.199	41458.36
730.541	41414.07
730.882	41371.13
731.224	41530.45
731.565	41267.18
731.906	41313.73
732.248	41219.04
732.589	40958.94
732.93	40848.88
733.271	40850.01
733.612	41044.81
733.953	40973.85
734.294	40754.42
734.635	40759.17
734.976	40890.69
735.317	40555.56
735.658	40506.29
735.999	40485.28
736.339	40395.11
736.68	40536.58
737.021	40379.29
737.361	40233.53
737.702	40437.14
738.042	40161.9
738.383	40144.72
738.723	40247.77
739.063	40068.57
739.404	40091.62
739.744	40068.11
740.084	39921.22
740.424	39874.45
740.764	39723.94
741.104	40003.93
741.444	39701.34
741.784	39609.59
742.124	39746.77
742.464	39676.26
742.804	39373.89
743.143	39398.98
743.483	39374.35
743.823	39295.7
744.162	39287.57
744.502	39297.74
744.841	39129.15
745.181	39387.45
745.52	39124.41
745.86	39179.32
746.199	39062.04
746.538	39083.96
746.877	39012.1
747.216	38986.33
747.556	38857.75
747.895	38896.84
748.234	38693.91
748.573	38657.08
748.911	38538.66
749.25	38431.09
749.589	38251.66
749.928	38453.92
750.267	38476.52
750.605	38277.2
750.944	38270.19
751.283	38066.36
751.621	38218.9
751.96	37971.22
752.298	37898.9
752.636	37967.38
752.975	37738.46
753.313	37571.91
753.651	37662.75
753.989	37493.04
754.327	37514.06
754.666	37270.67
755.004	37336.21
755.342	37440.84
755.679	37369.88
756.017	37170.56
756.355	37287.85
756.693	36907.29
757.031	37113.61
757.368	36747.75
757.706	36765.38
758.044	36703.46
758.381	36684.93
758.719	36524.03
759.056	36595.66
759.394	36352.28
759.731	36170.14
760.068	35997.03
760.405	35918.17
760.743	35767.44
761.08	35953.87
761.417	35758.17
761.754	35661.9
762.091	35650.83
762.428	35397.05
762.765	35220.78
763.102	35364.28
763.438	35130.16
763.775	34995.48
764.112	34963.39
764.449	34974.91
764.785	34776.5
765.122	34668.48
765.458	34586.9
765.795	34521.14
766.131	34367.47
766.467	34289.51
766.804	34153.69
767.14	34057.88
767.476	34013.36
767.812	33814.94
768.148	33845.9
768.485	33563.65
768.821	33467.16
769.157	33483.2
769.492	33306.93
769.828	33380.83
770.164	33086.15
770.5	33046.38
770.836	32993.72
771.171	32628.08
771.507	32740.4
771.842	32485.71
772.178	32500.63
772.513	32444.13
772.849	32253.4
773.184	32152.84
773.519	32073.75
773.855	31957.59
774.19	31755.56
774.525	31732.51
774.86	31635.34
775.195	31572.29
775.53	31469.92
775.865	31303.15
776.2	31033.55
776.535	30874.46
776.87	30760.79
777.205	30753.1
777.539	30678.76
777.874	30652.99
778.209	30436.95
778.543	30366
778.878	30240.57
779.212	30062.5
779.547	29921.04
779.881	30032.9
780.215	29840.13
780.55	29853.47
780.884	29647.82
781.218	29617.54
781.552	29570.31
781.886	29474.95
782.22	29215.07
782.554	29127.16
782.888	28889.2
783.222	28840.84
783.556	28672.25
783.889	28575.76
784.223	28376.67
784.557	28322.66
784.89	28445.82
785.224	28290.12
785.557	28087.19
785.891	28167.86
786.224	28015.77
786.558	28068.2
786.891	27698.04
787.224	27717.03
787.557	27471.83
787.891	27447.65
788.224	27544.15
788.557	27518.16
788.89	27300.77
789.223	27186.87
789.556	27183.71
789.888	26969.47
790.221	26936.26
790.554	26703.94
790.887	26823.94
791.219	26551.86
791.552	26578.3
791.884	26302.83
792.217	26283.39
792.549	26189.38
792.882	26068.93
793.214	25915.72
793.546	25997.07
793.879	25840.69
794.211	25764.08
794.543	25886.34
794.875	25743.74
795.207	25687.93
795.539	25450.42
795.871	25492.45
796.203	25325.9
796.535	25007.04
796.867	25163.19
797.198	25066.47
797.53	25088.85
797.862	24827.16
798.193	24909.19
798.525	24762.98
798.856	24761.4
799.188	24493.38
799.519	24427.85
799.85	24344.01
800.182	24327.74
800.513	24392.82
800.844	24034.41
801.175	24297.23
801.506	24252.71
801.837	24001.64
802.168	24000.06
802.499	23907.41
802.83	23712.16
803.161	23668.54
803.491	23735.44
803.822	23664.02
804.153	23541.77
804.483	23313.3
804.814	23261.32
805.145	23118.73
805.475	23238.27
805.805	23098.62
806.136	23167.09
806.466	23084.6
806.796	22951.05
807.126	22867.89
807.457	22805.52
807.787	22759.42
808.117	22687.33
808.447	22632.87
808.777	22753.31
809.107	22461.12
809.436	22442.14
809.766	22447.79
810.096	22382.48
810.426	22265.42
810.755	22320.56
811.085	22250.95
811.414	22165.53
811.744	21889.61
812.073	21962.83
812.403	21890.06
812.732	21781.14
813.061	21880.57
813.39	21716.96
813.719	21714.7
814.049	21601.93
814.378	21634.7
814.707	21412.56
815.036	21473.8
815.365	21430.64
815.693	21109.97
816.022	21227.25
816.351	21146.8
816.68	21005.11
817.008	21155.16
817.337	20899.8
817.665	20781.84
817.994	20974.15
818.322	21008.28
818.651	20826.13
818.979	20797.89
819.307	20840.37
819.636	20685.35
819.964	20615.07
820.292	20730.32
820.62	20595.63
820.948	20602.86
821.276	20554.28
821.604	20564.9
821.932	20602.64
822.259	20517.21
822.587	20573.71
822.915	20426.82
823.243	20583.2
823.57	20463.66
823.898	20516.54
824.225	20402.42
824.553	20470.66
824.88	20489.42
825.207	20510.44
825.535	20428.4
825.862	20492.58
826.189	20341.17
826.516	20448.06
826.843	20460.27
827.17	20576.87
827.497	20415.52
827.824	20441.28
828.151	20489.87
828.478	20376.2
828.805	20436.99
829.131	20401.51
829.458	20353.38
829.785	20345.92
830.111	20418.46
830.438	20423.43
830.764	20371.68
831.09	20442.64
831.417	20289.65
831.743	20328.75
832.069	20361.96
832.395	20274.28
832.722	20274.51
833.048	20206.94
833.374	20242.42
833.7	20170.11
834.026	20236.54
834.351	20176.88
834.677	20086.27
835.003	20248.07
835.329	20184.12
835.654	20140.5
835.98	20098.24
836.306	20003.33
836.631	20002.43
836.956	20046.72
837.282	19983.9
837.607	19915.87
837.932	19823.22
838.258	19861.86
838.583	19797.01
838.908	19705.71
839.233	19635.88
839.558	19698.03
839.883	19702.09
840.208	19612.15
840.533	19559.05
840.858	19633.85
841.182	19492.16
841.507	19594.53
841.832	19446.51
842.156	19429.79
842.481	19394.76
842.805	19305.72
843.13	19250.36
843.454	19173.75
843.778	19115.67
844.103	19153.41
844.427	19152.5
844.751	18963.36
845.075	18969.23
845.399	18879.07
845.723	18746.19
846.047	18826.19
846.371	18706.87
846.695	18675.68
847.019	18497.61
847.343	18446.31
847.666	18326.99
847.99	18255.35
848.313	18261.91
848.637	18098.75
848.96	18223.04
849.284	18019.43
849.607	17972.87
849.931	17936.04
850.254	17738.3
850.577	17724.75
850.9	17567.24
851.223	17604.3
851.546	17464.41
851.869	17380.8
852.192	17456.05
852.515	17305.77
852.838	17244.08
853.161	17147.36
853.483	17193.23
853.806	17078.44
854.129	17003.41
854.451	16908.27
854.774	16923.64
855.096	16796.86
855.419	16819.01
855.741	16732.23
856.063	16684.55
856.385	16653.81
856.708	16538.11
857.03	16550.99
857.352	16508.96
857.674	16346.7
857.996	16369.75
858.318	16279.59
858.64	16350.32
858.961	16251.56
859.283	16231.45
859.605	16168.63
859.926	16303.54
860.248	16111.23
860.57	15987.84
860.891	16040.04
861.212	15915.3
861.534	15957.79
861.855	15819.03
862.176	15852.7
862.498	15857
862.819	15861.52
863.14	15658.59
863.461	15732.26
863.782	15619.26
864.103	15695.19
864.424	15574.97
864.745	15656.33
865.065	15541.75
865.386	15491.81
865.707	15522.32
866.027	15480.51
866.348	15479.16
866.668	15502.43
866.989	15426.05
867.309	15319.84
867.63	15293.17
867.95	15324.36
868.27	15254.08
868.59	15167.75
868.91	15146.28
869.23	15166.85
869.55	15128.66
869.87	15187.41
870.19	15067.87
870.51	15049.11
870.83	15106.51
871.15	14975.44
871.469	14919.4
871.789	15051.82
872.109	15022.22
872.428	14864.26
872.748	15003.24
873.067	14944.03
873.386	14908.1
873.706	14955.1
874.025	14806.18
874.344	14685.5
874.663	14800.08
874.982	14761.21
875.301	14688.22
875.62	14699.06
875.939	14642.34
876.258	14774.77
876.577	14573.42
876.896	14565.05
877.214	14481.44
877.533	14542.91
877.852	14521.67
878.17	14577.48
878.489	14438.05
878.807	14449.35
879.125	14415.68
879.444	14325.97
879.762	14342.91
880.08	14405.06
880.398	14241
880.716	14285.97
881.034	14231.5
881.352	14310.82
881.67	14222.01
881.988	14203.26
882.306	14194.44
882.624	14116.48
882.941	14001.45
883.259	13992.64
883.577	13950.83
883.894	13991.06
884.212	13915.58
884.529	13871.51
884.846	13892.08
885.164	13857.05
885.481	13779.54
885.798	13775.02
886.115	13722.59
886.432	13676.04
886.75	13675.36
887.067	13638.3
887.383	13584.29
887.7	13585.65
888.017	13543.61
888.334	13549.71
888.651	13532.54
888.967	13466.1
889.284	13384.29
889.6	13298.87
889.917	13217.52
890.233	13236.5
890.55	13212.1
890.866	13240.34
891.182	13154.24
891.498	13153.34
891.815	13087.58
892.131	13035.83
892.447	12957.64
892.763	12930.75
893.079	12930.97
893.395	12843.07
893.71	12791.32
894.026	12806.23
894.342	12768.49
894.657	12708.15
894.973	12653.92
895.289	12714.93
895.604	12658.89
895.92	12587.93
896.235	12519.01
896.55	12473.36
896.865	12458.9
897.181	12384.77
897.496	12420.03
897.811	12349.75
898.126	12347.71
898.441	12220.26
898.756	12166.02
899.071	12166.93
899.386	12142.52
899.7	12010.09
900.015	11970.32
900.33	11950.66
900.644	11925.35
900.959	11850.55
901.273	11839.25
901.588	11739.82
901.902	11718.12
902.216	11665.92
902.531	11616.43
902.845	11648.97
903.159	11515.87
903.473	11406.04
903.787	11393.39
904.101	11483.1
904.415	11360.62
904.729	11323.78
905.042	11272.49
905.356	11221.87
905.67	11210.34
905.984	11200.17
906.297	11131.02
906.611	11088.54
906.924	11119.72
907.237	11022.32
907.551	10974.41
907.864	10881.54
908.177	10818.94
908.491	10841.09
908.804	10752.73
909.117	10735.33
909.43	10624.82
909.743	10576.46
910.056	10593.63
910.368	10587.08
910.681	10559.06
910.994	10476.8
911.307	10411.27
911.619	10393.87
911.932	10409.68
912.244	10256.47
912.557	10351.38
912.869	10216.69
913.181	10173.76
913.494	10138.28
913.806	10124.04
914.118	10061.9
914.43	9982.35
914.742	9950.94
915.054	9906.19
915.366	9919.75
915.678	9831.62
915.99	9766.99
916.302	9700.78
916.613	9722.24
916.925	9703.94
917.236	9629.37
917.548	9532.19
917.859	9555.7
918.171	9459.65
918.482	9497.84
918.794	9395.7
919.105	9325.19
919.416	9333.55
919.727	9332.65
920.038	9340.33
920.349	9175.14
920.66	9136.5
920.971	9184.18
921.282	9110.28
921.593	9050.62
921.903	9038.19
922.214	8960.46
922.525	8957.97
922.835	8883.4
923.146	8807.69
923.456	8779.44
923.767	8788.71
924.077	8722.04
924.387	8679.79
924.697	8680.46
925.008	8602.95
925.318	8601.37
925.628	8569.28
925.938	8550.07
926.248	8515.72
926.558	8452.9
926.867	8419
927.177	8362.51
927.487	8332.9
927.796	8249.97
928.106	8233.7
928.416	8230.76
928.725	8173.36
929.034	8135.17
929.344	8171.55
929.653	8123.42
929.962	8045.45
930.271	8041.38
930.581	7965.23
930.89	7929.07
931.199	7872.58
931.508	7840.94
931.817	7855.85
932.125	7783.99
932.434	7750.77
932.743	7727.27
933.051	7672.81
933.36	7603.2
933.669	7626.48
933.977	7547.84
934.286	7602.75
934.594	7601.17
934.902	7510.78
935.21	7430.78
935.519	7478.91
935.827	7416.77
936.135	7324.57
936.443	7289.54
936.751	7354.62
937.059	7262.65
937.367	7247.28
937.674	7228.07
937.982	7168.41
938.29	7124.8
938.597	7129.32
938.905	7021.75
939.213	7028.76
939.52	6980.85
939.827	6996.44
940.135	6888.19
940.442	6864.47
940.749	6875.09
941.056	6870.34
941.363	6756.45
941.67	6751.02
941.977	6770.68
942.284	6710.12
942.591	6663.34
942.898	6643.91
943.205	6620.41
943.511	6523.01
943.818	6589.22
944.125	6530.69
944.431	6473.97
944.738	6456.12
945.044	6485.72
945.35	6462.44
945.657	6373.41
945.963	6330.47
946.269	6347.19
946.575	6336.57
946.881	6261.54
947.187	6242.34
947.493	6233.75
947.799	6192.17
948.105	6226.74
948.41	6109.91
948.716	6115.33
949.022	6082.79
949.327	6109.68
949.633	5978.39
949.938	6046.63
950.244	5970.7
950.549	5932.97
950.854	5923.25
951.16	5959.86
951.465	5867.66
951.77	5834.21
952.075	5774.55
952.38	5796.92
952.685	5744.72
952.99	5743.59
953.294	5736.13
953.599	5714.89
953.904	5632.86
954.209	5606.42
954.513	5561.68
954.818	5585.18
955.122	5524.84
955.426	5523.94
955.731	5492.98
956.035	5507.44
956.339	5454.79
956.643	5457.5
956.948	5394.45
957.252	5389.93
957.556	5357.16
957.86	5307.9
958.163	5311.29
958.467	5310.16
958.771	5278.97
959.075	5307.22
959.378	5230.61
959.682	5192.87
959.985	5157.62
960.289	5172.76
960.592	5123.5
960.896	5117.17
961.199	5095.47
961.502	5069.03
961.805	5102.03
962.108	5000.79
962.411	4980.67
962.714	4983.16
963.017	4910.17
963.32	4968.25
963.623	4876.72
963.926	4882.37
964.228	4897.96
964.531	4839.89
964.833	4831.07
965.136	4770.06
965.438	4749.27
965.741	4728.03
966.043	4753.34
966.345	4722.38
966.648	4648.03
966.95	4667.91
967.252	4609.84
967.554	4614.81
967.856	4607.8
968.158	4601.7
968.46	4566.45
968.761	4516.73
969.063	4556.5
969.365	4478.09
969.666	4501.36
969.968	4426.34
970.269	4417.75
970.571	4428.6
970.872	4404.19
971.174	4352.67
971.475	4324.65
971.776	4301.82
972.077	4306.12
972.378	4260.24
972.679	4246.68
972.98	4255.95
973.281	4230.86
973.582	4229.96
973.883	4184.31
974.183	4176.4
974.484	4141.83
974.785	4142.73
975.085	4135.95
975.386	4141.15
975.686	4086.69
975.986	4044.43
976.287	4066.35
976.587	4004.43
976.887	3971.21
977.187	3955.62
977.487	3971.44
977.787	3960.14
978.087	3942.06
978.387	3903.41
978.687	3925.33
978.987	3846.92
979.286	3871.1
979.586	3857.99
979.885	3808.28
980.185	3789.29
980.484	3756.53
980.784	3766.02
981.083	3773.93
981.382	3745
981.682	3738.9
981.981	3679.24
982.28	3698.9
982.579	3655.29
982.878	3676.53
983.177	3657.32
983.475	3609.86
983.774	3592.24
984.073	3559.24
984.372	3539.13
984.67	3535.74
984.969	3509.75
985.267	3517.66
985.566	3502.52
985.864	3479.92
986.162	3477.89
986.461	3420.72
986.759	3425.01
987.057	3396.76
987.355	3409.42
987.653	3349.98
987.951	3408.51
988.249	3380.26
988.547	3358.8
988.844	3310.21
989.142	3290.32
989.44	3257.33
989.737	3287.16
990.035	3245.8
990.332	3276.09
990.63	3228.86
990.927	3204.22
991.224	3195.41
991.521	3202.87
991.819	3172.59
992.116	3138.69
992.413	3129.42
992.71	3122.19
993.006	3102.76
993.303	3062.76
993.6	3085.36
993.897	3054.4
994.193	3068.41
994.49	3022.31
994.787	3029.31
995.083	3013.04
995.379	2980.05
995.676	2939.15
995.972	2965.59
996.268	2934.17
996.565	2927.17
996.861	2961.97
997.157	2892.59
997.453	2899.82
997.749	2869.32
998.044	2818.7
998.34	2832.93
998.636	2844.01
998.932	2755.87
999.227	2739.6
999.523	2781.18
999.818	2762.2
1000.114	2713.39
1000.409	2760.62
1000.704	2741.41
1001	2684.46
1001.295	2659.61
1001.59	2653.28
1001.885	2643.79
1002.18	2605.82
1002.475	2599.27
1002.77	2602.66
1003.065	2580.06
1003.359	2531.02
1003.654	2547.74
1003.949	2528.54
1004.243	2545.03
1004.538	2519.95
1004.832	2492.15
1005.127	2479.04
1005.421	2453.28
1005.715	2478.82
1006.009	2413.96
1006.304	2423.91
1006.598	2423.91
1006.892	2387.97
1007.186	2383.23
1007.48	2379.61
1007.773	2381.19
1008.067	2327.18
1008.361	2310.46
1008.655	2312.27
1008.948	2320.63
1009.242	2308.65
1009.535	2276.11
1009.829	2230.46
1010.122	2240.18
1010.415	2254.42
1010.708	2230.01
1011.001	2193.63
1011.295	2218.03
1011.588	2189.34
1011.881	2179.17
1012.173	2161.54
1012.466	2139.62
1012.759	2116.12
1013.052	2126.74
1013.344	2113.18
1013.637	2122.44
1013.93	2066.85
1014.222	2089.45
1014.514	2045.16
1014.807	2043.35
1015.099	2027.76
1015.391	2013.75
1015.683	2018.04
1015.976	1997.7
1016.268	2008.32
1016.56	1971.26
1016.851	1983.69
1017.143	1951.15
1017.435	1955.67
1017.727	1877.25
1018.018	1881.55
1018.31	1899.17
1018.602	1876.57
1018.893	1875.67
1019.185	1864.6
1019.476	1840.87
1019.767	1853.3
1020.058	1807.42
1020.35	1772.85
1020.641	1813.53
1020.932	1760.42
1021.223	1745.05
1021.514	1757.93
1021.804	1720.42
1022.095	1702.57
1022.386	1728.56
1022.677	1686.75
1022.967	1680.65
1023.258	1659.18
1023.548	1707.77
1023.839	1651.72
1024.129	1641.33
1024.419	1651.04
1024.709	1616.69
1025	1609.24
1025.29	1598.62
1025.58	1609.69
1025.87	1557.49
1026.16	1560.88
1026.449	1558.17
1026.739	1551.84
1027.029	1514.1
1027.319	1504.16
1027.608	1525.62
1027.898	1514.1
1028.187	1513.42
1028.477	1474.78
1028.766	1479.3
1029.055	1456.02
1029.344	1431.16
1029.634	1423.03
1029.923	1431.16
1030.212	1417.83
1030.501	1408.56
1030.79	1417.15
1031.078	1376.48
1031.367	1346.87
1031.656	1359.98
1031.945	1344.84
1032.233	1341.67
1032.522	1338.51
1032.81	1355.46
1033.099	1300.54
1033.387	1301.45
1033.675	1312.75
1033.963	1302.13
1034.251	1275.46
1034.54	1257.16
1034.828	1247.66
1035.116	1246.99
1035.403	1263.26
1035.691	1239.98
1035.979	1251.28
1036.267	1213.09
1036.554	1249.02
1036.842	1231.17
1037.129	1206.31
1037.417	1188.46
1037.704	1197.5
1037.992	1194.78
1038.279	1179.19
1038.566	1186.2
1038.853	1186.2
1039.14	1186.2
