Data from white_steel_sheet_FLMS001491_027.txt Node
Date: Tue Feb 07 10:57:37 GMT 2017
User: dcchb
Spectrometer: FLMS00149
Trigger mode: 0
Integration Time (sec): 2.000000E-2
Scans to average: 10
Electric dark correction enabled: true
Nonlinearity correction enabled: false
Boxcar width: 0
XAxis mode: Wavelengths
Number of Pixels in Spectrum: 2048
>>>>>Begin Spectral Data<<<<<
341.393	4.96
341.776	4.96
342.16	4.96
342.543	-54.93
342.927	-65.1
343.31	-67.81
343.693	-71.88
344.077	-42.72
344.46	-69.39
344.843	-68.26
345.226	-48.6
345.61	-20.8
345.993	-0.01
346.376	4.05
346.759	5.18
347.142	20.1
347.525	29.59
347.908	56.03
348.291	68.23
348.674	94.22
349.057	112.07
349.44	124.95
349.823	131.96
350.206	180.77
350.588	201.79
350.971	205.4
351.354	221.67
351.737	243.6
352.119	270.49
352.502	274.55
352.884	279.53
353.267	296.48
353.65	286.98
354.032	314.78
354.414	305.51
354.797	325.63
355.179	300.77
355.562	344.16
355.944	340.99
356.326	332.86
356.709	351.84
357.091	348
357.473	336.7
357.855	349.58
358.238	356.36
358.62	361.56
359.002	349.81
359.384	370.37
359.766	358.62
360.148	337.38
360.53	357.94
360.912	333.54
361.294	369.92
361.676	343.71
362.057	329.69
362.439	343.03
362.821	329.47
363.203	345.51
363.584	338.06
363.966	347.77
364.348	332.18
364.729	350.26
365.111	327.66
365.493	310.26
365.874	324.27
366.256	351.16
366.637	340.09
367.019	342.58
367.4	323.37
367.781	323.14
368.163	331.05
368.544	317.49
368.925	337.83
369.306	346.42
369.688	333.08
370.069	356.36
370.45	326.53
370.831	315.68
371.212	325.63
371.593	310.03
371.974	321.33
372.355	325.63
372.736	327.43
373.117	340.32
373.498	330.15
373.879	337.38
374.26	335.57
374.641	335.8
375.021	325.85
375.402	344.16
375.783	343.71
376.163	339.64
376.544	356.36
376.925	341.67
377.305	346.87
377.686	364.72
378.066	348.23
378.447	343.93
378.827	357.94
379.208	359.07
379.588	362.01
379.968	351.39
380.349	348.68
380.729	366.98
381.109	348.68
381.489	387.77
381.87	374.21
382.25	347.1
382.63	370.82
383.01	382.12
383.39	368.11
383.77	387.77
384.15	389.81
384.53	387.55
384.91	371.5
385.29	369.47
385.67	360.65
386.049	396.59
386.429	396.13
386.809	398.85
387.189	416.25
387.568	413.99
387.948	419.41
388.328	391.61
388.707	411.73
389.087	400.43
389.466	418.51
389.846	422.8
390.225	423.03
390.605	398.39
390.984	419.18
391.363	411.95
391.743	439.97
392.122	423.25
392.501	425.74
392.881	471.84
393.26	453.76
393.639	436.13
394.018	475.68
394.397	465.28
394.776	464.15
395.155	470.26
395.534	492.85
395.913	497.83
396.292	482.91
396.671	486.07
397.05	514.32
397.429	522.46
397.808	503.25
398.186	512.29
398.565	507.09
398.944	505.51
399.323	499.86
399.701	528.56
400.08	542.34
400.458	551.84
400.837	561.55
401.215	545.73
401.594	549.8
401.972	586.64
402.351	579.18
402.729	600.87
403.107	607.88
403.486	619.18
403.864	610.59
404.242	617.6
404.62	655.79
404.999	641.78
405.377	656.01
405.755	663.7
406.133	676.58
406.511	701.66
406.889	673.87
407.267	702.79
407.645	715.67
408.023	720.19
408.401	712.96
408.779	743.92
409.156	735.33
409.534	743.24
409.912	773.98
410.29	793.41
410.667	820.76
411.045	798.16
411.422	815.33
411.8	841.77
412.178	834.99
412.555	875.67
412.933	887.65
413.31	888.55
413.687	881.32
414.065	901.43
414.442	901.66
414.819	931.94
415.197	929.45
415.574	973.52
415.951	950.02
416.328	969.23
416.705	1004.48
417.082	980.98
417.46	970.58
417.837	1021.88
418.214	1042.44
418.591	1037.92
418.967	1041.54
419.344	1061.88
419.721	1071.37
420.098	1078.6
420.475	1091.26
420.852	1098.49
421.228	1098.94
421.605	1106.17
421.982	1093.52
422.358	1141.88
422.735	1143.01
423.111	1179.62
423.488	1159.73
423.864	1190.92
424.241	1203.12
424.617	1221.65
424.994	1240.41
425.37	1220.07
425.746	1270.91
426.123	1270.23
426.499	1268.65
426.875	1265.94
427.251	1317.24
427.627	1293.06
428.003	1345.94
428.379	1354.53
428.756	1353.17
429.132	1401.98
429.507	1395.66
429.883	1436.33
430.259	1441.76
430.635	1454.41
431.011	1466.39
431.387	1492.6
431.763	1521.53
432.138	1570.57
432.514	1555.2
432.89	1595.88
433.265	1578.48
433.641	1633.62
434.016	1646.5
434.392	1694.86
434.767	1717.23
435.143	1715.2
435.518	1738.25
435.894	1747.74
436.269	1757.68
436.644	1790
437.02	1806.49
437.395	1809.66
437.77	1851.69
438.145	1868.86
438.52	1857.11
438.895	1900.5
439.271	1912.03
439.646	1972.14
440.021	1942.31
440.395	1982.98
440.77	1959.03
441.145	1976.66
441.52	2016.43
441.895	2007.39
442.27	2027.05
442.645	2065.24
443.019	2071.8
443.394	2051.46
443.769	2114.73
444.143	2091.46
444.518	2124.68
444.892	2139.82
445.267	2161.74
445.641	2185.69
446.016	2196.76
446.39	2222.3
446.764	2218.23
447.139	2254.39
447.513	2288.06
447.887	2274.95
448.262	2263.2
448.636	2300.49
449.01	2364.22
449.384	2374.61
449.758	2384.1
450.132	2401.73
450.506	2451.67
450.88	2437.89
451.254	2480.15
451.628	2491.67
452.002	2523.99
452.376	2542.97
452.75	2541.39
453.123	2547.04
453.497	2611.67
453.871	2652.12
454.244	2696.86
454.618	2684.66
454.992	2752.46
455.365	2739.12
455.739	2820.02
456.112	2823.19
456.486	2864.77
456.859	2890.08
457.232	2924.88
457.606	2923.52
457.979	2967.14
458.352	3034.48
458.725	3061.83
459.099	3100.92
459.472	3173.91
459.845	3172.56
460.218	3201.94
460.591	3224.31
460.964	3236.51
461.337	3333.23
461.71	3370.29
462.083	3399.67
462.456	3387.24
462.829	3466.79
463.201	3495.04
463.574	3504.3
463.947	3549.95
464.32	3612.77
464.692	3688.93
465.065	3691.64
465.438	3758.08
465.81	3827.23
466.183	3843.73
466.555	3907.91
466.928	3950.62
467.3	3964.63
467.672	4035.36
468.045	4067.22
468.417	4137.05
468.789	4123.95
469.161	4238.74
469.534	4280.78
469.906	4360.55
470.278	4395.35
470.65	4460.66
471.022	4535.23
471.394	4608.23
471.766	4644.38
472.138	4701.78
472.51	4850.25
472.882	4929.8
473.253	4937.48
473.625	4950.59
473.997	5065.16
474.369	5122.79
474.74	5176.12
475.112	5290.24
475.484	5412.95
475.855	5468.32
476.227	5569.1
476.598	5667.86
476.97	5688.88
477.341	5830.12
477.713	5955.08
478.084	5969.77
478.455	6137.9
478.827	6180.61
479.198	6357.56
479.569	6343.32
479.94	6545.12
480.311	6588.06
480.682	6727.27
481.053	6865.57
481.424	6959.12
481.795	7064.21
482.166	7173.36
482.537	7225.11
482.908	7474.14
483.279	7451.99
483.65	7680.24
484.021	7772.66
484.391	7841.14
484.762	7954.58
485.133	8020.57
485.503	8176.27
485.874	8366.55
486.244	8426.2
486.615	8579.65
486.985	8684.5
487.356	8816.03
487.726	8889.47
488.097	9068.9
488.467	9068.67
488.837	9290.82
489.207	9390.93
489.578	9476.35
489.948	9670.47
490.318	9764.25
490.688	9790.24
491.058	10005.6
491.428	10073.17
491.798	10240.62
492.168	10404.46
492.538	10507.28
492.908	10585.02
493.278	10711.34
493.648	10722.19
494.017	10823.43
494.387	10951.79
494.757	11119.02
495.126	11163.76
495.496	11214.83
495.866	11336.41
496.235	11466.13
496.605	11528.72
496.974	11609.17
497.344	11758.09
497.713	11839.22
498.082	11979.78
498.452	12154.24
498.821	12142.72
499.19	12141.81
499.559	12305.43
499.928	12387.23
500.298	12550.84
500.667	12556.72
501.036	12693.44
501.405	12761.23
501.774	12751.06
502.143	12969.36
502.512	13031.51
502.88	13089.81
503.249	13077.16
503.618	13217.27
503.987	13305.85
504.356	13455.9
504.724	13504.04
505.093	13531.61
505.462	13707.65
505.83	13787.65
506.199	13964.36
506.567	14050.01
506.936	14118.71
507.304	14214.53
507.672	14349.67
508.041	14315.09
508.409	14553.73
508.777	14611.58
509.145	14787.17
509.514	14708.07
509.882	14916.2
510.25	14947.62
510.618	15065.35
510.986	15136.09
511.354	15325.01
511.722	15463.99
512.09	15581.5
512.458	15529.52
512.826	15789.63
513.193	15809.51
513.561	15900.58
513.929	16123.18
514.297	16214.47
514.664	16340.12
515.032	16373.11
515.4	16606.78
515.767	16658.53
516.135	16739.66
516.502	16703.05
516.869	16987.34
517.237	17082.7
517.604	17095.81
517.972	17383.03
518.339	17463.48
518.706	17588
519.073	17735.34
519.44	17833.19
519.808	18011.26
520.175	17964.49
520.542	18222.56
520.909	18357.24
521.276	18442.21
521.643	18508.88
522.009	18700.51
522.376	18869.55
522.743	19058.24
523.11	19296.65
523.477	19426.82
523.843	19433.37
524.21	19695.74
524.577	19947.03
524.943	19963.98
525.31	20096.18
525.676	20219.12
526.043	20453.91
526.409	20517.64
526.776	20787.24
527.142	20828.14
527.508	20832.43
527.874	21049.6
528.241	21292.53
528.607	21290.5
528.973	21575.69
529.339	21561
529.705	21866.76
530.071	22002.8
530.437	21981.55
530.803	22341.77
531.169	22414.76
531.535	22292.28
531.901	22448.21
532.267	22544.03
532.632	22770.01
532.998	22836
533.364	23021.3
533.73	23027.63
534.095	23317.79
534.461	23266.94
534.826	23435.3
535.192	23582.19
535.557	23764.56
535.923	23770.43
536.288	23906.02
536.653	23925.46
537.019	23899.02
537.384	24049.97
537.749	24153.48
538.114	24278.67
538.479	24395.5
538.845	24604.08
539.21	24391.89
539.575	24547.36
539.94	24699.68
540.305	24747.81
540.67	24842.27
541.034	24942.61
541.399	25127.91
541.764	25146.44
542.129	25318.64
542.494	25333.78
542.858	25400.9
543.223	25488.13
543.587	25703.72
543.952	25736.94
544.316	25766.77
544.681	25859.64
545.045	25886.54
545.41	26102.12
545.774	26229.13
546.138	26196.81
546.503	26286.53
546.867	26347.77
547.231	26594.31
547.595	26578.27
547.959	26653.97
548.324	26731.71
548.688	26829.34
549.052	26998.82
549.416	26994.08
549.779	27105.26
550.143	27118.82
550.507	27350
550.871	27493.5
551.235	27353.39
551.599	27554.29
551.962	27652.37
552.326	27787.05
552.689	27962.64
553.053	27865.92
553.417	27973.04
553.78	28219.58
554.143	28225.46
554.507	28283.54
554.87	28423.87
555.234	28741.6
555.597	28619.57
555.96	28799.45
556.323	28919
556.686	28930.07
557.05	29147.24
557.413	29202.16
557.776	29202.61
558.139	29488.25
558.502	29550.62
558.865	29670.62
559.228	29710.39
559.59	30014.11
559.953	30041.91
560.316	30232.19
560.679	30313.09
561.041	30497.04
561.404	30688.67
561.767	30866.29
562.129	30831.49
562.492	31096.57
562.854	31095.21
563.217	31137.7
563.579	31399.61
563.941	31398.48
564.304	31571.81
564.666	31825.59
565.028	31833.5
565.39	31980.39
565.753	32064.23
566.115	32209.08
566.477	32343.54
566.839	32540.83
567.201	32675.96
567.563	32623.08
567.925	32930.87
568.287	33012.23
568.648	32999.12
569.01	33119.12
569.372	33336.06
569.734	33306.68
570.095	33578.31
570.457	33649.5
570.819	33625.09
571.18	33781.02
571.542	33912.99
571.903	34009.49
572.265	34044.97
572.626	34200.89
572.987	34243.38
573.349	34349.82
573.71	34440.21
574.071	34526.54
574.432	34640.2
574.794	35042
575.155	34873.19
575.516	34799.75
575.877	34855.57
576.238	35004.26
576.599	35104.6
576.96	35137.37
577.32	35158.61
577.681	35270.24
578.042	35360.41
578.403	35380.98
578.763	35376
579.124	35551.82
579.485	35573.29
579.845	35577.13
580.206	35582.33
580.566	35551.14
580.927	35662.55
581.287	35764.7
581.648	35605.6
582.008	35717.69
582.368	35790.01
582.728	35802.21
583.089	35773.51
583.449	35843.11
583.809	35818.93
584.169	35776.22
584.529	35783.23
584.889	36031.35
585.249	35855.54
585.609	35702.78
585.969	35826.61
586.329	35770.8
586.688	35981.86
587.048	35850.12
587.408	35807.18
587.768	35897.8
588.127	35785.49
588.487	35712.95
588.846	35997.68
589.206	35839.27
589.565	35876.78
589.925	35905.48
590.284	35900.51
590.643	36011.24
591.003	36024.12
591.362	35966.27
591.721	36063.67
592.08	36051.92
592.44	36066.61
592.799	36055.08
593.158	35966.27
593.517	35904.58
593.876	36015.76
594.235	35940.06
594.593	35973.05
594.952	36101.64
595.311	35799.95
595.67	36021.64
596.029	36187.06
596.387	36094.18
596.746	36234.06
597.104	36135.98
597.463	36194.06
597.822	36201.07
598.18	36111.8
598.538	36126.72
598.897	36270.9
599.255	36012.82
599.613	36602.41
599.972	36271.35
600.33	36405.36
600.688	36156.32
601.046	36324.23
601.404	36345.92
601.762	36357
602.12	36507.05
602.478	36326.94
602.836	36471.34
603.194	36336.21
603.552	36377.11
603.91	36197
604.268	36343.89
604.625	36433.83
604.983	36467.28
605.341	36342.99
605.698	36342.99
606.056	36543.88
606.413	36518.8
606.771	36717.44
607.128	36651.23
607.485	36616.2
607.843	36600.15
608.2	36702.52
608.557	36715.86
608.914	36576.2
609.272	36795.63
609.629	36799.02
609.986	37063.19
610.343	36814.39
610.7	36961.73
611.057	37125.79
611.414	37068.39
611.771	36906.59
612.127	37115.39
612.484	37076.75
612.841	37190.87
613.198	37194.49
613.554	37150.65
613.911	37336.63
614.267	37271.77
614.624	37395.84
614.98	37319.46
615.337	37613.23
615.693	37563.07
616.05	37570.3
616.406	37763.74
616.762	37542.95
617.118	37542.5
617.475	37708.37
617.831	37631.76
618.187	37787.24
618.543	37698.88
618.899	37949.04
619.255	37886.9
619.611	37769.84
619.967	38019.33
620.323	37905.2
620.678	37951.98
621.034	37803.74
621.39	37829.73
621.746	37787.69
622.101	38366.43
622.457	37917.41
622.812	37989.5
623.168	38057.06
623.523	37946.56
623.879	38170.28
624.234	37918.54
624.589	38038.99
624.945	38091.87
625.3	38069.27
625.655	38175.03
626.01	38065.65
626.365	38174.8
626.72	38048.25
627.075	37988.37
627.43	37950.63
627.785	37876.73
628.14	37860.91
628.495	37918.99
628.85	37837.18
629.205	37901.81
629.559	38001.47
629.914	37666.34
630.269	37906.33
630.623	37754.7
630.978	37703.18
631.332	37738.88
631.687	37858.88
632.041	37620.47
632.396	37700.01
632.75	37522.39
633.104	37653.91
633.459	37502.28
633.813	37357.65
634.167	37537.76
634.521	37362.39
634.875	37449.4
635.229	37408.27
635.583	37236.75
635.937	37304.77
636.291	37213.02
636.645	37336.63
636.999	37119.69
637.352	37251.21
637.706	36852.35
638.06	37025.9
638.413	36967.6
638.767	36938.9
639.121	36904.55
639.474	36752.24
639.828	36728.51
640.181	36725.35
640.534	36876.98
640.888	36582.53
641.241	36378.01
641.594	36505.92
641.947	36674.28
642.301	36514.96
642.654	36468.63
643.007	36505.47
643.36	36404.9
643.713	36352.48
644.066	36493.94
644.419	36122.43
644.771	36003.33
645.124	35594.76
645.477	35537.81
645.83	35340.75
646.182	35202.45
646.535	35197.93
646.888	35314.09
647.24	35080.87
647.593	35212.39
647.945	35065.96
648.298	34910.71
648.65	34884.94
649.002	34886.53
649.355	34931.04
649.707	34773.76
650.059	34917.03
650.411	35485.83
650.763	35448.32
651.115	35646.73
651.467	35567.41
651.819	35677.01
652.171	35450.35
652.523	35475.44
652.875	35404.93
653.227	35298.27
653.578	35615.77
653.93	35408.77
654.282	35226.18
654.633	35192.28
654.985	35176.01
655.337	35252.84
655.688	35184.15
656.039	35393.63
656.391	35014.88
656.742	34971.72
657.094	35223.92
657.445	35236.57
657.796	35040.19
658.147	34999.07
658.498	34999.97
658.849	35031.16
659.2	34939.41
659.551	34747.55
659.902	34911.84
660.253	34750.94
660.604	34719.07
660.955	34573.31
661.306	34684.05
661.656	34623.48
662.007	34743.25
662.358	34634.1
662.708	34425.75
663.059	34389.14
663.409	34197.05
663.76	34397.05
664.11	34408.35
664.461	34416.26
664.811	34347.78
665.161	34333.32
665.511	34162.48
665.862	34025.08
666.212	34088.81
666.562	34121.12
666.912	34036.15
667.262	33842.03
667.612	33852.2
667.962	33735.14
668.312	33669.16
668.662	33535.83
669.011	33575.15
669.361	33492.66
669.711	33405.21
670.06	33351.65
670.41	33207.02
670.76	33216.97
671.109	33199.56
671.459	33080.92
671.808	32949.85
672.157	33021.94
672.507	32866.47
672.856	32739.01
673.205	32778.56
673.554	32795.51
673.904	32532.92
674.253	32802.51
674.602	32594.16
674.951	32039.82
675.3	31927.73
675.649	32465.57
675.998	32463.54
676.346	32382.86
676.695	32488.62
677.044	32121.85
677.393	32284.79
677.741	32265.13
678.09	32029.88
678.438	32204.56
678.787	32186.03
679.135	32200.27
679.484	32040.27
679.832	32063.78
680.181	31976.32
680.529	32087.96
680.877	31946.49
681.225	31977
681.573	32100.84
681.922	31904.68
682.27	31910.33
682.618	31969.77
682.966	31851.13
683.314	31980.84
683.661	32044.12
684.009	31723.9
684.357	31943.55
684.705	31865.81
685.053	31859.49
685.4	31807.29
685.748	31617.46
686.095	31701.98
686.443	31727.06
686.79	31727.51
687.138	31889.54
687.485	31773.39
687.832	31707.4
688.18	31874.63
688.527	31693.39
688.874	31763.9
689.221	31603.9
689.568	31539.27
689.915	31584.47
690.262	31583.34
690.609	31649.55
690.956	31563
691.303	31523
691.65	31475.54
691.997	31393.74
692.344	31334.98
692.69	31262.89
693.037	31253.18
693.383	31242.33
693.73	31269.45
694.077	31147.87
694.423	31055.21
694.769	31061.77
695.116	30994.2
695.462	30830.59
695.808	30818.16
696.155	30999.4
696.501	30839.85
696.847	30671.72
697.193	30600.31
697.539	30700.65
697.885	30515.12
698.231	30442.12
698.577	30352.41
698.923	30412.97
699.269	30312.41
699.614	30057.73
699.96	30107.67
700.306	30050.95
700.651	29919.65
700.997	29757.85
701.342	29864.74
701.688	29777.28
702.033	29654.8
702.379	29616.16
702.724	29629.94
703.069	29609.6
703.415	29245.32
703.76	29251.87
704.105	29189.95
704.45	29259.78
704.795	29108.83
705.14	29117.86
705.485	29043.97
705.83	28886.46
706.175	28884.42
706.52	28755.84
706.865	28692.11
707.209	28730.08
707.554	28576.64
707.899	28679.68
708.243	28520.59
708.588	28376.19
708.932	28275.85
709.277	28202.18
709.621	28236.98
709.966	28058.46
710.31	28188.62
710.654	28000.61
710.998	28102.07
711.342	27962.87
711.687	27844.9
712.031	27757.9
712.375	27736.43
712.719	27742.76
713.063	27599.03
713.407	27656.66
713.75	27547.96
714.094	27515.42
714.438	27462.77
714.782	27557.91
715.125	27313.84
715.469	27373.5
715.812	27239.27
716.156	26961.31
716.499	27031.37
716.843	27080.18
717.186	26882.89
717.53	27094.41
717.873	26978.71
718.216	26932.16
718.559	26823.91
718.902	26645.39
719.246	26705.95
719.589	26710.02
719.932	26497.82
720.275	26501.44
720.617	26460.08
720.96	26498.95
721.303	26464.83
721.646	26443.58
721.989	26279.52
722.331	26375.79
722.674	26279.52
723.016	26192.52
723.359	26218.96
723.701	26138.96
724.044	25961.34
724.386	25889.47
724.729	26003.6
725.071	25916.82
725.413	25883.83
725.755	25973.99
726.097	25750.95
726.439	25712.98
726.782	25672.76
727.124	25838.4
727.465	25662.36
727.807	25664.62
728.149	25543.72
728.491	25509.15
728.833	25556.38
729.175	25383.5
729.516	25352.77
729.858	25417.62
730.199	25310.51
730.541	25200.91
730.882	25169.95
731.224	25215.59
731.565	25042.72
731.906	25065.99
732.248	25113.22
732.589	24898.09
732.93	24902.16
733.271	24943.74
733.612	24979.22
733.953	24945.32
734.294	24808.15
734.635	24730.41
734.976	24756.4
735.317	24628.04
735.658	24725.21
735.999	24593.69
736.339	24545.1
736.68	24630.07
737.021	24466.69
737.361	24451.32
737.702	24519.79
738.042	24428.72
738.383	24323.41
738.723	24492.9
739.063	24317.09
739.404	24351.44
739.744	24323.64
740.084	24166.58
740.424	24178.11
740.764	24062.18
741.104	24293.81
741.444	24081.39
741.784	24009.75
742.124	24067.38
742.464	23975.85
742.804	23941.28
743.143	23871.22
743.483	23905.8
743.823	23816.53
744.162	23700.38
744.502	23789.64
744.841	23647.95
745.181	23732.7
745.52	23658.12
745.86	23647.27
746.199	23594.62
746.538	23480.05
746.877	23527.05
747.216	23500.61
747.556	23473.72
747.895	23386.26
748.234	23257
748.573	23312.14
748.911	23217.45
749.25	23240.96
749.589	23185.82
749.928	23183.33
750.267	23070.34
750.605	23146.5
750.944	23140.17
751.283	22997.8
751.621	23003.67
751.96	22852.27
752.298	22838.71
752.636	22816.79
752.975	22694.98
753.313	22581.31
753.651	22799.61
753.989	22529.11
754.327	22533.63
754.666	22426.97
755.004	22407.08
755.342	22456.12
755.679	22348.78
756.017	22148.33
756.355	22269.46
756.693	22066.07
757.031	22143.36
757.368	21902.01
757.706	21958.5
758.044	21861.56
758.381	21840.99
758.719	21828.79
759.056	21823.14
759.394	21564.16
759.731	21537.5
760.068	21575.24
760.405	21479.2
760.743	21421.12
761.08	21358.52
761.417	21305.64
761.754	21246.21
762.091	21255.25
762.428	21176.83
762.765	20983.61
763.102	20987.91
763.438	20941.13
763.775	20847.35
764.112	20768.48
764.449	20850.51
764.785	20627.69
765.122	20568.94
765.458	20532.1
765.795	20469.05
766.131	20485.32
766.467	20351.54
766.804	20276.74
767.14	20215.73
767.476	20120.81
767.812	20060.48
768.148	20058.89
768.485	19962.17
768.821	19873.36
769.157	19931.21
769.492	19737.09
769.828	19721.05
770.164	19508.63
770.5	19654.38
770.836	19533.71
771.171	19385.92
771.507	19399.93
771.842	19172.59
772.178	19255.98
772.513	19110.22
772.849	19130.1
773.184	19062.54
773.519	18975.31
773.855	18930.79
774.19	18892.82
774.525	18741.41
774.86	18746.84
775.195	18752.71
775.53	18606.05
775.865	18513.4
776.2	18324.93
776.535	18271.37
776.87	18267.98
777.205	18134.65
777.539	18183.46
777.874	18210.13
778.209	17918.38
778.543	17924.71
778.878	17952.96
779.212	17921.32
779.547	17633.19
779.881	17819.63
780.215	17614.89
780.55	17643.36
780.884	17462.8
781.218	17469.36
781.552	17469.13
781.886	17326.76
782.22	17296.71
782.554	17234.79
782.888	17111.17
783.222	17017.17
783.556	16959.77
783.889	16933.1
784.223	16807.68
784.557	16854.68
784.89	16779.43
785.224	16629.15
785.557	16562.04
785.891	16585.99
786.224	16485.88
786.558	16461.7
786.891	16366.56
787.224	16279.33
787.557	16292.44
787.891	16258.32
788.224	16179.22
788.557	16126.57
788.89	16143.06
789.223	16016.29
789.556	15943.07
789.888	15905.78
790.221	15849.06
790.554	15753.02
790.887	15720.48
791.219	15531.78
791.552	15597.99
791.884	15581.72
792.217	15355.06
792.549	15396.19
792.882	15270.77
793.214	15245.69
793.546	15258.34
793.879	15094.73
794.211	15107.61
794.543	15167.95
794.875	15028.07
795.207	15099.02
795.539	14987.39
795.871	15028.74
796.203	14796.43
796.535	14795.76
796.867	14786.49
797.198	14718.24
797.53	14710.56
797.862	14608.64
798.193	14591.24
798.525	14522.09
798.856	14488.19
799.188	14330.46
799.519	14272.6
799.85	14237.13
800.182	14227.86
800.513	14287.97
800.844	14090.91
801.175	14089.78
801.506	14123.23
801.837	14112.61
802.168	14029.22
802.499	13958.49
802.83	13975.89
803.161	13915.33
803.491	13985.38
803.822	13810.24
804.153	13695.44
804.483	13693.64
804.814	13675.78
805.145	13537.48
805.475	13664.71
805.805	13557.14
806.136	13511.72
806.466	13573.87
806.796	13457.71
807.126	13399.18
807.457	13362.35
807.787	13394.89
808.117	13293.87
808.447	13203.48
808.777	13189.47
809.107	13276.02
809.436	13187.89
809.766	13095.91
810.096	13111.28
810.426	13049.13
810.755	12985.18
811.085	12966.65
811.414	12938.18
811.744	12873.55
812.073	12815.24
812.403	12796.71
812.732	12799.65
813.061	12743.83
813.39	12713.32
813.719	12735.47
814.049	12708.35
814.378	12666.32
814.707	12625.19
815.036	12570.5
815.365	12555.59
815.693	12391.75
816.022	12369.15
816.351	12290.96
816.68	12296.84
817.008	12410.51
817.337	12244.86
817.665	12261.81
817.994	12305.2
818.322	12227.91
818.651	12120.12
818.979	12161.93
819.307	12199.44
819.636	12160.57
819.964	12066.34
820.292	12101.81
820.62	12058.65
820.948	12048.48
821.276	11992.21
821.604	11993.34
821.932	12042.61
822.259	12015.04
822.587	11972.1
822.915	11964.19
823.243	12046.9
823.57	11918.09
823.898	11920.12
824.225	11975.04
824.553	11893.01
824.88	11888.71
825.207	11924.64
825.535	11930.75
825.862	11922.61
826.189	11883.06
826.516	11934.14
826.843	11953.34
827.17	11940.24
827.497	11926.45
827.824	11966.9
828.151	12001.7
828.478	11968.26
828.805	11972.78
829.131	11936.4
829.458	11876.96
829.785	11877.19
830.111	11845.32
830.438	11951.99
830.764	11946.56
831.09	11851.65
831.417	11855.49
831.743	11829.96
832.069	11884.65
832.395	11783.86
832.722	11901.82
833.048	11767.36
833.374	11811.65
833.7	11716.97
834.026	11783.63
834.351	11793.35
834.677	11790.41
835.003	11805.78
835.329	11846.91
835.654	11798.32
835.98	11699.11
836.306	11717.87
836.631	11657.53
836.956	11713.35
837.282	11675.84
837.607	11573.92
837.932	11553.35
838.258	11559.46
838.583	11562.39
838.908	11487.59
839.233	11594.71
839.558	11453.02
839.883	11416.63
840.208	11436.75
840.533	11337.31
840.858	11389.06
841.182	11431.55
841.507	11385.22
841.832	11326.02
842.156	11253.93
842.481	11279.92
842.805	11341.83
843.13	11248.5
843.454	11189.97
843.778	11155.62
844.103	11160.6
844.427	11131.44
844.751	11135.06
845.075	11060.94
845.399	10983.43
845.723	11018.23
846.047	10961.28
846.371	10878.34
846.695	10899.13
847.019	10800.61
847.343	10753.83
847.666	10762.19
847.99	10623.44
848.313	10663.43
848.637	10584.57
848.96	10573.95
849.284	10574.17
849.607	10528.97
849.931	10467.51
850.254	10380.73
850.577	10348.19
850.9	10259.15
851.223	10298.7
851.546	10210.11
851.869	10097.12
852.192	10156.78
852.515	10073.17
852.838	10078.14
853.161	10020.29
853.483	10013.06
853.806	9994.98
854.129	9968.31
854.451	9912.27
854.774	9818.94
855.096	9818.48
855.419	9816.68
855.741	9772.38
856.063	9762.22
856.385	9717.02
856.708	9693.29
857.03	9689
857.352	9671.6
857.674	9635.89
857.996	9606.06
858.318	9598.6
858.64	9567.87
858.961	9538.04
859.283	9473.64
859.605	9464.6
859.926	9399.51
860.248	9373.75
860.57	9405.39
860.891	9355.22
861.212	9368.33
861.534	9362.9
861.855	9291.72
862.176	9302.57
862.498	9256.92
862.819	9270.25
863.14	9244.71
863.461	9169.69
863.782	9169.91
864.103	9210.14
864.424	9092.4
864.745	9221.89
865.065	9123.14
865.386	9093.76
865.707	9071.61
866.027	9017.83
866.348	9026.42
866.668	8992.52
866.989	8924.27
867.309	8962.46
867.63	8948.45
867.95	8934.44
868.27	8875.23
868.59	8925.85
868.91	8882.69
869.23	8889.92
869.55	8884.95
869.87	8889.47
870.19	8826.42
870.51	8875.23
870.83	8892.86
871.15	8800.88
871.469	8847.21
871.789	8753.2
872.109	8795.46
872.428	8741
872.748	8748.91
873.067	8676.82
873.386	8696.71
873.706	8752.3
874.025	8655.13
874.344	8663.03
874.663	8598.4
874.982	8621.91
875.301	8642.92
875.62	8592.3
875.939	8541
876.258	8457.84
876.577	8511.17
876.896	8544.39
877.214	8506.2
877.533	8475.47
877.852	8439.31
878.17	8496.71
878.489	8514.56
878.807	8463.94
879.125	8418.75
879.444	8442.25
879.762	8460.1
880.08	8347.56
880.398	8369.03
880.716	8401.8
881.034	8301.24
881.352	8295.59
881.67	8351.18
881.988	8302.82
882.306	8259.43
882.624	8215.14
882.941	8163.39
883.259	8160
883.577	8183.95
883.894	8208.36
884.212	8121.81
884.529	8174.23
884.846	8115.25
885.164	8122.71
885.481	8124.74
885.798	8113.44
886.115	7997.29
886.432	8025.09
886.75	8005.88
887.067	8004.07
887.383	7940.12
887.7	7916.16
888.017	7854.47
888.334	7886.56
888.651	7873.23
888.967	7889.72
889.284	7837.52
889.6	7847.46
889.917	7798.42
890.233	7770.18
890.55	7740.8
890.866	7729.27
891.182	7721.14
891.498	7708.03
891.815	7641.37
892.131	7617.41
892.447	7619.9
892.763	7519.34
893.079	7518.66
893.395	7541.71
893.71	7518.88
894.026	7487.7
894.342	7496.74
894.657	7402.96
894.973	7358.89
895.289	7425.1
895.604	7370.64
895.92	7313.69
896.235	7261.49
896.55	7289.74
896.865	7225.11
897.181	7240.93
897.496	7275.27
897.811	7217.42
898.126	7211.77
898.441	7185.56
898.756	7083.42
899.071	7083.87
899.386	7063.75
899.7	7035.73
900.015	7003.87
900.33	7029.41
900.644	6995.51
900.959	6997.09
901.273	6912.57
901.588	6898.56
901.902	6891.56
902.216	6861.05
902.531	6819.02
902.845	6818.34
903.159	6782.63
903.473	6770.43
903.787	6740.15
904.101	6688.85
904.415	6669.64
904.729	6586.93
905.042	6591.68
905.356	6606.14
905.67	6517.55
905.984	6522.75
906.297	6531.57
906.611	6521.62
906.924	6519.59
907.237	6479.82
907.551	6468.52
907.864	6408.86
908.177	6390.1
908.491	6377.45
908.804	6297.45
909.117	6294.51
909.43	6271.01
909.743	6267.39
910.056	6256.77
910.368	6216.55
910.681	6167.06
910.994	6137
911.307	6107.85
911.619	6080.28
911.932	6156.21
912.244	6009.09
912.557	6080.5
912.869	6010
913.181	6027.85
913.494	5990.34
913.806	5889.55
914.118	5907.85
914.43	5874.41
914.742	5892.71
915.054	5835.09
915.366	5798.03
915.678	5799.38
915.99	5758.7
916.302	5711.25
916.613	5737.46
916.925	5724.81
917.236	5728.87
917.548	5707.41
917.859	5656.79
918.171	5553.96
918.482	5613.85
918.794	5570.23
919.105	5567.07
919.416	5511.03
919.727	5523.23
920.038	5504.7
920.349	5426.06
920.66	5405.27
920.971	5440.97
921.282	5362.78
921.593	5342.67
921.903	5338.15
922.214	5297.93
922.525	5272.84
922.835	5266.74
923.146	5269
923.456	5184.48
923.767	5264.48
924.077	5174.54
924.387	5232.62
924.697	5111.49
925.008	5133.86
925.318	5096.35
925.628	5108.78
925.938	5059.29
926.248	5012.96
926.558	5022.23
926.867	5021.77
927.177	4997.37
927.487	4950.36
927.796	4909.69
928.106	4919.63
928.416	4912.63
928.725	4909.91
929.034	4792.85
929.344	4857.49
929.653	4844.15
929.962	4781.78
930.271	4731.39
930.581	4767.32
930.89	4690.03
931.199	4704.27
931.508	4646.87
931.817	4656.13
932.125	4697.49
932.434	4617.27
932.743	4595.12
933.051	4559.64
933.36	4521.67
933.669	4525.52
933.977	4521.22
934.286	4482.13
934.594	4520.09
934.902	4450.04
935.21	4475.57
935.519	4447.1
935.827	4460.21
936.135	4385.86
936.443	4355.8
936.751	4382.47
937.059	4345.18
937.367	4352.87
937.674	4317.16
937.982	4328.46
938.29	4276.71
938.597	4286.88
938.905	4260.21
939.213	4215.24
939.52	4224.06
939.827	4206.88
940.135	4170.05
940.442	4148.13
940.749	4145.87
941.056	4107.22
941.363	4050.05
941.67	4098.18
941.977	4047.11
942.284	4029.03
942.591	4016.83
942.898	3996.04
943.205	4008.47
943.511	3984.97
943.818	3939.77
944.125	3958.07
944.431	3939.54
944.738	3957.85
945.044	3883.95
945.35	3914.46
945.657	3849.38
945.963	3864.74
946.269	3802.82
946.575	3814.12
946.881	3787.91
947.187	3767.12
947.493	3717.4
947.799	3741.81
948.105	3714.69
948.41	3685.99
948.716	3693
949.022	3655.71
949.327	3685.76
949.633	3636.05
949.938	3612.77
950.244	3648.93
950.549	3549.95
950.854	3564.86
951.16	3554.47
951.465	3517.63
951.77	3545.2
952.075	3558.08
952.38	3493.23
952.685	3479.44
952.99	3438.99
953.294	3453.45
953.599	3425.43
953.904	3384.76
954.209	3437.64
954.513	3409.16
954.818	3390.18
955.122	3408.03
955.426	3333.68
955.731	3347.47
956.035	3325.32
956.339	3348.6
956.643	3314.7
956.948	3270.18
957.252	3250.75
957.556	3265.89
957.86	3270.86
958.163	3205.1
958.467	3228.15
958.771	3207.13
959.075	3203.52
959.378	3159
959.682	3153.58
959.985	3146.57
960.289	3134.14
960.592	3094.59
960.896	3105.44
961.199	3133.46
961.502	3041.71
961.805	3069.06
962.108	3068.38
962.411	3050.98
962.714	3046.23
963.017	3029.51
963.32	2970.08
963.623	2975.73
963.926	3004.43
964.228	2954.94
964.531	2970.08
964.833	2951.32
965.136	2878.33
965.438	2923.75
965.741	2913.58
966.043	2885.33
966.345	2885.56
966.648	2870.42
966.95	2875.84
967.252	2850.76
967.554	2795.39
967.856	2828.61
968.158	2790.42
968.46	2805.11
968.761	2761.95
969.063	2758.56
969.365	2749.07
969.666	2760.59
969.968	2717.65
970.269	2700.48
970.571	2701.61
970.872	2690.31
971.174	2695.28
971.475	2692.57
971.776	2678.56
972.077	2649.18
972.378	2647.83
972.679	2630.65
972.98	2599.01
973.281	2606.25
973.582	2555.4
973.883	2600.14
974.183	2560.82
974.484	2541.16
974.785	2544.78
975.085	2582.74
975.386	2526.25
975.686	2532.12
975.986	2487.15
976.287	2498.45
976.587	2467.04
976.887	2460.71
977.187	2453.03
977.487	2448.96
977.787	2426.81
978.087	2427.49
978.387	2427.94
978.687	2422.52
978.987	2417.1
979.286	2400.37
979.586	2371.45
979.885	2363.31
980.185	2339.59
980.484	2333.71
980.784	2361.73
981.083	2321.05
981.382	2306.59
981.682	2303.88
981.981	2267.5
982.28	2272.02
982.579	2278.12
982.878	2274.5
983.177	2275.18
983.475	2297.55
983.774	2244.22
984.073	2197.44
984.372	2196.09
984.67	2201.28
984.969	2205.35
985.267	2214.84
985.566	2181.17
985.864	2183.88
986.162	2181.17
986.461	2154.96
986.759	2131.68
987.057	2116.77
987.355	2071.12
987.653	2115.18
987.951	2098.46
988.249	2088.07
988.547	2072.93
988.844	2048.07
989.142	2044.68
989.44	2061.63
989.737	2059.14
990.035	2010.78
990.332	2065.47
990.63	2011.23
990.927	2008.75
991.224	1996.77
991.521	1981.63
991.819	1973.95
992.116	2001.52
992.413	1983.89
992.71	1967.17
993.006	1950.67
993.303	1950.9
993.6	1951.8
993.897	1928.75
994.193	1927.39
994.49	1911.12
994.787	1884.91
995.083	1875.87
995.379	1892.14
995.676	1880.61
995.972	1846.27
996.268	1872.25
996.565	1851.69
996.861	1791.35
997.157	1812.37
997.453	1808.53
997.749	1815.98
998.044	1790.9
998.34	1801.07
998.636	1770.56
998.932	1797
999.227	1755.42
999.523	1720.84
999.818	1754.97
1000.114	1743.67
1000.409	1755.65
1000.704	1717.91
1001	1689.88
1001.295	1693.95
1001.59	1700.73
1001.885	1672.26
1002.18	1692.37
1002.475	1689.66
1002.77	1669.55
1003.065	1637
1003.359	1614.63
1003.654	1624.58
1003.949	1609.66
1004.243	1603.33
1004.538	1616.89
1004.832	1582.54
1005.127	1604.24
1005.421	1560.4
1005.715	1550.23
1006.009	1569.21
1006.304	1544.8
1006.598	1557.91
1006.892	1529.44
1007.186	1538.48
1007.48	1500.06
1007.773	1565.37
1008.067	1519.49
1008.361	1496.44
1008.655	1503.45
1008.948	1507.52
1009.242	1473.39
1009.535	1484.92
1009.829	1453.96
1010.122	1465.03
1010.415	1473.62
1010.708	1429.1
1011.001	1417.35
1011.295	1399.27
1011.588	1433.62
1011.881	1417.35
1012.173	1402.66
1012.466	1410.8
1012.759	1421.19
1013.052	1356.33
1013.344	1379.84
1013.637	1355.88
1013.93	1368.09
1014.222	1353.85
1014.514	1349.55
1014.807	1330.12
1015.099	1340.52
1015.391	1338.03
1015.683	1274.98
1015.976	1317.01
1016.268	1278.82
1016.56	1303.68
1016.851	1271.82
1017.143	1272.27
1017.435	1288.31
1017.727	1242.21
1018.018	1238.37
1018.31	1251.03
1018.602	1244.92
1018.893	1220.52
1019.185	1220.97
1019.476	1212.38
1019.767	1196.11
1020.058	1205.15
1020.35	1183.23
1020.641	1182.55
1020.932	1156.11
1021.223	1171.48
1021.514	1173.51
1021.804	1146.85
1022.095	1131.26
1022.386	1142.1
1022.677	1133.97
1022.967	1114.76
1023.258	1101.88
1023.548	1122.44
1023.839	1104.14
1024.129	1124.25
1024.419	1118.6
1024.709	1078.6
1025	1078.83
1025.29	1081.77
1025.58	1060.97
1025.87	1036.34
1026.16	1048.09
1026.449	1072.05
1026.739	1041.54
1027.029	1039.51
1027.319	1021.65
1027.608	1033.63
1027.898	1008.32
1028.187	1017.59
1028.477	1016
1028.766	998.6
1029.055	970.13
1029.344	984.14
1029.634	964.93
1029.923	969.23
1030.212	976.01
1030.501	973.75
1030.79	922.67
1031.078	943.92
1031.367	952.96
1031.656	938.49
1031.945	936.01
1032.233	922.9
1032.522	927.19
1032.81	922.22
1033.099	911.83
1033.387	932.84
1033.675	891.94
1033.963	881.09
1034.251	883.13
1034.54	865.5
1034.828	903.92
1035.116	868.44
1035.403	879.06
1035.691	840.42
1035.979	866.63
1036.267	852.84
1036.554	841.09
1036.842	824.14
1037.129	846.97
1037.417	820.3
1037.704	827.08
1037.992	818.04
1038.279	817.37
1038.566	823.69
1038.853	823.69
1039.14	823.69
