Data from white_wall_FLMS001491_063.txt Node
Date: Tue Feb 07 11:05:23 GMT 2017
User: dcchb
Spectrometer: FLMS00149
Trigger mode: 0
Integration Time (sec): 2.000000E-2
Scans to average: 10
Electric dark correction enabled: true
Nonlinearity correction enabled: false
Boxcar width: 0
XAxis mode: Wavelengths
Number of Pixels in Spectrum: 2048
>>>>>Begin Spectral Data<<<<<
341.393	-10.06
341.776	-10.06
342.16	-10.06
342.543	-69.94
342.927	-90.73
343.31	-63.39
343.693	-56.38
344.077	-66.55
344.46	-80.34
344.843	-70.62
345.226	-59.77
345.61	-21.36
345.993	-15.48
346.376	1.02
346.759	13.9
347.142	24.29
347.525	54.8
347.908	62.26
348.291	81.01
348.674	90.73
349.057	105.87
349.44	117.85
349.823	150.84
350.206	167.79
350.588	188.13
350.971	238.75
351.354	245.08
351.737	271.29
352.119	264.29
352.502	281.24
352.884	301.12
353.267	309.26
353.65	299.54
354.032	322.36
354.414	353.78
354.797	334.12
355.179	322.59
355.562	352.87
355.944	336.15
356.326	344.74
356.709	351.74
357.091	371.18
357.473	347.22
357.855	355.81
358.238	363.27
358.62	368.69
359.002	358.07
359.384	354.91
359.766	353.32
360.148	345.64
360.53	362.59
360.912	345.19
361.294	345.64
361.676	378.86
362.057	377.96
362.439	360.1
362.821	352.19
363.203	353.55
363.584	361.69
363.966	356.94
364.348	343.61
364.729	343.83
365.111	331.86
365.493	356.26
365.874	330.5
366.256	333.89
366.637	335.92
367.019	325.98
367.4	342.93
367.781	350.39
368.163	340.67
368.544	362.59
368.925	337.51
369.306	348.8
369.688	328.92
370.069	348.35
370.45	344.51
370.831	361.46
371.212	336.15
371.593	326.66
371.974	338.64
372.355	343.15
372.736	353.32
373.117	332.31
373.498	358.97
373.879	347.9
374.26	347.22
374.641	332.76
375.021	337.96
375.402	353.78
375.783	349.26
376.163	335.7
376.544	352.65
376.925	349.48
377.305	360.78
377.686	368.24
378.066	369.82
378.447	363.27
378.827	347.67
379.208	389.48
379.588	370.5
379.968	384.28
380.349	375.7
380.729	383.83
381.109	384.06
381.489	399.42
381.87	394
382.25	382.7
382.63	391.74
383.01	381.8
383.39	396.71
383.77	368.46
384.15	385.19
384.53	397.16
384.91	417.28
385.29	414.57
385.67	414.11
386.049	416.37
386.429	416.6
386.809	422.25
387.189	417.73
387.568	414.57
387.948	420.21
388.328	432.87
388.707	427.22
389.087	414.57
389.466	446.65
389.846	440.33
390.225	461.57
390.605	458.18
390.984	468.58
391.363	469.93
391.743	473.55
392.122	477.39
392.501	489.14
392.881	502.92
393.26	483.94
393.639	497.5
394.018	517.16
394.397	516.94
394.776	540.66
395.155	535.01
395.534	540.89
395.913	563.71
396.292	540.66
396.671	561.45
397.05	577.95
397.429	590.38
397.808	580.89
398.186	597.84
398.565	603.26
398.944	624.28
399.323	619.31
399.701	621.11
400.08	644.84
400.458	645.52
400.837	657.72
401.215	663.82
401.594	681.68
401.972	696.59
402.351	699.76
402.729	737.04
403.107	743.6
403.486	753.54
403.864	772.75
404.242	777.72
404.62	791.5
404.999	800.54
405.377	829.47
405.755	828.79
406.133	873.54
406.511	845.51
406.889	895.91
407.267	882.12
407.645	932.52
408.023	936.59
408.401	966.42
408.779	977.94
409.156	1008.22
409.534	1011.84
409.912	999.63
410.29	1035.79
410.667	1062.23
411.045	1059.52
411.422	1090.03
411.8	1099.97
412.178	1119.86
412.555	1162.57
412.933	1145.62
413.31	1164.38
413.687	1194.21
414.065	1219.06
414.442	1227.2
414.819	1247.54
415.197	1279.63
415.574	1295.22
415.951	1292.73
416.328	1314.65
416.705	1335.67
417.082	1320.3
417.46	1368.21
417.837	1387.2
418.214	1396.01
418.591	1368.89
418.967	1430.13
419.344	1451.37
419.721	1450.24
420.098	1448.66
420.475	1472.16
420.852	1478.49
421.228	1519.85
421.605	1529.11
421.982	1531.15
422.358	1540.86
422.735	1573.63
423.111	1600.75
423.488	1621.99
423.864	1638.49
424.241	1651.82
424.617	1676
424.994	1671.48
425.37	1703.8
425.746	1717.13
426.123	1747.64
426.499	1735.21
426.875	1789.44
427.251	1816.79
427.627	1843.68
428.003	1840.29
428.379	1885.94
428.756	1904.92
429.132	1949.89
429.507	1959.38
429.883	1994.86
430.259	2041.19
430.635	2033.51
431.011	2024.47
431.387	2094.3
431.763	2141.98
432.138	2132.49
432.514	2186.95
432.89	2187.63
433.265	2242.54
433.641	2290.45
434.016	2337.45
434.392	2339.49
434.767	2418.58
435.143	2391.69
435.518	2437.34
435.894	2464.45
436.269	2442.99
436.644	2460.84
437.02	2517.56
437.395	2574.06
437.77	2576.32
438.145	2646.15
438.52	2649.31
438.895	2660.61
439.271	2711
439.646	2750.32
440.021	2770.44
440.395	2760.04
440.77	2732.92
441.145	2809.76
441.52	2857.89
441.895	2850.89
442.27	2939.7
442.645	2889.53
443.019	2962.29
443.394	2961.62
443.769	2994.38
444.143	2985.35
444.518	3065.34
444.892	3038
445.267	3083.42
445.641	3120.26
446.016	3145.79
446.39	3107.38
446.764	3175.62
447.139	3170.2
447.513	3214.94
447.887	3245.23
448.262	3289.29
448.636	3275.06
449.01	3335.62
449.384	3332.68
449.758	3340.14
450.132	3428.5
450.506	3428.72
450.88	3481.38
451.254	3470.76
451.628	3549.85
452.002	3568.61
452.376	3616.97
452.75	3678.66
453.123	3693.12
453.497	3710.98
453.871	3754.14
454.244	3868.03
454.618	3867.81
454.992	3948.94
455.365	3959.56
455.739	4055.37
456.112	4064.86
456.486	4128.82
456.859	4172.88
457.232	4250.62
457.606	4208.14
457.979	4286.33
458.352	4406.32
458.725	4433.89
459.099	4445.19
459.472	4564.51
459.845	4597.28
460.218	4674.57
460.591	4691.06
460.964	4749.14
461.337	4858.74
461.71	4951.17
462.083	5009.02
462.456	4950.27
462.829	5010.38
463.201	5119.3
463.574	5151.62
463.947	5230.03
464.32	5353.64
464.692	5359.52
465.065	5472.29
465.438	5469.57
465.81	5609.91
466.183	5658.5
466.555	5767.19
466.928	5826.85
467.3	5861.65
467.672	5907.08
468.045	6057.81
468.417	6110.23
468.789	6067.52
469.161	6297.12
469.534	6367.4
469.906	6450.56
470.278	6554.29
470.65	6658.02
471.022	6711.57
471.394	6869.76
471.766	6914.28
472.138	7044.67
472.51	7206.25
472.882	7296.87
473.253	7373.7
473.625	7489.18
473.997	7705.45
474.369	7705
474.74	7825.9
475.112	8033.12
475.484	8143.63
475.855	8249.84
476.227	8338.65
476.598	8548.81
476.97	8652.77
477.341	8883.95
477.713	9001.68
478.084	9089.14
478.455	9364.61
478.827	9396.25
479.198	9714.21
479.569	9631.72
479.94	10006.86
480.311	10113.52
480.682	10284.59
481.053	10515.09
481.424	10693.84
481.795	10850.22
482.166	10975.42
482.537	11142.19
482.908	11402.98
483.279	11472.58
483.65	11673.48
484.021	11954.83
484.391	12129.74
484.762	12174.71
485.133	12317.98
485.503	12547.58
485.874	12865.99
486.244	13083.61
486.615	13193.89
486.985	13431.85
487.356	13664.61
487.726	13781.67
488.097	14045.17
488.467	14070.25
488.837	14397.93
489.207	14640.18
489.578	14754.3
489.948	14958.36
490.318	15107.06
490.688	15178.7
491.058	15508.18
491.428	15681.73
491.798	15789.98
492.168	16222.74
492.538	16206.92
492.908	16442.39
493.278	16746.79
493.648	16671.31
494.017	17006.67
494.387	17136.16
494.757	17245.99
495.126	17453.44
495.496	17521.46
495.866	17757.84
496.235	17980.43
496.605	18060.66
496.974	18164.16
497.344	18434.88
497.713	18467.88
498.082	18630.36
498.452	18836.91
498.821	18897.47
499.19	19050.46
499.559	19322.99
499.928	19435.08
500.298	19499.04
500.667	19722.31
501.036	19754.62
501.405	19977.44
501.774	20050.66
502.143	20215.63
502.512	20328.62
502.88	20612.45
503.249	20622.4
503.618	20849.28
503.987	20861.49
504.356	21150.52
504.724	21178.09
505.093	21318.2
505.462	21513.22
505.83	21594.8
506.199	21743.72
506.567	22151.39
506.936	22114.33
507.304	22384.61
507.672	22570.37
508.041	22669.8
508.409	22804.49
508.777	23000.19
509.145	23166.74
509.514	23243.34
509.882	23512.26
510.25	23509.78
510.618	23772.82
510.986	23971.69
511.354	24196.76
511.722	24340.04
512.09	24573.25
512.458	24547.72
512.826	24844.66
513.193	24996.07
513.561	25187.7
513.929	25327.58
514.297	25542.94
514.664	25673.79
515.032	25815.48
515.4	26010.5
515.767	26159.65
516.135	26387.89
516.502	26330.95
516.869	26785.62
517.237	26894.32
517.604	26751.73
517.972	27210.47
518.339	27582.89
518.706	27504.02
519.073	27670.8
519.44	27848.19
519.808	28190.33
520.175	28312.81
520.542	28547.16
520.909	28842.29
521.276	28870.31
521.643	29164.32
522.009	29290.64
522.376	29546.68
522.743	29626.9
523.11	30015.14
523.477	30248.81
523.843	30431.63
524.21	30736.03
524.577	31057.6
524.943	31151.16
525.31	31291.95
525.676	31549.34
526.043	31873.85
526.409	31923.79
526.776	32300.73
527.142	32471.12
527.508	32573.49
527.874	32931.22
528.241	33099.81
528.607	33306.81
528.973	33609.62
529.339	33491.21
529.705	33827.47
530.071	34088.03
530.437	34302.04
530.803	34460.68
531.169	34724.85
531.535	34603.95
531.901	34786.09
532.267	35047.55
532.632	35304.5
532.998	35399.18
533.364	35644.15
533.73	35739.51
534.095	36027.41
534.461	36073.51
534.826	36395.54
535.192	36495.88
535.557	36631.47
535.923	36624.01
536.288	36831.91
536.653	37096.09
537.019	37065.13
537.384	37154.16
537.749	37418.11
538.114	37514.15
538.479	37636.41
538.845	37931.09
539.21	37642.29
539.575	37970.41
539.94	38157.08
540.305	38329.73
540.67	38474.36
541.034	38528.37
541.399	38840.45
541.764	38821.69
542.129	39108.46
542.494	39202.47
542.858	39306.2
543.223	39445.86
543.587	39727.43
543.952	39616.7
544.316	39779.41
544.681	39892.17
545.045	40193.18
545.41	40475.21
545.774	40361.99
546.138	40432.04
546.503	40721.08
546.867	40701.19
547.231	41147.05
547.595	41094.4
547.959	41336.65
548.324	41461.85
548.688	41611.9
549.052	41737.77
549.416	41757.89
549.779	42024.77
550.143	42193.35
550.507	42405.55
550.871	42499.56
551.235	42483.52
551.599	42791.76
551.962	43037.4
552.326	43117.85
552.689	43306.09
553.053	43151.97
553.417	43461.12
553.78	44125.05
554.143	43923.93
554.507	44158.73
554.87	44258.38
555.234	44753.51
555.597	44512.16
555.96	44764.81
556.323	44985.14
556.686	45088.87
557.05	45424.46
557.413	45416.55
557.776	45628.74
558.139	46003.65
558.502	46113.93
558.865	46181.5
559.228	46542.84
559.59	46583.75
559.953	46559.11
560.316	47070.51
560.679	47126.78
561.041	47323.61
561.404	47580.78
561.767	47855.8
562.129	47677.73
562.492	48152.97
562.854	48094.44
563.217	48324.27
563.579	48449.23
563.941	48691.26
564.304	48817.36
564.666	49023.23
565.028	49203.79
565.39	49277.01
565.753	49544.57
566.115	49567.62
566.477	49633.38
566.839	49740.95
567.201	49947.5
567.563	50046.25
567.925	50317.89
568.287	50349.98
568.648	50314.27
569.01	50691.21
569.372	50671.55
569.734	50700.02
570.095	51094.81
570.457	51062.95
570.819	51245.09
571.18	51245.77
571.542	51493
571.903	51453.22
572.265	51543.39
572.626	51689.38
572.987	51699.32
573.349	51828.58
573.71	51964.85
574.071	52085.3
574.432	52152.87
574.794	52393.76
575.155	52352.18
575.516	52203.03
575.877	52399.19
576.238	52516.7
576.599	52615.9
576.96	52559.86
577.32	52667.65
577.681	52712.4
578.042	52796.69
578.403	52818.84
578.763	52897.48
579.124	52892.96
579.485	53070.81
579.845	53158.04
580.206	53106.51
580.566	53077.14
580.927	53097.47
581.287	53189.45
581.648	53061.77
582.008	53196.23
582.368	53198.26
582.728	53274.42
583.089	53281.42
583.449	53226.06
583.809	53403.68
584.169	53339.95
584.529	53290.92
584.889	53485.26
585.249	53340.86
585.609	53235.32
585.969	53454.75
586.329	53442.78
586.688	53418.82
587.048	53462.89
587.408	53339.28
587.768	53366.85
588.127	53350.57
588.487	53394.19
588.846	53547.86
589.206	53346.05
589.565	53420.86
589.925	53500.63
590.284	53450.01
590.643	53479.38
591.003	53547.18
591.362	53713.95
591.721	53474.64
592.08	53544.02
592.44	53656.1
592.799	53585.6
593.158	53601.19
593.517	53557.8
593.876	53615.88
594.235	53592.38
594.593	53619.72
594.952	53688.42
595.311	53551.47
595.67	53681.64
596.029	53765.93
596.387	53839.15
596.746	53905.59
597.104	53758.47
597.463	53781.98
597.822	53802.09
598.18	53697.46
598.538	53765.03
598.897	53974.96
599.255	53609.78
599.613	54000.05
599.972	53869.21
600.33	53964.57
600.688	53821.52
601.046	53979.26
601.404	54036.21
601.762	53978.58
602.12	54080.5
602.478	54080.72
602.836	54206.15
603.194	54000.05
603.552	54152.59
603.91	53975.64
604.268	54178.58
604.625	54060.16
604.983	54175.41
605.341	54056.09
605.698	54203.66
606.056	54247.5
606.413	54278.01
606.771	54336.76
607.128	54414.28
607.485	54310.32
607.843	54318.46
608.2	54482.07
608.557	54507.38
608.914	54471
609.272	54649.98
609.629	54737.66
609.986	54782.18
610.343	54591.67
610.7	54840.25
611.057	54722.06
611.414	54713.93
611.771	54710.76
612.127	54874.38
612.484	54759.35
612.841	54861.27
613.198	54812.46
613.554	54856.52
613.911	55041.83
614.267	54979.23
614.624	54907.14
614.98	55007.71
615.337	55117.76
615.693	55089.29
616.05	55063.75
616.406	55150.53
616.762	55127.7
617.118	55093.81
617.475	55099.23
617.831	55234.82
618.187	55225.55
618.543	55300.58
618.899	55454.25
619.255	55423.74
619.611	55358.66
619.967	55434.36
620.323	55479.33
620.678	55346.68
621.034	55361.6
621.39	55348.49
621.746	55383.52
622.101	55633.68
622.457	55422.61
622.812	55469.84
623.168	55551.19
623.523	55583.06
623.879	55583.06
624.234	55385.78
624.589	55498.09
624.945	55462.16
625.3	55496.51
625.655	55485.43
626.01	55494.7
626.365	55579.67
626.72	55503.74
627.075	55522.27
627.43	55483.85
627.785	55480.91
628.14	55463.74
628.495	55530.4
628.85	55451.08
629.205	55316.62
629.559	55454.93
629.914	55445.66
630.269	55456.06
630.623	55317.75
630.978	55260.13
631.332	55377.87
631.687	55424.64
632.041	55296.06
632.396	55333.12
632.75	55221.26
633.104	55286.57
633.459	55129.74
633.813	55147.36
634.167	55088.16
634.521	55184.65
634.875	55069.63
635.229	55023.07
635.583	54955.96
635.937	54974.03
636.291	54975.62
636.645	54931.78
636.999	54829.86
637.352	54995.96
637.706	54889.29
638.06	55019.68
638.413	54764.77
638.767	54813.14
639.121	54768.62
639.474	54621.5
639.828	54674.38
640.181	54766.36
640.534	54779.92
640.888	54675.96
641.241	54465.8
641.594	54621.95
641.947	54627.15
642.301	54558.23
642.654	54538.57
643.007	54453.14
643.36	54561.62
643.713	54513.93
644.066	54525.91
644.419	54337.22
644.771	54030.56
645.124	53791.47
645.477	53770.22
645.83	53508.08
646.182	53413.85
646.535	53355.09
646.888	53543.11
647.24	53203.91
647.593	53360.29
647.945	53318.71
648.298	53190.13
648.65	53151.71
649.002	53051.6
649.355	53066.29
649.707	53156.46
650.059	53235.78
650.411	53556.67
650.763	53616.56
651.115	53888.41
651.467	53751.92
651.819	53802.31
652.171	53713.05
652.523	53638.93
652.875	53669.89
653.227	53572.49
653.578	53676.22
653.93	53592.38
654.282	53502.44
654.633	53412.49
654.985	53437.8
655.337	53433.74
655.688	53499.72
656.039	53476.67
656.391	53304.93
656.742	53359.39
657.094	53352.16
657.445	53462.21
657.796	53365.94
658.147	53230.13
658.498	53122.56
658.849	53303.8
659.2	53344.47
659.551	53215.21
659.902	53310.12
660.253	53277.13
660.604	53208.88
660.955	53092.28
661.306	53127.76
661.656	53059.06
662.007	52999.62
662.358	53020.64
662.708	53070.58
663.059	52998.72
663.409	52792.62
663.76	53031.71
664.11	53060.19
664.461	53022.9
664.811	52892.73
665.161	52997.36
665.511	52922.56
665.862	52964.37
666.212	52978.16
666.562	53008.44
666.912	52824.26
667.262	52856.35
667.612	52913.3
667.962	52823.36
668.312	52828.33
668.662	52939.51
669.011	52746.75
669.361	52779.74
669.711	52676.02
670.06	52629.01
670.41	52589.46
670.76	52574.78
671.109	52753.53
671.459	52657.49
671.808	52556.25
672.157	52594.44
672.507	52343.14
672.856	52484.38
673.205	52537.71
673.554	52606.64
673.904	52382.92
674.253	52485.74
674.602	52459.52
674.951	51981.57
675.3	51756.49
675.649	52346.53
675.998	52134.56
676.346	52313.09
676.695	52391.5
677.044	52024.96
677.393	52263.37
677.741	52286.65
678.09	52049.59
678.438	51966.43
678.787	52233.77
679.135	52147.44
679.484	51835.36
679.832	52046.88
680.181	51828.35
680.529	51968.69
680.877	51842.82
681.225	51721.92
681.573	51873.55
681.922	51743.16
682.27	51564.86
682.618	51553.33
682.966	51462.26
683.314	51511.75
683.661	51431.98
684.009	51255.26
684.357	51232.66
684.705	51074.48
685.053	51146.56
685.4	51050.75
685.748	50907.7
686.095	50893.01
686.443	50838.78
686.79	50698.44
687.138	50721.27
687.485	50754.03
687.832	50652.11
688.18	50556.3
688.527	50330.99
688.874	50342.74
689.221	50294.84
689.568	50125.35
689.915	49986.6
690.262	50028.63
690.609	49896.2
690.956	49811.23
691.303	49685.13
691.65	49566.04
691.997	49537.79
692.344	49413.73
692.69	49406.27
693.037	49449.21
693.383	49007.86
693.73	49131.25
694.077	48912.05
694.423	48954.53
694.769	48806.74
695.116	48865.72
695.462	48736.91
695.808	48498.05
696.155	48537.37
696.501	48370.37
696.847	48337.37
697.193	48127.44
697.539	48222.8
697.885	47902.81
698.231	47764.05
698.577	47828.23
698.923	47742.81
699.269	47473.22
699.614	47395.7
699.96	47387.34
700.306	47357.96
700.651	47157.97
700.997	47014.24
701.342	46976.96
701.688	46806.57
702.033	46771.54
702.379	46705.55
702.724	46553.47
703.069	46623.97
703.415	46137.43
703.76	46183.76
704.105	46101.27
704.45	46167.03
704.795	45888.85
705.14	45843.43
705.485	45886.82
705.83	45695.86
706.175	45754.62
706.52	45541.29
706.865	45366.15
707.209	45506.49
707.554	45201.18
707.899	45304.46
708.243	45020.17
708.588	44911.02
708.932	44777.01
709.277	44681.88
709.621	44697.92
709.966	44479.85
710.31	44603.01
710.654	44349.23
710.998	44293.86
711.342	44350.81
711.687	44193.75
712.031	44037.37
712.375	43906.76
712.719	43979.97
713.063	43934.1
713.407	44119.86
713.75	43713.31
714.094	43645.07
714.438	43553.77
714.782	43631.73
715.125	43452.53
715.469	43353.55
715.812	43040.56
716.156	43003.95
716.499	42928.93
716.843	42959.44
717.186	42652.55
717.53	42884.41
717.873	42858.2
718.216	42781.36
718.559	42662.04
718.902	42226.12
719.246	42433.12
719.589	42302.73
719.932	42124.66
720.275	42107.71
720.617	42133.69
720.96	41859.35
721.303	41957.65
721.646	41994.04
721.989	41722.41
722.331	41776.19
722.674	41715.85
723.016	41568.51
723.359	41638.57
723.701	41580.04
724.044	41327.39
724.386	41163.32
724.729	41483.32
725.071	41294.39
725.413	41300.95
725.755	41202.42
726.097	41114.74
726.439	40907.96
726.782	40808.53
727.124	40967.85
727.465	40771.47
727.807	40734.18
728.149	40704.35
728.491	40519.05
728.833	40641.53
729.175	40490.12
729.516	40389.79
729.858	40352.5
730.199	40409.45
730.541	40241.77
730.882	40245.38
731.224	40283.35
731.565	39989.57
731.906	39917.26
732.248	39952.28
732.589	39777.82
732.93	39518.62
733.271	39477.95
733.612	39709.35
733.953	39705.74
734.294	39354.56
734.635	39428
734.976	39416.7
735.317	39386.2
735.658	39383.71
735.999	39366.76
736.339	39243.6
736.68	39355.24
737.021	39135.13
737.361	38861.92
737.702	39231.62
738.042	39023.72
738.383	38854.46
738.723	38942.14
739.063	38787.57
739.404	38853.55
739.744	38684.29
740.084	38602.94
740.424	38642.49
740.764	38549.16
741.104	38615.59
741.444	38482.49
741.784	38271.88
742.124	38367.92
742.464	38279.33
742.804	38272.78
743.143	38063.52
743.483	38121.14
743.823	37960.7
744.162	38020.13
744.502	37883.41
744.841	37715.28
745.181	37824.66
745.52	37671.44
745.86	37807.48
746.199	37750.53
746.538	37558.9
746.877	37488.62
747.216	37560.26
747.556	37379.92
747.895	37397.32
748.234	37273.48
748.573	37200.26
748.911	36985.58
749.25	37139.02
749.589	36907.39
749.928	36974.96
750.267	37003.66
750.605	36752.14
750.944	36859.03
751.283	36641.86
751.621	36723.44
751.96	36470.34
752.298	36507.85
752.636	36552.37
752.975	36343.79
753.313	36125.49
753.651	36345.6
753.989	36184.25
754.327	36094.98
754.666	35944.25
755.004	35932.95
755.342	35878.72
755.679	35863.12
756.017	35539.07
756.355	35590.82
756.693	35448.22
757.031	35507.65
757.368	35325.74
757.706	35281.9
758.044	35187.44
758.381	35078.96
758.719	35066.31
759.056	35095.24
759.394	34804.85
759.731	34661.8
760.068	34620.67
760.405	34570.73
760.743	34446.44
761.08	34560.56
761.417	34292.77
761.754	34109.05
762.091	34133.68
762.428	34073.12
762.765	33675.61
763.102	33897.98
763.438	33642.17
763.775	33608.04
764.112	33504.99
764.449	33602.85
764.785	33268.84
765.122	33097.77
765.458	33036.98
765.795	32958.12
766.131	33006.48
766.467	32773.26
766.804	32621.63
767.14	32498.02
767.476	32520.16
767.812	32355.65
768.148	32360.39
768.485	32176.67
768.821	32044.24
769.157	31955.88
769.492	31917.92
769.828	31832.72
770.164	31561.09
770.5	31413.52
770.836	31455.56
771.171	31310.93
771.507	31137.37
771.842	30911.62
772.178	30948.45
772.513	30812.64
772.849	30776.93
773.184	30649.25
773.519	30690.15
773.855	30579.2
774.19	30376.26
774.525	30227.79
774.86	30189.38
775.195	30176.04
775.53	29906.67
775.865	29714.36
776.2	29614.02
776.535	29460.81
776.87	29617.41
777.205	29275.95
777.539	29271.66
777.874	29237.54
778.209	29061.04
778.543	28887.04
778.878	28775.18
779.212	28881.61
779.547	28612.47
779.881	28599.14
780.215	28376.99
780.55	28465.58
780.884	28217
781.218	28101.07
781.552	28227.85
781.886	27998.25
782.22	27970
782.554	27812.94
782.888	27475.1
783.222	27492.05
783.556	27342.22
783.889	27413.18
784.223	27212.96
784.557	27200.98
784.89	27081.89
785.224	26878.05
785.557	26865.4
785.891	26753.99
786.224	26623.37
786.558	26683.93
786.891	26441.9
787.224	26408.91
787.557	26265.64
787.891	26245.52
788.224	26124.17
788.557	26051.86
788.89	26037.62
789.223	25923.73
789.556	25664.75
789.888	25707.69
790.221	25493.23
790.554	25431.76
790.887	25368.49
791.219	25218.21
791.552	25208.94
791.884	25074.26
792.217	25011.21
792.549	24829.06
792.882	24752.46
793.214	24659.35
793.546	24741.61
793.879	24649.86
794.211	24413.48
794.543	24542.29
794.875	24380.94
795.207	24454.16
795.539	24338.23
795.871	24222.98
796.203	24016.88
796.535	23938.47
796.867	23978.24
797.198	23897.56
797.53	23811.46
797.862	23588.65
798.193	23723.78
798.525	23565.6
798.856	23498.48
799.188	23301.87
799.519	23272.5
799.85	23087.42
800.182	23140.52
800.513	23080.64
800.844	22857.82
801.175	23014.88
801.506	22999.51
801.837	22745.05
802.168	22769.91
802.499	22679.97
802.83	22553.19
803.161	22429.35
803.491	22418.51
803.822	22450.6
804.153	22316.36
804.483	22142.58
804.814	22142.58
805.145	22120.44
805.475	21995.92
805.805	21894.45
806.136	21849.48
806.466	21882.02
806.796	21920.44
807.126	21674.12
807.457	21693.33
807.787	21615.36
808.117	21498.53
808.447	21431.64
808.777	21525.87
809.107	21373.56
809.436	21264.41
809.766	21339.89
810.096	21214.92
810.426	21097.41
810.755	21162.04
811.085	20962.05
811.414	21023.06
811.744	20889.06
812.073	20798.66
812.403	20732.68
812.732	20703.75
813.061	20764.09
813.39	20536.52
813.719	20439.58
814.049	20579.01
814.378	20396.64
814.707	20416.75
815.036	20397.09
815.365	20243.65
815.693	20108.74
816.022	20140.37
816.351	20098.12
816.68	19967.72
817.008	19963.43
817.337	19804.56
817.665	19779.03
817.994	19904.22
818.322	19757.79
818.651	19685.92
818.979	19706.04
819.307	19701.29
819.636	19638.47
819.964	19622.42
820.292	19540.39
820.62	19572.25
820.948	19500.17
821.276	19575.64
821.604	19500.62
821.932	19533.16
822.259	19515.98
822.587	19413.84
822.915	19450
823.243	19419.94
823.57	19425.36
823.898	19462.88
824.225	19488.41
824.553	19374.52
824.88	19384.01
825.207	19323.22
825.535	19308.98
825.862	19367.06
826.189	19335.65
826.516	19445.7
826.843	19381.07
827.17	19342.66
827.497	19372.03
827.824	19400.73
828.151	19433.73
828.478	19353.95
828.805	19393.95
829.131	19314.63
829.458	19240.96
829.785	19173.62
830.111	19320.51
830.438	19346.95
830.764	19358.7
831.09	19255.2
831.417	19043.23
831.743	19268.31
832.069	19246.61
832.395	19175.2
832.722	19181.3
833.048	19223.11
833.374	19251.13
833.7	19057.24
834.026	19142.89
834.351	19071.25
834.677	19175.88
835.003	19127.75
835.329	19094.75
835.654	19052.49
835.98	18948.54
836.306	19014.75
836.631	18930.46
836.956	18924.36
837.282	18943.57
837.607	18927.98
837.932	18784.25
838.258	18811.82
838.583	18746.51
838.908	18690.47
839.233	18699.06
839.558	18619.96
839.883	18600.3
840.208	18542.22
840.533	18520.98
840.858	18670.36
841.182	18521.66
841.507	18409.8
841.832	18430.36
842.156	18296.13
842.481	18266.07
842.805	18215
843.13	18336.35
843.454	18230.82
843.778	18144.95
844.103	18061.56
844.427	18088.22
844.751	18023.59
845.075	18013.88
845.399	17918.29
845.723	17827.89
846.047	17882.13
846.371	17764.17
846.695	17754.45
847.019	17553.55
847.343	17443.95
847.666	17396.49
847.99	17299.32
848.313	17393.55
848.637	17172.77
848.96	17165.99
849.284	17033.56
849.607	17025.43
849.931	16933
850.254	16805.77
850.577	16736.62
850.9	16577.98
851.223	16599.22
851.546	16497.76
851.869	16478.78
852.192	16561.03
852.515	16411.21
852.838	16400.36
853.161	16359
853.483	16262.96
853.806	16164.21
854.129	16175.73
854.451	16100.03
854.774	16012.12
855.096	15986.13
855.419	15979.35
855.741	15914.95
856.063	15786.14
856.385	15666.14
856.708	15695.75
857.03	15648.97
857.352	15654.62
857.674	15627.5
857.996	15600.15
858.318	15462.53
858.64	15488.52
858.961	15336.66
859.283	15465.92
859.605	15336.21
859.926	15329.43
860.248	15315.64
860.57	15191.35
860.891	15195.65
861.212	15163.56
861.534	15177.57
861.855	15054.18
862.176	15032.49
862.498	14966.27
862.819	14962.66
863.14	14882.43
863.461	14933.28
863.782	14883.11
864.103	14863.9
864.424	14804.24
864.745	14768.31
865.065	14714.53
865.386	14611.93
865.707	14575.1
866.027	14611.03
866.348	14628.43
866.668	14651.25
866.989	14614.64
867.309	14495.1
867.63	14526.74
867.95	14492.16
868.27	14340.98
868.59	14468.89
868.91	14418.94
869.23	14394.99
869.55	14360.87
869.87	14401.09
870.19	14232.73
870.51	14278.83
870.83	14336.69
871.15	14199.29
871.469	14130.36
871.789	14282
872.109	14162.9
872.428	14116.8
872.748	14099.18
873.067	14136.01
873.386	14138.95
873.706	14026.86
874.025	13904.61
874.344	14017.15
874.663	14025.05
874.982	13943.02
875.301	13994.1
875.62	13889.24
875.939	13833.2
876.258	13860.99
876.577	13869.35
876.896	13800.43
877.214	13803.37
877.533	13765.63
877.852	13811.73
878.17	13744.16
878.489	13723.14
878.807	13759.98
879.125	13699.19
879.444	13722.92
879.762	13579.87
880.08	13557.72
880.398	13482.92
880.716	13539.87
881.034	13451.28
881.352	13408.57
881.67	13435.47
881.988	13394.34
882.306	13396.6
882.624	13275.24
882.941	13300.78
883.259	13226.43
883.577	13208.13
883.894	13230.5
884.212	13205.64
884.529	13158.19
884.846	13077.51
885.164	13084.74
885.481	13046.32
885.798	13004.52
886.115	12924.07
886.432	12864.41
886.75	12957.51
887.067	12897.18
887.383	12858.76
887.7	12795.26
888.017	12865.76
888.334	12830.06
888.651	12785.09
888.967	12790.06
889.284	12621.7
889.6	12621.7
889.917	12630.52
890.233	12591.87
890.55	12571.99
890.866	12521.82
891.182	12481.37
891.498	12360.01
891.815	12399.79
892.131	12250.64
892.447	12264.65
892.763	12199.57
893.079	12227.59
893.395	12194.59
893.71	12070.53
894.026	12195.95
894.342	12027.37
894.657	12002.74
894.973	12035.5
895.289	11992.11
895.604	11963.64
895.92	11867.37
896.235	11828.28
896.55	11801.38
896.865	11719.35
897.181	11739.69
897.496	11736.08
897.811	11666.7
898.126	11656.76
898.441	11567.94
898.756	11473.48
899.071	11469.64
899.386	11527.72
899.7	11398.46
900.015	11298.12
900.33	11223.09
900.644	11310.1
900.959	11270.55
901.273	11251.12
901.588	11200.95
901.902	11066.71
902.216	11094.74
902.531	11000.5
902.845	10966.83
903.159	10903.33
903.473	10923.89
903.787	10850
904.101	10779.72
904.415	10779.94
904.729	10739.27
905.042	10643.45
905.356	10650
905.67	10645.26
905.984	10595.77
906.297	10552.83
906.611	10511.7
906.924	10472.15
907.237	10494.53
907.551	10416.11
907.864	10367.07
908.177	10319.62
908.491	10233.97
908.804	10224.7
909.117	10146.06
909.43	10133.18
909.743	10051.6
910.056	10038.72
910.368	9956.01
910.681	9971.83
910.994	9911.72
911.307	9945.16
911.619	9854.09
911.932	9917.14
912.244	9786.52
912.557	9802.57
912.869	9619.75
913.181	9632.63
913.494	9651.38
913.806	9528.45
914.118	9549.01
914.43	9354.44
914.742	9386.98
915.054	9426.08
915.366	9399.87
915.678	9296.82
915.99	9224.96
916.302	9167.56
916.613	9126.43
916.925	9207.1
917.236	9120.55
917.548	9063.38
917.859	9144.05
918.171	8994.9
918.482	8982.93
918.794	8930.73
919.105	8948.8
919.416	8895.47
919.727	8826.77
920.038	8793.55
920.349	8707.23
920.66	8680.79
920.971	8746.32
921.282	8658.19
921.593	8579.55
921.903	8508.59
922.214	8490.74
922.525	8485.77
922.835	8435.37
923.146	8365.32
923.456	8319.67
923.767	8367.35
924.077	8303.4
924.387	8306.79
924.697	8236.73
925.008	8230.63
925.318	8184.53
925.628	8161.93
925.938	8148.83
926.248	8045.55
926.558	8017.3
926.867	8052.33
927.177	7977.3
927.487	7931.43
927.796	7809.17
928.106	7857.53
928.416	7871.77
928.725	7762.39
929.034	7739.12
929.344	7778.44
929.653	7760.59
929.962	7673.58
930.271	7642.4
930.581	7626.58
930.89	7545.45
931.199	7563.3
931.508	7487.15
931.817	7463.65
932.125	7397.43
932.434	7385.23
932.743	7300.94
933.051	7316.53
933.36	7288.73
933.669	7229.3
933.977	7209.64
934.286	7153.15
934.594	7133.71
934.902	7085.35
935.21	7029.31
935.519	7051.23
935.827	7049.19
936.135	7002.87
936.443	6979.59
936.751	6924
937.059	6877.9
937.367	6815.75
937.674	6887.62
937.982	6833.61
938.29	6760.16
938.597	6750.9
938.905	6725.13
939.213	6647.17
939.52	6627.96
939.827	6640.62
940.135	6540.96
940.442	6531.01
940.749	6549.55
941.056	6491.47
941.363	6489.89
941.67	6447.18
941.977	6371.24
942.284	6418.02
942.591	6364.47
942.898	6312.26
943.205	6328.53
943.511	6311.13
943.818	6263.45
944.125	6224.13
944.431	6164.47
944.738	6186.84
945.044	6148.43
945.35	6146.39
945.657	6064.81
945.963	6078.37
946.269	6039.95
946.575	6025.94
946.881	5972.61
947.187	5948.88
947.493	5917.25
947.799	5873.4
948.105	5880.41
948.41	5817.36
948.716	5868.66
949.022	5780.98
949.327	5776.46
949.633	5721.09
949.938	5762.9
950.244	5672.05
950.549	5635.9
950.854	5610.13
951.16	5574.66
951.465	5612.62
951.77	5551.15
952.075	5505.28
952.38	5537.37
952.685	5522
952.99	5477.94
953.294	5434.77
953.599	5403.59
953.904	5397.03
954.209	5357.71
954.513	5358.62
954.818	5322.46
955.122	5301.89
955.426	5265.51
955.731	5291.05
956.035	5232.97
956.339	5200.88
956.643	5217.38
956.948	5155.91
957.252	5151.16
957.556	5087.66
957.86	5104.16
958.163	5044.5
958.467	5064.84
958.771	5011.05
959.075	5036.82
959.378	4942.81
959.682	4966.31
959.985	4933.09
960.289	4948.46
960.592	4885.18
960.896	4896.71
961.199	4863.71
961.502	4815.58
961.805	4894
962.108	4828.69
962.411	4822.59
962.714	4738.07
963.017	4712.53
963.32	4735.13
963.623	4677.05
963.926	4674.11
964.228	4623.49
964.531	4620.56
964.833	4605.87
965.136	4544.63
965.438	4551.63
965.741	4521.35
966.043	4530.84
966.345	4519.99
966.648	4496.72
966.95	4456.94
967.252	4433.44
967.554	4417.17
967.856	4381.01
968.158	4346.89
968.46	4368.59
968.761	4320.9
969.063	4311.41
969.365	4275.48
969.666	4294.92
969.968	4260.34
970.269	4244.75
970.571	4211.3
970.872	4200.45
971.174	4176.95
971.475	4178.76
971.776	4162.26
972.077	4131.98
972.378	4122.72
972.679	4060.12
972.98	4071.64
973.281	4042.94
973.582	4086.33
973.883	4017.63
974.183	3955.94
974.484	3991.19
974.785	3981.03
975.085	3979.67
975.386	3940.12
975.686	3868.03
975.986	3905.77
976.287	3861.25
976.587	3853.35
976.887	3831.2
977.187	3779.67
977.487	3820.58
977.787	3859.67
978.087	3766.12
978.387	3772.22
978.687	3732.9
978.987	3737.64
979.286	3725.44
979.586	3727.47
979.885	3658.32
980.185	3671.65
980.484	3643.86
980.784	3600.02
981.083	3612.67
981.382	3609.74
981.682	3587.36
981.981	3552.34
982.28	3527.93
982.579	3539.45
982.878	3567.93
983.177	3494.26
983.475	3502.17
983.774	3467.14
984.073	3447.25
984.372	3454.71
984.67	3444.77
984.969	3428.05
985.267	3407.03
985.566	3395.5
985.864	3372.23
986.162	3316.86
986.461	3298.11
986.759	3325.45
987.057	3316.41
987.355	3234.6
987.653	3273.7
987.951	3223.08
988.249	3216.98
988.547	3232.57
988.844	3233.7
989.142	3175.4
989.44	3170.2
989.737	3187.37
990.035	3140.37
990.332	3138.34
990.63	3137.88
990.927	3085.91
991.224	3055.85
991.521	3080.71
991.819	3016.53
992.116	3039.36
992.413	3036.42
992.71	2987.61
993.006	2973.14
993.303	2996.19
993.6	2926.82
993.897	2992.12
994.193	2927.95
994.49	2941.05
994.787	2911.45
995.083	2893.82
995.379	2915.74
995.676	2878
995.972	2830.1
996.268	2837.55
996.565	2800.94
996.861	2762.07
997.157	2782.41
997.453	2742.19
997.749	2783.32
998.044	2756.65
998.34	2717.33
998.636	2734.96
998.932	2700.38
999.227	2661.06
999.523	2678.01
999.818	2674.17
1000.114	2635.07
1000.409	2620.38
1000.704	2614.51
1001	2596.2
1001.295	2605.69
1001.59	2593.94
1001.885	2587.39
1002.18	2560.27
1002.475	2501.97
1002.77	2519.59
1003.065	2506.26
1003.359	2474.17
1003.654	2473.49
1003.949	2455.87
1004.243	2486.6
1004.538	2413.38
1004.832	2460.84
1005.127	2388.07
1005.421	2369.77
1005.715	2352.14
1006.009	2357.79
1006.304	2323.89
1006.598	2325.93
1006.892	2347.62
1007.186	2317.11
1007.48	2266.95
1007.773	2285.25
1008.067	2239.6
1008.361	2268.98
1008.655	2266.72
1008.948	2241.86
1009.242	2228.53
1009.535	2202.09
1009.829	2183.11
1010.122	2146.72
1010.415	2158.25
1010.708	2137.91
1011.001	2152.6
1011.295	2136.78
1011.588	2114.18
1011.881	2085.03
1012.173	2093.62
1012.466	2101.98
1012.759	2071.47
1013.052	2038.7
1013.344	2020.4
1013.637	2033.73
1013.93	2042.09
1014.222	2001.19
1014.514	1987.86
1014.807	1955.77
1015.099	1947.86
1015.391	1936.11
1015.683	1919.61
1015.976	1927.52
1016.268	1931.14
1016.56	1897.69
1016.851	1892.27
1017.143	1886.39
1017.435	1841.19
1017.727	1845.49
1018.018	1831.93
1018.31	1823.34
1018.602	1818.82
1018.893	1835.77
1019.185	1772.95
1019.476	1745.15
1019.767	1776.34
1020.058	1732.04
1020.35	1724.81
1020.641	1726.62
1020.932	1714.87
1021.223	1745.83
1021.514	1697.02
1021.804	1664.7
1022.095	1685.27
1022.386	1705.15
1022.677	1661.76
1022.967	1629
1023.258	1618.38
1023.548	1629.22
1023.839	1609.79
1024.129	1611.37
1024.419	1601.43
1024.709	1608.66
1025	1554.65
1025.29	1559.39
1025.58	1548.55
1025.87	1516.23
1026.16	1526.4
1026.449	1507.87
1026.739	1472.84
1027.029	1506.29
1027.319	1494.99
1027.608	1484.82
1027.898	1463.58
1028.187	1441.21
1028.477	1472.84
1028.766	1402.79
1029.055	1405.27
1029.344	1404.37
1029.634	1411.38
1029.923	1403.24
1030.212	1381.32
1030.501	1362.34
1030.79	1360.98
1031.078	1345.16
1031.367	1369.12
1031.656	1336.35
1031.945	1340.87
1032.233	1330.93
1032.522	1321.43
1032.81	1298.84
1033.099	1292.96
1033.387	1281.89
1033.675	1301.32
1033.963	1263.81
1034.251	1267.42
1034.54	1250.48
1034.828	1222.23
1035.116	1210.93
1035.403	1212.28
1035.691	1215
1035.979	1216.58
1036.267	1215.9
1036.554	1170.93
1036.842	1173.87
1037.129	1167.99
1037.417	1166.41
1037.704	1168.22
1037.992	1149.01
1038.279	1130.03
1038.566	1110.59
1038.853	1110.59
1039.14	1110.59
