Data from White_paper_FLMS001491_021.txt Node
Date: Tue Feb 07 10:34:51 GMT 2017
User: dcchb
Spectrometer: FLMS00149
Trigger mode: 0
Integration Time (sec): 2.000000E-2
Scans to average: 10
Electric dark correction enabled: true
Nonlinearity correction enabled: false
Boxcar width: 0
XAxis mode: Wavelengths
Number of Pixels in Spectrum: 2048
>>>>>Begin Spectral Data<<<<<
341.393	-20.88
341.776	-20.88
342.16	-20.88
342.543	-62.23
342.927	-57.71
343.31	-59.29
343.693	-62.91
344.077	-49.12
344.46	-55.68
344.843	-40.31
345.226	-39.63
345.61	-32.85
345.993	-6.86
346.376	-25.17
346.759	1.72
347.142	21.16
347.525	48.5
347.908	45.34
348.291	66.35
348.674	87.82
349.057	100.93
349.44	130.31
349.823	137.09
350.206	167.82
350.588	223.41
350.971	243.75
351.354	254.37
351.737	248.5
352.119	304.31
352.502	286.91
352.884	301.83
353.267	300.47
353.65	315.84
354.032	316.97
354.414	318.55
354.797	337.08
355.179	326.46
355.562	357.42
355.944	337.08
356.326	367.59
356.709	333.92
357.091	359.23
357.473	384.54
357.855	362.62
358.238	384.54
358.62	349.74
359.002	367.36
359.384	375.95
359.766	394.71
360.148	359
360.53	375.5
360.912	381.37
361.294	387.25
361.676	373.92
362.057	372.33
362.439	380.7
362.821	387.25
363.203	356.97
363.584	357.42
363.966	346.57
364.348	353.35
364.729	365.1
365.111	375.5
365.493	352
365.874	361.26
366.256	355.84
366.637	359.68
367.019	369.17
367.4	349.51
367.781	332.56
368.163	333.24
368.544	336.86
368.925	356.52
369.306	355.39
369.688	362.17
370.069	344.54
370.45	355.61
370.831	358.1
371.212	385.22
371.593	374.14
371.974	356.29
372.355	368.72
372.736	372.33
373.117	366.91
373.498	380.92
373.879	367.36
374.26	373.01
374.641	372.56
375.021	366.91
375.402	382.5
375.783	381.37
376.163	418.44
376.544	389.74
376.925	375.5
377.305	377.31
377.686	378.66
378.066	385.44
378.447	403.75
378.827	399.68
379.208	393.58
379.588	399.9
379.968	423.86
380.349	409.4
380.729	396.06
381.109	404.42
381.489	405.55
381.87	419.79
382.25	422.05
382.63	425.89
383.01	431.77
383.39	431.54
383.77	436.97
384.15	436.29
384.53	427.93
384.91	431.99
385.29	440.13
385.67	465.44
386.049	452.56
386.429	471.32
386.809	465.67
387.189	474.71
387.568	452.33
387.948	461.15
388.328	477.87
388.707	481.71
389.087	469.28
389.466	502.05
389.846	478.32
390.225	499.56
390.605	507.47
390.984	474.03
391.363	510.86
391.743	502.95
392.122	528.94
392.501	519.68
392.881	515.16
393.26	521.94
393.639	571.43
394.018	545.89
394.397	535.27
394.776	547.25
395.155	569.62
395.534	551.31
395.913	558.54
396.292	590.63
396.671	591.99
397.05	585.66
397.429	587.02
397.808	617.53
398.186	607.13
398.565	603.29
398.944	598.77
399.323	604.87
399.701	624.98
400.08	610.07
400.458	623.85
400.837	644.19
401.215	655.72
401.594	680.35
401.972	690.29
402.351	694.13
402.729	683.51
403.107	711.08
403.486	714.7
403.864	711.53
404.242	729.84
404.62	763.51
404.999	765.09
405.377	788.6
405.755	773.23
406.133	794.7
406.511	819.55
406.889	839.67
407.267	837.18
407.645	863.17
408.023	863.17
408.401	890.74
408.779	925.99
409.156	956.95
409.534	974.35
409.912	993.79
410.29	1040.79
410.667	1020.45
411.045	1054.8
411.422	1057.06
411.8	1113.78
412.178	1152.88
412.555	1152.65
412.933	1205.31
413.31	1232.2
413.687	1235.59
414.065	1283.27
414.442	1302.71
414.819	1330.28
415.197	1331.86
415.574	1401.01
415.951	1393.1
416.328	1404.62
416.705	1455.02
417.082	1500.89
417.46	1525.98
417.837	1552.87
418.214	1575.47
418.591	1577.95
418.967	1583.15
419.344	1646.88
419.721	1641.91
420.098	1681.9
420.475	1715.12
420.852	1734.78
421.228	1803.48
421.605	1775.46
421.982	1795.8
422.358	1845.52
422.735	1896.36
423.111	1892.07
423.488	1897.04
423.864	1942.24
424.241	2008
424.617	2000.31
424.994	2015.91
425.37	2033.08
425.746	2057.04
426.123	2086.41
426.499	2122.35
426.875	2142.68
427.251	2226.3
427.627	2257.03
428.003	2255
428.379	2298.39
428.756	2326.18
429.132	2364.37
429.507	2406.18
429.883	2438.04
430.259	2475.33
430.635	2492.96
431.011	2492.28
431.387	2555.78
431.763	2601.43
432.138	2677.13
432.514	2696.57
432.89	2707.87
433.265	2783.12
433.641	2781.54
434.016	2796
434.392	2872.61
434.767	2937.01
435.143	2942.89
435.518	2982.21
435.894	3003.23
436.269	3068.99
436.644	3129.55
437.02	3147.86
437.395	3129.32
437.77	3210
438.145	3231.69
438.52	3271.02
438.895	3356.66
439.271	3307.4
439.646	3405.48
440.021	3440.28
440.395	3454.74
440.77	3412.48
441.145	3454.06
441.52	3545.81
441.895	3508.07
442.27	3564.12
442.645	3552.82
443.019	3614.74
443.394	3640.95
443.769	3679.59
444.143	3694.51
444.518	3729.08
444.892	3733.15
445.267	3734.96
445.641	3839.59
446.016	3802.3
446.39	3816.54
446.764	3873.49
447.139	3858.57
447.513	3902.86
447.887	3909.64
448.262	3922.07
448.636	3969.08
449.01	4027.15
449.384	4054.27
449.758	4080.94
450.132	4103.08
450.506	4135.63
450.88	4188.51
451.254	4144.44
451.628	4205.91
452.002	4214.27
452.376	4306.02
452.75	4319.8
453.123	4367.03
453.497	4444.32
453.871	4464.2
454.244	4590.98
454.618	4535.62
454.992	4622.62
455.365	4666.23
455.739	4784.42
456.112	4826.46
456.486	4847.02
456.859	4880.92
457.232	4987.35
457.606	4988.03
457.979	5081.14
458.352	5153.23
458.725	5290.17
459.099	5280.23
459.472	5353.22
459.845	5378.53
460.218	5456.95
460.591	5537.17
460.964	5502.6
461.337	5644.96
461.71	5747.11
462.083	5843.15
462.456	5829.59
462.829	5826.65
463.201	6024.84
463.574	5996.37
463.947	6085.4
464.32	6198.17
464.692	6263.71
465.065	6308.22
465.438	6451.27
465.81	6569.69
466.183	6566.07
466.555	6720.19
466.928	6727.2
467.3	6754.77
467.672	6912.05
468.045	7049.45
468.417	7048.77
468.789	7084.93
469.161	7205.38
469.534	7350.68
469.906	7480.17
470.278	7549.32
470.65	7657.34
471.022	7761.52
471.394	7960.84
471.766	7958.12
472.138	8080.38
472.51	8311.79
472.882	8426.13
473.253	8438.11
473.625	8611.21
473.997	8783.41
474.369	8833.36
474.74	8904.09
475.112	9058.89
475.484	9309.27
475.855	9394.7
476.227	9468.14
476.598	9722.82
476.97	9804.63
477.341	10046.2
477.713	10158.29
478.084	10200.1
478.455	10500.88
478.827	10568.45
479.198	10952.62
479.569	10950.81
479.94	11173.63
480.311	11289.79
480.682	11649.55
481.053	11836.21
481.424	12004.8
481.795	12149.88
482.166	12256.09
482.537	12455.41
482.908	12790.99
483.279	12899.69
483.65	13041.38
484.021	13272.11
484.391	13528.83
484.762	13533.12
485.133	13780.34
485.503	13820.12
485.874	14246.09
486.244	14204.29
486.615	14597.05
486.985	14707.55
487.356	15028.67
487.726	15145.51
488.097	15425.05
488.467	15441.32
488.837	15797.92
489.207	16098.93
489.578	16034.75
489.948	16380.5
490.318	16559.03
490.688	16601.96
491.058	16866.14
491.428	17046.25
491.798	17192.01
492.168	17582.96
492.538	17739.11
492.908	17832.21
493.278	18127.12
493.648	18053
494.017	18342.71
494.387	18555.81
494.757	18672.87
495.126	18816.6
495.496	18859.08
495.866	19093.88
496.235	19193.31
496.605	19430.82
496.974	19564.37
497.344	19679.85
497.713	19788.77
498.082	19983.12
498.452	20163.9
498.821	20275.54
499.19	20344.92
499.559	20519.15
499.928	20671.69
500.298	20756.43
500.667	21087.27
501.036	20913.94
501.405	21215.18
501.774	21174.73
502.143	21431.89
502.512	21420.14
502.88	21740.59
503.249	21776.29
503.618	21933.8
503.987	22052.89
504.356	22121.59
504.724	22266
505.093	22354.13
505.462	22557.29
505.83	22635.7
506.199	22785.98
506.567	23084.51
506.936	23114.34
507.304	23411.05
507.672	23520.65
508.041	23566.98
508.409	23651.04
508.777	23900.3
509.145	24155.21
509.514	24149.34
509.882	24292.84
510.25	24456.22
510.618	24663
510.986	24792.03
511.354	24914.97
511.722	25143.43
512.09	25278.35
512.458	25366.48
512.826	25647.6
513.193	25719.69
513.561	25779.12
513.929	26044.43
514.297	26268.83
514.664	26499.78
515.032	26523.06
515.4	26748.14
515.767	26767.57
516.135	26977.51
516.502	26865.2
516.869	27333.43
517.237	27410.49
517.604	27384.73
517.972	27729.58
518.339	27812.97
518.706	28053.64
519.073	28058.61
519.44	28237.82
519.808	28529.79
520.175	28608.88
520.542	29071.24
520.909	29200.28
521.276	29141.52
521.643	29520.04
522.009	29662.41
522.376	29931.33
522.743	30132.23
523.11	30508.04
523.477	30620.81
523.843	30822.83
524.21	31119.77
524.577	31345.98
524.943	31482.93
525.31	31520.44
525.676	31814.45
526.043	32064.38
526.409	32186.87
526.776	32539.17
527.142	32620.07
527.508	32817.58
527.874	33128.76
528.241	33290.57
528.607	33202.21
528.973	33584.79
529.339	33645.36
529.705	34028.85
530.071	34244.21
530.437	34363.08
530.803	34589.06
531.169	34911.09
531.535	34802.84
531.901	34954.93
532.267	35081.25
532.632	35395.82
532.998	35421.13
533.364	35822.48
533.73	35803.04
534.095	36070.61
534.461	36182.69
534.826	36348.11
535.192	36456.58
535.557	36749.01
535.923	36762.56
536.288	36838.04
536.653	37166.4
537.019	36920.53
537.384	37268.09
537.749	37469.66
538.114	37390.57
538.479	37645.03
538.845	37809.77
539.21	37764.12
539.575	37873.72
539.94	38171.34
540.305	38396.87
540.67	38252.92
541.034	38519.35
541.399	38782.62
541.764	38863.53
542.129	38974.71
542.494	39066.46
542.858	39215.61
543.223	39162.73
543.587	39578.99
543.952	39516.16
544.316	39676.16
544.681	39683.62
545.045	40003.16
545.41	40117.05
545.774	40130.84
546.138	40143.94
546.503	40415.58
546.867	40542.35
547.231	40841.55
547.595	40901.89
547.959	41114.77
548.324	41098.95
548.688	41123.35
549.052	41368.32
549.416	41394.76
549.779	41551.82
550.143	41677.69
550.507	41925.59
550.871	41992.94
551.235	41904.8
551.599	42392.47
551.962	42456.65
552.326	42490.55
552.689	42829.75
553.053	42564.45
553.417	42893.02
553.78	43326.01
554.143	42963.98
554.507	43338.66
554.87	43373.46
555.234	43865.2
555.597	43672.44
555.96	43759.44
556.323	44053.67
556.686	44011.41
557.05	44385.19
557.413	44517.39
557.776	44499.08
558.139	44795.8
558.502	44804.84
558.865	44990.37
559.228	45340.42
559.59	45446.4
559.953	45506.52
560.316	46069.66
560.679	45814.53
561.041	45980.4
561.404	46048.2
561.767	46428.98
562.129	46280.73
562.492	46808.18
562.854	46720.49
563.217	46822.19
563.579	46981.96
563.941	47204.1
564.304	47337.43
564.666	47664.65
565.028	47667.14
565.39	47833.69
565.753	48016.28
566.115	48118.65
566.477	48364.29
566.839	48355.71
567.201	48639.09
567.563	48675.47
567.925	48899.87
568.287	49018.06
568.648	49049.25
569.01	49291.5
569.372	49549.12
569.734	49558.16
570.095	49809.45
570.457	49923.35
570.819	49969.67
571.18	49950.69
571.542	50230.68
571.903	50220.97
572.265	50441.98
572.626	50446.72
572.987	50580.96
573.349	50715.87
573.71	50833.83
574.071	50934.17
574.432	51048.97
574.794	51313.37
575.155	51275.63
575.516	51232.69
575.877	51335.51
576.238	51500.26
576.599	51554.27
576.96	51616.86
577.32	51610.76
577.681	51849.4
578.042	51906.35
578.403	51932.56
578.763	51931.88
579.124	52086
579.485	52145.44
579.845	52265.21
580.206	52163.52
580.566	52232.21
580.927	52269.5
581.287	52412.55
581.648	52330.52
582.008	52539.78
582.368	52501.59
582.728	52494.35
583.089	52553.34
583.449	52527.12
583.809	52593.33
584.169	52587.91
584.529	52595.82
584.889	52880.56
585.249	52666.78
585.609	52557.18
585.969	52798.3
586.329	52688.7
586.688	52819.09
587.048	52726.89
587.408	52727.12
587.768	52889.6
588.127	52808.7
588.487	52871.75
588.846	53066.32
589.206	52777.28
589.565	52852.08
589.925	53072.87
590.284	52911.07
590.643	52821.35
591.003	53049.82
591.362	53151.74
591.721	52987
592.08	53136.37
592.44	53172.75
592.799	53231.74
593.158	53174.79
593.517	53278.74
593.876	53293.43
594.235	53200.1
594.593	53267.44
594.952	53315.12
595.311	53251.4
595.67	53298.85
596.029	53484.16
596.387	53495.91
596.746	53547.43
597.104	53329.81
597.463	53509.24
597.822	53584.72
598.18	53383.82
598.538	53361.22
598.897	53542.46
599.255	53363.26
599.613	53807.99
599.972	53629.47
600.33	53720.76
600.688	53562.12
601.046	53726.86
601.404	53812.51
601.762	53793.08
602.12	53970.93
602.478	53886.41
602.836	53859.74
603.194	53783.13
603.552	53808.9
603.91	53701.1
604.268	53817.71
604.625	53732.29
604.983	53953.52
605.341	53832.4
605.698	53974.77
606.056	53994.65
606.413	53959.4
606.771	54064.71
607.128	54105.39
607.485	54029.46
607.843	54085.05
608.2	54187.87
608.557	54281.88
608.914	54184.93
609.272	54294.53
609.629	54310.8
609.986	54432.38
610.343	54281.2
610.7	54454.3
611.057	54393.74
611.414	54372.95
611.771	54507.86
612.127	54529.33
612.484	54588.54
612.841	54664.47
613.198	54460.18
613.554	54535.2
613.911	54664.69
614.267	54610.91
614.624	54654.75
614.98	54703.11
615.337	54859.49
615.693	54796.67
616.05	54748.98
616.406	54853.39
616.762	54760.96
617.118	54838.7
617.475	54840.51
617.831	54915.31
618.187	54856.55
618.543	54857.46
618.899	55003.89
619.255	55060.16
619.611	54998.47
619.967	55078.69
620.323	55145.58
620.678	55029.2
621.034	54948.07
621.39	54935.87
621.746	54903.1
622.101	55221.29
622.457	55046.83
622.812	55133.38
623.168	55189.88
623.523	55081.86
623.879	55224.9
624.234	55011.12
624.589	55188.97
624.945	55224
625.3	55181.06
625.655	55172.93
626.01	55148.07
626.365	55097.9
626.72	55114.85
627.075	55154.4
627.43	55128.41
627.785	55049.09
628.14	55165.92
628.495	55205.7
628.85	55119.82
629.205	54982.88
629.559	55225.13
629.914	55094.29
630.269	55101.07
630.623	55026.94
630.978	55098.81
631.332	55179.26
631.687	55158.92
632.041	55059.48
632.396	55120.27
632.75	54955.76
633.104	55067.39
633.459	54854.74
633.813	54932.71
634.167	54952.14
634.521	54895.42
634.875	54944.46
635.229	54880.96
635.583	54827.17
635.937	54738.59
636.291	54790.79
636.645	54858.81
636.999	54746.05
637.352	54873.05
637.706	54671.7
638.06	54816.33
638.413	54718.25
638.767	54633.51
639.121	54734.3
639.474	54659.27
639.828	54589.21
640.181	54691.58
640.534	54680.29
640.888	54599.38
641.241	54494.53
641.594	54619.95
641.947	54646.16
642.301	54521.42
642.654	54539.5
643.007	54554.19
643.36	54574.75
643.713	54371.59
644.066	54538.37
644.419	54381.31
644.771	54119.85
645.124	53904.49
645.477	53889.57
645.83	53704.04
646.182	53636.7
646.535	53558.06
646.888	53662.46
647.24	53473.54
647.593	53661.33
647.945	53594.66
648.298	53455.46
648.65	53418.85
649.002	53320.55
649.355	53492.07
649.707	53399.42
650.059	53512.86
650.411	53850.25
650.763	53855
651.115	54235.78
651.467	54128.44
651.819	54110.58
652.171	54102.9
652.523	54078.95
652.875	54066.97
653.227	53854.32
653.578	54096.57
653.93	54095.89
654.282	53953.07
654.633	53860.65
654.985	54000.76
655.337	53845.96
655.688	53898.16
656.039	53933.86
656.391	53701.33
656.742	53802.57
657.094	53825.39
657.445	53899.97
657.796	53838.73
658.147	53740.2
658.498	53672.63
658.849	53833.3
659.2	53702.68
659.551	53649.8
659.902	53731.84
660.253	53723.02
660.604	53791.72
660.955	53624.27
661.306	53734.1
661.656	53637.83
662.007	53653.87
662.358	53679.41
662.708	53607.32
663.059	53620.2
663.409	53485.97
663.76	53581.33
664.11	53698.39
664.461	53694.55
664.811	53661.78
665.161	53614.55
665.511	53528
665.862	53501.56
666.212	53655
666.562	53680.31
666.912	53565.96
667.262	53498.4
667.612	53527.32
667.962	53541.11
668.312	53493.65
668.662	53685.74
669.011	53482.58
669.361	53357.38
669.711	53351.05
670.06	53401
670.41	53306.31
670.76	53242.58
671.109	53438.96
671.459	53315.8
671.808	53177.73
672.157	53256.59
672.507	53032.19
672.856	53115.13
673.205	53168.91
673.554	53231.74
673.904	53064.06
674.253	53218.4
674.602	53174.34
674.951	52631.98
675.3	52491.87
675.649	52986.54
675.998	52947.9
676.346	52927.11
676.695	52984.06
677.044	52742.26
677.393	52857.06
677.741	52865.19
678.09	52765.99
678.438	52708.13
678.787	52811.18
679.135	52727.57
679.484	52521.7
679.832	52668.13
680.181	52456.16
680.529	52527.12
680.877	52538.65
681.225	52379.78
681.573	52550.85
681.922	52322.83
682.27	52295.94
682.618	52317.18
682.966	52114.48
683.314	52203.06
683.661	52048.72
684.009	51945.22
684.357	51858.21
684.705	51828.16
685.053	51839.91
685.4	51700.25
685.748	51656.18
686.095	51557.66
686.443	51502.52
686.79	51407.83
687.138	51294.61
687.485	51455.06
687.832	51231.79
688.18	51220.26
688.527	51047.84
688.874	50940.95
689.221	51000.38
689.568	50744.57
689.915	50669.09
690.262	50716.77
690.609	50581.64
690.956	50524.91
691.303	50407.18
691.65	50358.14
691.997	50244.02
692.344	50089.9
692.69	50107.98
693.037	50045.38
693.383	49749.79
693.73	49858.72
694.077	49680.64
694.423	49593.41
694.769	49616.24
695.116	49359.52
695.462	49357.49
695.808	49292.86
696.155	49388.45
696.501	48970.61
696.847	49001.34
697.193	48751.63
697.539	48817.84
697.885	48575.14
698.231	48497.85
698.577	48542.82
698.923	48461.47
699.269	48281.81
699.614	48162.49
699.96	48077.75
700.306	48023.74
700.651	47897.19
700.997	47785.55
701.342	47727.25
701.688	47684.99
702.033	47576.07
702.379	47451.55
702.724	47405.45
703.069	47454.94
703.415	46976.08
703.76	47116.87
704.105	47041.84
704.45	46903.09
704.795	46701.51
705.14	46570.44
705.485	46586.26
705.83	46418.36
706.175	46478.92
706.52	46299.94
706.865	46237.8
707.209	46108.31
707.554	45920.52
707.899	46110.34
708.243	45832.38
708.588	45714.65
708.932	45588.32
709.277	45540.19
709.621	45577.25
709.966	45233.53
710.31	45453.86
710.654	45023.36
710.998	45085.28
711.342	45081.89
711.687	44864.27
712.031	44732.07
712.375	44646.42
712.719	44784.27
713.063	44670.38
713.407	44847.32
713.75	44493.43
714.094	44421.57
714.438	44310.84
714.782	44307.45
715.125	44198.75
715.469	44096.38
715.812	44010.74
716.156	43768.93
716.499	43799.44
716.843	43789.72
717.186	43567.58
717.53	43777.75
717.873	43787.24
718.216	43620.69
718.559	43400.36
718.902	43198.33
719.246	43255.73
719.589	43088.73
719.932	43032.68
720.275	42928.05
720.617	42943.64
720.96	42838.79
721.303	42982.06
721.646	42831.56
721.989	42679.47
722.331	42665.69
722.674	42658.68
723.016	42586.59
723.359	42357.45
723.701	42599.02
724.044	42252.82
724.386	42081.97
724.729	42187.51
725.071	42162.42
725.413	42146.38
725.755	41961.07
726.097	41849.21
726.439	41734.86
726.782	41725.6
727.124	41831.36
727.465	41712.04
727.807	41588.43
728.149	41634.53
728.491	41417.13
728.833	41490.12
729.175	41214.2
729.516	41277.25
729.858	41141.43
730.199	41132.62
730.541	41169.23
730.882	41103.92
731.224	41211.49
731.565	40869.58
731.906	40992.51
732.248	40982.11
732.589	40641.11
732.93	40678.85
733.271	40665.96
733.612	40718.84
733.953	40743.48
734.294	40436.82
734.635	40468.23
734.976	40521.56
735.317	40170.84
735.658	40342.13
735.999	40206.99
736.339	40217.39
736.68	40346.43
737.021	40158.63
737.361	39879.32
737.702	40129.26
738.042	39953.67
738.383	39882.71
738.723	40027.56
739.063	39814.01
739.404	39836.38
739.744	39707.57
740.084	39572.89
740.424	39616.05
740.764	39522.72
741.104	39613.34
741.444	39388.71
741.784	39319.11
742.124	39435.04
742.464	39490.85
742.804	39143.07
743.143	39129.28
743.483	39184.42
743.823	39055.16
744.162	39049.51
744.502	39027.14
744.841	38815.17
745.181	39037.76
745.52	38860.59
745.86	38844.77
746.199	38673.7
746.538	38657.43
746.877	38667.15
747.216	38689.97
747.556	38523.87
747.895	38577.21
748.234	38459.92
748.573	38304.22
748.911	38274.16
749.25	38226.03
749.589	38209.76
749.928	38186.03
750.267	38127.5
750.605	37950.33
750.944	37900.84
751.283	37857.22
751.621	37920.95
751.96	37571.81
752.298	37763.89
752.636	37739.04
752.975	37393.51
753.313	37388.99
753.651	37573.84
753.989	37183.8
754.327	37208.43
754.666	37030.81
755.004	37054.08
755.342	36979.28
755.679	37009.56
756.017	36668.78
756.355	36823.58
756.693	36624.71
757.031	36801.66
757.368	36497.49
757.706	36421.1
758.044	36379.07
758.381	36289.13
758.719	36262.01
759.056	36213.2
759.394	36123.26
759.731	35868.12
760.068	35804.85
760.405	35631.29
760.743	35518.76
761.08	35655.7
761.417	35396.95
761.754	35390.85
762.091	35357.86
762.428	35331.87
762.765	34967.13
763.102	35128.48
763.438	34935.72
763.775	34761.71
764.112	34767.14
764.449	34825.21
764.785	34524.88
765.122	34315.62
765.458	34101.17
765.795	34220.48
766.131	34126.48
766.467	34009.87
766.804	33911.79
767.14	33678.8
767.476	33663.89
767.812	33610.1
768.148	33523.1
768.485	33318.81
768.821	33189.78
769.157	33078.82
769.492	33101.87
769.828	33020.06
770.164	32665.05
770.5	32578.27
770.836	32566.06
771.171	32319.74
771.507	32360.87
771.842	32197.71
772.178	32115.68
772.513	32110.26
772.849	32060.99
773.184	31797.27
773.519	31849.7
773.855	31711.62
774.19	31548.92
774.525	31485.42
774.86	31331.29
775.195	31322.26
775.53	31183.5
775.865	30947.58
776.2	30791.87
776.535	30636.4
776.87	30684.31
777.205	30466.68
777.539	30367.7
777.874	30488.38
778.209	30047.26
778.543	30079.58
778.878	29904.21
779.212	29845.01
779.547	29736.76
779.881	29849.75
780.215	29602.98
780.55	29733.14
780.884	29388.3
781.218	29355.53
781.552	29414.06
781.886	29241.18
782.22	29041.19
782.554	28930.45
782.888	28685.71
783.222	28574.08
783.556	28515.1
783.889	28465.38
784.223	28331.6
784.557	28180.64
784.89	28248.44
785.224	28148.1
785.557	27853.19
785.891	27862.01
786.224	27735.46
786.558	27780.2
786.891	27481.9
787.224	27397.39
787.557	27350.38
787.891	27301.8
788.224	27251.18
788.557	27200.33
788.89	27036.04
789.223	27108.13
789.556	26793.11
789.888	26698.42
790.221	26658.65
790.554	26451.88
790.887	26508.14
791.219	26337.53
791.552	26276.96
791.884	26152
792.217	26034.48
792.549	26007.82
792.882	25759.92
793.214	25687.38
793.546	25779.12
793.879	25674.49
794.211	25452.81
794.543	25562.63
794.875	25486.25
795.207	25488.28
795.539	25293.94
795.871	25372.36
796.203	25096.66
796.535	24976.66
796.867	24955.19
797.198	24794.29
797.53	24761.98
797.862	24667.29
798.193	24636.56
798.525	24483.11
798.856	24584.13
799.188	24314.76
799.519	24222.78
799.85	24045.61
800.182	24055.55
800.513	24038.61
800.844	23848.33
801.175	24029.11
801.506	23857.82
801.837	23818.95
802.168	23679.07
802.499	23741.44
802.83	23529.92
803.161	23527.43
803.491	23428.68
803.822	23449.24
804.153	23266.65
804.483	23227.78
804.814	23037.5
805.145	23031.63
805.475	23056.94
805.805	22929.93
806.136	22958.41
806.466	22850.39
806.796	22821.01
807.126	22564.97
807.457	22508.02
807.787	22627.34
808.117	22508.48
808.447	22414.02
808.777	22489.27
809.107	22304.87
809.436	22174.93
809.766	22224.64
810.096	22086.34
810.426	22052.89
810.755	21929.73
811.085	21993.24
811.414	21906.23
811.744	21741.04
812.073	21785.11
812.403	21717.76
812.732	21682.06
813.061	21593.92
813.39	21420.82
813.719	21555.05
814.049	21547.82
814.378	21413.82
814.707	21313.93
815.036	21248.85
815.365	21184.44
815.693	20986.03
816.022	21034.62
816.351	20992.13
816.68	20886.15
817.008	20948.74
817.337	20683.89
817.665	20715.75
817.994	20731.8
818.322	20730.67
818.651	20623.78
818.979	20597.11
819.307	20630.11
819.636	20479.38
819.964	20432.15
820.292	20429.66
820.62	20393.96
820.948	20356.89
821.276	20451.35
821.604	20495.87
821.932	20440.73
822.259	20391.02
822.587	20387.4
822.915	20282.09
823.243	20333.39
823.57	20317.35
823.898	20302.66
824.225	20247.97
824.553	20339.72
824.88	20228.54
825.207	20322.54
825.535	20299.72
825.862	20291.13
826.189	20258.37
826.516	20248.65
826.843	20295.2
827.17	20252.49
827.497	20301.98
827.824	20282.32
828.151	20355.31
828.478	20248.42
828.805	20321.41
829.131	20146.5
829.458	20154.19
829.785	20092.95
830.111	20112.38
830.438	20234.19
830.764	20278.25
831.09	20210.23
831.417	20126.39
831.743	20163.68
832.069	20170.23
832.395	20057.24
832.722	20164.13
833.048	19963.01
833.374	20033.29
833.7	20032.83
834.026	19908.54
834.351	20032.83
834.677	19984.93
835.003	20059.73
835.329	19902.89
835.654	19909.67
835.98	19794.87
836.306	19818.15
836.631	19730.24
836.956	19866.74
837.282	19779.06
837.607	19644.14
837.932	19631.04
838.258	19735.22
838.583	19642.56
838.908	19579.29
839.233	19597.37
839.558	19573.64
839.883	19418.61
840.208	19397.15
840.533	19407.77
840.858	19432.85
841.182	19409.8
841.507	19267.66
841.832	19136.59
842.156	19169.81
842.481	19146.3
842.805	19204.16
843.13	19097.72
843.454	19029.25
843.778	18945.41
844.103	18931.39
844.427	18893.66
844.751	18897.72
845.075	18821.79
845.399	18681.91
845.723	18674.45
846.047	18674
846.371	18630.84
846.695	18522.14
847.019	18497.28
847.343	18344.29
847.666	18201.92
847.99	18149.72
848.313	18081.25
848.637	18018.88
848.96	17916.96
849.284	17881.48
849.607	17788.6
849.931	17818.88
850.254	17577.98
850.577	17565.56
850.9	17431.1
851.223	17452.11
851.546	17374.37
851.869	17184.77
852.192	17333.02
852.515	17167.15
852.838	17123.98
853.161	17076.08
853.483	16978
853.806	16891.67
854.129	16856.42
854.451	16829.76
854.774	16737.33
855.096	16775.97
855.419	16620.95
855.741	16690.1
856.063	16448.3
856.385	16436.09
856.708	16410.11
857.03	16384.12
857.352	16364.91
857.674	16252.37
857.996	16187.51
858.318	16098.25
858.64	16271.13
858.961	16189.32
859.283	16033.17
859.605	15950
859.926	15995.2
860.248	16000.17
860.57	15809.9
860.891	15850.35
861.212	15809.67
861.534	15681.76
861.855	15737.58
862.176	15772.61
862.498	15719.28
862.819	15782.78
863.14	15594.99
863.461	15585.04
863.782	15590.69
864.103	15546.63
864.424	15449.23
864.745	15554.31
865.065	15404.71
865.386	15377.59
865.707	15329.46
866.027	15318.83
866.348	15322.45
866.668	15267.08
866.989	15314.99
867.309	15083.36
867.63	15196.8
867.95	15161.32
868.27	15075.45
868.59	15046.07
868.91	15052.85
869.23	15028.67
869.55	14983.48
869.87	15107.77
870.19	14997.49
870.51	14988
870.83	14889.92
871.15	14790.03
871.469	14860.32
871.789	14907.77
872.109	14809.92
872.428	14715.69
872.748	14830.03
873.067	14802.24
873.386	14750.26
873.706	14804.95
874.025	14681.34
874.344	14631.39
874.663	14676.37
874.982	14623.26
875.301	14574.22
875.62	14582.81
875.939	14498.07
876.258	14566.99
876.577	14372.64
876.896	14425.98
877.214	14355.7
877.533	14351.63
877.852	14341.69
878.17	14323.15
878.489	14382.59
878.807	14320.22
879.125	14207
879.444	14305.98
879.762	14160.45
880.08	14199.32
880.398	14081.13
880.716	14164.74
881.034	14083.84
881.352	14057.85
881.67	14073.9
881.988	14045.42
882.306	14034.57
882.624	13965.2
882.941	13924.97
883.259	13820.57
883.577	13868.03
883.894	13800.91
884.212	13806.78
884.529	13796.39
884.846	13726.33
885.164	13661.48
885.481	13656.73
885.798	13663.96
886.115	13569.73
886.432	13642.72
886.75	13516.17
887.067	13500.13
887.383	13433.01
887.7	13485.89
888.017	13434.82
888.334	13375.16
888.651	13340.13
888.967	13301.71
889.284	13215.16
889.6	13179
889.917	13180.36
890.233	13226.46
890.55	13080.25
890.866	13061.49
891.182	13082.74
891.498	12967.94
891.815	12849.75
892.131	12893.81
892.447	12865.11
892.763	12854.27
893.079	12735.85
893.395	12746.7
893.71	12701.95
894.026	12725.46
894.342	12671.22
894.657	12533.37
894.973	12586.02
895.289	12589.87
895.604	12480.72
895.92	12405.24
896.235	12370.66
896.55	12310.78
896.865	12377.22
897.181	12259.03
897.496	12258.35
897.811	12115.75
898.126	12043.89
898.441	12191.46
898.756	12074.85
899.071	12012.71
899.386	11957.34
899.7	11929.09
900.015	11856.1
900.33	11815.2
900.644	11847.29
900.959	11770.45
901.273	11663.34
901.588	11748.31
901.902	11547.86
902.216	11554.87
902.531	11601.19
902.845	11487.07
903.159	11415.66
903.473	11317.13
903.787	11334.31
904.101	11338.83
904.415	11251.6
904.729	11230.58
905.042	11134.99
905.356	11165.27
905.67	11070.13
905.984	11080.75
906.297	11059.51
906.611	10964.82
906.924	10935.45
907.237	10911.94
907.551	10839.86
907.864	10853.19
908.177	10810.93
908.491	10789.24
908.804	10679.63
909.117	10658.17
909.43	10501.56
909.743	10530.03
910.056	10516.7
910.368	10441.9
910.681	10429.02
910.994	10349.02
911.307	10295.69
911.619	10268.8
911.932	10266.31
912.244	10195.81
912.557	10180.89
912.869	10114
913.181	10099.99
913.494	10072.42
913.806	9980.9
914.118	9927.11
914.43	9866.1
914.742	9853.22
915.054	9765.31
915.366	9794.46
915.678	9709.94
915.99	9737.51
916.302	9710.17
916.613	9589.72
916.925	9580.68
917.236	9557.63
917.548	9483.73
917.859	9512.43
918.171	9407.35
918.482	9388.82
918.794	9282.38
919.105	9328.03
919.416	9266.34
919.727	9220.46
920.038	9206
920.349	9149.51
920.66	9100.92
920.971	9069.28
921.282	9034.48
921.593	8925.1
921.903	8920.36
922.214	8903.86
922.525	8867.48
922.835	8874.48
923.146	8721.27
923.456	8759.91
923.767	8752.23
924.077	8754.26
924.387	8662.51
924.697	8583.19
925.008	8625
925.318	8492.8
925.628	8481.95
925.938	8478.56
926.248	8364.44
926.558	8409.64
926.867	8312.47
927.177	8235.4
927.487	8263.88
927.796	8140.49
928.106	8127.39
928.416	8122.19
928.725	8094.84
929.034	8132.58
929.344	8102.53
929.653	8026.6
929.962	7959.03
930.271	7884
930.581	7943.44
930.89	7851.46
931.199	7853.04
931.508	7826.6
931.817	7777.34
932.125	7776.21
932.434	7728.53
932.743	7635.42
933.051	7617.34
933.36	7544.58
933.669	7545.71
933.977	7548.42
934.286	7492.83
934.594	7453.5
934.902	7373.28
935.21	7373.05
935.519	7344.35
935.827	7359.95
936.135	7288.99
936.443	7230.01
936.751	7203.34
937.059	7227.07
937.367	7139.16
937.674	7133.29
937.982	7083.34
938.29	7082.44
938.597	7079.05
938.905	6986.4
939.213	6977.81
939.52	6905.04
939.827	6992.05
940.135	6865.27
940.442	6820.3
940.749	6809.91
941.056	6825.27
941.363	6707.08
941.67	6700.08
941.977	6702.56
942.284	6666.63
942.591	6688.78
942.898	6586.86
943.205	6551.16
943.511	6512.51
943.818	6526.3
944.125	6462.12
944.431	6455.34
944.738	6415.11
945.044	6391.39
945.35	6387.09
945.657	6298.28
945.963	6292.41
946.269	6254.21
946.575	6263.48
946.881	6222.58
947.187	6193.88
947.493	6151.17
947.799	6150.49
948.105	6088.57
948.41	6055.35
948.716	6047.89
949.022	5974.22
949.327	6050.83
949.633	5954.11
949.938	5948.46
950.244	5953.21
950.549	5851.51
950.854	5860.1
951.16	5830.04
951.465	5777.84
951.77	5800.67
952.075	5739.43
952.38	5728.35
952.685	5741.69
952.99	5670.73
953.294	5687.45
953.599	5617.17
953.904	5605.87
954.209	5548.92
954.513	5547.11
954.818	5509.83
955.122	5522.03
955.426	5522.48
955.731	5451.52
956.035	5420.79
956.339	5413.78
956.643	5385.08
956.948	5341.7
957.252	5382.37
957.556	5285.43
957.86	5265.99
958.163	5272.09
958.467	5247.01
958.771	5248.36
959.075	5175.6
959.378	5163.4
959.682	5216.05
959.985	5140.8
960.289	5121.36
960.592	5100.12
960.896	5056.28
961.199	5030.29
961.502	5024.64
961.805	4980.8
962.108	4924.76
962.411	4940.8
962.714	4900.58
963.017	4881.37
963.32	4882.05
963.623	4845.44
963.926	4863.29
964.228	4813.12
964.531	4794.59
964.833	4811.99
965.136	4761.37
965.438	4719.34
965.741	4687.02
966.043	4649.74
966.345	4649.06
966.648	4678.21
966.95	4642.51
967.252	4597.99
967.554	4590.53
967.856	4580.36
968.158	4575.16
968.46	4548.5
968.761	4481.83
969.063	4433.02
969.365	4441.15
969.666	4417.43
969.968	4440.48
970.269	4420.59
970.571	4318.9
970.872	4386.47
971.174	4323.64
971.475	4347.6
971.776	4295.62
972.077	4267.15
972.378	4262.63
972.679	4238.9
972.98	4245.91
973.281	4177.66
973.582	4230.76
973.883	4130.88
974.183	4147.6
974.484	4154.16
974.785	4042.52
975.085	4084.33
975.386	4087.94
975.686	4061.5
975.986	4000.04
976.287	3975.63
976.587	3989.64
976.887	4029.41
977.187	3925.24
977.487	3898.34
977.787	3925.01
978.087	3913.71
978.387	3924.33
978.687	3852.47
978.987	3836.2
979.286	3791.23
979.586	3799.59
979.885	3744.45
980.185	3802.75
980.484	3765.47
980.784	3746.48
981.083	3713.49
981.382	3711.68
981.682	3700.61
981.981	3692.7
982.28	3628.29
982.579	3585.58
982.878	3600.05
983.177	3561.86
983.475	3622.87
983.774	3555.3
984.073	3541.97
984.372	3555.08
984.67	3524.57
984.969	3518.69
985.267	3482.99
985.566	3497.9
985.864	3452.71
986.162	3447.96
986.461	3446.6
986.759	3398.92
987.057	3383.1
987.355	3376.32
987.653	3387.17
987.951	3353.95
988.249	3304.91
988.547	3337.23
988.844	3279.15
989.142	3322.54
989.44	3268.98
989.737	3227.85
990.035	3225.37
990.332	3225.14
990.63	3175.42
990.927	3178.14
991.224	3212.49
991.521	3179.27
991.819	3144.47
992.116	3142.43
992.413	3104.47
992.71	3098.36
993.006	3089.78
993.303	3070.12
993.6	3025.15
993.897	3053.17
994.193	3039.38
994.49	3058.14
994.787	2995.09
995.083	2984.92
995.379	2952.83
995.676	2971.14
995.972	2933.62
996.268	2918.93
996.565	2902.44
996.861	2859.5
997.157	2870.35
997.453	2838.03
997.749	2845.49
998.044	2814.53
998.34	2823.57
998.636	2749.67
998.932	2797.81
999.227	2723.46
999.523	2772.05
999.818	2723.46
1000.114	2677.36
1000.409	2685.49
1000.704	2671.48
1001	2699.05
1001.295	2658.15
1001.59	2628.77
1001.885	2622.67
1002.18	2633.97
1002.475	2589.9
1002.77	2598.27
1003.065	2560.75
1003.359	2544.48
1003.654	2544.26
1003.949	2514.88
1004.243	2516.91
1004.538	2509.91
1004.832	2497.93
1005.127	2454.09
1005.421	2472.62
1005.715	2442.11
1006.009	2399.17
1006.304	2413.64
1006.598	2404.82
1006.892	2390.59
1007.186	2340.19
1007.48	2359.63
1007.773	2358.5
1008.067	2320.08
1008.361	2315.33
1008.655	2291.15
1008.948	2278.73
1009.242	2255.22
1009.535	2249.8
1009.829	2277.6
1010.122	2221.1
1010.415	2169.12
1010.708	2204.15
1011.001	2191.04
1011.295	2155.11
1011.588	2150.37
1011.881	2157.37
1012.173	2131.61
1012.466	2146.98
1012.759	2130.71
1013.052	2072.4
1013.344	2088
1013.637	2033.08
1013.93	2054.55
1014.222	2049.13
1014.514	2044.38
1014.807	2036.47
1015.099	1981.78
1015.391	2018.17
1015.683	1998.96
1015.976	1957.15
1016.268	1956.7
1016.56	1943.59
1016.851	1923.71
1017.143	1925.51
1017.435	1887.1
1017.727	1894.1
1018.018	1871.5
1018.31	1893.42
1018.602	1873.31
1018.893	1840.09
1019.185	1849.81
1019.476	1812.3
1019.767	1831.96
1020.058	1808.23
1020.35	1770.49
1020.641	1803.26
1020.932	1766.2
1021.223	1753.99
1021.514	1730.49
1021.804	1708.8
1022.095	1697.95
1022.386	1705.86
1022.677	1678.06
1022.967	1667.89
1023.258	1658.63
1023.548	1670.83
1023.839	1670.38
1024.129	1646.2
1024.419	1628.12
1024.709	1601.68
1025	1609.82
1025.29	1596.03
1025.58	1578.4
1025.87	1551.96
1026.16	1527.56
1026.449	1513.1
1026.739	1549.48
1027.029	1522.36
1027.319	1503.6
1027.608	1504.73
1027.898	1477.39
1028.187	1491.85
1028.477	1475.58
1028.766	1466.77
1029.055	1458.86
1029.344	1458.18
1029.634	1439.2
1029.923	1398.75
1030.212	1432.42
1030.501	1403.95
1030.79	1391.29
1031.078	1365.76
1031.367	1365.98
1031.656	1345.42
1031.945	1378.18
1032.233	1330.5
1032.522	1300.45
1032.81	1313.1
1033.099	1308.13
1033.387	1284.63
1033.675	1288.47
1033.963	1285.31
1034.251	1285.98
1034.54	1253.67
1034.828	1293.67
1035.116	1275.14
1035.403	1240.56
1035.691	1216.83
1035.979	1226.55
1036.267	1175.48
1036.554	1191.75
1036.842	1175.03
1037.129	1179.32
1037.417	1175.7
1037.704	1194.46
1037.992	1201.92
1038.279	1182.03
1038.566	1165.31
1038.853	1165.31
1039.14	1165.31
