Data from white_steel_sheet_FLMS001491_009.txt Node
Date: Tue Feb 07 10:57:19 GMT 2017
User: dcchb
Spectrometer: FLMS00149
Trigger mode: 0
Integration Time (sec): 2.000000E-2
Scans to average: 10
Electric dark correction enabled: true
Nonlinearity correction enabled: false
Boxcar width: 0
XAxis mode: Wavelengths
Number of Pixels in Spectrum: 2048
>>>>>Begin Spectral Data<<<<<
341.393	-3.76
341.776	-3.76
342.16	-3.76
342.543	-60.25
342.927	-48.95
343.31	-74.49
343.693	-62.29
344.077	-54.38
344.46	-56.18
344.843	-49.41
345.226	-45.11
345.61	-51.89
345.993	-27.49
346.376	-0.82
346.759	11.84
347.142	45.51
347.525	45.06
347.908	45.96
348.291	64.26
348.674	109.69
349.057	99.74
349.44	142.68
349.823	145.84
350.206	162.11
350.588	199.63
350.971	237.59
351.354	233.52
351.737	240.98
352.119	258.16
352.502	269.23
352.884	296.12
353.267	314.2
353.65	311.04
354.032	309.23
354.414	309.23
354.797	323.01
355.179	337.93
355.562	324.6
355.944	316.91
356.326	340.87
356.709	318.72
357.091	347.87
357.473	353.3
357.855	335.44
358.238	339.74
358.62	351.94
359.002	352.39
359.384	343.8
359.766	364.14
360.148	365.72
360.53	353.97
360.912	360.53
361.294	360.08
361.676	329.79
362.057	340.87
362.439	338.83
362.821	349.23
363.203	320.98
363.584	335.9
363.966	337.03
364.348	333.18
364.729	349.45
365.111	343.8
365.493	319.17
365.874	333.18
366.256	302.68
366.637	333.41
367.019	331.15
367.4	332.28
367.781	338.83
368.163	343.35
368.544	319.17
368.925	295.22
369.306	315.33
369.688	321.43
370.069	321.43
370.45	330.02
370.831	314.88
371.212	335.67
371.593	339.28
371.974	334.09
372.355	327.08
372.736	327.08
373.117	324.82
373.498	324.37
373.879	356.01
374.26	328.44
374.641	333.86
375.021	332.73
375.402	344.03
375.783	338.61
376.163	321.66
376.544	343.8
376.925	349.23
377.305	363.92
377.686	324.37
378.066	337.93
378.447	351.04
378.827	358.04
379.208	370.24
379.588	345.39
379.968	353.52
380.349	336.8
380.729	360.53
381.109	361.43
381.489	361.21
381.87	367.76
382.25	377.25
382.63	381.77
383.01	371.83
383.39	356.23
383.77	381.54
384.15	377.93
384.53	387.87
384.91	361.66
385.29	374.31
385.67	396.01
386.049	383.13
386.429	374.54
386.809	393.29
387.189	386.06
387.568	393.29
387.948	404.14
388.328	422.9
388.707	412.05
389.087	397.36
389.466	437.14
389.846	413.86
390.225	405.72
390.605	419.73
390.984	396.01
391.363	421.09
391.743	441.2
392.122	435.33
392.501	452.05
392.881	460.41
393.26	433.75
393.639	456.8
394.018	462.22
394.397	468.77
394.776	473.29
395.155	487.53
395.534	485.04
395.913	499.96
396.292	470.81
396.671	491.37
397.05	525.72
397.429	503.8
397.808	515.33
398.186	513.29
398.565	546.06
398.944	513.52
399.323	543.35
399.701	538.15
400.08	533.4
400.458	562.56
400.837	562.78
401.215	584.48
401.594	574.08
401.972	597.13
402.351	576.11
402.729	616.11
403.107	605.27
403.486	633.97
403.864	614.98
404.242	623.12
404.62	631.71
404.999	643.01
405.377	653.85
405.755	672.38
406.133	677.81
406.511	728.2
406.889	710.57
407.267	699.95
407.645	704.25
408.023	734.53
408.401	748.31
408.779	767.07
409.156	782.44
409.534	784.47
409.912	781.08
410.29	802.1
410.667	804.58
411.045	845.49
411.422	850.91
411.8	836.9
412.178	829.89
412.555	897.24
412.933	864.02
413.31	891.59
413.687	908.76
414.065	916.9
414.442	940.4
414.819	939.72
415.197	955.54
415.574	970.23
415.951	960.74
416.328	998.25
416.705	979.27
417.082	1015.43
417.46	1013.17
417.837	1036.22
418.214	1043.9
418.591	1045.03
418.967	1059.04
419.344	1087.51
419.721	1082.32
420.098	1097.46
420.475	1124.57
420.852	1103.78
421.228	1113.05
421.605	1131.81
421.982	1117.8
422.358	1147.85
422.735	1165.48
423.111	1170.22
423.488	1201.41
423.864	1198.47
424.241	1224.01
424.617	1228.53
424.994	1241.41
425.37	1257.68
425.746	1257.68
426.123	1287.06
426.499	1305.14
426.875	1310.33
427.251	1363.66
427.627	1344.23
428.003	1379.48
428.379	1393.72
428.756	1399.14
429.132	1417
429.507	1460.39
429.883	1463.78
430.259	1474.17
430.635	1506.71
431.011	1518.69
431.387	1557.33
431.763	1563.43
432.138	1574.05
432.514	1623.32
432.89	1602.98
433.265	1651.79
433.641	1666.48
434.016	1694.96
434.392	1696.09
434.767	1743.99
435.143	1747.84
435.518	1776.31
435.894	1775.41
436.269	1812.24
436.644	1818.79
437.02	1842.75
437.395	1860.15
437.77	1883.88
438.145	1855.63
438.52	1946.25
438.895	1955.74
439.271	1966.13
439.646	1995.74
440.021	1997.77
440.395	1992.35
440.77	2012.01
441.145	2038.9
441.52	2060.37
441.895	2042.06
442.27	2103.08
442.645	2121.84
443.019	2160.93
443.394	2140.82
443.769	2150.54
444.143	2157.32
444.518	2187.15
444.892	2168.39
445.267	2241.61
445.641	2217.2
446.016	2218.56
446.39	2254.49
446.764	2287.48
447.139	2287.26
447.513	2329.97
447.887	2345.33
448.262	2308.05
448.636	2395.73
449.01	2424.2
449.384	2416.52
449.758	2435.27
450.132	2487.7
450.506	2474.82
450.88	2479.79
451.254	2502.39
451.628	2556.4
452.002	2557.76
452.376	2615.38
452.75	2569.06
453.123	2642.73
453.497	2692.9
453.871	2672.56
454.244	2782.61
454.618	2759.79
454.992	2807.69
455.365	2827.36
455.739	2928.6
456.112	2911.87
456.486	2925.43
456.859	2970.4
457.232	3015.15
457.606	3011.31
457.979	3063.96
458.352	3106.44
458.725	3148.7
459.099	3138.53
459.472	3259.21
459.845	3325.2
460.218	3294.91
460.591	3282.94
460.964	3314.12
461.337	3402.26
461.71	3450.39
462.083	3487.68
462.456	3510.95
462.829	3544.62
463.201	3619.65
463.574	3600.22
463.947	3651.06
464.32	3772.19
464.692	3741.68
465.065	3799.76
465.438	3834.56
465.81	3891.73
466.183	3919.76
466.555	4018.28
466.928	4043.14
467.3	4061.22
467.672	4118.17
468.045	4216.92
468.417	4251.05
468.789	4302.34
469.161	4303.7
469.534	4398.61
469.906	4470.02
470.278	4557.48
470.65	4559.96
471.022	4667.98
471.394	4767.19
471.766	4813.07
472.138	4850.58
472.51	4951.82
472.882	5034.3
473.253	5090.8
473.625	5141.42
473.997	5248.99
474.369	5277.69
474.74	5356.33
475.112	5454.63
475.484	5522.43
475.855	5667.51
476.227	5683.1
476.598	5857.33
476.97	5853.49
477.341	6088.29
477.713	6065.01
478.084	6099.59
478.455	6340.26
478.827	6369.41
479.198	6539.8
479.569	6506.35
479.94	6739.12
480.311	6783.86
480.682	6913.8
481.053	7052.55
481.424	7179.11
481.795	7226.56
482.166	7360.12
482.537	7469.72
482.908	7635.59
483.279	7648.92
483.65	7852.99
484.021	8102.02
484.391	8158.06
484.762	8142.92
485.133	8230.38
485.503	8377.72
485.874	8613.64
486.244	8634.43
486.615	8849.57
486.985	8869.46
487.356	9112.84
487.726	9214.31
488.097	9322.55
488.467	9341.99
488.837	9555.09
489.207	9627.4
489.578	9829.88
489.948	9941.29
490.318	10041.4
490.688	10135.19
491.058	10195.75
491.428	10487.72
491.798	10575.4
492.168	10759.8
492.538	10822.85
492.908	10909.63
493.278	11053.58
493.648	11043.64
494.017	11268.94
494.387	11361.37
494.757	11405.66
495.126	11510.97
495.496	11570.85
495.866	11654.69
496.235	11842.03
496.605	11990.96
496.974	12061.46
497.344	12158.41
497.713	12206.77
498.082	12285.86
498.452	12496.25
498.821	12490.6
499.19	12566.76
499.559	12691.28
499.928	12798.62
500.298	12886.75
500.667	13037.48
501.036	12989.12
501.405	13180.53
501.774	13181.21
502.143	13227.08
502.512	13347.3
502.88	13562.89
503.249	13620.52
503.618	13653.96
503.987	13703
504.356	13944.58
504.724	13943.22
505.093	14090.34
505.462	14068.64
505.83	14181.86
506.199	14318.8
506.567	14537.1
506.936	14561.74
507.304	14761.73
507.672	14727.38
508.041	14824.1
508.409	14975.28
508.777	15071.1
509.145	15289.17
509.514	15236.07
509.882	15402.84
510.25	15435.16
510.618	15643.74
510.986	15737.07
511.354	15807.13
511.722	15962.6
512.09	16159.43
512.458	16160.79
512.826	16309.03
513.193	16451.4
513.561	16519.42
513.929	16614.11
514.297	16805.97
514.664	16870.6
515.032	17059.52
515.4	17180.42
515.767	17198.05
516.135	17367.31
516.502	17360.08
516.869	17634.88
517.237	17702.44
517.604	17766.62
517.972	17912.61
518.339	17965.49
518.706	18127.29
519.073	18269.43
519.44	18401.63
519.808	18548.3
520.175	18530.22
520.542	18923.88
520.909	18958.23
521.276	19110.77
521.643	19195.06
522.009	19353.93
522.376	19540.81
522.743	19726.8
523.11	19876.62
523.477	20112.55
523.843	20161.36
524.21	20422.82
524.577	20495.37
524.943	20621.01
525.31	20692.87
525.676	20947.78
526.043	21151.17
526.409	21233.2
526.776	21464.61
527.142	21378.96
527.508	21696.01
527.874	21881.54
528.241	21956.34
528.607	22068.21
528.973	22237.92
529.339	22288.31
529.705	22562.88
530.071	22711.35
530.437	22858.24
530.803	22971.23
531.169	23115.86
531.535	23142.3
531.901	23213.03
532.267	23406.47
532.632	23679.69
532.998	23553.14
533.364	23760.82
533.73	23903.86
534.095	24115.83
534.461	24250.29
534.826	24274.7
535.192	24397.86
535.557	24622.49
535.923	24531.42
536.288	24695.93
536.653	24810.73
537.019	24766.44
537.384	24831.52
537.749	25077.39
538.114	25173.66
538.479	25099.31
538.845	25277.61
539.21	25340.66
539.575	25532.52
539.94	25572.97
540.305	25774.55
540.67	25756.92
541.034	25858.84
541.399	25916.01
541.764	26020.87
542.129	26110.81
542.494	26202.11
542.858	26166.63
543.223	26280.75
543.587	26470.8
543.952	26602.55
544.316	26574.3
544.681	26644.36
545.045	26838.93
545.41	26928.42
545.774	26964.12
546.138	26968.64
546.503	27113.04
546.867	27211.8
547.231	27348.52
547.595	27394.62
547.959	27681.62
548.324	27638.91
548.688	27765.23
549.052	27838.45
549.416	27902.4
549.779	27987.37
550.143	28097.43
550.507	28185.78
550.871	28334.71
551.235	28314.14
551.599	28636.62
551.962	28563.85
552.326	28640.69
552.689	28790.06
553.053	28774.24
553.417	28710.29
553.78	29179.88
554.143	29011.98
554.507	29315.47
554.87	29467.11
555.234	29653.09
555.597	29522.25
555.96	29769.7
556.323	29853.31
556.686	29896.47
557.05	30024.83
557.413	30272.51
557.776	30147.09
558.139	30492.62
558.502	30489.45
558.865	30698.03
559.228	30773.96
559.59	30867.97
559.953	31007.86
560.316	31220.51
560.679	31317.68
561.041	31452.82
561.404	31653.72
561.767	31858.23
562.129	31612.59
562.492	32120.6
562.854	32124.44
563.217	32156.53
563.579	32338.22
563.941	32580.47
564.304	32594.26
564.666	32799
565.028	32698.43
565.39	32973.23
565.753	33102.94
566.115	33330.96
566.477	33429.94
566.839	33506.32
567.201	33648.92
567.563	33822.47
567.925	33836.94
568.287	33860.21
568.648	34048.68
569.01	34235.57
569.372	34454.77
569.734	34269.24
570.095	34633.3
570.457	34697.25
570.819	34726.18
571.18	34822.22
571.542	35013.4
571.903	34963.46
572.265	35139.05
572.626	35277.8
572.987	35270.8
573.349	35506.5
573.71	35534.52
574.071	35667.4
574.432	35739.71
574.794	35995.07
575.155	35954.85
575.516	35851.35
575.877	36094.95
576.238	36023.09
576.599	36265.35
576.96	36179.7
577.32	36237.78
577.681	36392.12
578.042	36581.95
578.403	36400.48
578.763	36514.15
579.124	36638.44
579.485	36598.9
579.845	36650.65
580.206	36639.35
580.566	36553.02
580.927	36745.11
581.287	36792.11
581.648	36794.37
582.008	36942.84
582.368	36884.31
582.728	36910.07
583.089	36894.26
583.449	36935.84
583.809	36960.69
584.169	37071.88
584.529	36956.63
584.889	37241.14
585.249	36884.31
585.609	36894.48
585.969	36982.39
586.329	36914.59
586.688	36914.59
587.048	36935.84
587.408	36976.51
587.768	36990.52
588.127	36981.03
588.487	36972.22
588.846	37102.61
589.206	36942.62
589.565	36955.72
589.925	37027.81
590.284	37040.24
590.643	37031.2
591.003	37077.98
591.362	37252.21
591.721	37117.07
592.08	37192.55
592.44	37160.01
592.799	37117.75
593.158	37067.81
593.517	37208.15
593.876	37186
594.235	37038.43
594.593	37198.65
594.952	37113.01
595.311	37085.89
595.67	37064.19
596.029	37432.09
596.387	37356.84
596.746	37502.6
597.104	37207.92
597.463	37174.7
597.822	37297.64
598.18	37229.61
598.538	37149.62
598.897	37568.59
599.255	37086.79
599.613	37689.26
599.972	37392.55
600.33	37381.93
600.688	37271.42
601.046	37459.21
601.404	37614.01
601.762	37392.32
602.12	37554.58
602.478	37592.54
602.836	37656.04
603.194	37240.46
603.552	37433.22
603.91	37367.92
604.268	37564.75
604.625	37443.85
604.983	37560
605.341	37395.03
605.698	37627.57
606.056	37739.43
606.413	37745.08
606.771	37767.23
607.128	37822.59
607.485	37710.05
607.843	37790.73
608.2	37946.88
608.557	38038.41
608.914	37854.46
609.272	38066.43
609.629	38126.09
609.986	38118.18
610.343	37989.59
610.7	38227.33
611.057	38181
611.414	38140.1
611.771	38378.74
612.127	38299.64
612.484	38330.38
612.841	38515
613.198	38356.14
613.554	38353.88
613.911	38642.46
614.267	38597.49
614.624	38535.79
614.98	38534.44
615.337	38772.85
615.693	38686.75
616.05	38587.32
616.406	38680.65
616.762	38765.39
617.118	38682.91
617.475	38691.72
617.831	38981.21
618.187	38825.96
618.543	38826.86
618.899	39223.69
619.255	39051.49
619.611	38984.6
619.967	39028.66
620.323	39188.88
620.678	39081.09
621.034	38865.28
621.39	39142.33
621.746	38926.29
622.101	39518.82
622.457	39101.88
622.812	39343.01
623.168	39301.88
623.523	39352.5
623.879	39290.13
624.234	39024.82
624.589	39203.35
624.945	39368.54
625.3	39384.81
625.655	39243.8
626.01	39317.47
626.365	39224.14
626.72	39076.57
627.075	39203.8
627.43	39033.41
627.785	39041.77
628.14	39118.83
628.495	39141.65
628.85	39065.27
629.205	38962
629.559	39168.77
629.914	39139.62
630.269	39100.07
630.623	38975.11
630.978	38840.42
631.332	39072.05
631.687	39134.2
632.041	38947.08
632.396	38968.78
632.75	38884.94
633.104	38946.86
633.459	38773.3
633.813	38675.9
634.167	38660.31
634.521	38656.02
634.875	38792.74
635.229	38682.68
635.583	38303.03
635.937	38469.36
636.291	38261.68
636.645	38374.89
636.999	38168.35
637.352	38484.27
637.706	38127.44
638.06	38211.96
638.413	38205.18
638.767	38175.58
639.121	38256.03
639.474	37902.14
639.828	37823.05
640.181	37870.28
640.534	37897.85
640.888	37739.66
641.241	37664.63
641.594	37714.8
641.947	37857.85
642.301	37697.62
642.654	37602.71
643.007	37625.31
643.36	37515.26
643.713	37489.72
644.066	37576.95
644.419	37382.38
644.771	37132.89
645.124	36776.52
645.477	36785.11
645.83	36489.52
646.182	36319.58
646.535	36212.47
646.888	36338.56
647.24	36132.47
647.593	36333.37
647.945	36304.21
648.298	36118.91
648.65	35978.8
649.002	35953.26
649.355	36055.41
649.707	35953.49
650.059	36082.98
650.411	36465.34
650.763	36559.58
651.115	36941.49
651.467	36815.16
651.819	36728.38
652.171	36586.47
652.523	36638.22
652.875	36687.26
653.227	36486.81
653.578	36591.66
653.93	36677.31
654.282	36467.15
654.633	36334.72
654.985	36412.01
655.337	36353.03
655.688	36265.57
656.039	36378.56
656.391	36014.05
656.742	36143.77
657.094	36146.48
657.445	36282.75
657.796	36057.22
658.147	36137.21
658.498	36116.42
658.849	36130.21
659.2	35991.23
659.551	35931.8
659.902	36012.25
660.253	35892.93
660.604	35987.16
660.955	35656.55
661.306	35858.8
661.656	35725.93
662.007	35774.51
662.358	35744.68
662.708	35644.57
663.059	35482.09
663.409	35380.17
663.76	35584.91
664.11	35487.74
664.461	35444.58
664.811	35442.77
665.161	35338.36
665.511	35149.89
665.862	35210.46
666.212	35194.87
666.562	35194.64
666.912	34947.19
667.262	34935.21
667.612	34882.11
667.962	34894.99
668.312	34650.93
668.662	34773.63
669.011	34576.8
669.361	34557.59
669.711	34615.9
670.06	34357.6
670.41	34350.59
670.76	34297.26
671.109	34303.82
671.459	34075.8
671.808	34047.55
672.157	34197.6
672.507	33851.4
672.856	33916.48
673.205	33841.68
673.554	33996.7
673.904	33693.66
674.253	33817.73
674.602	33792.19
674.951	33155.37
675.3	33055.94
675.649	33678.3
675.998	33561.46
676.346	33529.37
676.695	33614.79
677.044	33264.29
677.393	33514.46
677.741	33240.11
678.09	33344.97
678.438	33180.91
678.787	33319.21
679.135	33308.81
679.484	33092.1
679.832	33177.29
680.181	33076.73
680.529	33148.82
680.877	33053.23
681.225	32977.3
681.573	33227.46
681.922	33037.63
682.27	32855.27
682.618	32942.27
682.966	32927.13
683.314	33106.78
683.661	32917.19
684.009	32956.51
684.357	32842.61
684.705	32895.04
685.053	32987.01
685.4	32930.52
685.748	32774.82
686.095	32761.03
686.443	32719.9
686.79	32820.69
687.138	32823.18
687.485	32860.01
687.832	32801.93
688.18	32918.54
688.527	32729.17
688.874	32693.24
689.221	32705.89
689.568	32737.3
689.915	32699.11
690.262	32573.01
690.609	32606.69
690.956	32565.1
691.303	32596.74
691.65	32484.43
691.997	32460.7
692.344	32386.8
692.69	32284.43
693.037	32418.22
693.383	32065.91
693.73	32178.45
694.077	32183.87
694.423	32118.11
694.769	32053.93
695.116	31999.92
695.462	31978
695.808	31941.62
696.155	32006.47
696.501	31805.35
696.847	31836.08
697.193	31544.79
697.539	31698.91
697.885	31438.58
698.231	31475.64
698.577	31413.5
698.923	31378.69
699.269	31374.63
699.614	31148.42
699.96	31025.26
700.306	31135.54
700.651	31012.83
700.997	30857.35
701.342	30918.59
701.688	30863.91
702.033	30727.86
702.379	30615.32
702.724	30738.03
703.069	30711.37
703.415	30373.98
703.76	30389.79
704.105	30248.55
704.45	30166.52
704.795	30148.9
705.14	29921.56
705.485	29986.19
705.83	29934.44
706.175	29986.19
706.52	29690.15
706.865	29697.38
707.209	29564.96
707.554	29567.44
707.899	29739.19
708.243	29453.1
708.588	29495.81
708.932	29289.48
709.277	29202.93
709.621	29301.91
709.966	29023.73
710.31	29111.18
710.654	28885.65
710.998	28951.87
711.342	29016.27
711.687	28909.38
712.031	28749.84
712.375	28594.81
712.719	28673.23
713.063	28637.75
713.407	28684.08
713.75	28505.78
714.094	28462.39
714.438	28364.08
714.782	28405.89
715.125	28324.31
715.469	28316.63
715.812	28165.22
716.156	28018.78
716.499	28061.95
716.843	28054.04
717.186	27850.88
717.53	28002.29
717.873	27991.89
718.216	27812.01
718.559	27760.03
718.902	27604.1
719.246	27662.18
719.589	27607.72
719.932	27389.65
720.275	27448.85
720.617	27384.45
720.96	27397.78
721.303	27384.68
721.646	27415.18
721.989	27161.63
722.331	27305.36
722.674	27179.03
723.016	27237.11
723.359	27064.23
723.701	27102.87
724.044	26934.97
724.386	26769.32
724.729	27008.19
725.071	26867.85
725.413	26895.2
725.755	26806.39
726.097	26612.94
726.439	26601.65
726.782	26546.73
727.124	26674.86
727.465	26518.71
727.807	26409.11
728.149	26398.26
728.491	26372.95
728.833	26492.27
729.175	26335.44
729.516	26327.08
729.858	26209.11
730.199	26252.05
730.541	26057.03
730.882	26080.3
731.224	26168.44
731.565	26020.19
731.906	25937.48
732.248	25969.57
732.589	25847.99
732.93	25834.89
733.271	25789.24
733.612	25873.08
733.953	25771.61
734.294	25681.67
734.635	25561.67
734.976	25725.96
735.317	25563.25
735.658	25542.69
735.999	25529.81
736.339	25482.13
736.68	25527.78
737.021	25372.98
737.361	25288.01
737.702	25412.3
738.042	25326.42
738.383	25175.24
738.723	25257.05
739.063	25123.04
739.404	25366.88
739.744	25197.39
740.084	25101.12
740.424	25031.07
740.764	24983.16
741.104	25055.25
741.444	24979.99
741.784	24869.26
742.124	24956.49
742.464	24876.49
742.804	24785.65
743.143	24733.67
743.483	24799.66
743.823	24642.6
744.162	24688.93
744.502	24667.23
744.841	24454.13
745.181	24638.98
745.52	24490.97
745.86	24533.22
746.199	24410.74
746.538	24360.35
746.877	24398.77
747.216	24321.03
747.556	24206
747.895	24151.99
748.234	24130.3
748.573	24005.78
748.911	24115.83
749.25	24052.11
749.589	23995.39
749.928	23998.32
750.267	23959.91
750.605	23921.49
750.944	23751.1
751.283	23689.86
751.621	23909.74
751.96	23618.67
752.298	23697.77
752.636	23679.01
752.975	23475.4
753.313	23379.13
753.651	23560.37
753.989	23291
754.327	23427.27
754.666	23167.39
755.004	23222.07
755.342	23270.21
755.679	23148.63
756.017	23012.59
756.355	23097.56
756.693	22887.39
757.031	22890.1
757.368	22785.25
757.706	22728.75
758.044	22799.94
758.381	22719.26
758.719	22586.16
759.056	22654.63
759.394	22522.2
759.731	22462.32
760.068	22374.64
760.405	22345.94
760.743	22367.63
761.08	22190.24
761.417	22145.27
761.754	22107.98
762.091	22072.72
762.428	22016.68
762.765	21812.39
763.102	21764.03
763.438	21696.24
763.775	21533.3
764.112	21584.83
764.449	21656.69
764.785	21478.62
765.122	21279.75
765.458	21283.14
765.795	21238.17
766.131	21230.26
766.467	21237.49
766.804	21073.65
767.14	20924.51
767.476	20955.01
767.812	20746.88
768.148	20837.05
768.485	20719.31
768.821	20559.32
769.157	20555.02
769.492	20573.78
769.828	20534.69
770.164	20342.37
770.5	20295.82
770.836	20236.61
771.171	20165.88
771.507	20121.14
771.842	19902.39
772.178	20031.87
772.513	19823.97
772.849	19877.53
773.184	19725.89
773.519	19769.51
773.855	19612.45
774.19	19615.16
774.525	19490.19
774.86	19498.1
775.195	19411.78
775.53	19425.56
775.865	19245.68
776.2	19150.09
776.535	18967.04
776.87	18882.53
777.205	18819.93
777.539	18822.19
777.874	18892.02
778.209	18669.42
778.543	18669.42
778.878	18520.28
779.212	18546.04
779.547	18431.24
779.881	18389.66
780.215	18182.43
780.55	18335.2
780.884	18109.44
781.218	18087.74
781.552	18071.7
781.886	17934.75
782.22	17931.14
782.554	17778.83
782.888	17712.39
783.222	17555.78
783.556	17650.92
783.889	17512.39
784.223	17465.39
784.557	17410.7
784.89	17352.4
785.224	17204.38
785.557	17241.44
785.891	17230.14
786.224	17208.67
786.558	17106.75
786.891	16987.89
787.224	16818.4
787.557	16875.57
787.891	16835.8
788.224	16796.71
788.557	16754.45
788.89	16671.06
789.223	16636.03
789.556	16566.88
789.888	16514.68
790.221	16490.27
790.554	16310.62
790.887	16325.76
791.219	16217.96
791.552	16121.47
791.884	16127.12
792.217	15995.82
792.549	15908.37
792.882	15887.58
793.214	15791.76
793.546	15818.43
793.879	15696.62
794.211	15620.24
794.543	15698.66
794.875	15581.6
795.207	15633.57
795.539	15467.47
795.871	15570.97
796.203	15407.59
796.535	15304.99
796.867	15344.99
797.198	15234.71
797.53	15207.82
797.862	15145.68
798.193	15157.88
798.525	15009.86
798.856	15123.3
799.188	14872.91
799.519	14841.28
799.85	14762.18
800.182	14825.68
800.513	14744.56
800.844	14640.83
801.175	14659.13
801.506	14642.41
801.837	14584.33
802.168	14523.54
802.499	14514.96
802.83	14358.13
803.161	14429.54
803.491	14439.25
803.822	14439.03
804.153	14320.84
804.483	14154.74
804.814	14112.48
805.145	14108.87
805.475	14119.71
805.805	14041.52
806.136	13997
806.466	13931.92
806.796	13956.1
807.126	13912.26
807.457	13788.2
807.787	13827.29
808.117	13769.21
808.447	13711.36
808.777	13783.9
809.107	13774.86
809.436	13566.06
809.766	13610.8
810.096	13604.7
810.426	13542.55
810.755	13483.57
811.085	13434.53
811.414	13424.82
811.744	13218.72
812.073	13320.86
812.403	13307.08
812.732	13282.45
813.061	13271.83
813.39	13249.45
813.719	13095.33
814.049	13193.18
814.378	13125.62
814.707	13076.13
815.036	13079.29
815.365	13023.92
815.693	12785.96
816.022	12945.06
816.351	12848.11
816.68	12734.21
817.008	12735.8
817.337	12606.76
817.665	12723.59
817.994	12661.9
818.322	12704.84
818.651	12647.44
818.979	12611.05
819.307	12660.54
819.636	12557.95
819.964	12496.71
820.292	12581.9
820.62	12481.56
820.948	12549.13
821.276	12487.67
821.604	12471.4
821.932	12499.64
822.259	12505.29
822.587	12423.49
822.915	12343.94
823.243	12448.8
823.57	12360.66
823.898	12411.51
824.225	12391.85
824.553	12366.09
824.88	12327.9
825.207	12437.27
825.535	12323.6
825.862	12381.23
826.189	12355.47
826.516	12484.5
826.843	12418.06
827.17	12417.61
827.497	12443.37
827.824	12358.86
828.151	12436.14
828.478	12368.57
828.805	12355.01
829.131	12406.09
829.458	12339.87
829.785	12244.51
830.111	12312.08
830.438	12369.25
830.764	12306.88
831.09	12336.94
831.417	12293.32
831.743	12318.63
832.069	12366.09
832.395	12262.36
832.722	12358.86
833.048	12237.73
833.374	12271.63
833.7	12220.1
834.026	12194.57
834.351	12171.06
834.677	12180.78
835.003	12185.3
835.329	12198.86
835.654	12205.87
835.98	12104.17
836.306	12115.92
836.631	12119.99
836.956	12078.41
837.282	12043.84
837.607	12049.26
837.932	11977.85
838.258	11991.86
838.583	12017.62
838.908	11955.7
839.233	11969.94
839.558	11893.11
839.883	11956.61
840.208	11819.66
840.533	11901.69
840.858	11850.39
841.182	11771.53
841.507	11774.24
841.832	11695.82
842.156	11662.6
842.481	11688.36
842.805	11684.3
843.13	11615.6
843.454	11644.07
843.778	11574.24
844.103	11547.13
844.427	11496.28
844.751	11526.11
845.075	11389.62
845.399	11396.17
845.723	11345.55
846.047	11409.73
846.371	11255.83
846.695	11322.27
847.019	11217.19
847.343	11155.05
847.666	11073.47
847.99	11080.25
848.313	11020.81
848.637	10994.37
848.96	11011.55
849.284	10931.55
849.607	10827.6
849.931	10816.98
850.254	10779.24
850.577	10806.35
850.9	10694.04
851.223	10665.12
851.546	10644.55
851.869	10521.84
852.192	10622.63
852.515	10488.4
852.838	10394.39
853.161	10448.17
853.483	10395.74
853.806	10379.92
854.129	10343.99
854.451	10258.12
854.774	10262.87
855.096	10196.65
855.419	10174.51
855.741	10166.82
856.063	10049.31
856.385	10041.85
856.708	10096.32
857.03	10014.74
857.352	10003.21
857.674	9963.44
857.996	9878.47
858.318	9872.37
858.64	9898.36
858.961	9909.2
859.283	9810.22
859.605	9787.85
859.926	9772.71
860.248	9734.74
860.57	9737.91
860.891	9732.94
861.212	9706.95
861.534	9635.09
861.855	9555.77
862.176	9565.71
862.498	9628.08
862.819	9644.12
863.14	9540.4
863.461	9506.28
863.782	9515.54
864.103	9516.22
864.424	9433.51
864.745	9471.7
865.065	9433.51
865.386	9460.17
865.707	9390.8
866.027	9386.73
866.348	9404.13
866.668	9381.98
866.989	9327.52
867.309	9273.29
867.63	9301.99
867.95	9238.94
868.27	9243.68
868.59	9291.14
868.91	9224.02
869.23	9186.28
869.55	9185.38
869.87	9234.19
870.19	9156.23
870.51	9197.13
870.83	9130.24
871.15	9085.04
871.469	9152.16
871.789	9140.86
872.109	9083.46
872.428	9053.63
872.748	9101.54
873.067	9090.47
873.386	9007.98
873.706	9049.79
874.025	9031.94
874.344	8965.72
874.663	9006.63
874.982	8957.82
875.301	8953.52
875.62	8878.27
875.939	8885.05
876.258	8889.12
876.577	8892.73
876.896	8819.74
877.214	8847.31
877.533	8796.92
877.852	8850.25
878.17	8780.42
878.489	8767.76
878.807	8813.86
879.125	8745.17
879.444	8803.7
879.762	8814.54
880.08	8699.97
880.398	8672.63
880.716	8669.24
881.034	8647.09
881.352	8654.77
881.67	8612.29
881.988	8609.8
882.306	8641.44
882.624	8570.03
882.941	8521.67
883.259	8555.34
883.577	8545.17
883.894	8492.97
884.212	8415.68
884.529	8467.88
884.846	8440.09
885.164	8400.54
885.481	8447.32
885.798	8386.3
886.115	8329.58
886.432	8345.63
886.75	8335.68
887.067	8333.2
887.383	8207.1
887.7	8248.91
888.017	8193.54
888.334	8201
888.651	8222.02
888.967	8170.27
889.284	8121
889.6	8143.6
889.917	8081.45
890.233	8058.18
890.55	8036.26
890.866	8068.57
891.182	7993.32
891.498	7978.86
891.815	7935.02
892.131	7918.07
892.447	7854.34
892.763	7832.87
893.079	7859.99
893.395	7856.83
893.71	7743.38
894.026	7734.34
894.342	7821.35
894.657	7707.23
894.973	7676.49
895.289	7715.14
895.604	7720.56
895.92	7619.32
896.235	7582.03
896.55	7596.72
896.865	7547
897.181	7562.6
897.496	7526.67
897.811	7503.62
898.126	7442.6
898.441	7431.08
898.756	7452.54
899.071	7331.42
899.386	7358.54
899.7	7283.74
900.015	7300.68
900.33	7242.38
900.644	7271.98
900.959	7255.26
901.273	7257.75
901.588	7185.21
901.902	7113.34
902.216	7084.42
902.531	7157.41
902.845	7069.73
903.159	7030.41
903.473	7004.87
903.787	6924.87
904.101	6960.13
904.415	6930.3
904.729	6922.61
905.042	6865.89
905.356	6805.78
905.67	6811.43
905.984	6857.98
906.297	6748.83
906.611	6733.47
906.924	6745.9
907.237	6731.43
907.551	6653.24
907.864	6666.12
908.177	6627.93
908.491	6624.77
908.804	6515.39
909.117	6560.36
909.43	6495.28
909.743	6502.96
910.056	6504.32
910.368	6432.01
910.681	6451.44
910.994	6404.89
911.307	6423.19
911.619	6338.68
911.932	6338.9
912.244	6267.49
912.557	6305.68
912.869	6289.18
913.181	6250.99
913.494	6167.61
913.806	6206.25
914.118	6140.49
914.43	6131
914.742	6089.87
915.054	5989.76
915.366	5970.32
915.678	6026.59
915.99	5986.37
916.302	5940.27
916.613	5937.1
916.925	5962.64
917.236	5934.62
917.548	5885.81
917.859	5918.35
918.171	5858.91
918.482	5828.18
918.794	5817.11
919.105	5811.91
919.416	5766.03
919.727	5705.92
920.038	5659.14
920.349	5621.63
920.66	5608.07
920.971	5632.93
921.282	5613.27
921.593	5589.99
921.903	5506.83
922.214	5514.06
922.525	5492.14
922.835	5509.09
923.146	5475.65
923.456	5465.48
923.767	5434.52
924.077	5420.96
924.387	5349.1
924.697	5340.28
925.008	5334.18
925.318	5321.53
925.628	5282.88
925.938	5277.01
926.248	5183.68
926.558	5219.61
926.867	5155.43
927.177	5153.4
927.487	5167.86
927.796	5051.48
928.106	5129.44
928.416	5060.97
928.725	5041.53
929.034	5048.09
929.344	5059.84
929.653	4987.3
929.962	4945.72
930.271	4966.96
930.581	4897.81
930.89	4870.24
931.199	4865.04
931.508	4899.39
931.817	4876.11
932.125	4823.69
932.434	4832.27
932.743	4734.42
933.051	4763.58
933.36	4744.14
933.669	4709.34
933.977	4697.14
934.286	4692.39
934.594	4664.14
934.902	4580.98
935.21	4589.34
935.519	4631.15
935.827	4624.37
936.135	4583.47
936.443	4544.82
936.751	4575.78
937.059	4524.71
937.367	4512.28
937.674	4507.76
937.982	4437.48
938.29	4436.58
938.597	4444.04
938.905	4365.62
939.213	4369.24
939.52	4366.07
939.827	4336.47
940.135	4378.95
940.442	4319.07
940.749	4350.03
941.056	4310.93
941.363	4284.49
941.67	4223.93
941.977	4159.75
942.284	4213.99
942.591	4205.4
942.898	4095.12
943.205	4156.13
943.511	4164.95
943.818	4092.41
944.125	4066.64
944.431	4057.83
944.738	4041.79
945.044	4019.41
945.35	4011.96
945.657	4035.46
945.963	3981.67
946.269	4002.24
946.575	3977.38
946.881	3919.98
947.187	3915.24
947.493	3912.07
947.799	3897.84
948.105	3862.58
948.41	3825.29
948.716	3828.23
949.022	3832.53
949.327	3775.13
949.633	3761.57
949.938	3762.92
950.244	3775.35
950.549	3731.29
950.854	3716.37
951.16	3735.35
951.465	3706.43
951.77	3688.12
952.075	3631.18
952.38	3638.18
952.685	3613.55
952.99	3523.61
953.294	3599.99
953.599	3562.48
953.904	3563.83
954.209	3531.74
954.513	3545.08
954.818	3540.33
955.122	3504.85
955.426	3482.71
955.731	3438.19
956.035	3417.62
956.339	3442.71
956.643	3412.65
956.948	3392.09
957.252	3364.29
957.556	3353.89
957.86	3371.3
958.163	3342.14
958.467	3364.52
958.771	3321.58
959.075	3337.62
959.378	3273.45
959.682	3266.21
959.985	3235.71
960.289	3272.99
960.592	3244.52
960.896	3216.95
961.199	3195.93
961.502	3199.32
961.805	3163.84
962.108	3135.6
962.411	3156.84
962.714	3126.56
963.017	3083.85
963.32	3160.23
963.623	3110.96
963.926	3129.49
964.228	3076.84
964.531	3046.56
964.833	3039.78
965.136	3033.23
965.438	3060.57
965.741	3016.28
966.043	2978.09
966.345	3007.92
966.648	2981.25
966.95	2962.49
967.252	2953
967.554	2917.97
967.856	2906.67
968.158	2873.46
968.46	2918.43
968.761	2879.11
969.063	2856.73
969.365	2817.19
969.666	2837.07
969.968	2802.27
970.269	2829.39
970.571	2782.61
970.872	2832.1
971.174	2754.36
971.475	2790.52
971.776	2767.92
972.077	2725.21
972.378	2746
972.679	2760.46
972.98	2702.39
973.281	2703.29
973.582	2688.38
973.883	2682.5
974.183	2682.73
974.484	2651.77
974.785	2624.42
975.085	2652.9
975.386	2614.03
975.686	2589.62
975.986	2595.95
976.287	2604.99
976.587	2593.91
976.887	2586.46
977.187	2587.14
977.487	2567.47
977.787	2522.73
978.087	2541.49
978.387	2510.98
978.687	2516.18
978.987	2514.37
979.286	2487.7
979.586	2478.66
979.885	2471.88
980.185	2466.01
980.484	2432.34
980.784	2446.57
981.083	2439.57
981.382	2368.84
981.682	2405.67
981.981	2383.75
982.28	2388.5
982.579	2381.27
982.878	2351.89
983.177	2360.7
983.475	2324.77
983.774	2257.65
984.073	2300.14
984.372	2275.96
984.67	2304.43
984.969	2279.12
985.267	2287.03
985.566	2288.61
985.864	2251.32
986.162	2226.69
986.461	2227.6
986.759	2227.6
987.057	2184.89
987.355	2195.06
987.653	2202.51
987.951	2192.57
988.249	2190.31
988.547	2167.71
988.844	2159.58
989.142	2130.42
989.44	2142.85
989.737	2106.24
990.035	2138.11
990.332	2102.18
990.63	2100.59
990.927	2100.14
991.224	2101.72
991.521	2060.6
991.819	2045.68
992.116	2032.8
992.413	2052.01
992.71	2029.86
993.006	2018.34
993.303	2025.79
993.6	1990.54
993.897	1964.1
994.193	1995.96
994.49	1986.7
994.787	1952.58
995.083	1944.21
995.379	1962.29
995.676	1945.34
995.972	1937.43
996.268	1936.98
996.565	1925.23
996.861	1917.1
997.157	1886.59
997.453	1850.21
997.749	1854.27
998.044	1828.74
998.34	1859.02
998.636	1859.47
998.932	1851.56
999.227	1822.64
999.523	1817.21
999.818	1784.67
1000.114	1816.76
1000.409	1795.97
1000.704	1809.08
1001	1767.72
1001.295	1778.57
1001.59	1760.94
1001.885	1752.13
1002.18	1726.82
1002.475	1746.71
1002.77	1718.23
1003.065	1713.49
1003.359	1731.79
1003.654	1703.54
1003.949	1701.51
1004.243	1665.35
1004.538	1644.11
1004.832	1682.3
1005.127	1655.63
1005.421	1643.88
1005.715	1655.18
1006.009	1620.83
1006.304	1602.53
1006.598	1611.57
1006.892	1597.1
1007.186	1557.33
1007.48	1572.92
1007.773	1576.99
1008.067	1567.5
1008.361	1531.8
1008.655	1545.35
1008.948	1535.86
1009.242	1557.33
1009.535	1544
1009.829	1518.91
1010.122	1505.13
1010.415	1494.73
1010.708	1474.17
1011.001	1485.24
1011.295	1474.4
1011.588	1464
1011.881	1447.73
1012.173	1485.02
1012.466	1451.12
1012.759	1424.23
1013.052	1413.83
1013.344	1388.52
1013.637	1396.88
1013.93	1401.18
1014.222	1377.22
1014.514	1390.33
1014.807	1410.44
1015.099	1369.31
1015.391	1357.56
1015.683	1364.12
1015.976	1350.78
1016.268	1327.06
1016.56	1335.64
1016.851	1321.41
1017.143	1312.82
1017.435	1306.94
1017.727	1309.2
1018.018	1272.82
1018.31	1266.27
1018.602	1270.11
1018.893	1276.44
1019.185	1247.28
1019.476	1257.9
1019.767	1254.29
1020.058	1250.67
1020.35	1238.7
1020.641	1248.64
1020.932	1221.3
1021.223	1162.99
1021.514	1207.28
1021.804	1189.21
1022.095	1201.86
1022.386	1173.16
1022.677	1196.89
1022.967	1145.59
1023.258	1136.1
1023.548	1141.3
1023.839	1153.5
1024.129	1122.54
1024.419	1132.26
1024.709	1122.09
1025	1125.48
1025.29	1089.55
1025.58	1076.44
1025.87	1067.85
1026.16	1075.54
1026.449	1078.47
1026.739	1055.42
1027.029	1078.93
1027.319	1055.2
1027.608	1048.19
1027.898	1051.36
1028.187	1052.03
1028.477	1046.61
1028.766	1030.11
1029.055	1024.92
1029.344	1032.37
1029.634	1024.46
1029.923	994.18
1030.212	998.93
1030.501	991.02
1030.79	990.12
1031.078	972.26
1031.367	967.29
1031.656	969.1
1031.945	953.51
1032.233	975.88
1032.522	953.96
1032.81	922.55
1033.099	948.31
1033.387	923.9
1033.675	940.17
1033.963	935.88
1034.251	920.06
1034.54	916.9
1034.828	913.96
1035.116	887.97
1035.403	912.83
1035.691	896.78
1035.979	883.68
1036.267	864.02
1036.554	887.07
1036.842	877.58
1037.129	873.51
1037.417	840.51
1037.704	846.62
1037.992	835.77
1038.279	833.06
1038.566	836.9
1038.853	836.9
1039.14	836.9
