Data from white_wall_FLMS001491_053.txt Node
Date: Tue Feb 07 11:04:57 GMT 2017
User: dcchb
Spectrometer: FLMS00149
Trigger mode: 0
Integration Time (sec): 2.000000E-2
Scans to average: 10
Electric dark correction enabled: true
Nonlinearity correction enabled: false
Boxcar width: 0
XAxis mode: Wavelengths
Number of Pixels in Spectrum: 2048
>>>>>Begin Spectral Data<<<<<
341.393	-20.51
341.776	-20.51
342.16	-20.51
342.543	-61.18
342.927	-76.78
343.31	-75.2
343.693	-66.61
344.077	-65.03
344.46	-67.74
344.843	-66.61
345.226	-39.26
345.61	-21.41
345.993	-15.08
346.376	-7.85
346.759	30.79
347.142	38.02
347.525	38.7
347.908	59.49
348.291	67.17
348.674	90.9
349.057	99.71
349.44	123.67
349.823	137.45
350.206	156.66
350.588	196.44
350.971	202.09
351.354	234.85
351.737	221.75
352.119	256.32
352.502	275.76
352.884	266.04
353.267	285.7
353.65	297.45
354.032	295.87
354.414	307.39
354.797	321.63
355.179	330.22
355.562	330.22
355.944	351.69
356.326	334.28
356.709	333.83
357.091	338.35
357.473	351.23
357.855	332.7
358.238	358.01
358.62	335.41
359.002	335.41
359.384	353.04
359.766	340.39
360.148	338.58
360.53	349.43
360.912	363.66
361.294	348.97
361.676	343.1
362.057	345.81
362.439	333.16
362.821	346.71
363.203	323.44
363.584	324.12
363.966	343.32
364.348	323.44
364.729	329.54
365.111	317.79
365.493	315.3
365.874	323.44
366.256	320.73
366.637	323.44
367.019	319.6
367.4	314.62
367.781	314.17
368.163	328.64
368.544	330.9
368.925	338.13
369.306	319.82
369.688	307.39
370.069	306.49
370.45	308.52
370.831	306.94
371.212	308.75
371.593	323.44
371.974	306.94
372.355	333.38
372.736	290.22
373.117	317.79
373.498	323.89
373.879	306.49
374.26	322.53
374.641	303.1
375.021	315.53
375.402	307.17
375.783	326.6
376.163	318.01
376.544	345.36
376.925	345.81
377.305	323.21
377.686	345.58
378.066	339.48
378.447	338.58
378.827	317.79
379.208	334.51
379.588	327.28
379.968	341.29
380.349	341.74
380.729	360.5
381.109	342.87
381.489	360.27
381.87	363.89
382.25	339.03
382.63	332.03
383.01	344.45
383.39	360.27
383.77	371.12
384.15	370.22
384.53	355.08
384.91	367.73
385.29	370.44
385.67	351.46
386.049	364.57
386.429	353.04
386.809	378.8
387.189	369.99
387.568	394.62
387.948	372.02
388.328	399.59
388.707	400.95
389.087	396.66
389.466	392.14
389.846	400.05
390.225	410.22
390.605	390.33
390.984	410.22
391.363	419.03
391.743	417.67
392.122	423.77
392.501	436.2
392.881	433.72
393.26	427.84
393.639	421.51
394.018	415.41
394.397	442.98
394.776	438.69
395.155	444.11
395.534	458.8
395.913	458.8
396.292	450.67
396.671	461.29
397.05	466.94
397.429	476.2
397.808	493.38
398.186	485.47
398.565	471
398.944	516.2
399.323	521.4
399.701	505.58
400.08	534.05
400.458	528.4
400.837	533.83
401.215	544.45
401.594	579.02
401.972	569.31
402.351	594.17
402.729	553.04
403.107	553.26
403.486	558.46
403.864	621.06
404.242	608.63
404.62	629.87
404.999	611.34
405.377	628.29
405.755	628.06
406.133	645.92
406.511	679.36
406.889	651.56
407.267	679.13
407.645	697.21
408.023	699.47
408.401	711.22
408.779	739.25
409.156	733.82
409.534	735.4
409.912	748.96
410.29	776.76
410.667	785.12
411.045	791.67
411.422	825.57
411.8	809.98
412.178	841.84
412.555	837.32
412.933	850.2
413.31	880.71
413.687	887.94
414.065	855.18
414.442	873.03
414.819	891.78
415.197	926.13
415.574	934.5
415.951	946.25
416.328	932.46
416.705	988.05
417.082	965.45
417.46	965
417.837	1001.84
418.214	1002.29
418.591	1013.36
418.967	1031.44
419.344	1012.69
419.721	1045.9
420.098	1062.63
420.475	1052.23
420.852	1071.67
421.228	1078.9
421.605	1100.14
421.982	1068.5
422.358	1128.16
422.735	1123.64
423.111	1140.14
423.488	1129.52
423.864	1132.23
424.241	1156.86
424.617	1188.73
424.994	1178.1
425.37	1191.66
425.746	1195.05
426.123	1244.09
426.499	1237.31
426.875	1263.3
427.251	1253.58
427.627	1305.78
428.003	1317.54
428.379	1300.81
428.756	1311.89
429.132	1327.93
429.507	1361.83
429.883	1383.07
430.259	1396.63
430.635	1421.49
431.011	1428.72
431.387	1480.92
431.763	1489.28
432.138	1497.42
432.514	1497.42
432.89	1511.43
433.265	1531.54
433.641	1552.11
434.016	1576.96
434.392	1583.74
434.767	1632.1
435.143	1623.97
435.518	1621.71
435.894	1668.94
436.269	1704.87
436.644	1708.71
437.02	1736.28
437.395	1709.39
437.77	1770.86
438.145	1769.73
438.52	1814.7
438.895	1807.01
439.271	1813.79
439.646	1896.28
440.021	1890.63
440.395	1884.75
440.77	1891.76
441.145	1910.51
441.52	1937.86
441.895	1959.33
442.27	1967.01
442.645	1990.29
443.019	1986.44
443.394	2019.89
443.769	2018.99
444.143	2027.35
444.518	2052.88
444.892	2049.95
445.267	2039.32
445.641	2100.34
446.016	2110.06
446.39	2098.53
446.764	2149.6
447.139	2160.45
447.513	2171.07
447.887	2159.77
448.262	2197.51
448.636	2214.69
449.01	2274.35
449.384	2229.15
449.758	2258.3
450.132	2279.54
450.506	2308.24
450.88	2336.72
451.254	2351.18
451.628	2354.34
452.002	2365.87
452.376	2370.39
452.75	2439.77
453.123	2435.92
453.497	2493.78
453.871	2525.19
454.244	2555.92
454.618	2591.63
454.992	2620.1
455.365	2666.43
455.739	2676.37
456.112	2698.52
456.486	2737.61
456.859	2736.48
457.232	2829.59
457.606	2804.05
457.979	2846.31
458.352	2865.29
458.725	2895.8
459.099	2945.29
459.472	2982.35
459.845	3032.75
460.218	3073.2
460.591	3112.97
460.964	3101.9
461.337	3179.18
461.71	3218.95
462.083	3284.04
462.456	3329.91
462.829	3314.55
463.201	3344.15
463.574	3368.78
463.947	3422.57
464.32	3500.76
464.692	3524.71
465.065	3588.66
465.438	3600.41
465.81	3669.11
466.183	3703.46
466.555	3784.82
466.928	3835.89
467.3	3830.92
467.672	3937.13
468.045	3980.52
468.417	4005.83
468.789	4048.76
469.161	4098.93
469.534	4163.79
469.906	4254.63
470.278	4256.22
470.65	4295.31
471.022	4350.9
471.394	4461.41
471.766	4536.89
472.138	4538.24
472.51	4681.29
472.882	4742.08
473.253	4775.3
473.625	4870.21
473.997	4998.57
474.369	5026.82
474.74	5038.57
475.112	5123.09
475.484	5231.56
475.855	5343.19
476.227	5402.85
476.598	5526.24
476.97	5617.54
477.341	5720.58
477.713	5815.27
478.084	5879.9
478.455	6027.92
478.827	6017.98
479.198	6253
479.569	6233.56
479.94	6470.17
480.311	6503.16
480.682	6658.19
481.053	6752.87
481.424	6918.52
481.795	6914.68
482.166	7078.51
482.537	7149.92
482.908	7305.85
483.279	7369.58
483.65	7508.11
484.021	7721.89
484.391	7829
484.762	7814.54
485.133	7963.69
485.503	7996.68
485.874	8276.68
486.244	8305.15
486.615	8464.92
486.985	8567.29
487.356	8712.37
487.726	8829.65
488.097	9003.89
488.467	8986.71
488.837	9228.97
489.207	9291.34
489.578	9437.55
489.948	9553.03
490.318	9654.72
490.688	9770.2
491.058	9855.39
491.428	9937.42
491.798	10152.78
492.168	10316.4
492.538	10400.46
492.908	10465.32
493.278	10621.7
493.648	10661.47
494.017	10860.56
494.387	10888.58
494.757	11037.51
495.126	11086.32
495.496	11244.96
495.866	11252.64
496.235	11385.52
496.605	11555.01
496.974	11551.17
497.344	11738.05
497.713	11694.89
498.082	11942.79
498.452	12000.64
498.821	12129.91
499.19	12216.68
499.559	12199.28
499.928	12317.25
500.298	12501.42
500.667	12625.94
501.036	12624.13
501.405	12705.03
501.774	12823.9
502.143	12912.94
502.512	13064.35
502.88	13145.93
503.249	13209.88
503.618	13320.61
503.987	13286.49
504.356	13530.1
504.724	13486.71
505.093	13630.66
505.462	13693.71
505.83	13785.68
506.199	13900.48
506.567	14005.11
506.936	14088.95
507.304	14287.14
507.672	14330.75
508.041	14464.53
508.409	14506.79
508.777	14705.21
509.145	14780.23
509.514	14856.39
509.882	15015.25
510.25	15091.19
510.618	15161.69
510.986	15301.58
511.354	15375.47
511.722	15531.4
512.09	15649.36
512.458	15622.47
512.826	15778.85
513.193	15942.46
513.561	15983.82
513.929	16121.44
514.297	16257.26
514.664	16333.19
515.032	16533.41
515.4	16605.95
515.767	16662.9
516.135	16833.51
516.502	16824.92
516.869	17106.27
517.237	17143.79
517.604	17159.15
517.972	17417
518.339	17509.2
518.706	17558.24
519.073	17671.68
519.44	17841.4
519.808	18032.12
520.175	18070.77
520.542	18249.29
520.909	18402.51
521.276	18444.09
521.643	18662.84
522.009	18725.44
522.376	18841.37
522.743	18974.47
523.11	19187.12
523.477	19354.35
523.843	19489.04
524.21	19778.07
524.577	19838.86
524.943	19922.7
525.31	20108.23
525.676	20251.05
526.043	20293.08
526.409	20420.99
526.776	20605.16
527.142	20770.36
527.508	20853.75
527.874	21031.14
528.241	21148.43
528.607	21225.49
528.973	21432.04
529.339	21457.12
529.705	21695.76
530.071	21850.1
530.437	21881.06
530.803	22109.53
531.169	22235.63
531.535	22162.64
531.901	22437.66
532.267	22441.73
532.632	22566.69
532.998	22721.04
533.364	22844.88
533.73	22909.28
534.095	23154.93
534.461	23233.8
534.826	23394.02
535.192	23363.51
535.557	23558.53
535.923	23518.76
536.288	23597.4
536.653	23789.04
537.019	23740.45
537.384	23880.11
537.749	24007.79
538.114	24097.05
538.479	24206.88
538.845	24300.21
539.21	24264.73
539.575	24387.21
539.94	24483.03
540.305	24700.88
540.67	24579.75
541.034	24787.2
541.399	24985.16
541.764	25097.7
542.129	25088.66
542.494	25123.69
542.858	25341.54
543.223	25234.87
543.587	25514.64
543.952	25488.65
544.316	25582.89
544.681	25687.52
545.045	25850
545.41	25999.15
545.774	26119.6
546.138	26165.7
546.503	26191.01
546.867	26289.99
547.231	26489.3
547.595	26549.87
547.959	26626.02
548.324	26609.98
548.688	26832.35
549.052	26861.27
549.416	26960.7
549.779	26966.13
550.143	27106.24
550.507	27353.24
550.871	27456.74
551.235	27507.81
551.599	27755.26
551.962	27809.27
552.326	27888.14
552.689	28143.72
553.053	28099.88
553.417	28173.78
553.78	28463.94
554.143	28368.8
554.507	28722.24
554.87	28744.61
555.234	29062.34
555.597	28868.9
555.96	29049.91
556.323	29178.95
556.686	29387.31
557.05	29554.31
557.413	29559.05
557.776	29526.51
558.139	29865.49
558.502	30011.7
558.865	29998.14
559.228	30286.49
559.59	30356.09
559.953	30479.71
560.316	30693.71
560.679	30781.39
561.041	30947.94
561.404	31241.27
561.767	31397.42
562.129	31294.15
562.492	31537.53
562.854	31502.96
563.217	31681.26
563.579	31847.58
563.941	32088.03
564.304	32102.26
564.666	32372.99
565.028	32324.18
565.39	32573.66
565.753	32701.57
566.115	32842.36
566.477	32955.8
566.839	33072.86
567.201	33312.4
567.563	33387.65
567.925	33590.81
568.287	33657.93
568.648	33778.15
569.01	33938.6
569.372	34103.34
569.734	34004.13
570.095	34245.48
570.457	34463.11
570.819	34393.5
571.18	34460.85
571.542	34607.06
571.903	34631.69
572.265	34821.06
572.626	35099.47
572.987	35017.21
573.349	35181.96
573.71	35312.57
574.071	35409.97
574.432	35447.49
574.794	35815.39
575.155	35602.28
575.516	35481.84
575.877	35738.33
576.238	35711.43
576.599	35960.24
576.96	35974.48
577.32	35975.38
577.681	36188.03
578.042	36216.05
578.403	36217.86
578.763	36147.58
579.124	36197.75
579.485	36354.13
579.845	36439.32
580.206	36381.02
580.566	36323.4
580.927	36473.67
581.287	36620.79
581.648	36449.95
582.008	36621.92
582.368	36626.66
582.728	36646.55
583.089	36689.94
583.449	36716.38
583.809	36771.74
584.169	36903.72
584.529	36761.35
584.889	37010.38
585.249	36788.69
585.609	36715.02
585.969	36981.91
586.329	36855.36
586.688	36958.41
587.048	36926.32
587.408	36836.83
587.768	36911.4
588.127	36805.19
588.487	36837.05
588.846	37144.84
589.206	36868.47
589.565	36793.67
589.925	36918.41
590.284	36933.77
590.643	37086.09
591.003	37082.7
591.362	37226.42
591.721	37028.69
592.08	37117.72
592.44	37105.3
592.799	37169.25
593.158	37173.99
593.517	37110.27
593.876	37269.59
594.235	37024.39
594.593	37160.89
594.952	37274.1
595.311	37107.78
595.67	37199.98
596.029	37477.94
596.387	37326.76
596.746	37398.17
597.104	37164.73
597.463	37314.78
597.822	37472.52
598.18	37300.09
598.538	37270.04
598.897	37510.26
599.255	37355.68
599.613	37864.37
599.972	37583.93
600.33	37669.57
600.688	37427.32
601.046	37632.74
601.404	37740.53
601.762	37602.23
602.12	37724.26
602.478	37820.08
602.836	37900.08
603.194	37615.56
603.552	37734.43
603.91	37710.25
604.268	37865.05
604.625	37810.81
604.983	38018.04
605.341	37848.78
605.698	37894.43
606.056	38047.19
606.413	37910.47
606.771	38134.87
607.128	38151.82
607.485	37969.23
607.843	38123.8
608.2	38342.33
608.557	38242.21
608.914	38110.69
609.272	38273.4
609.629	38382.32
609.986	38564.69
610.343	38387.3
610.7	38762.43
611.057	38641.98
611.414	38545.26
611.771	38607.4
612.127	38673.39
612.484	38657.12
612.841	38865.02
613.198	38707.29
613.554	38681.98
613.911	38921.29
614.267	38908.64
614.624	38849.66
614.98	39024.79
615.337	39070.67
615.693	39088.52
616.05	39046.04
616.406	39174.62
616.762	38909.77
617.118	39022.99
617.475	39016.88
617.831	39321.28
618.187	39217.1
618.543	39379.81
618.899	39437.66
619.255	39286.93
619.611	39262.75
619.967	39523.76
620.323	39554.04
620.678	39484.67
621.034	39354.5
621.39	39362.64
621.746	39384.11
622.101	39816.64
622.457	39513.14
622.812	39733.25
623.168	39727.15
623.523	39674.72
623.879	39772.57
624.234	39498.68
624.589	39717.66
624.945	39656.87
625.3	39708.84
625.655	39667.49
626.01	39585.23
626.365	39710.65
626.72	39648.96
627.075	39522.86
627.43	39602.63
627.785	39521.05
628.14	39670.88
628.495	39689.41
628.85	39678.34
629.205	39557.66
629.559	39737.54
629.914	39617.32
630.269	39698
630.623	39477.66
630.978	39342.3
631.332	39559.92
631.687	39640.6
632.041	39356.99
632.396	39560.15
632.75	39266.37
633.104	39321.96
633.459	39176.88
633.813	39203.77
634.167	39181.4
634.521	39141.17
634.875	39213.49
635.229	39142.53
635.583	39000.16
635.937	39121.97
636.291	38949.09
636.645	38956.32
636.999	38836.78
637.352	39031.12
637.706	38859.15
638.06	38815.08
638.413	38818.92
638.767	38764.46
639.121	38714.74
639.474	38457.12
639.828	38492.83
640.181	38599.04
640.534	38585.71
640.888	38396.56
641.241	38321.31
641.594	38344.13
641.947	38479.5
642.301	38243.57
642.654	38336
643.007	38351.14
643.36	38286.06
643.713	38248.32
644.066	38279.28
644.419	37964.71
644.771	37818.27
645.124	37388.68
645.477	37446.76
645.83	37207.21
646.182	37053.77
646.535	36928.13
646.888	37012.87
647.24	36958.86
647.593	37018.29
647.945	36904.4
648.298	36929.03
648.65	36773.78
649.002	36615.82
649.355	36797.06
649.707	36634.35
650.059	36838.86
650.411	37190.49
650.763	37182.81
651.115	37627.54
651.467	37394.78
651.819	37459.86
652.171	37252.41
652.523	37265.74
652.875	37187.1
653.227	37080.21
653.578	37260.09
653.93	37223.03
654.282	37089.93
654.633	36952.31
654.985	37061.23
655.337	37045.64
655.688	37150.72
656.039	37212.19
656.391	36829.82
656.742	36919.09
657.094	36918.86
657.445	36963.38
657.796	36999.54
658.147	36920.44
658.498	36821.91
658.849	36900.33
659.2	36947.79
659.551	36732.2
659.902	36897.17
660.253	36699.43
660.604	36731.52
660.955	36707.79
661.306	36679.54
661.656	36521.81
662.007	36626.66
662.358	36590.73
662.708	36536.04
663.059	36594.35
663.409	36363.85
663.76	36618.75
664.11	36622.14
664.461	36529.49
664.811	36538.3
665.161	36445.43
665.511	36355.71
665.862	36443.62
666.212	36583.5
666.562	36530.4
666.912	36417.4
667.262	36410.17
667.612	36425.31
667.962	36454.92
668.312	36281.36
668.662	36453.34
669.011	36321.81
669.361	36200.69
669.711	36193.68
670.06	36085.66
670.41	36112.33
670.76	36135.38
671.109	36239.1
671.459	36050.18
671.808	36071.65
672.157	36129.95
672.507	35908.72
672.856	35950.75
673.205	35996.62
673.554	35977.19
673.904	35836.18
674.253	35961.37
674.602	35873.01
674.951	35434.38
675.3	35211.11
675.649	35803.86
675.998	35642.06
676.346	35685.45
676.695	35840.24
677.044	35528.39
677.393	35584.88
677.741	35554.6
678.09	35535.62
678.438	35508.73
678.787	35448.39
679.135	35539.24
679.484	35220.83
679.832	35376.53
680.181	35206.81
680.529	35171.79
680.877	35061.28
681.225	35123.43
681.573	35330.88
681.922	35001.17
682.27	34919.14
682.618	34976.76
682.966	34871.46
683.314	34839.37
683.661	34827.39
684.009	34722.08
684.357	34588.75
684.705	34478.47
685.053	34615.87
685.4	34474.63
685.748	34329.55
686.095	34371.81
686.443	34071.93
686.79	34034.42
687.138	34252.72
687.485	34196.22
687.832	34069.44
688.18	34154.41
688.527	33839.39
688.874	33742.22
689.221	33721.66
689.568	33480.76
689.915	33392.62
690.262	33621.55
690.609	33349.69
690.956	33297.03
691.303	33303.36
691.65	33176.81
691.997	33013.65
692.344	32919.87
692.69	32895.46
693.037	33005.06
693.383	32553.1
693.73	32760.78
694.077	32551.52
694.423	32436.72
694.769	32412.99
695.116	32341.35
695.462	32379.09
695.808	32158.08
696.155	32384.06
696.501	32095.48
696.847	31934.81
697.193	31772.55
697.539	31692.56
697.885	31669.96
698.231	31610.52
698.577	31541.6
698.923	31535.95
699.269	31447.59
699.614	31301.83
699.96	31223.42
700.306	31186.36
700.651	30906.81
700.997	31055.74
701.342	30818.68
701.688	30908.4
702.033	30689.65
702.379	30739.81
702.724	30632.02
703.069	30758.34
703.415	30248.3
703.76	30383.66
704.105	30303.67
704.45	30311.58
704.795	30096.44
705.14	29919.95
705.485	29928.31
705.83	29755.88
706.175	29879.95
706.52	29843.57
706.865	29603.12
707.209	29607.64
707.554	29551.14
707.899	29618.71
708.243	29368.32
708.588	29314.54
708.932	29195.9
709.277	29190.48
709.621	29051.04
709.966	28892.63
710.31	29097.37
710.654	28799.75
710.998	28858.28
711.342	28773.76
711.687	28646.99
712.031	28622.58
712.375	28587.55
712.719	28610.38
713.063	28483.38
713.407	28597.95
713.75	28425.3
714.094	28456.03
714.438	28407.45
714.782	28279.31
715.125	28072.09
715.469	28235.47
715.812	28061.47
716.156	27936.27
716.499	27959.32
716.843	28020.79
717.186	27923.84
717.53	27913.45
717.873	27994.35
718.216	27769.27
718.559	27611.08
718.902	27563.63
719.246	27527.92
719.589	27437.3
719.932	27382.84
720.275	27418.54
720.617	27503.06
720.96	27333.12
721.303	27188.72
721.646	27294.48
721.989	27125.44
722.331	27266.23
722.674	27202.28
723.016	27110.53
723.359	27095.39
723.701	26961.38
724.044	26921.38
724.386	26685
724.729	26878.22
725.071	26781.95
725.413	26805.45
725.755	26755.96
726.097	26610.88
726.439	26511.45
726.782	26506.48
727.124	26635.97
727.465	26472.13
727.807	26416.09
728.149	26368.4
728.491	26427.38
728.833	26301.96
729.175	26304.68
729.516	26118.47
729.858	26091.8
730.199	26072.14
730.541	26100.16
730.882	25968.64
731.224	26013.84
731.565	25877.12
731.906	25818.59
732.248	25881.41
732.589	25904.69
732.93	25704.47
733.271	25730.68
733.612	25729.32
733.953	25716.67
734.294	25589.89
734.635	25462.66
734.976	25531.59
735.317	25420.41
735.658	25441.2
735.999	25525.71
736.339	25410.69
736.68	25476.9
737.021	25274.19
737.361	25174.99
737.702	25408.88
738.042	25337.92
738.383	25265.61
738.723	25183.58
739.063	25062.67
739.404	25095.89
739.744	25087.31
740.084	24882.11
740.424	24945.62
740.764	24986.29
741.104	25043.01
741.444	24834.66
741.784	24915.79
742.124	24895.67
742.464	24905.39
742.804	24796.24
743.143	24819.06
743.483	24805.73
743.823	24555.57
744.162	24504.72
744.502	24508.11
744.841	24503.59
745.181	24479.19
745.52	24476.7
745.86	24499.98
746.199	24382.92
746.538	24398.96
746.877	24385.63
747.216	24248.01
747.556	24167.33
747.895	24187.22
748.234	24106.32
748.573	24008.92
748.911	24028.13
749.25	24021.12
749.589	23849.37
749.928	23943.16
750.267	24008.69
750.605	23723.05
750.944	23751.07
751.283	23820.22
751.621	23866.77
751.96	23535.03
752.298	23579.55
752.636	23589.72
752.975	23421.14
753.313	23419.1
753.651	23527.57
753.989	23291.65
754.327	23301.59
754.666	23169.39
755.004	23220.01
755.342	23137.08
755.679	23156.28
756.017	23050.52
756.355	23004.65
756.693	22960.58
757.031	23026.8
757.368	22855.5
757.706	22839
758.044	22708.39
758.381	22753.36
758.719	22557.2
759.056	22593.81
759.394	22523.31
759.731	22420.03
760.068	22348.4
760.405	22233.14
760.743	22272.47
761.08	22313.37
761.417	22123.99
761.754	22126.48
762.091	22082.41
762.428	22003.77
762.765	21844.45
763.102	21942.08
763.438	21811.46
763.775	21715.64
764.112	21638.81
764.449	21636.78
764.785	21508.64
765.122	21356.33
765.458	21287.41
765.795	21289.89
766.131	21272.49
766.467	21282.89
766.804	21083.8
767.14	20925.38
767.476	20955.89
767.812	20920.18
768.148	20944.82
768.485	20696.24
768.821	20656.46
769.157	20590.7
769.492	20555.9
769.828	20569.01
770.164	20456.92
770.5	20307.55
770.836	20317.49
771.171	20210.6
771.507	20182.58
771.842	19917.5
772.178	19995.91
772.513	19914.56
772.849	19957.05
773.184	19847.22
773.519	19772.42
773.855	19625.76
774.19	19551.63
774.525	19487.45
774.86	19557.73
775.195	19405.2
775.53	19325.65
775.865	19284.3
776.2	19129.27
776.535	18930.41
776.87	18977.86
777.205	18832.78
777.539	18813.12
777.874	18900.58
778.209	18670.53
778.543	18640.92
778.878	18586.46
779.212	18541.49
779.547	18452
779.881	18499.01
780.215	18359.12
780.55	18403.19
780.884	18184.21
781.218	18185.79
781.552	18182.18
781.886	18139.92
782.22	17904.9
782.554	17949.42
782.888	17754.62
783.222	17685.92
783.556	17668.97
783.889	17546.04
784.223	17446.38
784.557	17488.86
784.89	17471.46
785.224	17377.23
785.557	17352.37
785.891	17193.73
786.224	17166.16
786.558	17179.04
786.891	16962.32
787.224	16941.76
787.557	16970.23
787.891	16783.8
788.224	16845.94
788.557	16784.93
788.89	16705.61
789.223	16734.53
789.556	16600.98
789.888	16556.01
790.221	16454.54
790.554	16374.99
790.887	16403.02
791.219	16199.18
791.552	16295.22
791.884	16192.85
792.217	16056.13
792.549	16111.72
792.882	15905.63
793.214	15855.23
793.546	15906.98
793.879	15825.86
794.211	15684.16
794.543	15710.6
794.875	15685.07
795.207	15653.43
795.539	15516.48
795.871	15677.38
796.203	15490.27
796.535	15359.43
796.867	15369.14
797.198	15351.07
797.53	15357.17
797.862	15202.82
798.193	15194.91
798.525	15047.8
798.856	15231.52
799.188	14970.96
799.519	14963.96
799.85	14792.44
800.182	14863.62
800.513	14875.37
800.844	14693.46
801.175	14823.85
801.506	14738.43
801.837	14761.93
802.168	14669.28
802.499	14584.98
802.83	14455.04
803.161	14486
803.491	14492.78
803.822	14516.51
804.153	14368.94
804.483	14317.42
804.814	14288.95
805.145	14269.06
805.475	14267.93
805.805	14168.5
806.136	14168.05
806.466	14140.93
806.796	14111.55
807.126	14003.98
807.457	13937.09
807.787	13944.55
808.117	13886.25
808.447	13853.7
808.777	13913.81
809.107	13810.54
809.436	13714.95
809.766	13747.27
810.096	13678.79
810.426	13610.77
810.755	13653.48
811.085	13561.73
811.414	13535.52
811.744	13432.47
812.073	13446.71
812.403	13455.97
812.732	13305.7
813.061	13344.11
813.39	13277.67
813.719	13305.02
814.049	13299.14
814.378	13299.14
814.707	13185.7
815.036	13114.51
815.365	13059.83
815.693	12935.54
816.022	12993.61
816.351	12874.52
816.68	12876.55
817.008	12889.44
817.337	12815.76
817.665	12787.29
817.994	12794.07
818.322	12822.32
818.651	12793.62
818.979	12682.66
819.307	12779.61
819.636	12654.19
819.964	12578.93
820.292	12630.68
820.62	12678.82
820.948	12623.23
821.276	12578.93
821.604	12567.18
821.932	12638.37
822.259	12611.48
822.587	12611.02
822.915	12550.91
823.243	12545.49
823.57	12537.58
823.898	12549.56
824.225	12509.33
824.553	12521.31
824.88	12517.47
825.207	12515.89
825.535	12527.41
825.862	12463.46
826.189	12452.84
826.516	12473.63
826.843	12559.5
827.17	12551.82
827.497	12540.52
827.824	12554.98
828.151	12572.38
828.478	12525.15
828.805	12566.51
829.131	12507.52
829.458	12539.84
829.785	12402.44
830.111	12424.81
830.438	12502.33
830.764	12439.73
831.09	12548.88
831.417	12385.72
831.743	12502.33
832.069	12370.35
832.395	12387.3
832.722	12448.77
833.048	12394.08
833.374	12340.75
833.7	12390.69
834.026	12334.87
834.351	12440.41
834.677	12291.26
835.003	12312.05
835.329	12296.91
835.654	12279.96
835.98	12246.74
836.306	12254.42
836.631	12240.41
836.956	12151.15
837.282	12278.6
837.607	12110.47
837.932	12094.43
838.258	12103.92
838.583	12159.28
838.908	12054.65
839.233	12018.27
839.558	12061.89
839.883	11960.65
840.208	11937.6
840.533	11968.56
840.858	11987.31
841.182	11954.09
841.507	11950.25
841.832	11877.26
842.156	11884.72
842.481	11842.68
842.805	11845.17
843.13	11785.28
843.454	11745.74
843.778	11690.37
844.103	11664.16
844.427	11633.42
844.751	11635.23
845.075	11604.5
845.399	11615.8
845.723	11549.58
846.047	11532.41
846.371	11418.74
846.695	11404.28
847.019	11318.18
847.343	11237.5
847.666	11272.3
847.99	11134.68
848.313	11093.78
848.637	11091.06
848.96	11015.13
849.284	11076.15
849.607	11023.5
849.931	10953.89
850.254	10841.35
850.577	10779.66
850.9	10780.56
851.223	10768.59
851.546	10635.03
851.869	10649.72
852.192	10664.18
852.515	10593.22
852.838	10562.26
853.161	10607.91
853.483	10492.89
853.806	10413.12
854.129	10429.61
854.451	10353.23
854.774	10291.31
855.096	10213.57
855.419	10326.11
855.741	10294.93
856.063	10171.31
856.385	10193.23
856.708	10173.57
857.03	10079.57
857.352	10105.33
857.674	10038.89
857.996	10102.16
858.318	9951.89
858.64	9979
858.961	9916.86
859.283	9903.98
859.605	9880.7
859.926	9832.79
860.248	9853.58
860.57	9796.86
860.891	9841.15
861.212	9690.42
861.534	9725.9
861.855	9722.51
862.176	9743.53
862.498	9638.22
862.819	9634.61
863.14	9561.61
863.461	9603.42
863.782	9599.13
864.103	9629.18
864.424	9557.09
864.745	9618.79
865.065	9509.86
865.386	9419.7
865.707	9456.76
866.027	9471.9
866.348	9418.11
866.668	9521.84
866.989	9420.83
867.309	9343.77
867.63	9354.16
867.95	9437.32
868.27	9285.69
868.59	9345.8
868.91	9356.42
869.23	9315.74
869.55	9227.38
869.87	9341.05
870.19	9313.03
870.51	9231.9
870.83	9264.22
871.15	9192.36
871.469	9241.62
871.789	9197.78
872.109	9255.41
872.428	9109.87
872.748	9175.18
873.067	9148.74
873.386	9117.33
873.706	9149.65
874.025	9143.77
874.344	9040.04
874.663	9074.62
874.982	9041.4
875.301	9070.33
875.62	9045.47
875.939	9034.4
876.258	9008.41
876.577	8956.21
876.896	8950.78
877.214	8878.47
877.533	8962.53
877.852	8869.88
878.17	8932.7
878.489	8849.32
878.807	8870.33
879.125	8894.51
879.444	8855.19
879.762	8816.55
880.08	8798.02
880.398	8709.66
880.716	8759.83
881.034	8760.05
881.352	8795.76
881.67	8755.98
881.988	8759.83
882.306	8650.68
882.624	8593.95
882.941	8628.76
883.259	8576.55
883.577	8581.75
883.894	8528.65
884.212	8557.35
884.529	8535.88
884.846	8508.76
885.164	8480.74
885.481	8541.98
885.798	8547.63
886.115	8372.04
886.432	8405.71
886.75	8393.96
887.067	8383.34
887.383	8343.34
887.7	8335.43
888.017	8290.91
888.334	8283.45
888.651	8329.1
888.967	8258.14
889.284	8207.75
889.6	8274.87
889.917	8166.62
890.233	8134.08
890.55	8111.03
890.866	8114.87
891.182	8120.75
891.498	8083.69
891.815	8058.15
892.131	8014.99
892.447	7984.25
892.763	7949.23
893.079	7919.17
893.395	7918.27
893.71	7910.81
894.026	7811.38
894.342	7803.69
894.657	7761.43
894.973	7809.79
895.289	7773.19
895.604	7766.18
895.92	7663.81
896.235	7679.63
896.55	7685.28
896.865	7620.42
897.181	7593.08
897.496	7633.08
897.811	7533.64
898.126	7600.53
898.441	7535.9
898.756	7473.08
899.071	7460.65
899.386	7504.04
899.7	7371.61
900.015	7427.21
900.33	7327.77
900.644	7300.66
900.959	7328.9
901.273	7301.79
901.588	7283.71
901.902	7240.77
902.216	7148.57
902.531	7141.79
902.845	7133.43
903.159	7096.82
903.473	7134.33
903.787	7029.93
904.101	7030.61
904.415	7023.83
904.729	7047.55
905.042	6982.25
905.356	6934.11
905.67	6963.04
905.984	7020.21
906.297	6905.41
906.611	6779.31
906.924	6830.16
907.237	6865.41
907.551	6812.98
907.864	6754.46
908.177	6675.36
908.491	6702.48
908.804	6685.53
909.117	6643.05
909.43	6619.09
909.743	6598.53
910.056	6555.59
910.368	6532.99
910.681	6534.57
910.994	6473.78
911.307	6448.93
911.619	6436.5
911.932	6422.94
912.244	6371.64
912.557	6368.7
912.869	6344.3
913.181	6264.52
913.494	6250.97
913.806	6267.69
914.118	6203.06
914.43	6197.63
914.742	6189.5
915.054	6130.74
915.366	6148.82
915.678	6090.52
915.99	6070.18
916.302	6020.92
916.613	5993.8
916.925	5963.06
917.236	5997.86
917.548	5930.97
917.859	5910.86
918.171	5838.1
918.482	5838.55
918.794	5890.75
919.105	5829.06
919.416	5774.82
919.727	5816.4
920.038	5705.67
920.349	5754.71
920.66	5728.95
920.971	5669.51
921.282	5681.26
921.593	5666.35
921.903	5588.61
922.214	5544.32
922.525	5574.6
922.835	5520.36
923.146	5518.56
923.456	5453.92
923.767	5481.04
924.077	5441.72
924.387	5460.25
924.697	5417.54
925.008	5383.19
925.318	5368.73
925.628	5310.43
925.938	5373.47
926.248	5279.01
926.558	5266.58
926.867	5318.33
927.177	5224.1
927.487	5220.03
927.796	5194.5
928.106	5149.98
928.416	5163.54
928.725	5119.02
929.034	5093.71
929.344	5037.66
929.653	5060.26
929.962	5019.59
930.271	5005.12
930.581	4992.47
930.89	4948.17
931.199	4917.89
931.508	4930.77
931.817	4930.32
932.125	4928.06
932.434	4928.29
932.743	4827.27
933.051	4815.07
933.36	4788.18
933.669	4742.08
933.977	4702.08
934.286	4771.46
934.594	4735.3
934.902	4700.95
935.21	4638.58
935.519	4666.6
935.827	4661.4
936.135	4591.35
936.443	4607.39
936.751	4618.69
937.059	4588.41
937.367	4535.08
937.674	4508.86
937.982	4533.27
938.29	4481.97
938.597	4509.54
938.905	4446.27
939.213	4419.6
939.52	4426.15
939.827	4371.47
940.135	4334.41
940.442	4363.11
940.749	4337.57
941.056	4350.68
941.363	4290.57
941.67	4296.67
941.977	4283.33
942.284	4228.19
942.591	4249.66
942.898	4178.7
943.205	4167.63
943.511	4211.25
943.818	4181.42
944.125	4143.68
944.431	4126.05
944.738	4149.55
945.044	4104.58
945.35	4100.97
945.657	4044.02
945.963	4046.96
946.269	4009.22
946.575	3952.72
946.881	3936.9
947.187	3996.11
947.493	3979.61
947.799	3944.81
948.105	3884.47
948.41	3899.39
948.716	3897.81
949.022	3883.34
949.327	3849.9
949.633	3782.33
949.938	3836.34
950.244	3835.89
950.549	3762.67
950.854	3770.8
951.16	3756.57
951.465	3701.88
951.77	3717.7
952.075	3697.36
952.38	3652.62
952.685	3669.79
952.99	3638.38
953.294	3613.97
953.599	3617.81
953.904	3626.63
954.209	3592.5
954.513	3592.05
954.818	3566.06
955.122	3548.66
955.426	3531.26
955.731	3536.91
956.035	3509.34
956.339	3499.4
956.643	3447.2
956.948	3434.09
957.252	3458.27
957.556	3440.42
957.86	3418.5
958.163	3421.21
958.467	3424.83
958.771	3333.75
959.075	3355.9
959.378	3338.27
959.682	3351.61
959.985	3330.36
960.289	3294.89
960.592	3332.4
960.896	3268.45
961.199	3262.8
961.502	3273.64
961.805	3233.42
962.108	3199.75
962.411	3213.76
962.714	3224.83
963.017	3193.42
963.32	3185.28
963.623	3152.74
963.926	3166.07
964.228	3135.79
964.531	3110.26
964.833	3064.83
965.136	3112.97
965.438	3075
965.741	3055.12
966.043	3077.72
966.345	3068.22
966.648	3007.66
966.95	3034.55
967.252	2984.16
967.554	2978.96
967.856	2971.73
968.158	2958.17
968.46	2933.99
968.761	2914.1
969.063	2914.1
969.365	2884.5
969.666	2872.3
969.968	2817.16
970.269	2839.53
970.571	2840.89
970.872	2842.69
971.174	2790.94
971.475	2830.72
971.776	2809.25
972.077	2821.23
972.378	2780.32
972.679	2775.58
972.98	2763.83
973.281	2781
973.582	2746.88
973.883	2728.12
974.183	2712.98
974.484	2696.03
974.785	2656.48
975.085	2705.3
975.386	2698.52
975.686	2673.66
975.986	2638.41
976.287	2623.04
976.587	2602.7
976.887	2591.4
977.187	2633.89
977.487	2604.96
977.787	2591.4
978.087	2567.45
978.387	2536.49
978.687	2566.32
978.987	2528.58
979.286	2540.78
979.586	2509.37
979.885	2499.2
980.185	2491.06
980.484	2472.31
980.784	2473.89
981.083	2440.9
981.382	2446.32
981.682	2425.3
981.981	2404.74
982.28	2443.38
982.579	2402.25
982.878	2390.95
983.177	2400.45
983.475	2376.04
983.774	2379.65
984.073	2352.99
984.372	2309.6
984.67	2309.6
984.969	2289.04
985.267	2309.83
985.566	2300.56
985.864	2277.28
986.162	2275.25
986.461	2277.51
986.759	2263.95
987.057	2229.15
987.355	2234.12
987.653	2214.69
987.951	2235.25
988.249	2201.35
988.547	2215.14
988.844	2168.36
989.142	2182.15
989.44	2163.39
989.737	2135.14
990.035	2157.29
990.332	2124.29
990.63	2126.55
990.927	2150.51
991.224	2113.9
991.521	2101.02
991.819	2070.74
992.116	2110.28
992.413	2092.2
992.71	2053.56
993.006	2062.38
993.303	2063.96
993.6	2025.31
993.897	2011.3
994.193	2013.56
994.49	2000.23
994.787	2001.13
995.083	1986.44
995.379	2001.36
995.676	1965.88
995.972	1948.25
996.268	1948.25
996.565	1967.91
996.861	1955.49
997.157	1934.92
997.453	1903.74
997.749	1893.79
998.044	1880.46
998.34	1881.81
998.636	1883.85
998.932	1862.83
999.227	1873.91
999.523	1858.54
999.818	1833.91
1000.114	1833.91
1000.409	1825.09
1000.704	1802.27
1001	1763.85
1001.295	1798.65
1001.59	1760.46
1001.885	1799.11
1002.18	1784.87
1002.475	1763.4
1002.77	1727.24
1003.065	1724.08
1003.359	1756.39
1003.654	1684.31
1003.949	1708.49
1004.243	1719.11
1004.538	1687.02
1004.832	1699.67
1005.127	1670.07
1005.421	1676.4
1005.715	1627.81
1006.009	1688.6
1006.304	1641.6
1006.598	1651.31
1006.892	1628.94
1007.186	1629.39
1007.48	1611.77
1007.773	1581.26
1008.067	1556.4
1008.361	1591.43
1008.655	1555.04
1008.948	1562.28
1009.242	1545.78
1009.535	1544.65
1009.829	1533.35
1010.122	1536.74
1010.415	1518.43
1010.708	1503.07
1011.001	1486.57
1011.295	1449.74
1011.588	1467.36
1011.881	1510.75
1012.173	1469.4
1012.466	1468.49
1012.759	1451.32
1013.052	1441.37
1013.344	1444.09
1013.637	1487.48
1013.93	1425.78
1014.222	1424.43
1014.514	1375.16
1014.807	1391.21
1015.099	1407.48
1015.391	1417.87
1015.683	1386.23
1015.976	1372.22
1016.268	1345.56
1016.56	1367.25
1016.851	1337.42
1017.143	1347.82
1017.435	1337.87
1017.727	1303.07
1018.018	1316.63
1018.31	1303.3
1018.602	1276.63
1018.893	1273.47
1019.185	1270.76
1019.476	1259.68
1019.767	1286.35
1020.058	1304.88
1020.35	1272.11
1020.641	1260.36
1020.932	1225.11
1021.223	1218.78
1021.514	1236.41
1021.804	1184.88
1022.095	1215.84
1022.386	1206.35
1022.677	1167.48
1022.967	1186.47
1023.258	1177.88
1023.548	1154.83
1023.839	1183.3
1024.129	1149.4
1024.419	1139.01
1024.709	1135.17
1025	1122.06
1025.29	1109.41
1025.58	1114.6
1025.87	1131.1
1026.16	1099.91
1026.449	1111.67
1026.739	1080.03
1027.029	1088.16
1027.319	1088.16
1027.608	1065.34
1027.898	1058.11
1028.187	1062.18
1028.477	1052.46
1028.766	1021.27
1029.055	1023.53
1029.344	1030.99
1029.634	1001.16
1029.923	1007.94
1030.212	994.83
1030.501	1007.94
1030.79	999.8
1031.078	1003.19
1031.367	973.36
1031.656	980.14
1031.945	972.46
1032.233	966.81
1032.522	987.15
1032.81	955.29
1033.099	945.12
1033.387	969.52
1033.675	920.71
1033.963	940.82
1034.251	942.18
1034.54	914.16
1034.828	901.5
1035.116	912.8
1035.403	899.69
1035.691	903.31
1035.979	878.9
1036.267	874.38
1036.554	866.93
1036.842	860.6
1037.129	874.61
1037.417	851.79
1037.704	847.72
1037.992	849.07
1038.279	854.72
1038.566	842.75
1038.853	842.75
1039.14	842.75
