Data from white_poster_card_FLMS001491_00059.txt Node
Date: Wed Feb 08 11:51:43 GMT 2017
User: dcchb
Spectrometer: FLMS00149
Trigger mode: 0
Integration Time (sec): 2.000000E-2
Scans to average: 10
Electric dark correction enabled: true
Nonlinearity correction enabled: false
Boxcar width: 0
XAxis mode: Wavelengths
Number of Pixels in Spectrum: 2048
>>>>>Begin Spectral Data<<<<<
341.393	-12.37
341.776	-12.37
342.16	-12.37
342.543	-67.51
342.927	-60.96
343.31	-73.61
343.693	-81.52
344.077	-63.9
344.46	-58.02
344.843	-49.89
345.226	-42.65
345.61	-22.99
345.993	-14.63
346.376	-4.69
346.759	9.1
347.142	9.77
347.525	30.56
347.908	55.2
348.291	78.25
348.674	106.27
349.057	122.77
349.44	145.59
349.823	141.97
350.206	151.92
350.588	188.53
350.971	245.25
351.354	215.19
351.737	224.68
352.119	251.58
352.502	265.81
352.884	280.73
353.267	286.38
353.65	284.12
354.032	299.26
354.414	283.21
354.797	316.66
355.179	317.56
355.562	313.49
355.944	335.19
356.326	333.83
356.709	331.35
357.091	333.16
357.473	343.1
357.855	335.64
358.238	345.13
358.62	322.31
359.002	329.77
359.384	355.75
359.766	336.09
360.148	342.87
360.53	329.31
360.912	351.46
361.294	338.8
361.676	325.7
362.057	314.17
362.439	346.94
362.821	339.71
363.203	315.3
363.584	323.21
363.966	319.82
364.348	325.25
364.729	298.58
365.111	306.49
365.493	314.17
365.874	341.29
366.256	321.4
366.637	326.83
367.019	329.31
367.4	318.92
367.781	323.66
368.163	306.49
368.544	301.29
368.925	316.43
369.306	308.97
369.688	316.21
370.069	308.07
370.45	299.26
370.831	321.63
371.212	340.61
371.593	330.9
371.974	307.39
372.355	310.78
372.736	323.44
373.117	343.55
373.498	324.12
373.879	302.42
374.26	318.24
374.641	302.2
375.021	299.94
375.402	325.92
375.783	319.6
376.163	318.92
376.544	331.35
376.925	314.85
377.305	341.52
377.686	340.84
378.066	333.38
378.447	333.16
378.827	315.08
379.208	338.8
379.588	354.17
379.968	340.16
380.349	346.71
380.729	333.38
381.109	325.92
381.489	340.16
381.87	352.59
382.25	340.84
382.63	359.14
383.01	353.49
383.39	347.17
383.77	379.93
384.15	353.04
384.53	350.56
384.91	366.37
385.29	335.87
385.67	330.67
386.049	360.95
386.429	350.56
386.809	376.09
387.189	371.8
387.568	360.5
387.948	357.11
388.328	383.32
388.707	392.36
389.087	373.61
389.466	380.61
389.846	394.17
390.225	377.45
390.605	391.68
390.984	380.39
391.363	367.73
391.743	382.19
392.122	380.84
392.501	386.26
392.881	409.09
393.26	398.01
393.639	400.27
394.018	419.71
394.397	412.02
394.776	420.38
395.155	417.67
395.534	438.24
395.913	417.45
396.292	419.71
396.671	428.52
397.05	428.07
397.429	423.1
397.808	434.17
398.186	425.13
398.565	448.86
398.944	424.9
399.323	449.76
399.701	440.72
400.08	443.66
400.458	465.81
400.837	470.78
401.215	467.39
401.594	464
401.972	464
402.351	466.03
402.729	451.8
403.107	483.21
403.486	453.83
403.864	478.01
404.242	474.17
404.62	492.25
404.999	496.31
405.377	489.08
405.755	513.49
406.133	487.73
406.511	496.77
406.889	488.41
407.267	518.46
407.645	531.12
408.023	548.06
408.401	541.06
408.779	542.42
409.156	564.56
409.534	565.92
409.912	557.1
410.29	594.17
410.667	614.96
411.045	611.34
411.422	631.45
411.8	623.99
412.178	636.2
412.555	675.97
412.933	656.08
413.31	681.17
413.687	680.49
414.065	688.63
414.442	729.75
414.819	727.49
415.197	740.38
415.574	765.46
415.951	771.34
416.328	793.48
416.705	792.58
417.082	794.84
417.46	818.57
417.837	835.51
418.214	831.67
418.591	871.9
418.967	878.23
419.344	909.64
419.721	923.87
420.098	912.35
420.475	943.53
420.852	944.21
421.228	953.93
421.605	976.3
421.982	970.2
422.358	1004.55
422.735	1017.43
423.111	1000.48
423.488	1047.71
423.864	1059.24
424.241	1063.76
424.617	1075.28
424.994	1074.6
425.37	1108.95
425.746	1107.82
426.123	1120.7
426.499	1142.63
426.875	1160.03
427.251	1185.56
427.627	1228.05
428.003	1230.08
428.379	1240.7
428.756	1258.55
429.132	1255.84
429.507	1286.12
429.883	1321.15
430.259	1342.85
430.635	1362.96
431.011	1365.22
431.387	1402.73
431.763	1426.46
432.138	1443.18
432.514	1467.36
432.89	1459.68
433.265	1532.9
433.641	1505.33
434.016	1541.48
434.392	1523.41
434.767	1577.87
435.143	1568.83
435.518	1609.51
435.894	1627.81
436.269	1638.21
436.644	1665.32
437.02	1652.44
437.395	1673.91
437.77	1727.47
438.145	1750.07
438.52	1760.01
438.895	1799.11
439.271	1769.5
439.646	1809.73
440.021	1811.08
440.395	1823.74
440.77	1836.17
441.145	1851.31
441.52	1863.51
441.895	1870.06
442.27	1920.23
442.645	1903.51
443.019	1906.9
443.394	1919.55
443.769	1966.11
444.143	1924.98
444.518	1978.76
444.892	1980.57
445.267	1997.29
445.641	2005.65
446.016	2009.95
446.39	2029.16
446.764	2066.89
447.139	2055.6
447.513	2080.23
447.887	2089.72
448.262	2097.18
448.636	2106.89
449.01	2125.2
449.384	2112.32
449.758	2165.65
450.132	2218.08
450.506	2208.36
450.88	2208.36
451.254	2249.04
451.628	2267.57
452.002	2267.57
452.376	2308.47
452.75	2315.25
453.123	2332.88
453.497	2373.55
453.871	2376.94
454.244	2436.38
454.618	2436.6
454.992	2472.31
455.365	2475.25
455.739	2543.49
456.112	2549.59
456.486	2592.76
456.859	2603.15
457.232	2654
457.606	2628.24
457.979	2672.75
458.352	2708.23
458.725	2757.95
459.099	2794.11
459.472	2836.14
459.845	2835.01
460.218	2886.53
460.591	2925.18
460.964	2899.87
461.337	2942.35
461.71	2987.77
462.083	3049.02
462.456	3079.52
462.829	3111.39
463.201	3122.46
463.574	3143.7
463.947	3184.15
464.32	3278.39
464.692	3260.76
465.065	3278.39
465.438	3359.74
465.81	3354.54
466.183	3423.47
466.555	3498.04
466.928	3522.9
467.3	3515.9
467.672	3576.23
468.045	3654.65
468.417	3673.18
468.789	3671.15
469.161	3752.27
469.534	3793.86
469.906	3867.53
470.278	3942.33
470.65	3941.2
471.022	4021.65
471.394	4083.11
471.766	4103.68
472.138	4121.3
472.51	4237.91
472.882	4326.95
473.253	4347.06
473.625	4404.23
473.997	4505.7
474.369	4507.28
474.74	4559.26
475.112	4651.69
475.484	4700.05
475.855	4830.89
476.227	4878.12
476.598	4971.45
476.97	5003.54
477.341	5103.88
477.713	5146.36
478.084	5198.56
478.455	5334.15
478.827	5387.26
479.198	5564.88
479.569	5504.54
479.94	5725.1
480.311	5740.92
480.682	5900.01
481.053	5941.82
481.424	6086.22
481.795	6125.77
482.166	6235.37
482.537	6331.19
482.908	6437.63
483.279	6500.9
483.65	6592.43
484.021	6741.8
484.391	6802.36
484.762	6900.67
485.133	6926.65
485.503	7070.15
485.874	7217.27
486.244	7281.22
486.615	7400.54
486.985	7457.71
487.356	7635.11
487.726	7648.44
488.097	7849.79
488.467	7878.72
488.837	8032.16
489.207	8151.71
489.578	8237.81
489.948	8235.32
490.318	8490.68
490.688	8424.92
491.058	8599.83
491.428	8712.14
491.798	8807.28
492.168	9014.73
492.538	9045.92
492.908	9148.97
493.278	9199.14
493.648	9248.63
494.017	9350.32
494.387	9489.52
494.757	9551.22
495.126	9709.86
495.496	9740.59
495.866	9780.14
496.235	9843.41
496.605	9937.65
496.974	10052.9
497.344	10138.32
497.713	10216.29
498.082	10229.84
498.452	10438.88
498.821	10449.27
499.19	10504.19
499.559	10587.12
499.928	10689.72
500.298	10812.65
500.667	10852.65
501.036	10873.22
501.405	10932.88
501.774	10993.67
502.143	11107.56
502.512	11181.23
502.88	11290.16
503.249	11303.26
503.618	11427.55
503.987	11485.4
504.356	11602.92
504.724	11608.11
505.093	11712.74
505.462	11702.35
505.83	11816.69
506.199	11946.41
506.567	12102.56
506.936	12129.46
507.304	12201.54
507.672	12253.07
508.041	12368.32
508.409	12432.72
508.777	12582.78
509.145	12693.28
509.514	12725.37
509.882	12866.38
510.25	12868.87
510.618	13005.36
510.986	13026.83
511.354	13166.04
511.722	13362.64
512.09	13407.84
512.458	13391.57
512.826	13523.77
513.193	13531.68
513.561	13612.13
513.929	13785.91
514.297	13919.46
514.664	14010.54
515.032	14064.55
515.4	14186.8
515.767	14294.14
516.135	14367.14
516.502	14306.12
516.869	14602.61
517.237	14675.6
517.604	14610.75
517.972	14746.34
518.339	14952.88
518.706	14985.43
519.073	15093.67
519.44	15192.43
519.808	15370.5
520.175	15406.43
520.542	15582.7
520.909	15693.2
521.276	15702.02
521.643	15836.7
522.009	15909.02
522.376	16135.9
522.743	16273.53
523.11	16475.56
523.477	16604.37
523.843	16664.03
524.21	16708.77
524.577	16924.58
524.943	16913.51
525.31	17142.2
525.676	17413.61
526.043	17301.52
526.409	17494.74
526.776	17718.23
527.142	17754.62
527.508	17917.1
527.874	18137.66
528.241	18101.5
528.607	18233.25
528.973	18414.26
529.339	18351.89
529.705	18648.83
530.071	18740.35
530.437	18843.63
530.803	18925.66
531.169	19068.03
531.535	19138.99
531.901	19218.31
532.267	19336.27
532.632	19409.26
532.998	19526.55
533.364	19582.14
533.73	19677.96
534.095	19831.85
534.461	19931.06
534.826	20013.77
535.192	20028.91
535.557	20231.39
535.923	20280.88
536.288	20360.2
536.653	20419.41
537.019	20348.67
537.384	20524.04
537.749	20610.59
538.114	20742.11
538.479	20766.29
538.845	20975.32
539.21	20850.81
539.575	21026.85
539.94	21111.37
540.305	21285.82
540.67	21290.57
541.034	21249.44
541.399	21417.57
541.764	21555.2
542.129	21500.06
542.494	21599.71
542.858	21803.1
543.223	21866.83
543.587	21932.14
543.952	21939.14
544.316	22088.29
544.681	21997.9
545.045	22074.73
545.41	22248.96
545.774	22258.23
546.138	22462.74
546.503	22555.17
546.867	22520.37
547.231	22666.58
547.595	22687.37
547.959	22777.08
548.324	22868.16
548.688	22934.59
549.052	22984.76
549.416	23053.46
549.779	23184.53
550.143	23210.75
550.507	23370.52
550.871	23521.7
551.235	23429.5
551.599	23667.23
551.962	23663.39
552.326	23691.41
552.689	23858.86
553.053	23811.63
553.417	23825.87
553.78	24298.85
554.143	24228.57
554.507	24205.07
554.87	24346.31
555.234	24648.22
555.597	24485.29
555.96	24645.51
556.323	24694.32
556.686	24792.4
557.05	24938.16
557.413	25069.91
557.776	25143.12
558.139	25292.72
558.502	25326.85
558.865	25438.26
559.228	25610.91
559.59	25740.85
559.953	25786.05
560.316	26129.54
560.679	26118.01
561.041	26157.79
561.404	26359.14
561.767	26482.07
562.129	26367.27
562.492	26733.14
562.854	26679.81
563.217	26837.77
563.579	26878.67
563.941	27030.98
564.304	27252
564.666	27326.34
565.028	27393.23
565.39	27428.71
565.753	27765.88
566.115	27767.46
566.477	27827.57
566.839	27824.64
567.201	28185.3
567.563	28192.08
567.925	28383.49
568.287	28384.85
568.648	28429.14
569.01	28622.13
569.372	28740.77
569.734	28799.75
570.095	29037.49
570.457	29106.18
570.819	29152.74
571.18	29137.6
571.542	29278.61
571.903	29373.52
572.265	29388.66
572.626	29513.86
572.987	29551.82
573.349	29661.42
573.71	29769.22
574.071	30102.99
574.432	30057.12
574.794	30163.56
575.155	30125.82
575.516	29997.01
575.877	30296.21
576.238	30324.68
576.599	30413.27
576.96	30372.37
577.32	30595.41
577.681	30631.79
578.042	30756.54
578.403	30728.29
578.763	30832.92
579.124	30770.77
579.485	30947.94
579.845	31083.98
580.206	30967.38
580.566	31071.78
580.927	31055.96
581.287	31174.38
581.648	30969.86
582.008	31179.35
582.368	31090.76
582.728	31189.29
583.089	31165.79
583.449	31029.52
583.809	31231.78
584.169	31217.99
584.529	31137.54
584.889	31375.05
585.249	31193.13
585.609	31159.01
585.969	31270.87
586.329	31166.92
586.688	31321.94
587.048	31309.52
587.408	31336.41
587.768	31327.59
588.127	31255.96
588.487	31191.78
588.846	31469.29
589.206	31286.69
589.565	31399.91
589.925	31486.91
590.284	31456.63
590.643	31470.42
591.003	31573.24
591.362	31612.33
591.721	31519
592.08	31524.2
592.44	31651.88
592.799	31617.08
593.158	31514.93
593.517	31565.33
593.876	31595.16
594.235	31587.25
594.593	31564.42
594.952	31632.67
595.311	31594.48
595.67	31596.06
596.029	31840.12
596.387	31757.64
596.746	31887.58
597.104	31708.83
597.463	31620.92
597.822	31913.12
598.18	31621.6
598.538	31760.35
598.897	31925.77
599.255	31622.28
599.613	32087.8
599.972	31958.09
600.33	32005.54
600.688	31886.45
601.046	31902.49
601.404	31993.34
601.762	32007.8
602.12	32234.01
602.478	32144.52
602.836	32207.35
603.194	31880.57
603.552	32222.26
603.91	32003.06
604.268	32148.14
604.625	32066.33
604.983	32243.73
605.341	32147.46
605.698	32316.04
606.056	32302.26
606.413	32287.57
606.771	32375.02
607.128	32477.39
607.485	32260
607.843	32410.05
608.2	32514.68
608.557	32688.01
608.914	32590.61
609.272	32756.94
609.629	32888.23
609.986	32917.16
610.343	32700.21
610.7	32961
611.057	32861.34
611.414	32911.96
611.771	32829.25
612.127	33051.16
612.484	32878.97
612.841	32955.57
613.198	32954.22
613.554	33072.18
613.911	33163.48
614.267	33099.98
614.624	33046.42
614.98	33230.37
615.337	33357.15
615.693	33244.83
616.05	33155.34
616.406	33387.43
616.762	33232.63
617.118	33295.23
617.475	33352.17
617.831	33464.04
618.187	33446.86
618.543	33457.48
618.899	33688.66
619.255	33594.65
619.611	33520.53
619.967	33665.39
620.323	33741.77
620.678	33558.5
621.034	33430.14
621.39	33483.92
621.746	33416.35
622.101	33919.62
622.457	33591.26
622.812	33576.35
623.168	33613.86
623.523	33684.82
623.879	33843.91
624.234	33503.58
624.589	33646.4
624.945	33731.6
625.3	33704.71
625.655	33706.06
626.01	33784.03
626.365	33750.36
626.72	33710.13
627.075	33688.89
627.43	33666.06
627.785	33459.52
628.14	33423.36
628.495	33654.54
628.85	33604.6
629.205	33435.11
629.559	33621.77
629.914	33503.13
630.269	33492.51
630.623	33409.57
630.978	33335.68
631.332	33424.49
631.687	33508.1
632.041	33351.72
632.396	33422.68
632.75	33255.23
633.104	33270.37
633.459	33191.73
633.813	33083.25
634.167	33109.47
634.521	33076.02
634.875	33186.98
635.229	33098.4
635.583	32936.14
635.937	32927.1
636.291	33022.47
636.645	32942.69
636.999	32885.75
637.352	32839.87
637.706	32734.56
638.06	32880.32
638.413	32629.26
638.767	32682.14
639.121	32783.38
639.474	32499.77
639.828	32384.74
640.181	32552.65
640.534	32545.19
640.888	32370.96
641.241	32291.41
641.594	32345.87
641.947	32331.64
642.301	32219.55
642.654	32219.32
643.007	32219.32
643.36	32293.44
643.713	32245.31
644.066	32260.23
644.419	32038.08
644.771	31857.3
645.124	31516.74
645.477	31447.82
645.83	31264.09
646.182	31083.76
646.535	31127.6
646.888	31088.96
647.24	30993.14
647.593	31207.15
647.945	30941.16
648.298	30733.71
648.65	30763.54
649.002	30615.52
649.355	30865.46
649.707	30775.07
650.059	30817.1
650.411	31209.86
650.763	31379.57
651.115	31573.92
651.467	31518.32
651.819	31541.37
652.171	31377.54
652.523	31310.42
652.875	31211.21
653.227	31139.35
653.578	31256.18
653.93	31262.74
654.282	31186.13
654.633	31006.25
654.985	31084.44
655.337	30983.42
655.688	31095.06
656.039	31165.56
656.391	30886.93
656.742	30994.95
657.094	30978.68
657.445	31109.75
657.796	30922.86
658.147	30859.58
658.498	30972.35
658.849	30929.41
659.2	30857.55
659.551	30707.72
659.902	30888.74
660.253	30801.73
660.604	30771.22
660.955	30611.45
661.306	30732.13
661.656	30639.48
662.007	30639.25
662.358	30697.33
662.708	30635.64
663.059	30651.45
663.409	30528.07
663.76	30632.92
664.11	30487.84
664.461	30650.55
664.811	30632.47
665.161	30591.57
665.511	30423.66
665.862	30426.38
666.212	30592.47
666.562	30556.09
666.912	30482.42
667.262	30332.37
667.612	30580.72
667.962	30476.09
668.312	30395.64
668.662	30507.28
669.011	30371.01
669.361	30351.35
669.711	30333.27
670.06	30345.25
670.41	30349.54
670.76	30224.57
671.109	30283.1
671.459	30204.69
671.808	30139.6
672.157	30205.14
672.507	29988.65
672.856	29963.56
673.205	30059.61
673.554	30119.72
673.904	29948.87
674.253	30184.8
674.602	30101.19
674.951	29560.41
675.3	29438.38
675.649	29952.49
675.998	29811.93
676.346	29841.08
676.695	29846.05
677.044	29677.69
677.393	29851.25
677.741	29772.16
678.09	29700.29
678.438	29654.42
678.787	29749.33
679.135	29695.09
679.484	29610.35
679.832	29625.94
680.181	29554.31
680.529	29574.42
680.877	29461.2
681.225	29474.76
681.573	29628.2
681.922	29299.85
682.27	29298.04
682.618	29354.76
682.966	29179.4
683.314	29247.88
683.661	29155.45
684.009	29023.7
684.357	28945.74
684.705	28985.28
685.053	29093.08
685.4	28907.77
685.748	28713.2
686.095	28779.41
686.443	28594.56
686.79	28670.49
687.138	28771.73
687.485	28591.62
687.832	28571.06
688.18	28594.11
688.527	28323.38
688.874	28300.56
689.221	28197.51
689.568	28182.59
689.915	28141.92
690.262	28150.95
690.609	28048.58
690.956	27946.21
691.303	27881.13
691.65	27806.78
691.997	27706.9
692.344	27561.37
692.69	27634.13
693.037	27508.26
693.383	27269.62
693.73	27419.22
694.077	27281.37
694.423	27336.29
694.769	27263.29
695.116	27202.51
695.462	27186.01
695.808	27004.32
696.155	27137.87
696.501	26774.04
696.847	26805.23
697.193	26644.33
697.539	26700.6
697.885	26521.17
698.231	26449.08
698.577	26519.81
698.923	26414.96
699.269	26185.81
699.614	26142.19
699.96	26075.76
700.306	26079.6
700.651	25994.85
700.997	26009.77
701.342	25862.43
701.688	25782.66
702.033	25802.77
702.379	25641.64
702.724	25646.84
703.069	25691.58
703.415	25393.51
703.76	25377.69
704.105	25380.18
704.45	25245.95
704.795	25139.51
705.14	25160.98
705.485	25029.45
705.83	25010.7
706.175	24949.23
706.52	24924.82
706.865	24868.56
707.209	24789.91
707.554	24736.13
707.899	24603.48
708.243	24513.54
708.588	24456.14
708.932	24343.82
709.277	24260.21
709.621	24272.64
709.966	24291.4
710.31	24301.79
710.654	24095.02
710.998	24060.67
711.342	24130.5
711.687	24093.21
712.031	23944.74
712.375	23862.71
712.719	23883.95
713.063	23859.99
713.407	23913.78
713.75	23707.46
714.094	23815.48
714.438	23610.74
714.782	23892.76
715.125	23481.92
715.469	23604.41
715.812	23451.64
716.156	23397.86
716.499	23261.37
716.843	23341.82
717.186	23307.69
717.53	23370.52
717.873	23306.79
718.216	23262.95
718.559	23137.53
718.902	22971.88
719.246	23064.53
719.589	22918.32
719.932	22851.43
720.275	22796.07
720.617	22866.8
720.96	22750.87
721.303	22781.38
721.646	22701.38
721.989	22567.6
722.331	22579.12
722.674	22519.46
723.016	22498.67
723.359	22518.56
723.701	22498.67
724.044	22425.91
724.386	22257.32
724.729	22360.6
725.071	22315.85
725.413	22244.44
725.755	22282.63
726.097	22214.16
726.439	22059.36
726.782	21996.54
727.124	22147.5
727.465	21981.85
727.807	21996.09
728.149	21993.83
728.491	21810.1
728.833	21841.29
729.175	21797.68
729.516	21845.36
729.858	21732.82
730.199	21651.46
730.541	21666.83
730.882	21653.5
731.224	21665.25
731.565	21532.37
731.906	21537.34
732.248	21555.65
732.589	21340.96
732.93	21257.8
733.271	21320.63
733.612	21267.52
733.953	21338.25
734.294	21290.57
734.635	21272.27
734.976	21205.83
735.317	21165.38
735.658	21159.05
735.999	21064.14
736.339	20948.66
736.68	21037.92
737.021	21040.63
737.361	20874.31
737.702	21032.27
738.042	20889.68
738.383	20853.29
738.723	20848.32
739.063	20795.89
739.404	20765.84
739.744	20758.38
740.084	20661.66
740.424	20744.82
740.764	20583.24
741.104	20704.14
741.444	20530.82
741.784	20652.62
742.124	20565.84
742.464	20510.48
742.804	20315.23
743.143	20480.42
743.483	20428.45
743.823	20360.65
744.162	20299.41
744.502	20311.61
744.841	20236.36
745.181	20342.57
745.52	20186.42
745.86	20254.44
746.199	20233.87
746.538	20106.19
746.877	20211.5
747.216	20118.62
747.556	20076.14
747.895	20092.18
748.234	19919.08
748.573	19847.9
748.911	19957.5
749.25	19879.31
749.589	19779.2
749.928	19759.76
750.267	19823.26
750.605	19696.04
750.944	19655.58
751.283	19638.41
751.621	19642.48
751.96	19534.01
752.298	19470.96
752.636	19531.29
752.975	19325.88
753.313	19355.25
753.651	19398.87
753.989	19356.38
754.327	19208.82
754.666	19172.66
755.004	19051.76
755.342	19191.19
755.679	19131.76
756.017	18985.55
756.355	19026.22
756.693	18867.58
757.031	18965.66
757.368	18894.47
757.706	18814.7
758.044	18810.64
758.381	18773.8
758.719	18724.31
759.056	18660.81
759.394	18581.04
759.731	18446.13
760.068	18437.31
760.405	18423.53
760.743	18362.74
761.08	18372.23
761.417	18204.78
761.754	18240.25
762.091	18145.12
762.428	18094.72
762.765	17970.43
763.102	18105.34
763.438	18030.32
763.775	17895.41
764.112	17822.41
764.449	17791.45
764.785	17780.38
765.122	17556.43
765.458	17512.59
765.795	17606.15
766.131	17588.97
766.467	17421.07
766.804	17353.72
767.14	17239.83
767.476	17380.39
767.812	17218.59
768.148	17195.99
768.485	17056.11
768.821	16995.54
769.157	17066.05
769.492	16862.44
769.828	16902.66
770.164	16833.29
770.5	16741.09
770.836	16682.56
771.171	16628.09
771.507	16586.06
771.842	16572.73
772.178	16512.16
772.513	16480.53
772.849	16390.81
773.184	16280.31
773.519	16278.27
773.855	16223.81
774.19	16076.02
774.525	16069.69
774.86	15999.41
775.195	15975.46
775.53	15926.64
775.865	15765.52
776.2	15716.71
776.535	15670.15
776.87	15633.54
777.205	15544.96
777.539	15492.3
777.874	15558.07
778.209	15396.04
778.543	15308.81
778.878	15298.86
779.212	15274.01
779.547	15191.97
779.881	15251.18
780.215	15130.96
780.55	15091.41
780.884	14953.79
781.218	14985.43
781.552	14953.56
781.886	14932.09
782.22	14896.39
782.554	14751.31
782.888	14624.76
783.222	14572.78
783.556	14552.89
783.889	14508.15
784.223	14420.69
784.557	14465.44
784.89	14426.34
785.224	14345.22
785.557	14178.21
785.891	14186.12
786.224	14109.97
786.558	14119.23
786.891	14001.04
787.224	13936.41
787.557	13989.75
787.891	13907.94
788.224	13825.46
788.557	13915.85
788.89	13769.41
789.223	13706.14
789.556	13686.25
789.888	13606.48
790.221	13598.57
790.554	13524.9
790.887	13561.06
791.219	13417.78
791.552	13312.7
791.884	13289.2
792.217	13329.65
792.549	13271.35
792.882	13188.86
793.214	13067.28
793.546	13124.23
793.879	13048.75
794.211	12955.2
794.543	12957.23
794.875	12902.77
795.207	12943.22
795.539	12919.94
795.871	12862.54
796.203	12732.38
796.535	12697.35
796.867	12660.74
797.198	12589.1
797.53	12598.82
797.862	12544.13
798.193	12576
798.525	12471.37
798.856	12554.3
799.188	12397.92
799.519	12301.88
799.85	12261.88
800.182	12341.65
800.513	12244.71
800.844	12122.68
801.175	12158.61
801.506	12154.09
801.837	12107.31
802.168	12048.78
802.499	11997.48
802.83	11965.84
803.161	11867.09
803.491	11890.37
803.822	11902.12
804.153	11817.15
804.483	11732.4
804.814	11710.26
805.145	11685.4
805.475	11639.3
805.805	11678.17
806.136	11541
806.466	11639.3
806.796	11503.26
807.126	11481.56
807.457	11401.79
807.787	11470.49
808.117	11340.55
808.447	11371.28
808.777	11414.9
809.107	11370.83
809.436	11240.21
809.766	11352.53
810.096	11216.26
810.426	11214.45
810.755	11165.64
811.085	11152.53
811.414	11146.88
811.744	11017.17
812.073	11061.01
812.403	11093.55
812.732	10977.62
813.061	10948.24
813.39	10922.71
813.719	10841.13
814.049	10973.55
814.378	10911.86
814.707	10841.35
815.036	10830.51
815.365	10757.51
815.693	10722.03
816.022	10696.95
816.351	10628.7
816.68	10572.21
817.008	10635.48
817.337	10523.85
817.665	10545.09
817.994	10559.33
818.322	10512.1
818.651	10430.52
818.979	10420.12
819.307	10466.67
819.636	10435.71
819.964	10297.19
820.292	10439.1
820.62	10389.16
820.948	10380.57
821.276	10359.33
821.604	10320.92
821.932	10351.42
822.259	10357.3
822.587	10368.15
822.915	10376.51
823.243	10348.26
823.57	10280.24
823.898	10321.59
824.225	10319.11
824.553	10277.53
824.88	10302.38
825.207	10297.19
825.535	10215.16
825.862	10268.26
826.189	10206.12
826.516	10310.75
826.843	10275.04
827.17	10272.1
827.497	10344.42
827.824	10301.48
828.151	10310.29
828.478	10265.1
828.805	10347.58
829.131	10262.84
829.458	10212.67
829.785	10261.93
830.111	10251.54
830.438	10281.14
830.764	10324.76
831.09	10298.54
831.417	10194.14
831.743	10238.21
832.069	10255.15
832.395	10153.01
832.722	10193.46
833.048	10167.92
833.374	10208.15
833.7	10179.68
834.026	10122.95
834.351	10080.47
834.677	10167.47
835.003	10111.43
835.329	10078.89
835.654	10135.38
835.98	10009.96
836.306	10085.89
836.631	10067.36
836.956	10051.32
837.282	10076.4
837.607	10042.73
837.932	9957.53
838.258	10003.64
838.583	10013.8
838.908	9896.29
839.233	10012.22
839.558	9870.76
839.883	9837.31
840.208	9800.7
840.533	9834.15
840.858	9833.02
841.182	9872.34
841.507	9874.15
841.832	9840.02
842.156	9800.93
842.481	9807.26
842.805	9754.15
843.13	9729.97
843.454	9713.7
843.778	9594.38
844.103	9650.88
844.427	9595.51
844.751	9595.74
845.075	9593.93
845.399	9559.81
845.723	9451.79
846.047	9531.56
846.371	9427.83
846.695	9397.78
847.019	9329.08
847.343	9318
847.666	9257.44
847.99	9243.66
848.313	9247.27
848.637	9212.92
848.96	9172.7
849.284	9178.35
849.607	9082.08
849.931	9057.22
850.254	9002.53
850.577	8937
850.9	8871.69
851.223	8887.28
851.546	8793.95
851.869	8806.83
852.192	8791.46
852.515	8729.54
852.838	8711.69
853.161	8677.57
853.483	8692.94
853.806	8547.18
854.129	8578.59
854.451	8499.95
854.774	8551.7
855.096	8535.65
855.419	8463.11
855.741	8503.34
856.063	8467.4
856.385	8386.73
856.708	8338.82
857.03	8344.7
857.352	8369.33
857.674	8280.29
857.996	8294.53
858.318	8278.48
858.64	8276.9
858.961	8213.63
859.283	8198.03
859.605	8206.39
859.926	8182.89
860.248	8141.09
860.57	8127.53
860.891	8090.01
861.212	8035.33
861.534	8118.49
861.855	8011.37
862.176	8020.86
862.498	7961.88
862.819	7981.09
863.14	7969.34
863.461	7950.36
863.782	7971.6
864.103	7916.68
864.424	7817.7
864.745	7904.93
865.065	7846.4
865.386	7854.99
865.707	7797.37
866.027	7839.62
866.348	7789.91
866.668	7780.42
866.989	7803.02
867.309	7733.86
867.63	7772.51
867.95	7771.15
868.27	7737.93
868.59	7721.66
868.91	7695.9
869.23	7645.73
869.55	7661.32
869.87	7675.11
870.19	7629.91
870.51	7650.48
870.83	7610.48
871.15	7653.19
871.469	7626.97
871.789	7605.28
872.109	7627.88
872.428	7549.24
872.748	7578.39
873.067	7550.82
873.386	7532.29
873.706	7551.95
874.025	7432.86
874.344	7413.42
874.663	7524.83
874.982	7454.32
875.301	7468.11
875.62	7403.25
875.939	7444.83
876.258	7413.87
876.577	7331.39
876.896	7361.44
877.214	7384.5
877.533	7392.63
877.852	7342.01
878.17	7285.29
878.489	7347.89
878.807	7335.46
879.125	7290.94
879.444	7307.66
879.762	7322.35
880.08	7243.26
880.398	7265.4
880.716	7256.36
881.034	7207.78
881.352	7177.95
881.67	7221.79
881.988	7192.64
882.306	7153.99
882.624	7145.41
882.941	7119.19
883.259	7091.17
883.577	7090.27
883.894	7081.9
884.212	7034.67
884.529	7029.48
884.846	7042.36
885.164	7021.34
885.481	7002.13
885.798	6946.31
886.115	6958.97
886.432	7001.23
886.75	6908.12
887.067	6939.99
887.383	6882.14
887.7	6897.28
888.017	6800.33
888.334	6880.33
888.651	6878.52
888.967	6825.64
889.284	6794.68
889.6	6757.17
889.917	6708.58
890.233	6717.85
890.55	6665.87
890.866	6734.79
891.182	6686.21
891.498	6681.46
891.815	6639.43
892.131	6639.88
892.447	6569.83
892.763	6568.02
893.079	6561.92
893.395	6542.03
893.71	6497.06
894.026	6521.24
894.342	6497.96
894.657	6435.37
894.973	6445.76
895.289	6405.09
895.604	6409.38
895.92	6350.85
896.235	6320.79
896.55	6351.98
896.865	6313.79
897.181	6317.4
897.496	6326.9
897.811	6205.77
898.126	6252.32
898.441	6281.47
898.756	6182.72
899.071	6178.43
899.386	6171.87
899.7	6086
900.015	6140.01
900.33	6104.3
900.644	6084.19
900.959	6055.26
901.273	6021.59
901.588	6008.49
901.902	5971.2
902.216	5987.24
902.531	5966
902.845	5941.37
903.159	5909.05
903.473	5864.08
903.787	5850.98
904.101	5820.02
904.415	5823.18
904.729	5766.01
905.042	5755.61
905.356	5768.04
905.67	5705.44
905.984	5760.36
906.297	5696.18
906.611	5648.5
906.924	5650.3
907.237	5678.1
907.551	5611.43
907.864	5548.84
908.177	5545.45
908.491	5579.12
908.804	5511.1
909.117	5477.2
909.43	5492.57
909.743	5443.76
910.056	5415.73
910.368	5408.73
910.681	5349.29
910.994	5295.51
911.307	5304.78
911.619	5319.01
911.932	5302.06
912.244	5286.47
912.557	5252.57
912.869	5197.21
913.181	5194.72
913.494	5220.94
913.806	5164.21
914.118	5140.49
914.43	5119.24
914.742	5103.2
915.054	5084.67
915.366	5079.24
915.678	5032.69
915.99	5018.46
916.302	4996.08
916.613	4980.49
916.925	4965.58
917.236	4983.43
917.548	4977.33
917.859	4929.42
918.171	4872.02
918.482	4893.26
918.794	4881.74
919.105	4855.07
919.416	4834.96
919.727	4828.18
920.038	4785.24
920.349	4736.43
920.66	4773.04
920.971	4749.99
921.282	4710.67
921.593	4658.69
921.903	4649.43
922.214	4658.47
922.525	4659.59
922.835	4570.33
923.146	4563.78
923.456	4555.87
923.767	4594.51
924.077	4523.55
924.387	4486.94
924.697	4508.19
925.008	4499.37
925.318	4437.23
925.628	4442.43
925.938	4446.04
926.248	4429.54
926.558	4363.78
926.867	4353.39
927.177	4373.05
927.487	4304.35
927.796	4305.71
928.106	4329.66
928.416	4312.03
928.725	4298.25
929.034	4268.87
929.344	4251.47
929.653	4222.54
929.962	4197.01
930.271	4185.71
930.581	4232.26
930.89	4147.97
931.199	4143.68
931.508	4072.49
931.817	4145.94
932.125	4058.93
932.434	4035.2
932.743	4058.03
933.051	3995.66
933.36	3987.52
933.669	3960.86
933.977	3968.99
934.286	3970.12
934.594	3929.44
934.902	3973.51
935.21	3904.36
935.519	3913.63
935.827	3867.07
936.135	3840.18
936.443	3855.32
936.751	3865.94
937.059	3802.44
937.367	3829.56
937.674	3822.33
937.982	3784.59
938.29	3751.37
938.597	3757.7
938.905	3735.55
939.213	3713.86
939.52	3670.47
939.827	3661.66
940.135	3667.76
940.442	3654.88
940.749	3614.2
941.056	3633.86
941.363	3595.44
941.67	3595.67
941.977	3567.42
942.284	3579.4
942.591	3563.35
942.898	3527.87
943.205	3540.08
943.511	3507.76
943.818	3470.7
944.125	3506.18
944.431	3461.66
944.738	3429.12
945.044	3449.23
945.35	3439.74
945.657	3429.57
945.963	3375.11
946.269	3376.01
946.575	3419.63
946.881	3361.55
947.187	3340.99
947.493	3331.72
947.799	3309.57
948.105	3259.18
948.41	3227.32
948.716	3254.43
949.022	3219.41
949.327	3256.47
949.633	3202.23
949.938	3203.81
950.244	3218.73
950.549	3167.88
950.854	3163.59
951.16	3135.12
951.465	3188.45
951.77	3123.36
952.075	3091.95
952.38	3124.27
952.685	3093.99
952.99	3077.26
953.294	3070.48
953.599	3041.56
953.904	3006.08
954.209	3020.54
954.513	3030.71
954.818	3010.37
955.122	3018.96
955.426	2942.58
955.731	2944.84
956.035	2966.76
956.339	2959.07
956.643	2980.77
956.948	2913.88
957.252	2957.94
957.556	2929.47
957.86	2875.24
958.163	2872.3
958.467	2846.76
958.771	2876.82
959.075	2876.14
959.378	2861.22
959.682	2823.03
959.985	2815.58
960.289	2792.98
960.592	2733.09
960.896	2800.43
961.199	2787.55
961.502	2755.24
961.805	2729.02
962.108	2697.16
962.411	2713.88
962.714	2703.26
963.017	2689.25
963.32	2680.21
963.623	2691.74
963.926	2664.39
964.228	2642.7
964.531	2642.7
964.833	2637.73
965.136	2598.63
965.438	2611.06
965.741	2590.72
966.043	2560.22
966.345	2541.68
966.648	2546.2
966.95	2530.84
967.252	2532.19
967.554	2535.13
967.856	2488.35
968.158	2475.7
968.46	2501.46
968.761	2511.4
969.063	2467.34
969.365	2458.52
969.666	2433.89
969.968	2437.96
970.269	2453.33
970.571	2419.65
970.872	2403.38
971.174	2394.12
971.475	2379.88
971.776	2424.4
972.077	2378.53
972.378	2397.96
972.679	2366.77
972.98	2351.18
973.281	2337.62
973.582	2326.1
973.883	2329.71
974.183	2319.09
974.484	2312.54
974.785	2293.56
975.085	2304.18
975.386	2308.02
975.686	2272.09
975.986	2271.86
976.287	2262.6
976.587	2236.16
976.887	2208.36
977.187	2256.27
977.487	2211.98
977.787	2212.2
978.087	2164.75
978.387	2195.25
978.687	2162.71
978.987	2155.25
979.286	2146.89
979.586	2123.84
979.885	2100.34
980.185	2144.41
980.484	2108.48
980.784	2088.82
981.083	2101.92
981.382	2075.26
981.682	2084.75
981.981	2032.32
982.28	2080.91
982.579	2044.3
982.878	2065.09
983.177	2016.27
983.475	2038.42
983.774	2032.77
984.073	2008.14
984.372	1992.32
984.67	2011.3
984.969	1992.55
985.267	1992.32
985.566	1965.43
985.864	1955.49
986.162	1946.9
986.461	1919.1
986.759	1914.13
987.057	1910.29
987.355	1934.47
987.653	1892.21
987.951	1915.03
988.249	1895.37
988.547	1890.4
988.844	1874.81
989.142	1873.91
989.44	1887.01
989.737	1846.56
990.035	1823.51
990.332	1863.96
990.63	1862.38
990.927	1853.34
991.224	1796.62
991.521	1791.2
991.819	1791.42
992.116	1776.28
992.413	1773.8
992.71	1780.8
993.006	1804.3
993.303	1769.95
993.6	1749.39
993.897	1761.14
994.193	1759.11
994.49	1725.66
994.787	1760.01
995.083	1688.37
995.379	1704.19
995.676	1702.16
995.972	1714.36
996.268	1682.72
996.565	1691.31
996.861	1696.51
997.157	1632.78
997.453	1638.21
997.749	1645.89
998.044	1658.32
998.34	1624.65
998.636	1639.11
998.932	1624.42
999.227	1610.86
999.523	1608.38
999.818	1578.32
1000.114	1561.6
1000.409	1567.47
1000.704	1552.33
1001	1576.96
1001.295	1536.29
1001.59	1549.85
1001.885	1533.12
1002.18	1508.49
1002.475	1529.96
1002.77	1530.86
1003.065	1500.81
1003.359	1520.92
1003.654	1464.42
1003.949	1477.08
1004.243	1478.21
1004.538	1482.05
1004.832	1474.59
1005.127	1455.61
1005.421	1458.78
1005.715	1458.1
1006.009	1451.54
1006.304	1431.66
1006.598	1416.74
1006.892	1440.92
1007.186	1407.48
1007.48	1409.51
1007.773	1400.92
1008.067	1369.06
1008.361	1373.35
1008.655	1395.27
1008.948	1360.7
1009.242	1334.94
1009.535	1355.73
1009.829	1360.7
1010.122	1327.71
1010.415	1327.48
1010.708	1318.89
1011.001	1321.38
1011.295	1306.69
1011.588	1334.03
1011.881	1309.4
1012.173	1303.07
1012.466	1270.31
1012.759	1265.79
1013.052	1288.61
1013.344	1243.41
1013.637	1263.3
1013.93	1229.63
1014.222	1235.28
1014.514	1208.39
1014.807	1216.97
1015.099	1205.9
1015.391	1216.3
1015.683	1187.14
1015.976	1202.28
1016.268	1182.62
1016.56	1178.56
1016.851	1230.31
1017.143	1193.25
1017.435	1156.86
1017.727	1155.51
1018.018	1161.61
1018.31	1148.05
1018.602	1144.21
1018.893	1142.85
1019.185	1142.17
1019.476	1143.3
1019.767	1115.51
1020.058	1105.11
1020.35	1115.51
1020.641	1100.37
1020.932	1113.7
1021.223	1075.51
1021.514	1054.72
1021.804	1059.46
1022.095	1056.07
1022.386	1060.59
1022.677	1064.89
1022.967	1041.16
1023.258	1040.26
1023.548	1067.6
1023.839	1036.19
1024.129	1038.67
1024.419	1037.09
1024.709	1014.27
1025	997.77
1025.29	993.48
1025.58	998.67
1025.87	990.54
1026.16	963.2
1026.449	960.71
1026.739	970.88
1027.029	972.23
1027.319	952.12
1027.608	937.43
1027.898	916.87
1028.187	935.85
1028.477	915.96
1028.766	926.81
1029.055	929.98
1029.344	925.46
1029.634	911.44
1029.923	897.43
1030.212	892.01
1030.501	909.41
1030.79	902.63
1031.078	886.36
1031.367	895.4
1031.656	875.06
1031.945	851.56
1032.233	870.32
1032.522	886.13
1032.81	858.56
1033.099	855.18
1033.387	858.56
1033.675	836.87
1033.963	840.03
1034.251	840.26
1034.54	831
1034.828	835.29
1035.116	825.12
1035.403	808.85
1035.691	798.45
1035.979	796.19
1036.267	765.46
1036.554	812.01
1036.842	781.96
1037.129	798.68
1037.417	786.93
1037.704	795.29
1037.992	790.32
1038.279	768.62
1038.566	781.05
1038.853	781.05
1039.14	781.05
