Data from whiteboard_FLMS001491_00069.txt Node
Date: Wed Feb 08 11:27:30 GMT 2017
User: dcchb
Spectrometer: FLMS00149
Trigger mode: 0
Integration Time (sec): 2.000000E-2
Scans to average: 10
Electric dark correction enabled: true
Nonlinearity correction enabled: false
Boxcar width: 0
XAxis mode: Wavelengths
Number of Pixels in Spectrum: 2048
>>>>>Begin Spectral Data<<<<<
341.393	-1.07
341.776	-1.07
342.16	-1.07
342.543	-50.79
342.927	-67.51
343.31	-76.55
343.693	-80.85
344.077	-82.88
344.46	-66.38
344.843	-54.63
345.226	-32.49
345.61	-22.99
345.993	-19.15
346.376	6.16
346.759	23.11
347.142	32.37
347.525	41.41
347.908	64.01
348.291	72.14
348.674	83.9
349.057	112.82
349.44	105.82
349.823	147.62
350.206	157.11
350.588	219.94
350.971	239.82
351.354	252.48
351.737	268.3
352.119	282.99
352.502	285.92
352.884	299.71
353.267	304
353.65	336.77
354.032	318.92
354.414	337.67
354.797	336.77
355.179	366.83
355.562	356.88
355.944	353.72
356.326	358.47
356.709	367.28
357.091	355.98
357.473	358.24
357.855	375.64
358.238	371.35
358.62	398.01
359.002	391.91
359.384	386.71
359.766	367.73
360.148	369.99
360.53	388.75
360.912	383.1
361.294	377
361.676	364.34
362.057	361.63
362.439	387.39
362.821	355.75
363.203	358.69
363.584	355.98
363.966	378.35
364.348	340.84
364.729	378.35
365.111	370.44
365.493	368.18
365.874	366.15
366.256	372.02
366.637	366.37
367.019	369.09
367.4	381.74
367.781	386.26
368.163	369.09
368.544	362.53
368.925	373.38
369.306	389.88
369.688	373.38
370.069	381.29
370.45	365.24
370.831	383.1
371.212	362.76
371.593	380.61
371.974	385.58
372.355	369.09
372.736	381.97
373.117	383.32
373.498	376.09
373.879	377.45
374.26	373.15
374.641	382.87
375.021	408.41
375.402	386.04
375.783	383.78
376.163	416.54
376.544	406.6
376.925	417.67
377.305	402.31
377.686	416.54
378.066	402.98
378.447	410.44
378.827	412.25
379.208	424.9
379.588	416.54
379.968	457.67
380.349	446.15
380.729	417.9
381.109	437.33
381.489	432.81
381.87	412.7
382.25	426.49
382.63	447.95
383.01	441.4
383.39	468.29
383.77	463.77
384.15	480.27
384.53	454.96
384.91	455.64
385.29	486.15
385.67	474.17
386.049	501.06
386.429	512.59
386.809	505.13
387.189	521.62
387.568	513.94
387.948	494.05
388.328	522.53
388.707	516.43
389.087	540.83
389.466	543.09
389.846	534.73
390.225	541.96
390.605	545.8
390.984	552.81
391.363	571.79
391.743	577.22
392.122	582.87
392.501	596.88
392.881	586.26
393.26	592.36
393.639	613.6
394.018	636.88
394.397	626.03
394.776	621.96
395.155	650.43
395.534	668.51
395.913	665.58
396.292	665.8
396.671	665.12
397.05	701.51
397.429	696.08
397.808	725.91
398.186	723.2
398.565	730.88
398.944	725.24
399.323	721.62
399.701	755.06
400.08	743.09
400.458	771.11
400.837	782.41
401.215	813.82
401.594	803.43
401.972	835.51
402.351	849.53
402.729	823.09
403.107	841.16
403.486	899.69
403.864	909.19
404.242	899.47
404.62	935.85
404.999	948.28
405.377	961.39
405.755	967.04
406.133	1005.23
406.511	1007.26
406.889	1046.13
407.267	1057.66
407.645	1085.23
408.023	1072.12
408.401	1106.92
408.779	1113.7
409.156	1147.6
409.534	1172.91
409.912	1198.67
410.29	1204.54
410.667	1231.89
411.045	1256.97
411.422	1311.66
411.8	1298.33
412.178	1313.47
412.555	1373.81
412.933	1372.9
413.31	1415.16
413.687	1464.2
414.065	1468.27
414.442	1474.59
414.819	1478.44
415.197	1510.3
415.574	1551.43
415.951	1545.33
416.328	1611.31
416.705	1601.14
417.082	1660.35
417.46	1650.41
417.837	1685.21
418.214	1702.38
418.591	1694.7
418.967	1717.07
419.344	1767.92
419.721	1788.26
420.098	1778.31
420.475	1818.54
420.852	1816.96
421.228	1855.15
421.605	1896.73
421.982	1927.92
422.358	1974.02
422.735	1950.29
423.111	1976.95
423.488	2035.48
423.864	2044.07
424.241	2068.93
424.617	2091.3
424.994	2113.67
425.37	2160.9
425.746	2159.1
426.123	2186.44
426.499	2206.33
426.875	2247
427.251	2298.3
427.627	2338.75
428.003	2334.68
428.379	2431.18
428.756	2463.95
429.132	2467.79
429.507	2508.24
429.883	2513.66
430.259	2604.73
430.635	2618.97
431.011	2629.59
431.387	2706.43
431.763	2723.83
432.138	2758.4
432.514	2810.38
432.89	2808.12
433.265	2871.62
433.641	2941.9
434.016	2972.86
434.392	2980.09
434.767	3043.59
435.143	3047.66
435.518	3121.33
435.894	3139.18
436.269	3171.27
436.644	3226.86
437.02	3271.16
437.395	3264.6
437.77	3335.56
438.145	3410.36
438.52	3452.4
438.895	3466.41
439.271	3483.81
439.646	3609.68
440.021	3595.22
440.395	3645.38
440.77	3587.53
441.145	3717.92
441.52	3750.92
441.895	3735.78
442.27	3792.5
442.645	3808.09
443.019	3834.31
443.394	3832.27
443.769	3891.93
444.143	3844.93
444.518	3939.39
444.892	3976.45
445.267	4010.12
445.641	4081.31
446.016	4052.83
446.39	4103.23
446.764	4134.64
447.139	4102.1
447.513	4187.52
447.887	4217.12
448.262	4261.87
448.636	4254.86
449.01	4361.3
449.384	4367.85
449.758	4377.79
450.132	4472.93
450.506	4465.25
450.88	4539.15
451.254	4547.51
451.628	4637
452.002	4702.76
452.376	4685.13
452.75	4776.2
453.123	4828.18
453.497	4909.31
453.871	4989.08
454.244	5077.66
454.618	5102.07
454.992	5156.31
455.365	5185.68
455.739	5357.66
456.112	5446.24
456.486	5395.62
456.859	5498.44
457.232	5584.77
457.606	5562.4
457.979	5711.32
458.352	5781.37
458.725	5842.61
459.099	5923.29
459.472	6049.39
459.845	6090.52
460.218	6115.38
460.591	6192.44
460.964	6197.63
461.337	6364.18
461.71	6434.46
462.083	6570.51
462.456	6605.31
462.829	6593.33
463.201	6769.37
463.574	6762.59
463.947	6876.71
464.32	7087.33
464.692	7208.45
465.065	7259.07
465.438	7312.41
465.81	7487.09
466.183	7515.57
466.555	7747.88
466.928	7769.12
467.3	7772.73
467.672	7922.33
468.045	8135.44
468.417	8174.53
468.789	8225.38
469.161	8364.36
469.534	8495.65
469.906	8750.11
470.278	8729.09
470.65	8822.88
471.022	9039.82
471.394	9160.72
471.766	9293.15
472.138	9379.47
472.51	9635.51
472.882	9656.3
473.253	9787.14
473.625	9956.18
473.997	10181.94
474.369	10206.79
474.74	10370.86
475.112	10567.24
475.484	10703.73
475.855	10937.4
476.227	11028.92
476.598	11306.65
476.97	11426.2
477.341	11740.31
477.713	11885.85
478.084	11969.69
478.455	12263.46
478.827	12346.62
479.198	12871.36
479.569	12884.01
479.94	13204.23
480.311	13440.16
480.682	13681.96
481.053	14022.74
481.424	14293.69
481.795	14322.39
482.166	14676.96
482.537	14817.75
482.908	15111.98
483.279	15268.81
483.65	15548.57
484.021	15899.75
484.391	16077.83
484.762	16242.57
485.133	16434.88
485.503	16678.26
485.874	17029.67
486.244	17196.44
486.615	17400.73
486.985	17647.05
487.356	17930.21
487.726	18227.15
488.097	18555.05
488.467	18557.31
488.837	18997.07
489.207	19243.62
489.578	19520.45
489.948	19608.81
490.318	19942.58
490.688	20038.85
491.058	20340.09
491.428	20663.92
491.798	20814.2
492.168	21229.55
492.538	21390.45
492.908	21544.35
493.278	21911.57
493.648	21963.32
494.017	22242.64
494.387	22516.75
494.757	22699.57
495.126	22993.12
495.496	23055.72
495.866	23108.15
496.235	23473.11
496.605	23729.15
496.974	23861.58
497.344	24036.03
497.713	24180.44
498.082	24352.41
498.452	24640.76
498.821	24688.9
499.19	24810.48
499.559	25050.47
499.928	25358.94
500.298	25530.46
500.667	25661.3
501.036	25682.55
501.405	26015.42
501.774	26087.96
502.143	26454.73
502.512	26609.3
502.88	26783.76
503.249	26901.95
503.618	27080.93
503.987	27187.36
504.356	27349.17
504.724	27520.46
505.093	27642.49
505.462	27678.42
505.83	28134.01
506.199	28297.84
506.567	28630.04
506.936	28687.44
507.304	28916.81
507.672	29133.75
508.041	29286.52
508.409	29561.99
508.777	29795.88
509.145	30112.49
509.514	30107.06
509.882	30289.66
510.25	30384.34
510.618	30600.16
510.986	30717.44
511.354	30989.07
511.722	31300.93
512.09	31553.8
512.458	31464.99
512.826	31713.12
513.193	31902.27
513.561	32092.32
513.929	32246.44
514.297	32645.75
514.664	32939.3
515.032	33129.58
515.4	33393.08
515.767	33471.27
516.135	33786.29
516.502	33633.52
516.869	34205.94
517.237	34451.58
517.604	34386.72
517.972	34908.97
518.339	35216.76
518.706	35238.23
519.073	35649.74
519.44	35677.99
519.808	36217.86
520.175	36162.72
520.542	36540.79
520.909	36898.75
521.276	37004.96
521.643	37223.71
522.009	37542.35
522.376	37795.9
522.743	38107.3
523.11	38523.11
523.477	38908.41
523.843	39093.49
524.21	39519.24
524.577	39732.12
524.943	39954.71
525.31	40069.74
525.676	40476.28
526.043	40710.85
526.409	40871.98
526.776	41328.46
527.142	41378.63
527.508	41642.8
527.874	41951.95
528.241	42114.88
528.607	42290.24
528.973	42627.64
529.339	42597.81
529.705	43063.56
530.071	43352.81
530.437	43561.62
530.803	43742.86
531.169	43925
531.535	43886.36
531.901	43986.92
532.267	44380.58
532.632	44624.42
532.998	44714.36
533.364	44985.77
533.73	45032.54
534.095	45364.51
534.461	45486.09
534.826	45772.41
535.192	45809.47
535.557	46233.42
535.923	46210.37
536.288	46265.28
536.653	46540.3
537.019	46535.1
537.384	46796.57
537.749	46901.65
538.114	47063.23
538.479	47140.96
538.845	47346.83
539.21	47429.09
539.575	47653.04
539.94	47783.88
540.305	48185.23
540.67	48123.76
541.034	48312.01
541.399	48473.58
541.764	48651.21
542.129	48747.25
542.494	48800.81
542.858	49114.47
543.223	49044.19
543.587	49392.2
543.952	49389.27
544.316	49493.9
544.681	49518.08
545.045	49709.48
545.41	50003.26
545.774	50020.44
546.138	50054.79
546.503	50155.35
546.867	50159.87
547.231	50473.31
547.595	50577.94
547.959	50644.83
548.324	50712.62
548.688	50846.18
549.052	50878.72
549.416	50964.37
549.779	51006.85
550.143	51020.41
550.507	51253.17
550.871	51321.42
551.235	51369.33
551.599	51551.24
551.962	51544.69
552.326	51693.39
552.689	51915.53
553.053	51836.89
553.417	51926.6
553.78	52328.62
554.143	52146.26
554.507	52415.4
554.87	52417.21
555.234	52685.9
555.597	52608.62
555.96	52697.2
556.323	52790.08
556.686	52925.22
557.05	53135.83
557.413	53122.95
557.776	53212.67
558.139	53432.78
558.502	53555.94
558.865	53575.82
559.228	53870.96
559.59	53935.36
559.953	53965.87
560.316	54219.42
560.679	54233.43
561.041	54518.4
561.404	54562.46
561.767	54755
562.129	54730.82
562.492	55044.48
562.854	55083.58
563.217	55178.49
563.579	55270.02
563.941	55514.08
564.304	55707.52
564.666	55837.23
565.028	55826.39
565.39	55919.49
565.753	56155.64
566.115	56162.42
566.477	56273.61
566.839	56377.78
567.201	56525.58
567.563	56549.98
567.925	56773.48
568.287	56815.06
568.648	56797.66
569.01	56988.39
569.372	57093.92
569.734	57048.73
570.095	57225.9
570.457	57250.98
570.819	57302.73
571.18	57312.45
571.542	57460.92
571.903	57491.43
572.265	57531.2
572.626	57653.46
572.987	57679.22
573.349	57768.26
573.71	57888.7
574.071	57886.9
574.432	57886.44
574.794	58134.57
575.155	58031.52
575.516	57965.54
575.877	58129.15
576.238	58109.72
576.599	58142.03
576.96	58133.67
577.32	58278.52
577.681	58333.44
578.042	58345.19
578.403	58320.33
578.763	58421.35
579.124	58416.6
579.485	58446.43
579.845	58490.27
580.206	58478.29
580.566	58453.89
580.927	58473.55
581.287	58670.15
581.648	58501.57
582.008	58652.07
582.368	58581.12
582.728	58697.95
583.089	58678.06
583.449	58695.24
583.809	58777.95
584.169	58733.65
584.529	58799.87
584.889	58975.45
585.249	58866.76
585.609	58805.74
585.969	58990.82
586.329	58868.11
586.688	59018.62
587.048	59021.1
587.408	58961.9
587.768	59099.07
588.127	59024.04
588.487	59090.03
588.846	59226.75
589.206	59148.78
589.565	59152.85
589.925	59267.88
590.284	59193.75
590.643	59278.05
591.003	59369.34
591.362	59372.96
591.721	59290.02
592.08	59337.93
592.44	59436.23
592.799	59412.05
593.158	59436.69
593.517	59336.58
593.876	59358.72
594.235	59356.01
594.593	59350.59
594.952	59340.19
595.311	59249.57
595.67	59351.94
596.029	59426.29
596.387	59380.19
596.746	59356.69
597.104	59267.88
597.463	59318.5
597.822	59347.87
598.18	59230.14
598.538	59152.17
598.897	59314.2
599.255	59099.97
599.613	59431.26
599.972	59238.27
600.33	59239.85
600.688	59128.67
601.046	59170.48
601.404	59258.61
601.762	59185.62
602.12	59329.12
602.478	59263.36
602.836	59285.05
603.194	59124.38
603.552	59155.34
603.91	59121.67
604.268	59289.57
604.625	59207.99
604.983	59302
605.341	59160.53
605.698	59292.51
606.056	59377.93
606.413	59311.72
606.771	59395.1
607.128	59430.58
607.485	59358.04
607.843	59490.24
608.2	59682.1
608.557	59705.15
608.914	59587.87
609.272	59734.98
609.629	59755.55
609.986	59843.68
610.343	59819.5
610.7	59977.91
611.057	59941.31
611.414	59991.47
611.771	60035.54
612.127	60158.02
612.484	60085.26
612.841	60228.76
613.198	60180.62
613.554	60258.59
613.911	60347.17
614.267	60316.21
614.624	60355.76
614.98	60407.51
615.337	60511.91
615.693	60491.12
616.05	60453.16
616.406	60622.42
616.762	60535.19
617.118	60570.89
617.475	60592.81
617.831	60649.99
618.187	60612.47
618.543	60688.86
618.899	60799.14
619.255	60714.39
619.611	60619.93
619.967	60723.43
620.323	60764.11
620.678	60665.13
621.034	60654.05
621.39	60550.33
621.746	60507.62
622.101	60726.82
622.457	60566.83
622.812	60553.04
623.168	60586.71
623.523	60568.41
623.879	60621.51
624.234	60393.95
624.589	60430.11
624.945	60461.74
625.3	60418.35
625.655	60328.64
626.01	60269.43
626.365	60346.94
626.72	60343.55
627.075	60292.71
627.43	60239.38
627.785	60146.27
628.14	60142.88
628.495	60169.55
628.85	60136.78
629.205	60106.72
629.559	60198.25
629.914	60086.39
630.269	60067.63
630.623	59924.81
630.978	59910.12
631.332	60045.03
631.687	60106.05
632.041	59973.62
632.396	60026.73
632.75	59903.57
633.104	59938.59
633.459	59852.95
633.813	59826.28
634.167	59785.38
634.521	59846.39
634.875	59874.64
635.229	59831.93
635.583	59782.89
635.937	59793.74
636.291	59787.41
636.645	59865.38
636.999	59803.91
637.352	59866.5
637.706	59684.81
638.06	59866.5
638.413	59862.21
638.767	59746.96
639.121	59830.12
639.474	59645.72
639.828	59719.16
640.181	59761.65
640.534	59762.78
640.888	59753.06
641.241	59621.54
641.594	59755.55
641.947	59808.43
642.301	59741.76
642.654	59788.09
643.007	59788.99
643.36	59683.46
643.713	59619.05
644.066	59673.06
644.419	59597.59
644.771	59525.72
645.124	59279.18
645.477	59217.48
645.83	58988.79
646.182	58840.09
646.535	58799.87
646.888	58775.01
647.24	58666.76
647.593	58760.55
647.945	58635.35
648.298	58517.61
648.65	58471.97
649.002	58411.85
649.355	58442.59
649.707	58392.19
650.059	58521.23
650.411	58822.24
650.763	58741.79
651.115	58896.36
651.467	58699.3
651.819	58728
652.171	58681.23
652.523	58688.23
652.875	58604.62
653.227	58451.17
653.578	58587.67
653.93	58495.69
654.282	58372.53
654.633	58310.61
654.985	58451.4
655.337	58338.64
655.688	58290.73
656.039	58384.74
656.391	58116.49
656.742	58143.61
657.094	58096.38
657.445	58225.42
657.796	58086.44
658.147	58129.38
658.498	58066.33
658.849	58150.17
659.2	58005.99
659.551	57919.44
659.902	58006.44
660.253	57917.63
660.604	58005.99
660.955	57866.33
661.306	57996.72
661.656	57963.5
662.007	58063.84
662.358	58041.69
662.708	57995.14
663.059	57947.23
663.409	57833.34
663.76	58022.03
664.11	58009.83
664.461	57985.42
664.811	57994.24
665.161	58028.59
665.511	57918.08
665.862	58017.74
666.212	58084.18
666.562	58065.2
666.912	57990.17
667.262	58001.92
667.612	58000.57
667.962	58049.15
668.312	57951.08
668.662	58159.66
669.011	58045.76
669.361	58057.96
669.711	58038.53
670.06	57995.37
670.41	57946.78
670.76	57878.08
671.109	58039.43
671.459	57949.72
671.808	57882.83
672.157	57985.42
672.507	57774.36
672.856	57759.89
673.205	57828.37
673.554	57886.22
673.904	57787.69
674.253	57935.26
674.602	57734.36
674.951	57389.06
675.3	57229.51
675.649	57645.09
675.998	57664.53
676.346	57655.26
676.695	57711.53
677.044	57553.8
677.393	57607.36
677.741	57598.54
678.09	57461.37
678.438	57423.41
678.787	57365.33
679.135	57314.26
679.484	57235.16
679.832	57191.77
680.181	57036.52
680.529	57112.45
680.877	57009.63
681.225	57032.68
681.573	57100.93
681.922	56867.26
682.27	56773.93
682.618	56711.56
682.966	56644.89
683.314	56647.15
683.661	56513.37
684.009	56391.12
684.357	56348.18
684.705	56345.47
685.053	56315.19
685.4	56263.21
685.748	56232.7
686.095	56137.56
686.443	56026.83
686.79	55939.83
687.138	56064.12
687.485	55977.12
687.832	55838.59
688.18	55882.88
688.527	55755.65
688.874	55819.61
689.221	55732.38
689.568	55682.89
689.915	55588.65
690.262	55547.52
690.609	55510.69
690.956	55496.45
691.303	55425.04
691.65	55175.55
691.997	55282.67
692.344	55100.98
692.69	55043.35
693.037	55026.63
693.383	54887.65
693.73	54941.21
694.077	54726.53
694.423	54775.79
694.769	54757.49
695.116	54716.58
695.462	54651.5
695.808	54547.1
696.155	54636.59
696.501	54306.65
696.847	54362.69
697.193	54224.39
697.539	54384.84
697.885	54200.44
698.231	54079.76
698.577	54103.27
698.923	54064.4
699.269	53937.62
699.614	53750.73
699.96	53721.81
700.306	53755.48
700.651	53584.64
700.997	53507.58
701.342	53379.67
701.688	53347.58
702.033	53289.5
702.379	53271.42
702.724	53150.07
703.069	53244.08
703.415	52901.26
703.76	52826.46
704.105	52888.38
704.45	52827.82
704.795	52633.93
705.14	52479.35
705.485	52456.76
705.83	52295.4
706.175	52313.03
706.52	52233.03
706.865	52124.79
707.209	52015.19
707.554	51893.61
707.899	51991.68
708.243	51691.8
708.588	51728.64
708.932	51463.56
709.277	51371.36
709.621	51428.76
709.966	51230.35
710.31	51230.57
710.654	50929.79
710.998	50756.46
711.342	50896.12
711.687	50732.51
712.031	50424.49
712.375	50319.41
712.719	50382.69
713.063	50373.2
713.407	50320.32
713.75	50161.68
714.094	50117.83
714.438	49965.3
714.782	49911.29
715.125	49768.47
715.469	49846.43
715.812	49676.49
716.156	49370.28
716.499	49409.83
716.843	49436.27
717.186	49109.27
717.53	49228.37
717.873	49227.24
718.216	49144.75
718.559	49047.35
718.902	48765.1
719.246	48768.04
719.589	48740.02
719.932	48571.66
720.275	48593.36
720.617	48498.67
720.96	48452.34
721.303	48417.99
721.646	48450.99
721.989	48291.67
722.331	48359.24
722.674	48238.56
723.016	48229.52
723.359	48054.84
723.701	48233.14
724.044	47986.82
724.386	47855.97
724.729	47921.06
725.071	47728.07
725.413	47763.32
725.755	47658.92
726.097	47634.96
726.439	47544.12
726.782	47558.13
727.124	47669.09
727.465	47350.9
727.807	47390
728.149	47380.28
728.491	47255.99
728.833	47362.2
729.175	47241.3
729.516	47091.25
729.858	47171.92
730.199	47281.75
730.541	46992.72
730.882	47027.07
731.224	47103.68
731.565	46934.64
731.906	46949.1
732.248	46965.15
732.589	46746.85
732.93	46700.07
733.271	46786.85
733.612	46683.35
733.953	46770.58
734.294	46545.05
734.635	46301.66
734.976	46482
735.317	46263.02
735.658	46402.68
735.999	46308.67
736.339	46141.67
736.68	46134.89
737.021	46130.37
737.361	45878.85
737.702	46010.6
738.042	45820.55
738.383	45599.76
738.723	45780.32
739.063	45513.89
739.404	45598.41
739.744	45315.02
740.084	45100.79
740.424	45147.57
740.764	45056.05
741.104	45241.8
741.444	44817.64
741.784	44762.5
742.124	44734.7
742.464	44559.79
742.804	44530.64
743.143	44360.47
743.483	44335.61
743.823	44152.57
744.162	43927.49
744.502	44027.37
744.841	43823.09
745.181	43863.99
745.52	43660.38
745.86	43635.07
746.199	43483.21
746.538	43324.12
746.877	43366.37
747.216	43255.42
747.556	42943.33
747.895	43003.67
748.234	42863.34
748.573	42704.7
748.911	42674.41
749.25	42536.34
749.589	42315.55
749.928	42356
750.267	42271.71
750.605	42350.81
750.944	41987.43
751.283	41967.77
751.621	41825.17
751.96	41629.47
752.298	41728.9
752.636	41636.02
752.975	41490.26
753.313	41276.49
753.651	41381.57
753.989	41266.99
754.327	41250.95
754.666	40888.25
755.004	41047.11
755.342	41130.27
755.679	40835.14
756.017	40686.22
756.355	40914.23
756.693	40657.52
757.031	40635.15
757.368	40432.44
757.706	40404.87
758.044	40366.68
758.381	40314.48
758.719	40149.96
759.056	40343.18
759.394	40164.65
759.731	39823.64
760.068	39923.98
760.405	39905.22
760.743	39782.74
761.08	39779.12
761.417	39645.34
761.754	39569.64
762.091	39456.65
762.428	39478.79
762.765	39239.93
763.102	39391.56
763.438	39211.68
763.775	39184.34
764.112	39182.98
764.449	39295.07
764.785	38871.12
765.122	38899.6
765.458	38700.28
765.795	38606.72
766.131	38520.85
766.467	38413.74
766.804	38372.83
767.14	38193.63
767.476	38174.42
767.812	38101.88
768.148	38133.74
768.485	37949.79
768.821	37803.58
769.157	37734.21
769.492	37513.19
769.828	37513.65
770.164	37186.88
770.5	37230.49
770.836	37152.75
771.171	36863.04
771.507	36841.12
771.842	36574.01
772.178	36686.32
772.513	36423.73
772.849	36242.95
773.184	36251.08
773.519	36129.95
773.855	35950.98
774.19	36019.9
774.525	35763.41
774.86	35800.25
775.195	35613.58
775.53	35318.9
775.865	35042.52
776.2	34883.89
776.535	34586.49
776.87	34654.74
777.205	34594.85
777.539	34437.34
777.874	34414.52
778.209	34018.6
778.543	33963.01
778.878	33607.31
779.212	33638.95
779.547	33410.93
779.881	33584.26
780.215	33313.08
780.55	33285.73
780.884	33021.34
781.218	32845.07
781.552	32780.21
781.886	32469.94
782.22	32260
782.554	32021.14
782.888	31951.31
783.222	31796.28
783.556	31592.45
783.889	31456.4
784.223	31129.86
784.557	31027.94
784.89	31139.35
785.224	30889.64
785.557	30834.73
785.891	30732.36
786.224	30505.7
786.558	30457.33
786.891	30070.23
787.224	29827.75
787.557	29891.93
787.891	29779.39
788.224	29685.15
788.557	29738.48
788.89	29495.78
789.223	29449
789.556	29176.24
789.888	28977.83
790.221	28843.59
790.554	28692.41
790.887	28589.14
791.219	28446.99
791.552	28341.01
791.884	28461.46
792.217	28209.03
792.549	28210.84
792.882	27881.36
793.214	27800
793.546	27776.05
793.879	27752.32
794.211	27452.22
794.543	27620.35
794.875	27406.12
795.207	27551.42
795.539	27297.87
795.871	27273.92
796.203	27157.76
796.535	26937.65
796.867	26881.84
797.198	26865.11
797.53	26837.77
797.862	26784.89
798.193	26740.82
798.525	26497.44
798.856	26644.33
799.188	26299.03
799.519	26324.79
799.85	26170.89
800.182	26247.95
800.513	26099.03
800.844	25992.82
801.175	26256.54
801.506	26104.23
801.837	25922.99
802.168	25967.96
802.499	25870.11
802.83	25776.55
803.161	25661.75
803.491	25612.72
803.822	25633.96
804.153	25679.83
804.483	25556.45
804.814	25453.62
805.145	25433.51
805.475	25479.84
805.805	25266.06
806.136	25448.2
806.466	25448.88
806.796	25443.68
807.126	25180.86
807.457	25270.58
807.787	25254.99
808.117	25148.55
808.447	24931.15
808.777	25155.55
809.107	25053.86
809.436	24910.14
809.766	25014.77
810.096	24871.49
810.426	24825.62
810.755	24881.66
811.085	24826.97
811.414	24808.67
811.744	24575.23
812.073	24687.54
812.403	24652.29
812.732	24488
813.061	24431.73
813.39	24282.81
813.719	24293.2
814.049	24424.95
814.378	24295.91
814.707	24208.23
815.036	24233.09
815.365	24115.13
815.693	23941.35
816.022	24036.71
816.351	23836.27
816.68	23624.29
817.008	23675.37
817.337	23446.22
817.665	23399.89
817.994	23497.29
818.322	23517.63
818.651	23358.99
818.979	23218.2
819.307	23396.5
819.636	23252.55
819.964	23033.35
820.292	23102.5
820.62	23071.09
820.948	23017.08
821.276	22900.02
821.604	22937.98
821.932	22987.25
822.259	22908.38
822.587	22742.28
822.915	22734.83
823.243	22650.31
823.57	22694.38
823.898	22633.59
824.225	22596.52
824.553	22505.91
824.88	22582.06
825.207	22609.41
825.535	22532.57
825.862	22486.24
826.189	22335.29
826.516	22371.22
826.843	22457.32
827.17	22331.45
827.497	22376.42
827.824	22195.63
828.151	22269.53
828.478	22059.82
828.805	22212.81
829.131	22076.99
829.458	22004.9
829.785	21870.44
830.111	21919.03
830.438	21999.25
830.764	21886.26
831.09	21912.93
831.417	21785.02
831.743	21752.48
832.069	21716.32
832.395	21598.13
832.722	21595.19
833.048	21530.56
833.374	21550.68
833.7	21380.51
834.026	21399.04
834.351	21425.93
834.677	21449.89
835.003	21477.68
835.329	21275.66
835.654	21332.38
835.98	21051.48
836.306	21181.65
836.631	21029.56
836.956	21130.35
837.282	21006.51
837.607	20870.47
837.932	20757.7
838.258	20823.92
838.583	20825.05
838.908	20686.29
839.233	20732.39
839.558	20585.73
839.883	20658.27
840.208	20497.82
840.533	20643.81
840.858	20502.79
841.182	20465.73
841.507	20518.16
841.832	20326.3
842.156	20326.98
842.481	20301.44
842.805	20318.39
843.13	20221.22
843.454	20195.46
843.778	20191.39
844.103	20132.41
844.427	20072.3
844.751	20091.96
845.075	20055.12
845.399	19903.04
845.723	19966.99
846.047	20073.43
846.371	19946.65
846.695	19882.92
847.019	19734
847.343	19691.97
847.666	19599.54
847.99	19432.99
848.313	19501.24
848.637	19460.11
848.96	19307.12
849.284	19402.26
849.607	19279.1
849.931	19366.33
850.254	19183.05
850.577	19134.47
850.9	19062.83
851.223	19004.75
851.546	18974.02
851.869	18973.34
852.192	18944.42
852.515	18728.15
852.838	18720.92
853.161	18783.74
853.483	18628.27
853.806	18536.74
854.129	18572.9
854.451	18555.95
854.774	18483.86
855.096	18447.71
855.419	18497.88
855.741	18452.9
856.063	18267.15
856.385	18298.56
856.708	18392.79
857.03	18261.5
857.352	18265.56
857.674	18220.82
857.996	18193.93
858.318	18104.89
858.64	18067.15
858.961	17947.83
859.283	18045.68
859.605	17926.14
859.926	17926.82
860.248	17941.28
860.57	17885.91
860.891	17905.57
861.212	17729.31
861.534	17681.63
861.855	17680.27
862.176	17685.24
862.498	17689.99
862.819	17681.85
863.14	17608.63
863.461	17574.96
863.782	17491.8
864.103	17519.6
864.424	17437.11
864.745	17532.7
865.065	17408.41
865.386	17391.69
865.707	17324.12
866.027	17361.86
866.348	17336.78
866.668	17359.83
866.989	17261.52
867.309	17137.91
867.63	17212.94
867.95	17126.61
868.27	16953.06
868.59	17009.55
868.91	16967.75
869.23	16867.86
869.55	16832.61
869.87	16916.22
870.19	16878.71
870.51	16807.75
870.83	16803.23
871.15	16655.66
871.469	16688.66
871.789	16690.24
872.109	16537.25
872.428	16471.49
872.748	16482.33
873.067	16407.99
873.386	16432.17
873.706	16365.95
874.025	16255.22
874.344	16169.35
874.663	16268.78
874.982	16188.11
875.301	16059.52
875.62	16087.09
875.939	15960.31
876.258	15985.17
876.577	15841.9
876.896	15908.11
877.214	15748.12
877.533	15736.37
877.852	15720.55
878.17	15602.36
878.489	15628.12
878.807	15553.77
879.125	15506.77
879.444	15529.59
879.762	15491.4
880.08	15429.48
880.398	15286.66
880.716	15400.33
881.034	15188.13
881.352	15188.81
881.67	15133.9
881.988	15164.4
882.306	15082.37
882.624	15050.28
882.941	14925.99
883.259	14861.59
883.577	14871.98
883.894	14766.22
884.212	14754.02
884.529	14713.34
884.846	14674.25
885.164	14601.71
885.481	14504.99
885.798	14521.48
886.115	14392.45
886.432	14379.11
886.75	14307.25
887.067	14287.36
887.383	14260.92
887.7	14293.92
888.017	14129.63
888.334	14156.97
888.651	14105.9
888.967	14015.96
889.284	13945.45
889.6	13884.66
889.917	13723.99
890.233	13834.72
890.55	13797.21
890.866	13822.52
891.182	13741.39
891.498	13638.79
891.815	13615.07
892.131	13592.69
892.447	13558.8
892.763	13519.93
893.079	13524.9
893.395	13528.29
893.71	13433.6
894.026	13465.92
894.342	13445.58
894.657	13351.12
894.973	13305.7
895.289	13307.5
895.604	13223.89
895.92	13191.12
896.235	13127.17
896.55	13114.74
896.865	13096.89
897.181	13007.4
897.496	13109.77
897.811	13006.95
898.126	12947.51
898.441	12892.37
898.756	12874.07
899.071	12851.47
899.386	12817.57
899.7	12764.47
900.015	12698.25
900.33	12641.53
900.644	12637.24
900.959	12673.62
901.273	12613.28
901.588	12555.66
901.902	12522.67
902.216	12538.94
902.531	12526.73
902.845	12493.29
903.159	12473.17
903.473	12402.89
903.787	12339.62
904.101	12188.44
904.415	12285.16
904.729	12263.46
905.042	12214.42
905.356	12224.59
905.67	12096.24
905.984	12188.66
906.297	12041.32
906.611	11994.77
906.924	12018.5
907.237	11996.13
907.551	11937.37
907.864	11922.91
908.177	11949.12
908.491	11849.24
908.804	11742.35
909.117	11672.97
909.43	11700.77
909.743	11690.82
910.056	11666.19
910.368	11602.69
910.681	11523.6
910.994	11576.02
911.307	11457.83
911.619	11376.48
911.932	11495.35
912.244	11314.34
912.557	11338.29
912.869	11237.5
913.181	11218.74
913.494	11304.17
913.806	11116.15
914.118	11072.99
914.43	11005.64
914.742	11016.72
915.054	10944.18
915.366	10967.23
915.678	10848.13
915.99	10903.5
916.302	10769.04
916.613	10798.64
916.925	10757.97
917.236	10658.99
917.548	10683.39
917.859	10685.43
918.171	10584.64
918.482	10511.87
918.794	10469.84
919.105	10520.91
919.416	10353.68
919.727	10344.19
920.038	10349.61
920.349	10239.79
920.66	10153.01
920.971	10267.81
921.282	10152.56
921.593	10124.76
921.903	10017.19
922.214	10015.84
922.525	9995.5
922.835	9978.33
923.146	9875.05
923.456	9807.71
923.767	9798.89
924.077	9741.72
924.387	9772.68
924.697	9734.49
925.008	9668.05
925.318	9572.23
925.628	9606.81
925.938	9522.29
926.248	9410.66
926.558	9385.8
926.867	9332.01
927.177	9313.03
927.487	9252.02
927.796	9190.1
928.106	9132.25
928.416	9158.23
928.725	9073.26
929.034	8997.33
929.344	9015.19
929.653	8973.15
929.962	8836.89
930.271	8802.99
930.581	8723.67
930.89	8767.06
931.199	8687.29
931.508	8640.28
931.817	8646.83
932.125	8611.81
932.434	8522.32
932.743	8460.4
933.051	8440.06
933.36	8344.02
933.669	8295.21
933.977	8261.76
934.286	8253.17
934.594	8221.08
934.902	8113.06
935.21	8062.22
935.519	8058.6
935.827	8040.07
936.135	8002.11
936.443	7978.6
936.751	7859.96
937.059	7862.9
937.367	7798.95
937.674	7814.09
937.982	7746.52
938.29	7717.82
938.597	7663.36
938.905	7556.24
939.213	7509.24
939.52	7520.31
939.827	7572.06
940.135	7469.24
940.442	7381.11
940.749	7476.92
941.056	7454.55
941.363	7337.04
941.67	7273.31
941.977	7252.75
942.284	7218.4
942.591	7191.73
942.898	7108.34
943.205	7111.06
943.511	7075.58
943.818	7101.11
944.125	7010.95
944.431	6966.2
944.738	6958.52
945.044	6852.76
945.35	6833.32
945.657	6812.31
945.963	6737.96
946.269	6746.09
946.575	6755.81
946.881	6687.79
947.187	6664.97
947.493	6677.85
947.799	6638.98
948.105	6605.53
948.41	6556.72
948.716	6509.26
949.022	6462.26
949.327	6475.82
949.633	6427.01
949.938	6382.26
950.244	6407.8
950.549	6316.05
950.854	6298.2
951.16	6251.42
951.465	6217.29
951.77	6190.85
952.075	6164.64
952.38	6144.53
952.685	6174.58
952.99	6068.82
953.294	6066.56
953.599	6073.34
953.904	6008.49
954.209	6003.06
954.513	6027.69
954.818	5917.19
955.122	5941.37
955.426	5893.01
955.731	5831.09
956.035	5803.07
956.339	5787.25
956.643	5785.89
956.948	5746.35
957.252	5807.36
957.556	5742.96
957.86	5694.14
958.163	5679.46
958.467	5633.81
958.771	5615.5
959.075	5585.22
959.378	5614.15
959.682	5592.9
959.985	5537.54
960.289	5576.63
960.592	5541.15
960.896	5445.34
961.199	5472.68
961.502	5430.2
961.805	5387.03
962.108	5373.25
962.411	5368.95
962.714	5374.6
963.017	5306.81
963.32	5325.79
963.623	5278.11
963.926	5261.39
964.228	5248.51
964.531	5206.7
964.833	5242.18
965.136	5179.58
965.438	5194.27
965.741	5154.27
966.043	5121.73
966.345	5080.37
966.648	5053.93
966.95	5038.34
967.252	5055.29
967.554	5037.44
967.856	5004.9
968.158	4987.5
968.46	4961.51
968.761	4926.25
969.063	4930.55
969.365	4895.3
969.666	4902.3
969.968	4855.07
970.269	4809.87
970.571	4834.28
970.872	4785.24
971.174	4795.64
971.475	4784.56
971.776	4753.83
972.077	4740.27
972.378	4745.24
972.679	4701.63
972.98	4685.36
973.281	4666.83
973.582	4654.4
973.883	4621.4
974.183	4628.64
974.484	4592.7
974.785	4611.69
975.085	4557.45
975.386	4557.9
975.686	4526.72
975.986	4469.54
976.287	4551.12
976.587	4443.56
976.887	4479.26
977.187	4426.15
977.487	4410.34
977.787	4351.13
978.087	4399.26
978.387	4369.66
978.687	4361.07
978.987	4309.32
979.286	4313.62
979.586	4290.57
979.885	4229.1
980.185	4253.05
980.484	4212.38
980.784	4178.93
981.083	4164.01
981.382	4126.5
981.682	4116.11
981.981	4154.75
982.28	4075.66
982.579	4039.72
982.878	4036.79
983.177	4049.44
983.475	4033.4
983.774	3939.39
984.073	3924.93
984.372	3912.27
984.67	3922.21
984.969	3952.27
985.267	3934.64
985.566	3881.76
985.864	3853.74
986.162	3844.7
986.461	3809.67
986.759	3826.62
987.057	3766.06
987.355	3780.07
987.653	3738.49
987.951	3711.37
988.249	3670.24
988.547	3680.86
988.844	3675.89
989.142	3683.35
989.44	3613.75
989.737	3590.7
990.035	3562.67
990.332	3541.66
990.63	3556.12
990.927	3549.12
991.224	3488.55
991.521	3551.15
991.819	3495.56
992.116	3433.19
992.413	3453.3
992.71	3428.89
993.006	3416.92
993.303	3427.54
993.6	3353.41
993.897	3358.61
994.193	3327.65
994.49	3328.1
994.787	3295.56
995.083	3310.25
995.379	3241.55
995.676	3270.25
995.972	3291.72
996.268	3237.03
996.565	3240.42
996.861	3222.12
997.157	3188.67
997.453	3143.25
997.749	3158.84
998.044	3139.18
998.34	3120.43
998.636	3077.04
998.932	3077.49
999.227	3050.37
999.523	3028.9
999.818	3000.88
1000.114	3006.76
1000.409	2992.75
1000.704	2924.05
1001	2991.39
1001.295	2929.25
1001.59	2933.76
1001.885	2908.45
1002.18	2886.53
1002.475	2892.41
1002.77	2867.55
1003.065	2850.38
1003.359	2827.78
1003.654	2822.36
1003.949	2767.22
1004.243	2725.18
1004.538	2732.19
1004.832	2762.92
1005.127	2710.72
1005.421	2684.73
1005.715	2661.91
1006.009	2672.53
1006.304	2653.09
1006.598	2614.23
1006.892	2612.19
1007.186	2585.53
1007.48	2597.73
1007.773	2569.03
1008.067	2535.13
1008.361	2516.15
1008.655	2488.58
1008.948	2511.18
1009.242	2481.35
1009.535	2462.59
1009.829	2458.07
1010.122	2406.55
1010.415	2418.75
1010.708	2405.19
1011.001	2413.1
1011.295	2418.98
1011.588	2344.63
1011.881	2337.4
1012.173	2328.58
1012.466	2343.5
1012.759	2319.77
1013.052	2312.31
1013.344	2296.04
1013.637	2280.22
1013.93	2237.29
1014.222	2244.97
1014.514	2211.07
1014.807	2222.37
1015.099	2187.34
1015.391	2189.6
1015.683	2179.66
1015.976	2148.7
1016.268	2146.44
1016.56	2129.27
1016.851	2106.89
1017.143	2130.85
1017.435	2072.32
1017.727	2044.75
1018.018	2037.74
1018.31	2064.18
1018.602	2033.68
1018.893	2052.43
1019.185	2020.57
1019.476	2009.72
1019.767	1973.56
1020.058	1943.96
1020.35	1950.51
1020.641	1939.21
1020.932	1928.82
1021.223	1917.52
1021.514	1901.02
1021.804	1864.87
1022.095	1863.51
1022.386	1864.41
1022.677	1844.08
1022.967	1836.84
1023.258	1811.53
1023.548	1783.51
1023.839	1790.07
1024.129	1788.03
1024.419	1762.04
1024.709	1781.03
1025	1759.56
1025.29	1746
1025.58	1730.63
1025.87	1679.33
1026.16	1700.35
1026.449	1695.83
1026.739	1665.78
1027.029	1659.45
1027.319	1663.74
1027.608	1652.67
1027.898	1646.11
1028.187	1626.23
1028.477	1619.9
1028.766	1579.45
1029.055	1609.28
1029.344	1581.71
1029.634	1584.42
1029.923	1559.11
1030.212	1561.6
1030.501	1548.72
1030.79	1527.7
1031.078	1503.07
1031.367	1531.54
1031.656	1513.69
1031.945	1494.71
1032.233	1475.72
1032.522	1454.26
1032.81	1448.38
1033.099	1437.08
1033.387	1445.89
1033.675	1453.35
1033.963	1404.54
1034.251	1412.9
1034.54	1383.3
1034.828	1366.8
1035.116	1374.94
1035.403	1347.37
1035.691	1364.99
1035.979	1341.26
1036.267	1328.16
1036.554	1308.04
1036.842	1324.09
1037.129	1314.37
1037.417	1266.46
1037.704	1309.63
1037.992	1277.99
1038.279	1282.28
1038.566	1254.71
1038.853	1254.71
1039.14	1254.71
