Data from White_paper_FLMS001491_022.txt Node
Date: Tue Feb 07 10:34:51 GMT 2017
User: dcchb
Spectrometer: FLMS00149
Trigger mode: 0
Integration Time (sec): 2.000000E-2
Scans to average: 10
Electric dark correction enabled: true
Nonlinearity correction enabled: false
Boxcar width: 0
XAxis mode: Wavelengths
Number of Pixels in Spectrum: 2048
>>>>>Begin Spectral Data<<<<<
341.393	-24.31
341.776	-24.31
342.16	-24.31
342.543	-44.19
342.927	-52.33
343.31	-90.29
343.693	-64.98
344.077	-74.93
344.46	-63.18
344.843	-68.37
345.226	-42.84
345.61	-21.37
345.993	-21.14
346.376	-1.03
346.759	-12.1
347.142	26.31
347.525	56.14
347.908	76.26
348.291	77.84
348.674	95.69
349.057	128.01
349.44	111.73
349.823	136.14
350.206	182.92
350.588	225.4
350.971	231.51
351.354	243.48
351.737	246.19
352.119	290.26
352.502	298.4
352.884	309.7
353.267	306.76
353.65	311.05
354.032	337.04
354.414	345.63
354.797	347.89
355.179	339.3
355.562	361.67
355.944	352.86
356.326	364.61
356.709	356.7
357.091	355.57
357.473	364.16
357.855	374.33
358.238	390.37
358.62	375.46
359.002	367.77
359.384	376.59
359.766	361.67
360.148	358.51
360.53	363.48
360.912	373.65
361.294	371.39
361.676	366.42
362.057	364.38
362.439	377.26
362.821	379.3
363.203	359.19
363.584	352.63
363.966	350.15
364.348	361.67
364.729	362.12
365.111	366.19
365.493	363.48
365.874	359.86
366.256	362.58
366.637	363.93
367.019	361.67
367.4	375.46
367.781	351.05
368.163	349.69
368.544	360.99
368.925	347.21
369.306	383.14
369.688	367.77
370.069	357.83
370.45	373.2
370.831	352.18
371.212	360.99
371.593	353.76
371.974	370.94
372.355	362.35
372.736	376.36
373.117	373.87
373.498	363.71
373.879	358.06
374.26	356.7
374.641	366.19
375.021	354.89
375.402	368
375.783	382.24
376.163	393.08
376.544	390.37
376.925	369.81
377.305	403.93
377.686	403.25
378.066	391.05
378.447	400.31
378.827	403.25
379.208	377.26
379.588	395.57
379.968	398.28
380.349	418.84
380.729	404.61
381.109	405.06
381.489	409.35
381.87	414.1
382.25	417.04
382.63	428.11
383.01	413.42
383.39	435.34
383.77	428.11
384.15	420.2
384.53	446.41
384.91	438.28
385.29	453.19
385.67	467.88
386.049	440.09
386.429	440.77
386.809	453.42
387.189	464.27
387.568	467.66
387.948	478.05
388.328	485.51
388.707	464.72
389.087	482.8
389.466	475.57
389.846	486.41
390.225	479.63
390.605	498.84
390.984	503.36
391.363	515.57
391.743	491.16
392.122	504.04
392.501	515.79
392.881	535.45
393.26	520.09
393.639	547.88
394.018	547.66
394.397	535.68
394.776	537.71
395.155	552.85
395.534	562.12
395.913	575.68
396.292	569.35
396.671	582.23
397.05	580.2
397.429	602.79
397.808	612.51
398.186	601.21
398.565	607.99
398.944	596.92
399.323	617.71
399.701	614.55
400.08	646.41
400.458	645.73
400.837	640.76
401.215	653.19
401.594	657.03
401.972	676.24
402.351	650.03
402.729	685.96
403.107	712.62
403.486	726.63
403.864	738.84
404.242	726.86
404.62	735.22
404.999	752.4
405.377	785.16
405.755	775.22
406.133	794.65
406.511	814.31
406.889	802.11
407.267	823.35
407.645	862.22
408.023	879.85
408.401	903.35
408.779	908.55
409.156	946.51
409.534	962.33
409.912	960.53
410.29	1008.66
410.667	1032.84
411.045	1059.51
411.422	1099.5
411.8	1073.74
412.178	1122.33
412.555	1180.86
412.933	1175.66
413.31	1241.65
413.687	1233.06
414.065	1275.32
414.442	1282.1
414.819	1317.35
415.197	1331.36
415.574	1386.96
415.951	1395.32
416.328	1397.58
416.705	1435.09
417.082	1475.99
417.46	1513.05
417.837	1532.49
418.214	1565.26
418.591	1590.79
418.967	1605.93
419.344	1639.83
419.721	1691.35
420.098	1666.27
420.475	1695.87
420.852	1780.39
421.228	1776.55
421.605	1789.43
421.982	1848.86
422.358	1824.46
422.735	1867.85
423.111	1877.34
423.488	1925.92
423.864	1927.73
424.241	1983.55
424.617	1993.04
424.994	2026.49
425.37	2022.42
425.746	2031.91
426.123	2087.5
426.499	2113.72
426.875	2134.73
427.251	2180.15
427.627	2200.27
428.003	2256.99
428.379	2267.38
428.756	2322.3
429.132	2349.87
429.507	2387.83
429.883	2400.04
430.259	2464.44
430.635	2477.77
431.011	2505.57
431.387	2561.84
431.763	2598.67
432.138	2624.89
432.514	2672.57
432.89	2723.42
433.265	2779.91
433.641	2773.36
434.016	2796.86
434.392	2856.97
434.767	2947.37
435.143	2915.5
435.518	2992.56
435.894	2968.83
436.269	3069.17
436.644	3099.68
437.02	3125.89
437.395	3133.35
437.77	3218.32
438.145	3274.59
438.52	3297.41
438.895	3316.17
439.271	3345.77
439.646	3412.21
440.021	3409.05
440.395	3433.68
440.77	3426.9
441.145	3483.85
441.52	3510.52
441.895	3536.28
442.27	3575.37
442.645	3534.24
443.019	3626.22
443.394	3641.36
443.769	3691.3
444.143	3657.18
444.518	3751.86
444.892	3730.17
445.267	3750.73
445.641	3823.28
446.016	3818.08
446.39	3849.49
446.764	3854.01
447.139	3843.84
447.513	3904.4
447.887	3926.78
448.262	3946.89
448.636	3969.49
449.01	4021.46
449.384	4089.71
449.758	4028.92
450.132	4136.04
450.506	4131.29
450.88	4138.52
451.254	4146.88
451.628	4221.91
452.002	4281.34
452.376	4296.26
452.75	4323.83
453.123	4353.88
453.497	4444.28
453.871	4466.87
454.244	4577.38
454.618	4582.35
454.992	4649.02
455.365	4670.71
455.739	4814.21
456.112	4813.53
456.486	4853.76
456.859	4902.57
457.232	5040.19
457.606	4957.71
457.979	5040.64
458.352	5123.81
458.725	5215.78
459.099	5266.18
459.472	5354.08
459.845	5429.79
460.218	5421.43
460.591	5474.53
460.964	5488.54
461.337	5653.06
461.71	5779.16
462.083	5819.83
462.456	5884.01
462.829	5862.32
463.201	5964.24
463.574	6016.89
463.947	6112.93
464.32	6257.56
464.692	6292.36
465.065	6287.62
465.438	6395.18
465.81	6483.09
466.183	6536.65
466.555	6683.76
466.928	6724.44
467.3	6706.82
467.672	6933.48
468.045	7009.41
468.417	7051.44
468.789	7147.71
469.161	7207.59
469.534	7372.33
469.906	7533.01
470.278	7533.91
470.65	7659.11
471.022	7820.46
471.394	7930.06
471.766	7986.78
472.138	8123.05
472.51	8271.52
472.882	8424.51
473.253	8416.37
473.625	8634.22
473.997	8768.23
474.369	8772.75
474.74	8951.95
475.112	9119.41
475.484	9258.39
475.855	9411.6
476.227	9486.18
476.598	9753.74
476.97	9777.02
477.341	10059.27
477.713	10136.33
478.084	10212.94
478.455	10552.14
478.827	10594.85
479.198	10927.72
479.569	10942.41
479.94	11160.48
480.311	11415.17
480.682	11472.11
481.053	11791.65
481.424	12035.94
481.795	12099.44
482.166	12300.11
482.537	12398.64
482.908	12730.16
483.279	12859.87
483.65	13101
484.021	13302.8
484.391	13451.27
484.762	13569.46
485.133	13664.15
485.503	13982.56
485.874	14230.46
486.244	14302.32
486.615	14573.05
486.985	14705.93
487.356	15044
487.726	15138.01
488.097	15464.33
488.467	15516.3
488.837	15771.89
489.207	15992.22
489.578	16141.82
489.948	16287.58
490.318	16589.49
490.688	16644.41
491.058	16932.31
491.428	17142.92
491.798	17277.38
492.168	17653.42
492.538	17741.33
492.908	17824.04
493.278	18166.17
493.648	18142.22
494.017	18304.93
494.387	18513.96
494.757	18776.33
495.126	18865.14
495.496	18778.81
495.866	19076.66
496.235	19274.17
496.605	19427.38
496.974	19629.64
497.344	19769.52
497.713	19816.98
498.082	19915.96
498.452	20202.28
498.821	20316.4
499.19	20334.25
499.559	20533.12
499.928	20670.06
500.298	20731.98
500.667	20944.63
501.036	20931.3
501.405	21213.33
501.774	21161.58
502.143	21390.72
502.512	21564.5
502.88	21762.24
503.249	21733.09
503.618	21867.09
503.987	22074.77
504.356	22222.79
504.724	22326.29
505.093	22479.28
505.462	22493.52
505.83	22673.85
506.199	22958.82
506.567	23171.24
506.936	23102.32
507.304	23513.38
507.672	23529.88
508.041	23596.09
508.409	23869.3
508.777	23986.13
509.145	24097.54
509.514	24133.7
509.882	24364.2
510.25	24446.24
510.618	24580.24
510.986	24702.73
511.354	24903.17
511.722	25154.01
512.09	25246.67
512.458	25296.83
512.826	25577.28
513.193	25739.99
513.561	25612.98
513.929	25982.24
514.297	26205.96
514.664	26359.41
515.032	26522.34
515.4	26822.44
515.767	26860.18
516.135	26963.68
516.502	26823.12
516.869	27414.75
517.237	27593.27
517.604	27368.42
517.972	27690.44
518.339	27871.68
518.706	27937.9
519.073	28112.81
519.44	28305.34
519.808	28690.19
520.175	28589.86
520.542	29017.64
520.909	29161.59
521.276	29246.11
521.643	29483.84
522.009	29759.77
522.376	29796.38
522.743	30113.88
523.11	30231.62
523.477	30633.42
523.843	30847.65
524.21	31122.67
524.577	31341.42
524.943	31418.93
525.31	31704.12
525.676	31950.67
526.043	31982.99
526.409	32093.27
526.776	32552.46
527.142	32653.03
527.508	32824.77
527.874	33041.26
528.241	33211.65
528.607	33367.36
528.973	33757.4
529.339	33715.37
529.705	34111.07
530.071	34218.18
530.437	34395.8
530.803	34642.8
531.169	34843.48
531.535	34821.78
531.901	35050.25
532.267	35142.9
532.632	35378.38
532.998	35495.66
533.364	35734.98
533.73	35765.03
534.095	36114.4
534.461	36204.8
534.826	36314.4
535.192	36488.4
535.557	36727.95
535.923	36819.7
536.288	36973.59
536.653	37031.67
537.019	37119.35
537.384	37306.46
537.749	37468.27
538.114	37536.51
538.479	37631.88
538.845	37850.63
539.21	37894.92
539.575	38079.78
539.94	38175.14
540.305	38402.48
540.67	38250.62
541.034	38437.28
541.399	38650.83
541.764	38786.2
542.129	38995.23
542.494	39013.08
542.858	39249.01
543.223	39433.86
543.587	39472.73
543.952	39484.26
544.316	39863.68
544.681	39723.8
545.045	39967.41
545.41	40074.3
545.774	40121.53
546.138	40288.76
546.503	40413.5
546.867	40420.73
547.231	41004.67
547.595	40835.18
547.959	41116.76
548.324	41091.9
548.688	41198.56
549.052	41333.25
549.416	41322.63
549.779	41586.8
550.143	41585.67
550.507	41875.38
550.871	42134.13
551.235	42158.76
551.599	42318.08
551.962	42361.7
552.326	42634.46
552.689	42709.26
553.053	42637.17
553.417	42742.48
553.78	43320.54
554.143	43100.89
554.507	43432.4
554.87	43347.21
555.234	43849.79
555.597	43633.75
555.96	43950.58
556.323	44063.57
556.686	44026.06
557.05	44388.54
557.413	44508.53
557.776	44455.43
558.139	44734.97
558.502	44906.04
558.865	45022.64
559.228	45171.34
559.59	45382.18
559.953	45459.47
560.316	45865.79
560.679	45778.1
561.041	46105.78
561.404	46277.75
561.767	46467.8
562.129	46415.6
562.492	46730.85
562.854	46717.06
563.217	46917.28
563.579	47173.32
563.941	47238.18
564.304	47277.5
564.666	47668.9
565.028	47733.08
565.39	47858.05
565.753	47997.93
566.115	48243.58
566.477	48367.41
566.839	48519.05
567.201	48682.43
567.563	48732.15
567.925	49005.59
568.287	49003.33
568.648	49048.3
569.01	49454.17
569.372	49576.87
569.734	49432.02
570.095	49704.78
570.457	49943.87
570.819	49903.65
571.18	50100.48
571.542	50208.5
571.903	50281.71
572.265	50530.75
572.626	50474.48
572.987	50525.78
573.349	50606
573.71	50857.52
574.071	50971.19
574.432	51031.98
574.794	51290.05
575.155	51298.19
575.516	51166.21
575.877	51429.03
576.238	51370.05
576.599	51592.64
576.96	51627.89
577.32	51705.86
577.681	51881.22
578.042	51907.66
578.403	51888
578.763	51971.84
579.124	52046.87
579.485	52176.13
579.845	52231.72
580.206	52175.9
580.566	52215.45
580.927	52291.61
581.287	52373.19
581.648	52372.73
582.008	52509.23
582.368	52464.03
582.728	52548.77
583.089	52440.08
583.449	52500.41
583.809	52685.95
584.169	52682.56
584.529	52561.65
584.889	52901.31
585.249	52596.68
585.609	52592.39
585.969	52791.93
586.329	52804.59
586.688	52770.46
587.048	52782.44
587.408	52794.42
587.768	52894.53
588.127	52840.97
588.487	52796
588.846	52997.8
589.206	52820.63
589.565	52908.54
589.925	53001.87
590.284	52994.86
590.643	53058.36
591.003	53075.77
591.362	53212.49
591.721	53063.79
592.08	53055.2
592.44	53171.36
592.799	53209.77
593.158	53163.9
593.517	53110.11
593.876	53336.1
594.235	53141.75
594.593	53247.51
594.952	53305.36
595.311	53146.05
595.67	53296.1
596.029	53463.33
596.387	53497.22
596.746	53579.93
597.104	53373.16
597.463	53412.03
597.822	53575.19
598.18	53417.23
598.538	53475.98
598.897	53580.38
599.255	53433.5
599.613	53702.19
599.972	53662.64
600.33	53738.8
600.688	53627.62
601.046	53661.74
601.404	53809.53
601.762	53683.43
602.12	53916.42
602.478	53871.22
602.836	53789.87
603.194	53814.96
603.552	53763.88
603.91	53795.97
604.268	53933.6
604.625	53819.7
604.983	53950.54
605.341	53827.61
605.698	53952.8
606.056	53979.47
606.413	54040.94
606.771	54033.25
607.128	54117.09
607.485	54067.15
607.843	54054.72
608.2	54237.99
608.557	54216.53
608.914	54203.87
609.272	54346.92
609.629	54338.33
609.986	54452.68
610.343	54354.6
610.7	54456.29
611.057	54389.86
611.414	54439.12
611.771	54471.21
612.127	54567.48
612.484	54588.72
612.841	54649.06
613.198	54524.09
613.554	54578.78
613.911	54670.75
614.267	54703.29
614.624	54675.27
614.98	54680.47
615.337	54812.22
615.693	54837.75
616.05	54727.02
616.406	54885.66
616.762	54776.06
617.118	54728.15
617.475	54863.06
617.831	54871.2
618.187	54894.02
618.543	54947.81
618.899	55070.74
619.255	54965.89
619.611	54934.25
619.967	55106.45
620.323	55077.07
620.678	55016.73
621.034	54920.69
621.39	55024.64
621.746	54964.08
622.101	55188.48
622.457	54980.57
622.812	55174.92
623.168	55148.48
623.523	55219.21
623.879	55261.47
624.234	54988.26
624.589	55130.63
624.945	55176.28
625.3	55193.22
625.655	55168.14
626.01	55166.56
626.365	55255.82
626.72	55157.74
627.075	55158.87
627.43	55121.36
627.785	55007.47
628.14	55133.56
628.495	55180.34
628.85	55201.36
629.205	55082.04
629.559	55280.23
629.914	55122.94
630.269	55004.98
630.623	55014.02
630.978	55001.36
631.332	55136.28
631.687	55136.5
632.041	55093.11
632.396	55151.19
632.75	54993.23
633.104	55034.81
633.459	54905.77
633.813	54978.31
634.167	54962.5
634.521	54906.68
634.875	54964.98
635.229	54938.54
635.583	54817.41
635.937	54845.21
636.291	54813.8
636.645	54832.1
636.999	54792.33
637.352	54869.16
637.706	54662.84
638.06	54796.17
638.413	54790.97
638.767	54678.44
639.121	54771.31
639.474	54613.8
639.828	54655.38
640.181	54611.09
640.534	54694.25
640.888	54587.59
641.241	54466.01
641.594	54541.49
641.947	54598.89
642.301	54511.21
642.654	54572.45
643.007	54589.4
643.36	54537.65
643.713	54445.67
644.066	54580.36
644.419	54418.78
644.771	54191.67
645.124	53916.65
645.477	53879.59
645.83	53705.58
646.182	53659.7
646.535	53584
646.888	53593.72
647.24	53506.04
647.593	53647.5
647.945	53565.47
648.298	53434.63
648.65	53418.81
649.002	53340.62
649.355	53461.74
649.707	53438.69
650.059	53563.89
650.411	53919.81
650.763	53978.79
651.115	54192.35
651.467	54092.01
651.819	54142.86
652.171	53939.47
652.523	54051.56
652.875	54074.38
653.227	53848.63
653.578	54106.02
653.93	54016.08
654.282	53916.42
654.633	53833.03
654.985	53834.16
655.337	53883.2
655.688	53871.9
656.039	53986.93
656.391	53818.8
656.742	53756.65
657.094	53770.44
657.445	53868.96
657.796	53781.74
658.147	53766.14
658.498	53733.38
658.849	53805.46
659.2	53774.96
659.551	53721.62
659.902	53769.31
660.253	53740.38
660.604	53781.06
660.955	53634.39
661.306	53773.83
661.656	53656.54
662.007	53689.53
662.358	53671.91
662.708	53649.99
663.059	53643.21
663.409	53441.86
663.76	53642.08
664.11	53643.66
664.461	53727.5
664.811	53676.88
665.161	53622.64
665.511	53541.06
665.862	53545.58
666.212	53661.06
666.562	53639.14
666.912	53513.04
667.262	53511.91
667.612	53544
667.962	53524.34
668.312	53417.23
668.662	53626.03
669.011	53459.48
669.361	53381.97
669.711	53417.45
670.06	53386.94
670.41	53301.07
670.76	53226.5
671.109	53299.04
671.459	53309.66
671.808	53131.36
672.157	53371.8
672.507	53051.36
672.856	53079.16
673.205	53103.11
673.554	53133.39
673.904	53100.17
674.253	53205.48
674.602	53092.04
674.951	52628.32
675.3	52515.55
675.649	52949.22
675.998	52983.79
676.346	53037.12
676.695	52968.88
677.044	52736.79
677.393	52875.32
677.741	52926.84
678.09	52798.26
678.438	52767.3
678.787	52746.96
679.135	52794.64
679.484	52505.16
679.832	52663.12
680.181	52414.77
680.529	52499.28
680.877	52504.71
681.225	52436.01
681.573	52532.28
681.922	52319.85
682.27	52231.72
682.618	52245.05
682.966	52187.43
683.314	52180.87
683.661	52174.77
684.009	51962.57
684.357	51852.52
684.705	51814.56
685.053	51826.08
685.4	51796.7
685.748	51598.29
686.095	51615.01
686.443	51554.45
686.79	51396.26
687.138	51355.58
687.485	51406.43
687.832	51267.23
688.18	51323.5
688.527	51066.1
688.874	51095.25
689.221	50912.66
689.568	50869.27
689.915	50755.37
690.262	50851.87
690.609	50606.68
690.956	50546.34
691.303	50499.34
691.65	50329.4
691.997	50321.71
692.344	50049.86
692.69	50104.09
693.037	50012.57
693.383	49882.86
693.73	49928.28
694.077	49760.15
694.423	49715.4
694.769	49598.79
695.116	49388.4
695.462	49364.9
695.808	49293.27
696.155	49360.16
696.501	49109.99
696.847	49086.27
697.193	48863.67
697.539	48924.46
697.885	48668.88
698.231	48577.35
698.577	48571.25
698.923	48473.85
699.269	48259.85
699.614	48088.33
699.96	48061.89
700.306	47983.7
700.651	47892.62
700.997	47810.59
701.342	47842
701.688	47741.89
702.033	47443.15
702.379	47522.92
702.724	47345.97
703.069	47445.86
703.415	47041.57
703.76	46961.8
704.105	47012.65
704.45	46893.33
704.795	46744.86
705.14	46568.14
705.485	46542.38
705.83	46361.14
706.175	46468.26
706.52	46433
706.865	46158.66
707.209	46160.02
707.554	46026.69
707.899	46117.3
708.243	45706.92
708.588	45756.64
708.932	45498.79
709.277	45551.22
709.621	45542.4
709.966	45129.76
710.31	45346.7
710.654	44956.2
710.998	44963.89
711.342	45207.05
711.687	45015.64
712.031	44720.73
712.375	44640.28
712.719	44837.11
713.063	44583.56
713.407	44808.41
713.75	44527.29
714.094	44397.12
714.438	44290.01
714.782	44293.17
715.125	44197.81
715.469	44193.97
715.812	43934.54
716.156	43737.03
716.499	43810.7
716.843	43702.23
717.186	43586.75
717.53	43784.03
717.873	43662.91
718.216	43512.18
718.559	43334.1
718.902	43195.8
719.246	43392.18
719.589	43120.77
719.932	42966.65
720.275	43017.72
720.617	42898.18
720.96	42835.58
721.303	42902.7
721.646	42798.75
721.989	42529.15
722.331	42829.71
722.674	42514.69
723.016	42496.38
723.359	42468.81
723.701	42508.13
724.044	42218.65
724.386	42108.82
724.729	42337.29
725.071	42300
725.413	42094.36
725.755	42037.86
726.097	41989.28
726.439	41714.48
726.782	41777.76
727.124	41980.92
727.465	41716.97
727.807	41749.28
728.149	41476.75
728.491	41428.61
728.833	41469.06
729.175	41253.7
729.516	41338.67
729.858	41249.41
730.199	41260.71
730.541	41149.98
730.882	41140.49
731.224	41178
731.565	40972.35
731.906	41089.87
732.248	40860.49
732.589	40819.36
732.93	40646.71
733.271	40632.93
733.612	40658.24
733.953	40716.99
734.294	40496.89
734.635	40475.19
734.976	40529.43
735.317	40328.08
735.658	40409.66
735.999	40267.97
736.339	40230
736.68	40356.78
737.021	40104.81
737.361	39958.82
737.702	40167.4
738.042	39972.61
738.383	39909.11
738.723	39880.18
739.063	39780.75
739.404	39780.75
739.744	39676.12
740.084	39549.57
740.424	39542.79
740.764	39498.95
741.104	39660.3
741.444	39444.71
741.784	39303.02
742.124	39443.58
742.464	39317.03
742.804	39291.04
743.143	39154.32
743.483	39248.11
743.823	38977.61
744.162	39066.19
744.502	38943.26
744.841	38874.56
745.181	39052.18
745.52	38826.42
745.86	38730.38
746.199	38960.66
746.538	38744.62
746.877	38816.25
747.216	38650.16
747.556	38622.59
747.895	38568.35
748.234	38257.17
748.573	38331.29
748.911	38291.52
749.25	38217.63
749.589	38148.02
749.928	38182.37
750.267	38198.64
750.605	38102.15
750.944	37949.61
751.283	37884.07
751.621	37878.88
751.96	37626.45
752.298	37752.33
752.636	37722.5
752.975	37467.81
753.313	37381.71
753.651	37461.94
753.989	37346.46
754.327	37249.74
754.666	37123.19
755.004	37110.54
755.342	37080.48
755.679	37061.5
756.017	36812.46
756.355	36983.76
756.693	36685.46
757.031	36789.87
757.368	36594.16
757.706	36364.79
758.044	36395.75
758.381	36416.77
758.719	36134.29
759.056	36248.19
759.394	36079.6
759.731	35906.73
760.068	35787.63
760.405	35601.42
760.743	35543.12
761.08	35767.97
761.417	35397.81
761.754	35354.65
762.091	35386.06
762.428	35167.54
762.765	34945.85
763.102	35077.37
763.438	34950.37
763.775	34710.15
764.112	34631.5
764.449	34678.06
764.785	34553.77
765.122	34361
765.458	34206.66
765.795	34048.7
766.131	34166.88
766.467	34042.82
766.804	33907
767.14	33840.34
767.476	33693.68
767.812	33626.79
768.148	33555.15
768.485	33334.59
768.821	33133.01
769.157	33188.38
769.492	33100.7
769.828	33074.26
770.164	32681.05
770.5	32646.92
770.836	32766.47
771.171	32410.77
771.507	32449.19
771.842	32222.3
772.178	32179.59
772.513	32171.68
772.849	31988.86
773.184	31825.48
773.519	31718.81
773.855	31661.41
774.19	31419.61
774.525	31419.16
774.86	31485.15
775.195	31371.48
775.53	31135.1
775.865	30985.27
776.2	30874.09
776.535	30606.53
776.87	30600.2
777.205	30487.88
777.539	30416.7
777.874	30440.43
778.209	30240.66
778.543	30022.36
778.878	29910.5
779.212	29816.26
779.547	29745.08
779.881	29834.34
780.215	29501.47
780.55	29611.3
780.884	29301.93
781.218	29390.29
781.552	29348.93
781.886	29211.08
782.22	29076.85
782.554	28916.63
782.888	28611.1
783.222	28573.36
783.556	28513.02
783.889	28438.9
784.223	28237.1
784.557	28192.13
784.89	28176.08
785.224	28166.36
785.557	27919.36
785.891	27842.3
786.224	27769.09
786.558	27743.55
786.891	27500.17
787.224	27419.72
787.557	27421.07
787.891	27220.17
788.224	27188.54
788.557	27218.37
788.89	27016.11
789.223	27183.11
789.556	26760.3
789.888	26763.46
790.221	26662.67
790.554	26407.99
790.887	26544.49
791.219	26387.65
791.552	26228.56
791.884	26260.2
792.217	26132.07
792.549	26004.16
792.882	25825.18
793.214	25832.41
793.546	25819.98
793.879	25649.59
794.211	25487.34
794.543	25574.12
794.875	25436.94
795.207	25358.3
795.539	25236.72
795.871	25348.81
796.203	25088.48
796.535	24974.36
796.867	24868.82
797.198	24905.66
797.53	24855.26
797.862	24673.57
798.193	24764.42
798.525	24573.69
798.856	24530.08
799.188	24280.59
799.519	24189.52
799.85	24115.4
800.182	24193.59
800.513	24163.53
800.844	23905.68
801.175	23954.5
801.506	24039.47
801.837	23787.04
802.168	23667.5
802.499	23601.06
802.83	23534.62
803.161	23434.51
803.491	23415.98
803.822	23421.63
804.153	23220.73
804.483	23096.67
804.814	23015.76
805.145	22967.63
805.475	23015.31
805.805	22861.87
806.136	22968.31
806.466	22833.17
806.796	22870.91
807.126	22602.22
807.457	22504.14
807.787	22557.47
808.117	22520.64
808.447	22363.35
808.777	22475.67
809.107	22272.73
809.436	22318.16
809.766	22223.24
810.096	22202.23
810.426	22074.77
810.755	22212.17
811.085	22086.3
811.414	21889.24
811.744	21831.16
812.073	21796.59
812.403	21670.04
812.732	21660.55
813.061	21647.21
813.39	21472.3
813.719	21404.28
814.049	21454.45
814.378	21449.48
814.707	21280.9
815.036	21253.55
815.365	21101.24
815.693	20961.58
816.022	21157.51
816.351	20918.19
816.68	20827.57
817.008	20883.84
817.337	20751.19
817.665	20609.05
817.994	20698.54
818.322	20726.56
818.651	20594.59
818.979	20543.29
819.307	20645.88
819.636	20470.97
819.964	20356.4
820.292	20495.15
820.62	20467.13
820.948	20351.65
821.276	20413.35
821.604	20369.05
821.932	20329.96
822.259	20383.52
822.587	20483.85
822.915	20300.36
823.243	20323.86
823.57	20247.25
823.898	20478.43
824.225	20228.95
824.553	20297.19
824.88	20334.25
825.207	20301.03
825.535	20212.22
825.862	20276.63
826.189	20203.64
826.516	20349.17
826.843	20350.98
827.17	20231.66
827.497	20241.15
827.824	20294.03
828.151	20307.59
828.478	20345.33
828.805	20286.57
829.131	20207.93
829.458	20183.97
829.785	20115.28
830.111	20135.84
830.438	20252.22
830.764	20233.01
831.09	20261.71
831.417	20125.22
831.743	20120.02
832.069	20233.24
832.395	20008.84
832.722	20126.58
833.048	19981.72
833.374	20035.96
833.7	19915.06
834.026	19986.69
834.351	20058.33
834.677	19978.78
835.003	20074.6
835.329	19980.14
835.654	19856.53
835.98	19775.62
836.306	19840.26
836.631	19743.76
836.956	19809.3
837.282	19870.99
837.607	19726.13
837.932	19645.01
838.258	19661.28
838.583	19720.71
838.908	19440.49
839.233	19572.92
839.558	19518.46
839.883	19433.49
840.208	19419.93
840.533	19438.23
840.858	19360.49
841.182	19425.58
841.507	19340.38
841.832	19335.18
842.156	19256.32
842.481	19160.73
842.805	19137.45
843.13	19108.07
843.454	18987.4
843.778	18916.44
844.103	18964.35
844.427	18848.42
844.751	18910.34
845.075	18920.51
845.399	18875.53
845.723	18652.26
846.047	18681.42
846.371	18533.62
846.695	18515.09
847.019	18494.75
847.343	18290.47
847.666	18145.84
847.99	18168.89
848.313	18149.9
848.637	18042.79
848.96	17963.02
849.284	17879.63
849.607	17692.52
849.931	17770.25
850.254	17632.18
850.577	17488.68
850.9	17475.8
851.223	17413.43
851.546	17266.76
851.869	17186.77
852.192	17359.64
852.515	17130.95
852.838	17103.83
853.161	17128.24
853.483	16975.7
853.806	16886.66
854.129	16956.49
854.451	16796.49
854.774	16839.88
855.096	16740
855.419	16698.87
855.741	16590.85
856.063	16475.37
856.385	16507.24
856.708	16369.84
857.03	16333
857.352	16384.98
857.674	16306.56
857.996	16280.12
858.318	16127.13
858.64	16198.99
858.961	16111.09
859.283	16120.8
859.605	15963.75
859.926	15982.28
860.248	15915.16
860.57	15876.07
860.891	15944.76
861.212	15790.42
861.534	15775.28
861.855	15808.27
862.176	15779.57
862.498	15750.65
862.819	15775.96
863.14	15631.55
863.461	15607.37
863.782	15535.06
864.103	15521.95
864.424	15452.57
864.745	15503.87
865.065	15353.37
865.386	15368.51
865.707	15341.62
866.027	15394.95
866.348	15356.53
866.668	15285.8
866.989	15192.47
867.309	15145.46
867.63	15173.49
867.95	15172.58
868.27	15071.79
868.59	15034.28
868.91	15055.52
869.23	15083.54
869.55	15012.36
869.87	15060.72
870.19	14944.11
870.51	15098.46
870.83	14973.72
871.15	14857.79
871.469	14864.57
871.789	14889.2
872.109	14856.21
872.428	14796.55
872.748	14792.93
873.067	14790.67
873.386	14846.94
873.706	14754.29
874.025	14620.28
874.344	14623.44
874.663	14676.1
874.982	14679.49
875.301	14684.91
875.62	14552.94
875.939	14528.08
876.258	14547.06
876.577	14473.62
876.896	14442.43
877.214	14431.13
877.533	14392.26
877.852	14333.96
878.17	14395.65
878.489	14331.25
878.807	14361.76
879.125	14343.9
879.444	14283.79
879.762	14255.09
880.08	14169.67
880.398	14102.1
880.716	14137.81
881.034	14089.67
881.352	14079.05
881.67	14041.31
881.988	14018.71
882.306	13990.69
882.624	13971.48
882.941	13935.55
883.259	13829.34
883.577	13885.61
883.894	13864.82
884.212	13820.98
884.529	13799.51
884.846	13791.83
885.164	13767.19
885.481	13695.56
885.798	13761.77
886.115	13547.99
886.432	13651.27
886.75	13527.43
887.067	13506.86
887.383	13503.92
887.7	13444.49
888.017	13401.33
888.334	13403.59
888.651	13309.35
888.967	13264.83
889.284	13259.19
889.6	13294.89
889.917	13107.55
890.233	13222.8
890.55	13120.21
890.866	13112.75
891.182	13017.38
891.498	12988.46
891.815	12969.02
892.131	12857.61
892.447	12886.54
892.763	12818.97
893.079	12755.92
893.395	12722.02
893.71	12650.39
894.026	12758.18
894.342	12634.34
894.657	12542.82
894.973	12519.32
895.289	12527.23
895.604	12506.89
895.92	12480.67
896.235	12421.24
896.55	12364.07
896.865	12310.28
897.181	12238.65
897.496	12285.65
897.811	12145.09
898.126	12110.74
898.441	12089.05
898.756	12057.18
899.071	12027.13
899.386	12041.14
899.7	11807.25
900.015	11864.65
900.33	11820.35
900.644	11743.07
900.959	11814.48
901.273	11742.16
901.588	11628.27
901.902	11546.24
902.216	11601.15
902.531	11524.54
902.845	11505.56
903.159	11396.18
903.473	11427.6
903.787	11249.97
904.101	11224.21
904.415	11306.24
904.729	11227.15
905.042	11176.3
905.356	11106.7
905.67	11066.7
905.984	11113.93
906.297	11054.72
906.611	10846.37
906.924	10901.28
907.237	10922.52
907.551	10911
907.864	10879.36
908.177	10759.59
908.491	10854.05
908.804	10696.99
909.117	10637.11
909.43	10597.11
909.743	10571.12
910.056	10528.86
910.368	10443.44
910.681	10421.75
910.994	10366.61
911.307	10346.72
911.619	10243.22
911.932	10331.58
912.244	10232.82
912.557	10200.96
912.869	10134.52
913.181	10054.98
913.494	10047.07
913.806	10001.87
914.118	9941.31
914.43	9880.97
914.742	9916.45
915.054	9791.25
915.366	9800.97
915.678	9714.42
915.99	9724.59
916.302	9586.51
916.613	9646.17
916.925	9618.6
917.236	9561.88
917.548	9535.89
917.859	9563.69
918.171	9375.22
918.482	9402.34
918.794	9334.32
919.105	9317.37
919.416	9251.16
919.727	9233.3
920.038	9166.64
920.349	9060.43
920.66	9138.62
920.971	9073.98
921.282	9058.17
921.593	8977.49
921.903	8954.44
922.214	8913.76
922.525	8869.02
922.835	8819.08
923.146	8747.67
923.456	8794.9
923.767	8721
924.077	8631.06
924.387	8609.14
924.697	8578.18
925.008	8595.13
925.318	8556.94
925.628	8568.69
925.938	8465.86
926.248	8421.35
926.558	8358.07
926.867	8267.68
927.177	8261.12
927.487	8326.43
927.796	8133.67
928.106	8191.97
928.416	8141.13
928.725	8176.83
929.034	8077.4
929.344	8096.61
929.653	8040.34
929.962	7941.36
930.271	7959.66
930.581	7881.47
930.89	7874.69
931.199	7807.35
931.508	7784.75
931.817	7720.8
932.125	7760.12
932.434	7695.72
932.743	7668.6
933.051	7588.15
933.36	7558.32
933.669	7585.66
933.977	7504.31
934.286	7528.49
934.594	7528.26
934.902	7391.99
935.21	7428.15
935.519	7395.38
935.827	7310.42
936.135	7301.83
936.443	7213.92
936.751	7200.81
937.059	7213.02
937.367	7117.88
937.674	7113.36
937.982	7086.01
938.29	7053.92
938.597	7071.33
938.905	6984.55
939.213	6968.5
939.52	6961.5
939.827	6987.26
940.135	6813.48
940.442	6810.99
940.749	6865.68
941.056	6814.83
941.363	6753.37
941.67	6676.76
941.977	6677.44
942.284	6654.84
942.591	6623.88
942.898	6599.02
943.205	6580.49
943.511	6561.96
943.818	6473.37
944.125	6455.3
944.431	6433.15
944.738	6367.84
945.044	6416.43
945.35	6359.71
945.657	6380.27
945.963	6351.12
946.269	6300.95
946.575	6245.36
946.881	6206.49
947.187	6181.63
947.493	6113.38
947.799	6146.38
948.105	6130.33
948.41	6066.83
948.716	6078.58
949.022	6013.05
949.327	6032.48
949.633	5974.41
949.938	5938.7
950.244	5972.37
950.549	5886.95
950.854	5876.55
951.16	5842.66
951.465	5771.47
951.77	5793.84
952.075	5746.61
952.38	5672.04
952.685	5704.58
952.99	5649.67
953.294	5664.81
953.599	5552.04
953.904	5602.21
954.209	5591.36
954.513	5572.83
954.818	5509.78
955.122	5495.55
955.426	5484.7
955.731	5464.14
956.035	5444.48
956.339	5484.93
956.643	5375.55
956.948	5325.61
957.252	5310.92
957.556	5329.9
957.86	5324.7
958.163	5257.14
958.467	5249.23
958.771	5229.57
959.075	5168.78
959.378	5202
959.682	5142.79
959.985	5156.12
960.289	5078.61
960.592	5058.04
960.896	5030.7
961.199	5020.98
961.502	5012.62
961.805	4939.18
962.108	4942.34
962.411	4957.71
962.714	4904.83
963.017	4875.68
963.32	4906.64
963.623	4825.73
963.926	4847.88
964.228	4806.3
964.531	4830.25
964.833	4769.24
965.136	4729.69
965.438	4718.39
965.741	4743.7
966.043	4678.17
966.345	4641.33
966.648	4624.16
966.95	4619.64
967.252	4556.59
967.554	4581.45
967.856	4521.34
968.158	4486.08
968.46	4511.84
968.761	4473.2
969.063	4490.6
969.365	4442.02
969.666	4411.06
969.968	4417.16
970.269	4388.68
970.571	4363.6
970.872	4385.97
971.174	4307.33
971.475	4322.7
971.776	4270.04
972.077	4295.81
972.378	4278.63
972.679	4256.71
972.98	4223.04
973.281	4190.5
973.582	4204.51
973.883	4167.9
974.183	4158.86
974.484	4103.72
974.785	4122.02
975.085	4066.88
975.386	4070.73
975.686	4032.08
975.986	4025.98
976.287	4027.34
976.587	4010.61
976.887	3958.41
977.187	3937.17
977.487	3925.87
977.787	3883.39
978.087	3905.76
978.387	3912.09
978.687	3913.89
978.987	3866.89
979.286	3825.31
979.586	3802.03
979.885	3792.54
980.185	3784.63
980.484	3726.1
980.784	3687.23
981.083	3694.01
981.382	3694.24
981.682	3662.15
981.981	3661.47
982.28	3660.12
982.579	3594.35
982.878	3628.93
983.177	3566.33
983.475	3594.35
983.774	3519.78
984.073	3572.66
984.372	3528.59
984.67	3522.94
984.969	3534.7
985.267	3478.2
985.566	3470.29
985.864	3467.13
986.162	3412.21
986.461	3423.51
986.759	3404.76
987.057	3347.81
987.355	3345.1
987.653	3393.68
987.951	3379.22
988.249	3339.45
988.547	3308.94
988.844	3265.32
989.142	3279.11
989.44	3261.93
989.737	3244.08
990.035	3237.98
990.332	3203.4
990.63	3171.09
990.927	3212.44
991.224	3167.47
991.521	3186.46
991.819	3161.82
992.116	3149.62
992.413	3111.2
992.71	3091.09
993.006	3062.84
993.303	3044.09
993.6	3061.49
993.897	3071.43
994.193	3005.9
994.49	2977.87
994.787	2994.6
995.083	2981.04
995.379	2957.31
995.676	2909.17
995.972	2945.11
996.268	2917.54
996.565	2892.68
996.861	2898.78
997.157	2871.66
997.453	2845.9
997.749	2828.73
998.044	2815.84
998.34	2811.78
998.636	2830.08
998.932	2786.24
999.227	2728.39
999.523	2753.47
999.818	2734.26
1000.114	2703.53
1000.409	2689.75
1000.704	2680.03
1001	2633.7
1001.295	2677.09
1001.59	2632.35
1001.885	2650.65
1002.18	2601.61
1002.475	2591.44
1002.77	2588.51
1003.065	2535.85
1003.359	2563.42
1003.654	2542.63
1003.949	2479.81
1004.243	2472.35
1004.538	2485.68
1004.832	2494.27
1005.127	2480.03
1005.421	2435.97
1005.715	2419.7
1006.009	2450.88
1006.304	2385.12
1006.598	2395.06
1006.892	2357.1
1007.186	2363.43
1007.48	2341.51
1007.773	2362.97
1008.067	2319.81
1008.361	2310.32
1008.655	2290.66
1008.948	2261.51
1009.242	2259.25
1009.535	2246.14
1009.829	2249.08
1010.122	2204.56
1010.415	2194.84
1010.708	2198.69
1011.001	2175.41
1011.295	2189.42
1011.588	2179.48
1011.881	2126.6
1012.173	2160.04
1012.466	2095.64
1012.759	2131.79
1013.052	2136.31
1013.344	2072.59
1013.637	2085.47
1013.93	2040.5
1014.222	2041.63
1014.514	2080.72
1014.807	2027.62
1015.099	2023.1
1015.391	2019.03
1015.683	1950.78
1015.976	1957.79
1016.268	1936.55
1016.56	1944
1016.851	1923.89
1017.143	1909.43
1017.435	1904.91
1017.727	1900.61
1018.018	1902.65
1018.31	1906.94
1018.602	1864.91
1018.893	1861.52
1019.185	1825.81
1019.476	1836.66
1019.767	1797.11
1020.058	1809.54
1020.35	1773.61
1020.641	1786.04
1020.932	1722.77
1021.223	1742.65
1021.514	1718.02
1021.804	1728.19
1022.095	1711.69
1022.386	1721.86
1022.677	1693.39
1022.967	1677.79
1023.258	1666.04
1023.548	1666.95
1023.839	1649.1
1024.129	1647.74
1024.419	1629.43
1024.709	1613.39
1025	1601.41
1025.29	1587.4
1025.58	1544.24
1025.87	1561.87
1026.16	1575.88
1026.449	1563.45
1026.739	1515.77
1027.029	1520.74
1027.319	1503.79
1027.608	1493.17
1027.898	1490.46
1028.187	1475.31
1028.477	1472.38
1028.766	1466.05
1029.055	1454.52
1029.344	1421.08
1029.634	1431.7
1029.923	1413.62
1030.212	1399.61
1030.501	1415.43
1030.79	1385.37
1031.078	1361.42
1031.367	1352.61
1031.656	1349.67
1031.945	1355.54
1032.233	1315.54
1032.522	1325.04
1032.81	1315.54
1033.099	1285.49
1033.387	1329.33
1033.675	1308.09
1033.963	1303.12
1034.251	1294.53
1034.54	1269.22
1034.828	1257.01
1035.116	1270.12
1035.403	1220.86
1035.691	1234.19
1035.979	1223.12
1036.267	1198.03
1036.554	1220.18
1036.842	1216.34
1037.129	1197.58
1037.417	1161.88
1037.704	1179.28
1037.992	1158.49
1038.279	1160.75
1038.566	1139.96
1038.853	1139.96
1039.14	1139.96
