Data from White_paper_FLMS001491_044.txt Node
Date: Tue Feb 07 10:35:08 GMT 2017
User: dcchb
Spectrometer: FLMS00149
Trigger mode: 0
Integration Time (sec): 2.000000E-2
Scans to average: 10
Electric dark correction enabled: true
Nonlinearity correction enabled: false
Boxcar width: 0
XAxis mode: Wavelengths
Number of Pixels in Spectrum: 2048
>>>>>Begin Spectral Data<<<<<
341.393	-22.01
341.776	-22.01
342.16	-22.01
342.543	-60.42
342.927	-69.46
343.31	-81.66
343.693	-68.56
344.077	-71.5
344.46	-53.64
344.843	-63.81
345.226	-42.57
345.61	-19.75
345.993	-5.96
346.376	-19.07
346.759	35.39
347.142	27.49
347.525	36.07
347.908	50.54
348.291	76.75
348.674	93.47
349.057	106.81
349.44	133.25
349.823	122.62
350.206	161.04
350.588	225.9
350.971	237.2
351.354	233.36
351.737	268.16
352.119	272
352.502	290.3
352.884	298.66
353.267	297.53
353.65	294.6
354.032	329.4
354.414	323.97
354.797	347.02
355.179	347.93
355.562	348.83
355.944	333.47
356.326	366.23
356.709	356.97
357.091	356.06
357.473	361.71
357.855	366.91
358.238	368.49
358.62	376.4
359.002	366.91
359.384	366.69
359.766	366.46
360.148	382.96
360.53	361.49
360.912	390.41
361.294	367.14
361.676	371.66
362.057	360.36
362.439	352
362.821	354.48
363.203	366.91
363.584	359.68
363.966	342.96
364.348	368.27
364.729	359.91
365.111	337.99
365.493	351.54
365.874	364.2
366.256	352
366.637	364.43
367.019	340.92
367.4	366.01
367.781	353.8
368.163	351.54
368.544	354.48
368.925	367.59
369.306	357.42
369.688	363.75
370.069	368.49
370.45	355.39
370.831	353.13
371.212	366.01
371.593	361.26
371.974	359.23
372.355	359.91
372.736	358.32
373.117	357.19
373.498	384.09
373.879	372.33
374.26	375.72
374.641	399.9
375.021	364.43
375.402	357.19
375.783	377.76
376.163	393.35
376.544	393.8
376.925	385.22
377.305	378.89
377.686	388.61
378.066	393.35
378.447	387.25
378.827	394.26
379.208	392
379.588	396.97
379.968	390.87
380.349	417.76
380.729	389.28
381.109	393.8
381.489	424.54
381.87	398.32
382.25	424.76
382.63	411.66
383.01	445.55
383.39	440.81
383.77	423.41
384.15	438.77
384.53	429.28
384.91	438.77
385.29	434.03
385.67	447.36
386.049	458.43
386.429	461.37
386.809	447.14
387.189	445.78
387.568	439.23
387.948	467.47
388.328	446.68
388.707	485.33
389.087	476.74
389.466	491.43
389.846	488.04
390.225	502.95
390.605	487.36
390.984	487.36
391.363	505.89
391.743	520.35
392.122	518.77
392.501	521.03
392.881	510.41
393.26	515.16
393.639	538.43
394.018	550.86
394.397	517.64
394.776	548.38
395.155	528.94
395.534	564.42
395.913	544.08
396.292	563.52
396.671	565.32
397.05	590.18
397.429	596.28
397.808	614.59
398.186	598.32
398.565	601.03
398.944	604.65
399.323	616.17
399.701	619.79
400.08	610.52
400.458	609.84
400.837	658.2
401.215	612.33
401.594	670.63
401.972	666.34
402.351	684.42
402.729	704.3
403.107	710.86
403.486	711.99
403.864	722.38
404.242	718.31
404.62	738.2
404.999	751.99
405.377	756.05
405.755	792.89
406.133	797.63
406.511	800.8
406.889	814.13
407.267	841.02
407.645	884.64
408.023	892.32
408.401	898.42
408.779	919.21
409.156	939.55
409.534	939.1
409.912	945.2
410.29	991.08
410.667	1008.93
411.045	1055.48
411.422	1054.12
411.8	1085.08
412.178	1142.03
412.555	1157.62
412.933	1194.46
413.31	1196.04
413.687	1229.49
414.065	1265.42
414.442	1284.85
414.819	1359.43
415.197	1317.39
415.574	1382.48
415.951	1396.26
416.328	1412.31
416.705	1460.22
417.082	1444.62
417.46	1516.03
417.837	1505.41
418.214	1570.72
418.591	1573.21
418.967	1591.51
419.344	1610.27
419.721	1681.45
420.098	1677.39
420.475	1706.31
420.852	1728.23
421.228	1781.11
421.605	1781.34
421.982	1785.18
422.358	1824.05
422.735	1859.98
423.111	1864.5
423.488	1918.51
423.864	1932.52
424.241	1965.74
424.617	1989.92
424.994	2006.19
425.37	2036.02
425.746	2041.22
426.123	2115.11
426.499	2097.94
426.875	2147.88
427.251	2215.22
427.627	2236.47
428.003	2231.49
428.379	2319.85
428.756	2326.41
429.132	2328.22
429.507	2400.08
429.883	2434.65
430.259	2454.09
430.635	2511.49
431.011	2476.23
431.387	2596.23
431.763	2645.72
432.138	2624.25
432.514	2682.78
432.89	2708.54
433.265	2792.61
433.641	2797.36
434.016	2832.16
434.392	2881.65
434.767	2958.48
435.143	2899.73
435.518	2982.21
435.894	3018.37
436.269	3043.45
436.644	3097.01
437.02	3146.05
437.395	3159.61
437.77	3191.47
438.145	3260.62
438.52	3269.66
438.895	3347.4
439.271	3357.57
439.646	3435.98
440.021	3418.58
440.395	3461.29
440.77	3465.36
441.145	3458.36
441.52	3543.55
441.895	3549.88
442.27	3567.05
442.645	3584.91
443.019	3594.62
443.394	3631.68
443.769	3726.14
444.143	3616.77
444.518	3735.41
444.892	3718.69
445.267	3741.96
445.641	3784.67
446.016	3809.53
446.39	3804.33
446.764	3904.22
447.139	3867.38
447.513	3959.81
447.887	3927.5
448.262	3916.42
448.636	3982.41
449.01	4020.15
449.384	4037.78
449.758	4117.32
450.132	4112.35
450.506	4165.46
450.88	4159.58
451.254	4210.88
451.628	4224.44
452.002	4304.66
452.376	4312.12
452.75	4342.17
453.123	4384.66
453.497	4440.93
453.871	4473.02
454.244	4615.39
454.618	4626.23
454.992	4658.55
455.365	4677.31
455.739	4788.94
456.112	4792.78
456.486	4893.12
456.859	4947.13
457.232	4943.97
457.606	5038.65
457.979	5083.4
458.352	5164.53
458.725	5279.1
459.099	5305.76
459.472	5434.35
459.845	5409.72
460.218	5450.17
460.591	5578.53
460.964	5524.52
461.337	5611.97
461.71	5792.31
462.083	5871.63
462.456	5863.94
462.829	5920.66
463.201	6012.19
463.574	6029.59
463.947	6091.96
464.32	6259.64
464.692	6268
465.065	6369.01
465.438	6465.51
465.81	6517.26
466.183	6615.56
466.555	6716.12
466.928	6775.78
467.3	6750.47
467.672	6896.01
468.045	7083.57
468.417	7173.29
468.789	7131.48
469.161	7236.79
469.534	7444.24
469.906	7525.59
470.278	7522.43
470.65	7733.72
471.022	7851.01
471.394	8044.9
471.766	8023.43
472.138	8139.81
472.51	8300.49
472.882	8397.66
473.253	8603.98
473.625	8663.42
473.997	8838.33
474.369	8889.85
474.74	8935.05
475.112	9105.66
475.484	9315.6
475.855	9431.98
476.227	9526.44
476.598	9796.95
476.97	9895.7
477.341	10111.29
477.713	10256.14
478.084	10272.64
478.455	10606.19
478.827	10706.75
479.198	11026.97
479.569	10950.59
479.94	11294.53
480.311	11395.32
480.682	11618.82
481.053	11913.73
481.424	12107.17
481.795	12233.27
482.166	12361.62
482.537	12503.77
482.908	12808.62
483.279	12941.27
483.65	13114.15
484.021	13417.64
484.391	13540.8
484.762	13676.39
485.133	13812.89
485.503	14032.09
485.874	14296.94
486.244	14441.12
486.615	14642.24
486.985	14842.91
487.356	15119.52
487.726	15210.81
488.097	15526.96
488.467	15625.72
488.837	15964.47
489.207	16074.97
489.578	16294.63
489.948	16468.86
490.318	16619.59
490.688	16763.54
491.058	17042.18
491.428	17280.14
491.798	17395.39
492.168	17746.12
492.538	17800.35
492.908	17968.26
493.278	18183.62
493.648	18212.32
494.017	18569.82
494.387	18672.42
494.757	18853.66
495.126	18972.07
495.496	19108.57
495.866	19217.94
496.235	19336.58
496.605	19593.07
496.974	19716.23
497.344	19828.77
497.713	19978.6
498.082	20132.72
498.452	20349.66
498.821	20407.74
499.19	20577.23
499.559	20741.29
499.928	20812.48
500.298	20931.12
500.667	21121.17
501.036	21202.3
501.405	21329.98
501.774	21323.42
502.143	21557.31
502.512	21714.82
502.88	21947.81
503.249	21941.03
503.618	22025.55
503.987	22142.61
504.356	22320.46
504.724	22582.37
505.093	22650.85
505.462	22789.37
505.83	22973.77
506.199	23091.51
506.567	23372.63
506.936	23296.25
507.304	23560.65
507.672	23661.89
508.041	23813.3
508.409	23906.63
508.777	24178.49
509.145	24303.68
509.514	24336.22
509.882	24571.7
510.25	24666.16
510.618	24856.44
510.986	24907.51
511.354	25158.58
511.722	25288.06
512.09	25503.43
512.458	25583.65
512.826	25800.82
513.193	25893.25
513.561	26115.16
513.929	26305.66
514.297	26505.88
514.664	26606.9
515.032	26826.55
515.4	26964.18
515.767	27162.59
516.135	27240.33
516.502	27161.91
516.869	27617.27
517.237	27773.65
517.604	27711.5
517.972	28065.62
518.339	28228.33
518.706	28181.32
519.073	28442.11
519.44	28521.43
519.808	29078.92
520.175	28893.39
520.542	29299.71
520.909	29448.41
521.276	29558.69
521.643	29843.65
522.009	30016.3
522.376	30246.13
522.743	30424.43
523.11	30603.63
523.477	30941.47
523.843	31059.66
524.21	31380.11
524.577	31495.81
524.943	31665.98
525.31	31970.6
525.676	32315
526.043	32395.9
526.409	32468.21
526.776	32751.37
527.142	32974.87
527.508	33144.13
527.874	33338.25
528.241	33576.66
528.607	33556.55
528.973	33974.84
529.339	34079.92
529.705	34382.51
530.071	34598.55
530.437	34766.01
530.803	34954.48
531.169	35171.65
531.535	35122.38
531.901	35243.51
532.267	35456.16
532.632	35735.25
532.998	35826.09
533.364	36083.71
533.73	36014.56
534.095	36451.84
534.461	36492.06
534.826	36755.78
535.192	36799.4
535.557	37134.53
535.923	37125.49
536.288	37136.79
536.653	37412.04
537.019	37436.45
537.384	37724.8
537.749	37866.26
538.114	37879.6
538.479	37948.3
538.845	38255.86
539.21	38197.78
539.575	38379.7
539.94	38633.25
540.305	38803.64
540.67	38734.26
541.034	38901.04
541.399	39111.88
541.764	39190.75
542.129	39313.01
542.494	39553
542.858	39535.6
543.223	39743.5
543.587	39810.62
543.952	39969.49
544.316	40143.27
544.681	40035.92
545.045	40380.77
545.41	40483.37
545.774	40615.34
546.138	40673.87
546.503	40778.73
546.867	40903.25
547.231	41145.05
547.595	41331.94
547.959	41430.24
548.324	41536.22
548.688	41473.4
549.052	41677.24
549.416	41787.29
549.779	41911.13
550.143	41995.87
550.507	42281.74
550.871	42551.11
551.235	42465.47
551.599	42757.66
551.962	42864.78
552.326	42917.43
552.689	43140.7
553.053	43097.99
553.417	43322.84
553.78	43643.97
554.143	43417.3
554.507	43726.45
554.87	43903.85
555.234	44180.67
555.597	44056.16
555.96	44203.5
556.323	44384.51
556.686	44409.14
557.05	44736.59
557.413	44822.92
557.776	44930.94
558.139	45154.43
558.502	45112.85
558.865	45391.72
559.228	45695.44
559.59	45769.56
559.953	45892.04
560.316	46209.77
560.679	46215.88
561.041	46461.97
561.404	46646.82
561.767	46911.45
562.129	46784.9
562.492	47195.51
562.854	47130.43
563.217	47157.55
563.579	47317.77
563.941	47595.95
564.304	47910.97
564.666	48122.04
565.028	48142.6
565.39	48172.66
565.753	48415.14
566.115	48542.14
566.477	48768.12
566.839	48764.06
567.201	49085.18
567.563	49204.5
567.925	49363.14
568.287	49415.11
568.648	49509.8
569.01	49673.64
569.372	49856.68
569.734	49742.34
570.095	50119.05
570.457	50205.15
570.819	50359.04
571.18	50254.19
571.542	50654.18
571.903	50627.28
572.265	50772.82
572.626	50800.16
572.987	50929.42
573.349	51076.99
573.71	51077.67
574.071	51292.13
574.432	51309.53
574.794	51553.81
575.155	51568.05
575.516	51432.46
575.877	51767.37
576.238	51794.26
576.599	51972.56
576.96	51953.35
577.32	51916.74
577.681	52140.69
578.042	52050.3
578.403	52157.64
578.763	52229.73
579.124	52317.64
579.485	52445.32
579.845	52583.17
580.206	52364.87
580.566	52617.74
580.927	52559.66
581.287	52785.42
581.648	52633.11
582.008	52763.95
582.368	52753.56
582.728	52970.05
583.089	52748.58
583.449	52870.39
583.809	52854.8
584.169	52906.32
584.529	52902.93
584.889	53181.57
585.249	52996.04
585.609	52930.95
585.969	53025.19
586.329	53035.36
586.688	53111.29
587.048	53053.21
587.408	53127.78
587.768	53104.06
588.127	53052.31
588.487	53096.6
588.846	53397.83
589.206	53099.31
589.565	53211.17
589.925	53256.37
590.284	53222.24
590.643	53262.92
591.003	53395.12
591.362	53408.45
591.721	53363.48
592.08	53391.96
592.44	53452.07
592.799	53466.98
593.158	53483.03
593.517	53474.67
593.876	53532.97
594.235	53493.2
594.593	53504.95
594.952	53602.57
595.311	53522.8
595.67	53661.33
596.029	53759.41
596.387	53817.26
596.746	53690.71
597.104	53692.51
597.463	53705.85
597.822	53746.3
598.18	53694.77
598.538	53671.95
598.897	53876.01
599.255	53623.82
599.613	54102.67
599.972	53895.45
600.33	53997.82
600.688	53810.48
601.046	54030.36
601.404	54072.62
601.762	54032.39
602.12	54251.82
602.478	54158.49
602.836	54178.38
603.194	53936.8
603.552	54019.29
603.91	54006.18
604.268	54161.88
604.625	54120.07
604.983	54234.42
605.341	54136.12
605.698	54240.3
606.056	54322.1
606.413	54290.01
606.771	54360.07
607.128	54322.55
607.485	54309
607.843	54288.66
608.2	54503.57
608.557	54545.15
608.914	54471.93
609.272	54555.54
609.629	54627.63
609.986	54698.59
610.343	54584.69
610.7	54757.35
611.057	54703.11
611.414	54721.19
611.771	54795.31
612.127	54833.73
612.484	54843.67
612.841	54893.39
613.198	54801.64
613.554	54812.03
613.911	55036.21
614.267	54931.13
614.624	54949.88
614.98	54999.6
615.337	55102.65
615.693	55025.81
616.05	54974.97
616.406	55226.26
616.762	55010.22
617.118	54991.46
617.475	55092.03
617.831	55222.64
618.187	55146.71
618.543	55230.1
618.899	55348.06
619.255	55280.72
619.611	55261.29
619.967	55417.22
620.323	55392.81
620.678	55296.09
621.034	55241.4
621.39	55290.66
621.746	55289.31
622.101	55576.53
622.457	55242.76
622.812	55311
623.168	55372.24
623.523	55425.35
623.879	55527.27
624.234	55322.53
624.589	55463.09
624.945	55496.54
625.3	55433.94
625.655	55361.17
626.01	55383.09
626.365	55438.23
626.72	55411.11
627.075	55363.21
627.43	55418.57
627.785	55325.47
628.14	55471.9
628.495	55385.13
628.85	55434.84
629.205	55326.82
629.559	55567.72
629.914	55325.69
630.269	55306.03
630.623	55264.45
630.978	55251.34
631.332	55503.54
631.687	55393.49
632.041	55327.27
632.396	55377.67
632.75	55289.76
633.104	55312.13
633.459	55158.92
633.813	55216.54
634.167	55246.15
634.521	55191.01
634.875	55212.02
635.229	55162.98
635.583	55041.86
635.937	55118.24
636.291	55068.75
636.645	55093.16
636.999	55033.04
637.352	55077.79
637.706	55031.91
638.06	55082.31
638.413	54987.4
638.767	54882.31
639.121	55003.67
639.474	54848.87
639.828	54910.11
640.181	54917.57
640.534	54924.35
640.888	54822.65
641.241	54726.61
641.594	54774.07
641.947	54937.68
642.301	54794.41
642.654	54827.4
643.007	54788.08
643.36	54727.52
643.713	54744.92
644.066	54911.24
644.419	54658.59
644.771	54456.11
645.124	54186.97
645.477	54142.45
645.83	53970.93
646.182	53862
646.535	53845.28
646.888	53892.28
647.24	53739.29
647.593	53971.6
647.945	53835.11
648.298	53744.94
648.65	53638.5
649.002	53633.08
649.355	53756.02
649.707	53647.54
650.059	53826.75
650.411	54127.76
650.763	54167.98
651.115	54508.76
651.467	54368.43
651.819	54407.3
652.171	54255.44
652.523	54297.24
652.875	54259.05
653.227	54173.86
653.578	54397.81
653.93	54237.13
654.282	54211.15
654.633	54141.77
654.985	54194.42
655.337	54166.85
655.688	54109
656.039	54193.52
656.391	54025.16
656.742	54034.65
657.094	54124.37
657.445	54180.64
657.796	54045.27
658.147	54021.32
658.498	54052.96
658.849	54094.31
659.2	54069.23
659.551	53980.19
659.902	53950.81
660.253	53963.02
660.604	54037.82
660.955	53890.7
661.306	53926.41
661.656	53920.08
662.007	53989.23
662.358	53863.58
662.708	53922.34
663.059	53888.67
663.409	53717.15
663.76	53893.64
664.11	53896.13
664.461	53932.28
664.811	53959.17
665.161	53888.67
665.511	53794.88
665.862	53858.84
666.212	53813.42
666.562	53804.83
666.912	53750.82
667.262	53712.4
667.612	53755.11
667.962	53824.49
668.312	53652.06
668.662	53765.73
669.011	53622.91
669.361	53575.68
669.711	53578.17
670.06	53606.64
670.41	53516.25
670.76	53465.85
671.109	53646.87
671.459	53463.59
671.808	53477.15
672.157	53532.97
672.507	53388.34
672.856	53393.99
673.205	53352.18
673.554	53397.83
673.904	53297.27
674.253	53421.79
674.602	53376.14
674.951	52849.83
675.3	52681.02
675.649	53219.31
675.998	53114.68
676.346	53178.4
676.695	53282.13
677.044	53010.5
677.393	53148.8
677.741	53138.41
678.09	53050.05
678.438	52974.12
678.787	52948.13
679.135	52980.9
679.484	52837.4
679.832	52937.28
680.181	52699.32
680.529	52735.7
680.877	52666.1
681.225	52577.06
681.573	52832.88
681.922	52536.39
682.27	52476.28
682.618	52488.03
682.966	52398.09
683.314	52424.3
683.661	52317.64
684.009	52153.35
684.357	52143.18
684.705	52036.74
685.053	52052.56
685.4	52095.72
685.748	51836.97
686.095	51833.81
686.443	51717.88
686.79	51653.7
687.138	51715.84
687.485	51675.39
687.832	51448.51
688.18	51543.87
688.527	51299.36
688.874	51380.94
689.221	51220.26
689.568	51189.53
689.915	51058.01
690.262	51123.99
690.609	50809.88
690.956	50800.84
691.303	50729.43
691.65	50626.15
691.997	50554.07
692.344	50439.49
692.69	50273.4
693.037	50391.36
693.383	50012.16
693.73	50178.93
694.077	49992.27
694.423	49994.31
694.769	49850.81
695.116	49770.36
695.462	49682.68
695.808	49532.4
696.155	49722.9
696.501	49304.61
696.847	49396.13
697.193	49032.3
697.539	49272.52
697.885	49029.59
698.231	48760.22
698.577	48813.55
698.923	48762.47
699.269	48567.9
699.614	48409.04
699.96	48295.82
700.306	48351.86
700.651	48174.92
700.997	48180.12
701.342	48026.22
701.688	47906.45
702.033	47832.56
702.379	47769.05
702.724	47778.09
703.069	47832.56
703.415	47272.57
703.76	47416.07
704.105	47271.21
704.45	47286.58
704.795	47039.13
705.14	47043.2
705.485	46888.63
705.83	46661.74
706.175	46786.26
706.52	46736.77
706.865	46580.16
707.209	46539.71
707.554	46369.54
707.899	46409.54
708.243	46159.61
708.588	46066.5
708.932	45793.74
709.277	45930.46
709.621	45831.93
709.966	45683.69
710.31	45754.64
710.654	45458.61
710.998	45506.74
711.342	45465.39
711.687	45255.67
712.031	45117.82
712.375	44990.37
712.719	45162.8
713.063	44999.64
713.407	45116.47
713.75	44826.99
714.094	45031.95
714.438	44741.56
714.782	44744.73
715.125	44489.37
715.469	44486.66
715.812	44333.66
716.156	44161.69
716.499	44187.45
716.843	44367.11
717.186	43888.93
717.53	44197.4
717.873	43984.3
718.216	43928.7
718.559	43763.51
718.902	43622.72
719.246	43702.72
719.589	43502.27
719.932	43288.27
720.275	43335.5
720.617	43205.33
720.96	43265.67
721.303	43144.54
721.646	43088.27
721.989	42907.04
722.331	43044.66
722.674	42944.55
723.016	42967.37
723.359	42785.46
723.701	42791.11
724.044	42651.9
724.386	42385.69
724.729	42642.64
725.071	42520.83
725.413	42396.09
725.755	42424.11
726.097	42235.19
726.439	41982.54
726.782	42130.33
727.124	42183.66
727.465	42005.14
727.807	41912.71
728.149	41901.19
728.491	41775.54
728.833	41792.49
729.175	41747.52
729.516	41605.37
729.858	41503.91
730.199	41522.44
730.541	41504.13
730.882	41288.55
731.224	41468.43
731.565	41399.96
731.906	41364.03
732.248	41204.48
732.589	41008.1
732.93	41036.12
733.271	40959.06
733.612	40923.13
733.953	41018.5
734.294	40764.04
734.635	40909.12
734.976	40926.3
735.317	40538.74
735.658	40601.33
735.999	40577.38
736.339	40406.99
736.68	40493.31
737.021	40404.5
737.361	40274.34
737.702	40561.11
738.042	40273.66
738.383	40092.19
738.723	40184.4
739.063	40009.48
739.404	40224.39
739.744	39941.92
740.084	39869.6
740.424	40023.95
740.764	39795.03
741.104	40007.45
741.444	39662.6
741.784	39738.31
742.124	39729.49
742.464	39635.03
742.804	39538.08
743.143	39396.39
743.483	39455.6
743.823	39289.5
744.162	39289.28
744.502	39242.5
744.841	39189.17
745.181	39279.79
745.52	39121.82
745.86	39147.81
746.199	39008.38
746.538	39061.71
746.877	38968.16
747.216	38908.04
747.556	39025.1
747.895	38920.25
748.234	38727.94
748.573	38661.95
748.911	38706.92
749.25	38615.17
749.589	38457.21
749.928	38503.31
750.267	38606.36
750.605	38390.77
750.944	38223.99
751.283	38079.37
751.621	38154.39
751.96	37951.23
752.298	37877.79
752.636	38026.49
752.975	37718.7
753.313	37700.39
753.651	37773.61
753.989	37541.08
754.327	37393.51
754.666	37330.46
755.004	37402.77
755.342	37386.05
755.679	37341.98
756.017	37154.42
756.355	37197.13
756.693	36923.92
757.031	37027.64
757.368	36871.94
757.706	36730.02
758.044	36732.51
758.381	36643.02
758.719	36388.11
759.056	36623.13
759.394	36330.03
759.731	36136.82
760.068	36055.46
760.405	35934.56
760.743	36041.23
761.08	36038.52
761.417	35674.91
761.754	35677.62
762.091	35605.08
762.428	35462.49
762.765	35267.91
763.102	35499.32
763.438	35116.51
763.775	35123.06
764.112	35079.22
764.449	35008.94
764.785	34932.1
765.122	34630.42
765.458	34589.74
765.795	34516.3
766.131	34415.96
766.467	34355.17
766.804	34220.26
767.14	33903.66
767.476	34044.22
767.812	33771.23
768.148	33858.69
768.485	33588.41
768.821	33486.72
769.157	33438.81
769.492	33333.28
769.828	33225.26
770.164	33044.24
770.5	33050.8
770.836	32983.68
771.171	32710.24
771.507	32599.51
771.842	32447.42
772.178	32517.7
772.513	32451.49
772.849	32174.21
773.184	32187.09
773.519	32114.1
773.855	31943.93
774.19	31883.37
774.525	31749.81
774.86	31692.64
775.195	31559.09
775.53	31409.48
775.865	31257.17
776.2	31136.95
776.535	30961.81
776.87	30922.27
777.205	30759.11
777.539	30639.56
777.874	30782.83
778.209	30512.79
778.543	30420.81
778.878	30089.75
779.212	30215.84
779.547	29878
779.881	30101.5
780.215	29761.17
780.55	29918.9
780.884	29736.76
781.218	29584.9
781.552	29626.25
781.886	29483.43
782.22	29220.84
782.554	29219.71
782.888	28904.47
783.222	28821.08
783.556	28723.68
783.889	28722.1
784.223	28380.64
784.557	28396.46
784.89	28488.66
785.224	28252.51
785.557	28093.64
785.891	28163.69
786.224	27987.65
786.558	27952.63
786.891	27741.56
787.224	27715.34
787.557	27609.13
787.891	27551.51
788.224	27390.83
788.557	27408.91
788.89	27306.09
789.223	27217.96
789.556	27083.27
789.888	27076.49
790.221	26959.21
790.554	26671.08
790.887	26780.45
791.219	26532.32
791.552	26630.4
791.884	26481.48
792.217	26352.89
792.549	26214.59
792.882	26107.7
793.214	25985.22
793.546	26052.56
793.879	25917.43
794.211	25774.15
794.543	25877.43
794.875	25652.57
795.207	25768.96
795.539	25530.09
795.871	25506.14
796.203	25341.62
796.535	25221.62
796.867	25074.74
797.198	25022.53
797.53	25147.05
797.862	24863.44
798.193	24976.89
798.525	24706.84
798.856	24782.09
799.188	24488.08
799.519	24376.22
799.85	24281.31
800.182	24405.15
800.513	24279.28
800.844	24072.28
801.175	24153.4
801.506	24150.24
801.837	23985.05
802.168	23949.57
802.499	23982.34
802.83	23701.21
803.161	23736.24
803.491	23669.58
803.822	23619.41
804.153	23566.53
804.483	23404.95
804.814	23243.15
805.145	23300.32
805.475	23155.92
805.805	23038.41
806.136	23131.51
806.466	23142.13
806.796	23106.88
807.126	22809.71
807.457	22740.33
807.787	22804.06
808.117	22690.62
808.447	22586.44
808.777	22696.49
809.107	22558.42
809.436	22458.08
809.766	22421.25
810.096	22416.5
810.426	22229.84
810.755	22339.67
811.085	22223.51
811.414	22153.23
811.744	21875.27
812.073	22023.06
812.403	21882.73
812.732	21781.49
813.061	21846.57
813.39	21690.87
813.719	21507.37
814.049	21736.97
814.378	21533.81
814.707	21475.06
815.036	21432.57
815.365	21303.54
815.693	21157.55
816.022	21220.15
816.351	21146.25
816.68	21047.95
817.008	21115.74
817.337	20831.46
817.665	20885.24
817.994	21038.23
818.322	20930.44
818.651	20709.65
818.979	20657.68
819.307	20779.71
819.636	20682.54
819.964	20506.72
820.292	20636.43
820.62	20617.9
820.948	20565.02
821.276	20669.88
821.604	20580.39
821.932	20526.16
822.259	20570.9
822.587	20553.27
822.915	20438.93
823.243	20558.02
823.57	20524.12
823.898	20510.34
824.225	20505.14
824.553	20348.98
824.88	20491.13
825.207	20470.56
825.535	20486.16
825.862	20457.91
826.189	20348.31
826.516	20516.21
826.843	20455.42
827.17	20346.05
827.497	20453.61
827.824	20421.98
828.151	20572.48
828.478	20421.07
828.805	20506.95
829.131	20390.34
829.458	20321.64
829.785	20269.66
830.111	20412.49
830.438	20412.71
830.764	20417.68
831.09	20377.23
831.417	20299.04
831.743	20330.91
832.069	20346.72
832.395	20169.55
832.722	20278.93
833.048	20159.16
833.374	20234.19
833.7	20165.03
834.026	20117.13
834.351	20205.03
834.677	20175.43
835.003	20185.15
835.329	20099.73
835.654	20001.65
835.98	20108.31
836.306	20025.6
836.631	19943.35
836.956	20057.69
837.282	19890.92
837.607	19770.92
837.932	19752.84
838.258	19832.16
838.583	19760.53
838.908	19699.74
839.233	19743.8
839.558	19645.73
839.883	19578.16
840.208	19608.44
840.533	19503.58
840.858	19557.82
841.182	19556.46
841.507	19543.58
841.832	19378.39
842.156	19430.14
842.481	19432.62
842.805	19306.75
843.13	19319.63
843.454	19255.91
843.778	19142.01
844.103	19100.88
844.427	19128
844.751	19055.46
845.075	18973.2
845.399	19006.87
845.723	18782.7
846.047	18782.02
846.371	18734.56
846.695	18643.04
847.019	18399.88
847.343	18556.49
847.666	18353.1
847.99	18290.51
848.313	18250.28
848.637	18098.65
848.96	18109.27
849.284	18064.3
849.607	17951.31
849.931	17848.71
850.254	17728.49
850.577	17765.78
850.9	17570.3
851.223	17515.39
851.546	17503.18
851.869	17371.89
852.192	17440.13
852.515	17325.56
852.838	17232.68
853.161	17239.69
853.483	17091.67
853.806	17123.98
854.129	17081.73
854.451	16908.4
854.774	16923.99
855.096	16866.82
855.419	16806.03
855.741	16730.77
856.063	16707.27
856.385	16573.72
856.708	16519.25
857.03	16488.3
857.352	16534.17
857.674	16348.19
857.996	16404
858.318	16279.49
858.64	16352.93
858.961	16310.45
859.283	16152.48
859.605	16157.68
859.926	16195.65
860.248	16130.79
860.57	15998.36
860.891	16073.84
861.212	15954.07
861.534	15837.46
861.855	15881.76
862.176	15825.26
862.498	15830.23
862.819	15824.81
863.14	15758.6
863.461	15724.25
863.782	15640.63
864.103	15700.52
864.424	15576.23
864.745	15663.46
865.065	15558.6
865.386	15502.11
865.707	15433.41
866.027	15480.19
866.348	15554.31
866.668	15498.26
866.989	15364.48
867.309	15275.9
867.63	15344.37
867.95	15234.09
868.27	15210.81
868.59	15180.53
868.91	15258.72
869.23	15176.92
869.55	15164.26
869.87	15189.57
870.19	15143.7
870.51	15112.06
870.83	15123.36
871.15	14975.57
871.469	14930.37
871.789	14988.67
872.109	14916.59
872.428	14851.5
872.748	14968.11
873.067	14971.5
873.386	14976.02
873.706	14792.97
874.025	14774.67
874.344	14774.22
874.663	14806.53
874.982	14735.57
875.301	14774.22
875.62	14683.6
875.939	14653.32
876.258	14576.71
876.577	14536.48
876.896	14574
877.214	14482.92
877.533	14536.71
877.852	14562.47
878.17	14535.58
878.489	14494
878.807	14498.97
879.125	14338.75
879.444	14445.41
879.762	14332.87
880.08	14405.19
880.398	14149.37
880.716	14302.14
881.034	14224.4
881.352	14191.41
881.67	14218.75
881.988	14146.21
882.306	14123.84
882.624	14042.94
882.941	14012.65
883.259	13977.85
883.577	14020.11
883.894	14016.04
884.212	13885.88
884.529	13915.26
884.846	13849.72
885.164	13730.4
885.481	13842.49
885.798	13864.64
886.115	13696.96
886.432	13696.05
886.75	13620.12
887.067	13627.13
887.383	13526.79
887.7	13634.81
888.017	13473.01
888.334	13529.95
888.651	13463.74
888.967	13342.39
889.284	13343.07
889.6	13338.77
889.917	13315.95
890.233	13237.08
890.55	13168.61
890.866	13197.53
891.182	13071.89
891.498	13031.89
891.815	13108.27
892.131	13085.67
892.447	12990.76
892.763	12903.53
893.079	12920.25
893.395	12813.59
893.71	12867.83
894.026	12750.99
894.342	12760.94
894.657	12742.86
894.973	12691.11
895.289	12629.64
895.604	12588.28
895.92	12496.31
896.235	12458.57
896.55	12490.66
896.865	12436.88
897.181	12363.21
897.496	12407.05
897.811	12340.83
898.126	12205.02
898.441	12217.67
898.756	12169.31
899.071	12023.33
899.386	12078.24
899.7	12007.28
900.015	11971.13
900.33	11897.91
900.644	11827.4
900.959	11918.47
901.273	11861.98
901.588	11775.2
901.902	11688.42
902.216	11700.62
902.531	11625.82
902.845	11583.79
903.159	11491.36
903.473	11463.57
903.787	11437.13
904.101	11345.61
904.415	11318.04
904.729	11345.38
905.042	11263.8
905.356	11221.32
905.67	11263.12
905.984	11186.06
906.297	11121.2
906.611	11050.25
906.924	11069.68
907.237	11038.72
907.551	11016.12
907.864	10907.88
908.177	10898.39
908.491	10876.24
908.804	10739.07
909.117	10654.55
909.43	10708.11
909.743	10620.43
910.056	10675.34
910.368	10624.72
910.681	10470.83
910.994	10444.16
911.307	10394.67
911.619	10260.44
911.932	10340.43
912.244	10275.35
912.557	10289.81
912.869	10114.9
913.181	10101.12
913.494	10103.15
913.806	10083.04
914.118	10045.07
914.43	9966.43
914.742	9966.21
915.054	9890.5
915.366	9862.48
915.678	9800.11
915.99	9838.53
916.302	9715.82
916.613	9702.48
916.925	9605.99
917.236	9567.8
917.548	9604.18
917.859	9597.18
918.171	9492.55
918.482	9399.67
918.794	9354.92
919.105	9385.88
919.416	9350.18
919.727	9325.32
920.038	9269.5
920.349	9211.88
920.66	9196.74
920.971	9224.08
921.282	9081.48
921.593	9006.46
921.903	9031.54
922.214	8986.35
922.525	8936.4
922.835	8874.71
923.146	8876.74
923.456	8774.83
923.767	8779.12
924.077	8781.83
924.387	8734.37
924.697	8669.74
925.008	8617.32
925.318	8564.44
925.628	8587.71
925.938	8532.57
926.248	8478.56
926.558	8409.41
926.867	8345.23
927.177	8382.97
927.487	8278.79
927.796	8315.4
928.106	8233.15
928.416	8205.8
928.725	8187.72
929.034	8132.36
929.344	8171.45
929.653	8100.49
929.962	8039.7
930.271	8004.9
930.581	7961.51
930.89	7938.69
931.199	7901.4
931.508	7909.76
931.817	7869.99
932.125	7785.47
932.434	7829.09
932.743	7763.1
933.051	7704.57
933.36	7718.81
933.669	7582.77
933.977	7590.45
934.286	7511.13
934.594	7510.68
934.902	7429.1
935.21	7397.46
935.519	7420.51
935.827	7397.23
936.135	7310.46
936.443	7312.27
936.751	7242.66
937.059	7266.39
937.367	7213.06
937.674	7227.97
937.982	7178.94
938.29	7112.72
938.597	7084.47
938.905	6992.05
939.213	6966.29
939.52	6940.52
939.827	6998.6
940.135	6925.38
940.442	6853.52
940.749	6885.38
941.056	6911.6
941.363	6765.16
941.67	6789.79
941.977	6718.61
942.284	6700.98
942.591	6691.94
942.898	6653.98
943.205	6634.09
943.511	6613.07
943.818	6589.8
944.125	6526.52
944.431	6469.12
944.738	6460.08
945.044	6464.83
945.35	6397.26
945.657	6396.36
945.963	6324.72
946.269	6297.38
946.575	6287.89
946.881	6265.29
947.187	6287.89
947.493	6167.66
947.799	6220.99
948.105	6160.43
948.41	6148.68
948.716	6131.73
949.022	6092.86
949.327	6117.95
949.633	5989.36
949.938	5982.58
950.244	5974.67
950.549	5971.74
950.854	5917.95
951.16	5903.26
951.465	5866.88
951.77	5809.25
952.075	5799.54
952.38	5766.54
952.685	5762.93
952.99	5736.26
953.294	5682.93
953.599	5683.61
953.904	5651.29
954.209	5572.65
954.513	5624.17
954.818	5544.63
955.122	5634.12
955.426	5536.72
955.731	5520.9
956.035	5484.97
956.339	5459.21
956.643	5438.87
956.948	5386.89
957.252	5383.73
957.556	5381.47
957.86	5339.44
958.163	5313.67
958.467	5290.4
958.771	5276.39
959.075	5225.09
959.378	5202.26
959.682	5236.39
959.985	5147.35
960.289	5173.79
960.592	5121.14
960.896	5079.56
961.199	5131.31
961.502	5102.15
961.805	5068.71
962.108	4985.77
962.411	4963.17
962.714	4972.44
963.017	4921.59
963.32	4941.03
963.623	4889.28
963.926	4886.11
964.228	4873.46
964.531	4811.09
964.833	4826.91
965.136	4768.83
965.438	4743.07
965.741	4695.39
966.043	4693.13
966.345	4705.55
966.648	4706.23
966.95	4651.54
967.252	4592.34
967.554	4608.16
967.856	4581.49
968.158	4531.32
968.46	4562.96
968.761	4531.32
969.063	4493.13
969.365	4454.94
969.666	4441.83
969.968	4437.31
970.269	4379.91
970.571	4441.61
970.872	4377.43
971.174	4336.52
971.475	4334.72
971.776	4315.06
972.077	4299.24
972.378	4280.48
972.679	4270.31
972.98	4229.86
973.281	4196.87
973.582	4236.64
973.883	4221.5
974.183	4191.44
974.484	4128.62
974.785	4143.99
975.085	4129.07
975.386	4100.6
975.686	4112.12
975.986	4055.4
976.287	4025.12
976.587	3974.73
976.887	4048.17
977.187	3998.23
977.487	3958.46
977.787	3980.83
978.087	3936.31
978.387	3890.89
978.687	3930.89
978.987	3881.85
979.286	3831.23
979.586	3829.65
979.885	3815.41
980.185	3818.8
980.484	3756.88
980.784	3744
981.083	3739.48
981.382	3727.5
981.682	3722.3
981.981	3702.42
982.28	3660.61
982.579	3648.63
982.878	3622.87
983.177	3665.81
983.475	3627.39
983.774	3591.46
984.073	3577.22
984.372	3534.74
984.67	3535.19
984.969	3539.48
985.267	3501.97
985.566	3489.77
985.864	3461.97
986.162	3466.04
986.461	3447.96
986.759	3410.67
987.057	3362.99
987.355	3393.72
987.653	3378.13
987.951	3362.99
988.249	3329.09
988.547	3323.67
988.844	3331.35
989.142	3321.41
989.44	3303.78
989.737	3266.04
990.035	3270.34
990.332	3270.11
990.63	3199.38
990.927	3202.09
991.224	3201.41
991.521	3195.09
991.819	3160.28
992.116	3136.78
992.413	3123.22
992.71	3088.87
993.006	3097.46
993.303	3121.87
993.6	3102.66
993.897	3063.34
994.193	3061.08
994.49	3049.78
994.787	3024.92
995.083	2970.91
995.379	2967.52
995.676	2970.68
995.972	2916.9
996.268	2946.96
996.565	2890.69
996.861	2918.48
997.157	2878.71
997.453	2871.7
997.749	2863.57
998.044	2834.87
998.34	2845.26
998.636	2806.17
998.932	2764.14
999.227	2794.87
999.523	2773.63
999.818	2727.08
1000.114	2739.96
1000.409	2719.17
1000.704	2689.79
1001	2700.41
1001.295	2646.17
1001.59	2654.08
1001.885	2675.1
1002.18	2610.47
1002.475	2624.25
1002.77	2587.19
1003.065	2586.97
1003.359	2579.51
1003.654	2549.9
1003.949	2559.85
1004.243	2551.94
1004.538	2503.8
1004.832	2501.32
1005.127	2477.14
1005.421	2459.74
1005.715	2436.24
1006.009	2458.16
1006.304	2431.94
1006.598	2380.64
1006.892	2355.79
1007.186	2339.97
1007.48	2399.17
1007.773	2352.62
1008.067	2330.7
1008.361	2336.58
1008.655	2299.97
1008.948	2288.67
1009.242	2297.03
1009.535	2246.64
1009.829	2240.31
1010.122	2227.88
1010.415	2210.03
1010.708	2203.25
1011.001	2204.6
1011.295	2185.85
1011.588	2160.99
1011.881	2157.82
1012.173	2163.47
1012.466	2114.66
1012.759	2142.91
1013.052	2157.6
1013.344	2084.61
1013.637	2046.19
1013.93	2083.02
1014.222	2026.53
1014.514	2072.86
1014.807	2026.75
1015.099	2014.55
1015.391	2026.98
1015.683	2000.99
1015.976	1990.37
1016.268	2008.9
1016.56	1968.68
1016.851	1947.89
1017.143	1921.67
1017.435	1897.49
1017.727	1920.09
1018.018	1874.89
1018.31	1892.52
1018.602	1864.5
1018.893	1870.37
1019.185	1855.69
1019.476	1833.09
1019.767	1775.46
1020.058	1770.72
1020.35	1786.99
1020.641	1801.22
1020.932	1751.73
1021.223	1736.14
1021.514	1765.97
1021.804	1709.47
1022.095	1710.6
1022.386	1705.86
1022.677	1661.34
1022.967	1685.07
1023.258	1679.87
1023.548	1663.15
1023.839	1669.25
1024.129	1640.32
1024.419	1623.15
1024.709	1627.44
1025	1585.41
1025.29	1570.95
1025.58	1586.54
1025.87	1577.5
1026.16	1560.55
1026.449	1566.43
1026.739	1534.34
1027.029	1547.45
1027.319	1495.47
1027.608	1500.21
1027.898	1499.99
1028.187	1501.57
1028.477	1485.75
1028.766	1481.91
1029.055	1459.54
1029.344	1441.46
1029.634	1418.86
1029.923	1435.36
1030.212	1410.05
1030.501	1408.01
1030.79	1389.48
1031.078	1387.22
1031.367	1367.34
1031.656	1381.8
1031.945	1345.19
1032.233	1351.52
1032.522	1336.83
1032.81	1329.37
1033.099	1347.9
1033.387	1339.09
1033.675	1309.26
1033.963	1319.88
1034.251	1280.79
1034.54	1276.04
1034.828	1291.63
1035.116	1261.35
1035.403	1248.24
1035.691	1231.07
1035.979	1234.91
1036.267	1202.37
1036.554	1203.27
1036.842	1189.04
1037.129	1205.53
1037.417	1180.22
1037.704	1208.47
1037.992	1175.03
1038.279	1159.66
1038.566	1136.16
1038.853	1136.16
1039.14	1136.16
