Data from whiteboard_FLMS001491_00074.txt Node
Date: Wed Feb 08 11:28:03 GMT 2017
User: dcchb
Spectrometer: FLMS00149
Trigger mode: 0
Integration Time (sec): 2.000000E-2
Scans to average: 10
Electric dark correction enabled: true
Nonlinearity correction enabled: false
Boxcar width: 0
XAxis mode: Wavelengths
Number of Pixels in Spectrum: 2048
>>>>>Begin Spectral Data<<<<<
341.393	8.3
341.776	8.3
342.16	8.3
342.543	-51.35
342.927	-76.21
343.31	-67.4
343.693	-66.5
344.077	-72.37
344.46	-64.24
344.843	-59.04
345.226	-36.67
345.61	-24.69
345.993	-5.71
346.376	-2.99
346.759	4.46
347.142	22.99
347.525	19.83
347.908	59.38
348.291	86.04
348.674	87.17
349.057	119.71
349.44	135.53
349.823	148.64
350.206	174.18
350.588	214.63
350.971	230.9
351.354	263.21
351.737	271.12
352.119	277.68
352.502	269.54
352.884	330.78
353.267	308.41
353.65	334.4
354.032	362.65
354.414	344.34
354.797	341.86
355.179	339.14
355.562	355.41
355.944	350.44
356.326	360.39
356.709	351.35
357.091	366.04
357.473	383.44
357.855	387.5
358.238	375.98
358.62	359.03
359.002	378.24
359.384	366.04
359.766	371.91
360.148	360.61
360.53	378.01
360.912	361.97
361.294	370.56
361.676	365.58
362.057	360.39
362.439	355.87
362.821	373.04
363.203	358.58
363.584	348.41
363.966	350.44
364.348	379.14
364.729	347.05
365.111	356.09
365.493	353.61
365.874	375.07
366.256	348.86
366.637	361.06
367.019	364.68
367.4	358.58
367.781	380.05
368.163	352.7
368.544	340.73
368.925	368.07
369.306	357.45
369.688	363.32
370.069	356.32
370.45	367.17
370.831	351.8
371.212	371.69
371.593	366.94
371.974	368.97
372.355	380.5
372.736	363.1
373.117	378.24
373.498	373.94
373.879	370.78
374.26	365.58
374.641	360.16
375.021	376.2
375.402	367.84
375.783	396.54
376.163	387.73
376.544	384.34
376.925	368.07
377.305	369.43
377.686	364
378.066	412.14
378.447	389.99
378.827	405.58
379.208	388.86
379.588	395.87
379.968	394.74
380.349	392.7
380.729	424.57
381.109	418.69
381.489	420.95
381.87	402.42
382.25	403.55
382.63	433.38
383.01	424.57
383.39	432.93
383.77	429.31
384.15	402.87
384.53	430.44
384.91	449.42
385.29	416.66
385.67	451.68
386.049	475.41
386.429	443.55
386.809	455.3
387.189	466.82
387.568	471.57
387.948	453.72
388.328	451.91
388.707	467.5
389.087	467.95
389.466	484.9
389.846	488.74
390.225	468.18
390.605	513.15
390.984	478.8
391.363	507.5
391.743	498.91
392.122	503.89
392.501	519.25
392.881	537.56
393.26	530.78
393.639	542.53
394.018	550.44
394.397	557.44
394.776	562.87
395.155	590.66
395.534	582.98
395.913	591.57
396.292	589.98
396.671	604.67
397.05	617.33
397.429	630.66
397.808	636.76
398.186	617.78
398.565	628.85
398.944	637.89
399.323	659.81
399.701	684.67
400.08	688.51
400.458	702.07
400.837	692.35
401.215	707.5
401.594	735.52
401.972	721.96
402.351	759.47
402.729	757.89
403.107	789.98
403.486	788.17
403.864	817.78
404.242	813.26
404.62	829.98
404.999	838.34
405.377	833.37
405.755	843.31
406.133	910.2
406.511	924.21
406.889	920.6
407.267	939.81
407.645	946.81
408.023	980.93
408.401	986.58
408.779	1003.98
409.156	1037.66
409.534	1051.67
409.912	1086.02
410.29	1112.46
410.667	1125.79
411.045	1160.82
411.422	1172.12
411.8	1171.21
412.178	1209.63
412.555	1259.8
412.933	1265.22
413.31	1273.81
413.687	1317.65
414.065	1330.3
414.442	1336.41
414.819	1354.03
415.197	1406.01
415.574	1438.78
415.951	1407.36
416.328	1454.14
416.705	1477.64
417.082	1468.61
417.46	1509.28
417.837	1518.55
418.214	1520.58
418.591	1575.72
418.967	1571.43
419.344	1608.71
419.721	1626.12
420.098	1598.77
420.475	1664.53
420.852	1646.91
421.228	1687.58
421.605	1717.41
421.982	1754.47
422.358	1771.2
422.735	1767.81
423.111	1807.13
423.488	1827.92
423.864	1853.68
424.241	1878.31
424.617	1892.1
424.994	1883.74
425.37	1926.45
425.746	1958.76
426.123	1938.2
426.499	1965.99
426.875	2030.62
427.251	2055.48
427.627	2084.86
428.003	2120.79
428.379	2148.81
428.756	2151.98
429.132	2196.04
429.507	2226.55
429.883	2268.81
430.259	2309.94
430.635	2350.16
431.011	2341.35
431.387	2445.75
431.763	2446.21
432.138	2477.62
432.514	2502.7
432.89	2496.6
433.265	2568.69
433.641	2588.12
434.016	2620.21
434.392	2656.82
434.767	2690.27
435.143	2728.01
435.518	2773.43
435.894	2808.01
436.269	2879.19
436.644	2882.35
437.02	2886.42
437.395	2879.64
437.77	2972.52
438.145	2970.49
438.52	3067.43
438.895	3089.81
439.271	3041.45
439.646	3098.39
440.021	3172.06
440.395	3175.68
440.77	3179.52
441.145	3204.61
441.52	3313.08
441.895	3290.25
442.27	3303.13
442.645	3303.81
443.019	3367.99
443.394	3348.33
443.769	3418.61
444.143	3351.04
444.518	3481.21
444.892	3400.53
445.267	3498.83
445.641	3493.64
446.016	3541.77
446.39	3595.33
446.764	3597.82
447.139	3600.07
447.513	3622.45
447.887	3683.69
448.262	3704.7
448.636	3725.5
449.01	3736.12
449.384	3779.73
449.758	3830.35
450.132	3866.06
450.506	3871.03
450.88	3924.13
451.254	3924.81
451.628	4015.66
452.002	4028.31
452.376	4061.08
452.75	4125.94
453.123	4147.63
453.497	4224.47
453.871	4265.82
454.244	4332.71
454.618	4345.37
454.992	4457.91
455.365	4444.12
455.739	4611.35
456.112	4648.41
456.486	4661.29
456.859	4680.5
457.232	4751.46
457.606	4750.55
457.979	4839.14
458.352	4906.71
458.725	4966.59
459.099	4998.46
459.472	5127.49
459.845	5193.93
460.218	5217.21
460.591	5249.3
460.964	5318.22
461.337	5456.52
461.71	5510.99
462.083	5558.44
462.456	5571.55
462.829	5674.14
463.201	5753.46
463.574	5800.24
463.947	5806.57
464.32	6018.09
464.692	6028.94
465.065	6095.6
465.438	6190.97
465.81	6291.53
466.183	6347.35
466.555	6456.04
466.928	6525.42
467.3	6536.04
467.672	6609.71
468.045	6757.73
468.417	6821.46
468.789	6864.62
469.161	6990.04
469.534	7086.99
469.906	7271.16
470.278	7286.76
470.65	7414.21
471.022	7552.74
471.394	7601.33
471.766	7704.6
472.138	7820.75
472.51	7999.51
472.882	8086.06
473.253	8231.37
473.625	8314.53
473.997	8536.67
474.369	8543
474.74	8654.86
475.112	8797.23
475.484	8916.55
475.855	9107.05
476.227	9167.61
476.598	9464.33
476.97	9547.26
477.341	9698.67
477.713	9839.91
478.084	9987.25
478.455	10217.75
478.827	10246
479.198	10645.09
479.569	10578.2
479.94	10954.91
480.311	10940.67
480.682	11208.69
481.053	11421.56
481.424	11761.22
481.795	11801.22
482.166	12045.73
482.537	12119.62
482.908	12414.98
483.279	12546.73
483.65	12738.37
484.021	12991.01
484.391	13175.42
484.762	13299.03
485.133	13471.68
485.503	13587.83
485.874	13998.67
486.244	14011.1
486.615	14327.02
486.985	14553.01
487.356	14673.23
487.726	14909.61
488.097	15200.67
488.467	15270.95
488.837	15506.43
489.207	15809.47
489.578	15888.57
489.948	16072.74
490.318	16289.68
490.688	16423.01
491.058	16633.63
491.428	16909.56
491.798	16939.16
492.168	17325.36
492.538	17456.66
492.908	17617.33
493.278	17908.85
493.648	17844.67
494.017	18103.87
494.387	18273.59
494.757	18354.04
495.126	18655.5
495.496	18577.08
495.866	18887.58
496.235	19109.95
496.605	19138.65
496.974	19229.95
497.344	19509.04
497.713	19724.85
498.082	19676.26
498.452	20000.1
498.821	19972.07
499.19	20076.7
499.559	20320.99
499.928	20500.65
500.298	20631.04
500.667	20848.43
501.036	20750.36
501.405	21065.15
501.774	21066.73
502.143	21306.73
502.512	21428.53
502.88	21597.57
503.249	21604.57
503.618	21760.5
503.987	21862.65
504.356	22073.26
504.724	22188.06
505.093	22383.76
505.462	22432.35
505.83	22600.03
506.199	22772
506.567	23140.35
506.936	22996.85
507.304	23351.19
507.672	23461.93
508.041	23506.9
508.409	23702.15
508.777	23909.82
509.145	24135.58
509.514	24088.58
509.882	24371.28
510.25	24436.36
510.618	24589.58
510.986	24693.31
511.354	24975.56
511.722	25182.78
512.09	25388.43
512.458	25370.12
512.826	25542.77
513.193	25745.71
513.561	25803.33
513.929	26090.78
514.297	26310.66
514.664	26531.9
515.032	26569.19
515.4	26801.27
515.767	26987.93
516.135	27092.79
516.502	26965.34
516.869	27437.41
517.237	27573
517.604	27469.05
517.972	27897.06
518.339	28198.3
518.706	28262.93
519.073	28414.34
519.44	28528.01
519.808	28793.99
520.175	28916.7
520.542	29179.74
520.909	29364.37
521.276	29522.56
521.643	29715.55
522.009	29943.34
522.376	30127.51
522.743	30395.53
523.11	30652.92
523.477	31068.28
523.843	31163.42
524.21	31393.24
524.577	31552.56
524.943	31873.23
525.31	31993
525.676	32369.49
526.043	32512.53
526.409	32637.5
526.776	33000.43
527.142	33080.43
527.508	33109.81
527.874	33566.52
528.241	33672.05
528.607	33771.26
528.973	34130.57
529.339	34256.44
529.705	34472.48
530.071	34876.77
530.437	34889.65
530.803	35123.31
531.169	35349.07
531.535	35285.57
531.901	35443.08
532.267	35778.44
532.632	36009.17
532.998	36026.79
533.364	36240.8
533.73	36380.68
534.095	36657.74
534.461	36683.72
534.826	37024.51
535.192	37092.98
535.557	37386.08
535.923	37346.08
536.288	37496.81
536.653	37729.8
537.019	37618.84
537.384	37841.21
537.749	37894.77
538.114	38106.06
538.479	38195.1
538.845	38297.24
539.21	38313.06
539.575	38487.07
539.94	38627.4
540.305	39036.21
540.67	38906.49
541.034	39091.12
541.399	39402.3
541.764	39386.93
542.129	39537.89
542.494	39557.32
542.858	39647.49
543.223	39617.88
543.587	40002.51
543.952	40034.37
544.316	40294.7
544.681	40251.31
545.045	40567.69
545.41	40722.04
545.774	40756.39
546.138	40797.97
546.503	40929.04
546.867	41140.78
547.231	41428.01
547.595	41382.36
547.959	41638.85
548.324	41680.2
548.688	41707.77
549.052	42044.49
549.416	42059.85
549.779	42110.02
550.143	42296.46
550.507	42527.64
550.871	42755.66
551.235	42694.87
551.599	42882.43
551.962	43113.84
552.326	43204.46
552.689	43421.85
553.053	43319.93
553.417	43478.8
553.78	43969.63
554.143	43955.17
554.507	43983.87
554.87	44136.86
555.234	44443.97
555.597	44288.5
555.96	44539.34
556.323	44850.29
556.686	44746.79
557.05	45130.28
557.413	45265.65
557.776	45248.47
558.139	45587.22
558.502	45610.95
558.865	45882.35
559.228	46024.72
559.59	46175
559.953	46358.72
560.316	46657.02
560.679	46658.38
561.041	46866.51
561.404	47176.1
561.767	47333.84
562.129	47187.18
562.492	47644.57
562.854	47650.22
563.217	47654.51
563.579	47833.71
563.941	48028.74
564.304	48232.35
564.666	48521.15
565.028	48490.19
565.39	48689.74
565.753	48833.46
566.115	48872.78
566.477	49009.28
566.839	49169.95
567.201	49482.94
567.563	49543.95
567.925	49747.34
568.287	49722.93
568.648	49941.91
569.01	50120.89
569.372	50206.31
569.734	50180.54
570.095	50416.02
570.457	50614.88
570.819	50688.78
571.18	50663.92
571.542	50855.33
571.903	50998.6
572.265	51041.54
572.626	51126.28
572.987	51215.77
573.349	51413.28
573.71	51411.47
574.071	51647.63
574.432	51614.86
574.794	51802.65
575.155	51739.15
575.516	51732.82
575.877	51851.91
576.238	51937.11
576.599	52134.39
576.96	52066.15
577.32	52148.4
577.681	52303.2
578.042	52370.09
578.403	52386.81
578.763	52420.94
579.124	52396.98
579.485	52566.24
579.845	52663.19
580.206	52583.65
580.566	52573.25
580.927	52623.87
581.287	52674.49
581.648	52606.92
582.008	52745
582.368	52807.59
582.728	52804.2
583.089	52826.35
583.449	52858.67
583.809	52827.93
584.169	52965.78
584.529	52864.32
584.889	53121.71
585.249	52902.73
585.609	52854.37
585.969	53025.67
586.329	52986.35
586.688	53092.56
587.048	53011.66
587.408	52916.52
587.768	52959.45
588.127	52980.7
588.487	52973.24
588.846	53086.91
589.206	52824.32
589.565	52961.04
589.925	53112.22
590.284	53023.41
590.643	53046.01
591.003	53052.56
591.362	53211.65
591.721	53220.01
592.08	53231.76
592.44	53255.72
592.799	53258.66
593.158	53261.14
593.517	53250.97
593.876	53257.07
594.235	53221.14
594.593	53236.96
594.952	53272.67
595.311	53158.55
595.67	53297.75
596.029	53397.18
596.387	53403.51
596.746	53394.25
597.104	53225.66
597.463	53191.31
597.822	53344.98
598.18	53175.27
598.538	53229.73
598.897	53441.25
599.255	53112.45
599.613	53672.66
599.972	53410.74
600.33	53445.09
600.688	53328.03
601.046	53505.43
601.404	53572.55
601.762	53552.21
602.12	53649.83
602.478	53676.72
602.836	53683.73
603.194	53528.25
603.552	53616.84
603.91	53491.64
604.268	53584.52
604.625	53481.7
604.983	53671.53
605.341	53530.51
605.698	53648.25
606.056	53652.09
606.413	53584.07
606.771	53740
607.128	53841.24
607.485	53645.09
607.843	53724.86
608.2	53959.2
608.557	54017.28
608.914	53878.07
609.272	53970.5
609.629	54045.98
609.986	54165.52
610.343	53990.61
610.7	54233.09
611.057	54135.92
611.414	54089.59
611.771	54175.69
612.127	54286.2
612.484	54215.92
612.841	54281
613.198	54185.86
613.554	54220.21
613.911	54344.28
614.267	54337.27
614.624	54336.59
614.98	54369.81
615.337	54498.4
615.693	54382.02
616.05	54461.79
616.406	54541.11
616.762	54433.77
617.118	54449.59
617.475	54418.17
617.831	54556.25
618.187	54578.17
618.543	54589.24
618.899	54659.98
619.255	54636.25
619.611	54619.07
619.967	54737.26
620.323	54718.28
620.678	54573.42
621.034	54553.99
621.39	54595.8
621.746	54471.28
622.101	54840.08
622.457	54588.11
622.812	54554.22
623.168	54633.76
623.523	54622.01
623.879	54788.79
624.234	54461.56
624.589	54581.79
624.945	54648.9
625.3	54642.57
625.655	54593.31
626.01	54683.48
626.365	54687.55
626.72	54558.28
627.075	54584.5
627.43	54645.29
627.785	54511.96
628.14	54603.93
628.495	54536.81
628.85	54484.16
629.205	54454.1
629.559	54575.23
629.914	54357.38
630.269	54476.25
630.623	54312.87
630.978	54330.94
631.332	54346.54
631.687	54412.98
632.041	54196.94
632.396	54262.92
632.75	54185.41
633.104	54166.43
633.459	54005.98
633.813	54022.7
634.167	54090.5
634.521	53986.55
634.875	54123.27
635.229	54004.17
635.583	53849.6
635.937	53890.05
636.291	53819.09
636.645	53867.23
636.999	53779.09
637.352	53770.73
637.706	53578.42
638.06	53747.68
638.413	53610.96
638.767	53573.9
639.121	53628.36
639.474	53578.87
639.828	53438.76
640.181	53568.7
640.534	53473.57
640.888	53376.39
641.241	53284.64
641.594	53311.54
641.947	53402.38
642.301	53199.9
642.654	53208.26
643.007	53189.51
643.36	53250.97
643.713	53157.42
644.066	53277.86
644.419	53041.71
644.771	52765.79
645.124	52482.63
645.477	52406.7
645.83	52180.49
646.182	52259.59
646.535	52119.25
646.888	52259.36
647.24	52010.33
647.593	52151.34
647.945	52090.78
648.298	51969.2
648.65	51894.17
649.002	51628.64
649.355	51856.89
649.707	51785.47
650.059	51915.64
650.411	52312.92
650.763	52247.16
651.115	52664.32
651.467	52469.3
651.819	52415.06
652.171	52353.37
652.523	52354.05
652.875	52368.51
653.227	52189.76
653.578	52416.64
653.93	52317.89
654.282	52143.66
654.633	52074.28
654.985	52158.35
655.337	52125.13
655.688	52101.62
656.039	52244.9
656.391	51825.02
656.742	51802.2
657.094	51930.56
657.445	52045.35
657.796	51919.93
658.147	51809.2
658.498	51781.41
658.849	51819.37
659.2	51771.69
659.551	51687.4
659.902	51725.14
660.253	51666.83
660.604	51713.39
660.955	51540.74
661.306	51742.09
661.656	51571.92
662.007	51645.59
662.358	51584.35
662.708	51568.76
663.059	51517.68
663.409	51279.73
663.76	51488.53
664.11	51512.71
664.461	51495.76
664.811	51331.25
665.161	51380.06
665.511	51381.87
665.862	51270.23
666.212	51360.4
666.562	51327.18
666.912	51386.16
667.262	51234.3
667.612	51201.99
667.962	51312.94
668.312	51222.78
668.662	51223
669.011	51172.16
669.361	51181.87
669.711	51137.58
670.06	51134.87
670.41	50970.35
670.76	50951.37
671.109	51126.73
671.459	50925.84
671.808	50909.34
672.157	50974.42
672.507	50791.83
672.856	50711.6
673.205	50908.44
673.554	50854.65
673.904	50822.79
674.253	50954.54
674.602	50739.17
674.951	50285.63
675.3	50076.37
675.649	50694.2
675.998	50507.32
676.346	50557.94
676.695	50613.53
677.044	50338.28
677.393	50461.89
677.741	50471.16
678.09	50419.86
678.438	50437.49
678.787	50312.74
679.135	50304.84
679.484	50234.55
679.832	50200.66
680.181	49960.44
680.529	50081.56
680.877	49933.55
681.225	49905.07
681.573	50075.91
681.922	49821.91
682.27	49773.32
682.618	49687.45
682.966	49630.73
683.314	49652.65
683.661	49542.37
684.009	49365.2
684.357	49312.77
684.705	49143.51
685.053	49249.95
685.4	49131.76
685.748	48895.61
686.095	48911.2
686.443	48827.36
686.79	48841.37
687.138	48839.79
687.485	48760.7
687.832	48607.93
688.18	48556.18
688.527	48492.23
688.874	48538.55
689.221	48258.79
689.568	48145.57
689.915	48158.45
690.262	48077.55
690.609	47911
690.956	47775.86
691.303	47795.3
691.65	47475.98
691.997	47424.23
692.344	47245.03
692.69	47305.82
693.037	47166.84
693.383	46932.72
693.73	47102.21
694.077	46630.36
694.423	46890.46
694.769	46494.09
695.116	46569.79
695.462	46493.41
695.808	46341.1
696.155	46492.28
696.501	46106.53
696.847	46058.85
697.193	45826.99
697.539	45982.01
697.885	45638.97
698.231	45465.87
698.577	45490.5
698.923	45350.84
699.269	45093.67
699.614	45035.6
699.96	44946.78
700.306	44877.63
700.651	44676.06
700.997	44630.63
701.342	44540.02
701.688	44469.73
702.033	44309.51
702.379	44248.05
702.724	44107.71
703.069	44074.94
703.415	43611.23
703.76	43753.14
704.105	43753.37
704.45	43636.08
704.795	43329.43
705.14	43234.29
705.485	43180.73
705.83	43116.1
706.175	43034.07
706.52	42947.74
706.865	42785.94
707.209	42809.44
707.554	42695.77
707.899	42766.28
708.243	42494.87
708.588	42348.43
708.932	42162.45
709.277	42155.9
709.621	42222.79
709.966	41873.19
710.31	42182.34
710.654	41722.69
710.998	41794.55
711.342	41679.53
711.687	41541.68
712.031	41376.93
712.375	41263.27
712.719	41393.88
713.063	41321.57
713.407	41292.87
713.75	41206.54
714.094	40979.88
714.438	40918.87
714.782	40931.75
715.125	40724.52
715.469	40744.41
715.812	40580.12
716.156	40346.23
716.499	40388.03
716.843	40382.61
717.186	40136.29
717.53	40214.48
717.873	40172.22
718.216	40212.45
718.559	39944.2
718.902	39760.03
719.246	39815.62
719.589	39490.88
719.932	39332.24
720.275	39557.77
720.617	39390.32
720.96	39396.2
721.303	39260.61
721.646	39360.26
721.989	39156.65
722.331	39144.22
722.674	38947.17
723.016	38968.41
723.359	38800.28
723.701	39003.21
724.044	38682.09
724.386	38485.71
724.729	38672.15
725.071	38478.03
725.413	38503.11
725.755	38403.68
726.097	38269.67
726.439	37963.69
726.782	38119.17
727.124	38185.61
727.465	37853.19
727.807	37719.86
728.149	37864.94
728.491	37526.87
728.833	37753.75
729.175	37570.71
729.516	37339.98
729.858	37397.15
730.199	37316.93
730.541	37213.2
730.882	37169.59
731.224	37248.68
731.565	36953.77
731.906	37033.55
732.248	36949.71
732.589	36769.37
732.93	36565.08
733.271	36723.5
733.612	36663.39
733.953	36565.54
734.294	36570.06
734.635	36560.79
734.976	36487.35
735.317	36205.32
735.658	36255.49
735.999	36273.79
736.339	36096.62
736.68	36275.6
737.021	36123.51
737.361	35944.31
737.702	36142.5
738.042	35951.31
738.383	35862.73
738.723	35889.62
739.063	35620.7
739.404	35769.85
739.744	35625
740.084	35372.57
740.424	35480.82
740.764	35342.97
741.104	35566.24
741.444	35211.22
741.784	35108.4
742.124	35136.65
742.464	35090.09
742.804	35110.43
743.143	34886.03
743.483	34975.07
743.823	34726.04
744.162	34658.24
744.502	34733.27
744.841	34600.62
745.181	34700.73
745.52	34628.64
745.86	34635.19
746.199	34422.77
746.538	34397.01
746.877	34522.65
747.216	34466.16
747.556	34283.79
747.895	34317.01
748.234	34184.81
748.573	34214.41
748.911	34053.96
749.25	34080.86
749.589	33745.72
749.928	33913.63
750.267	33943.68
750.605	33843.8
750.944	33752.5
751.283	33489.01
751.621	33609
751.96	33441.78
752.298	33471.38
752.636	33481.1
752.975	33297.37
753.313	33062.8
753.651	33323.36
753.989	33029.81
754.327	32955.01
754.666	32691.06
755.004	32709.37
755.342	32626.43
755.679	32740.1
756.017	32488.35
756.355	32617.39
756.693	32402.26
757.031	32388.7
757.368	32308.02
757.706	32142.15
758.044	32083.17
758.381	32035.94
758.719	31814.25
759.056	31820.8
759.394	31701.93
759.731	31613.12
760.068	31389.85
760.405	31348.05
760.743	31371.32
761.08	31343.75
761.417	31116.87
761.754	31116.64
762.091	31014.27
762.428	30960.49
762.765	30747.16
763.102	30905.57
763.438	30648.63
763.775	30425.81
764.112	30380.84
764.449	30454.51
764.785	30257.45
765.122	30063.11
765.458	29990.57
765.795	29856.33
766.131	29918.93
766.467	29815.88
766.804	29723.91
767.14	29524.59
767.476	29459.28
767.812	29299.96
768.148	29291.83
768.485	29139.52
768.821	29121.21
769.157	28932.74
769.492	28855.23
769.828	28778.4
770.164	28471.74
770.5	28445.07
770.836	28459.76
771.171	28307.45
771.507	28276.26
771.842	28015.25
772.178	28005.31
772.513	27956.27
772.849	27867.91
773.184	27726.9
773.519	27780
773.855	27544.3
774.19	27469.05
774.525	27402.84
774.86	27278.77
775.195	27111.1
775.53	27130.98
775.865	26847.37
776.2	26845.11
776.535	26626.36
776.87	26572.8
777.205	26361.06
777.539	26283.55
777.874	26446.93
778.209	26130.78
778.543	26182.98
778.878	26018.47
779.212	25918.58
779.547	25778.93
779.881	25766.95
780.215	25677.01
780.55	25522.89
780.884	25474.08
781.218	25332.61
781.552	25468.43
781.886	25207.64
782.22	24959.51
782.554	24954.77
782.888	24717.71
783.222	24659.86
783.556	24633.65
783.889	24506.19
784.223	24319.98
784.557	24367.66
784.89	24426.19
785.224	24188.91
785.557	24032.08
785.891	24018.52
786.224	23944.62
786.558	23772.2
786.891	23578.98
787.224	23572.43
787.557	23477.52
787.891	23381.25
788.224	23304.64
788.557	23402.27
788.89	23253.34
789.223	23160.69
789.556	22972.67
789.888	22884.54
790.221	22846.8
790.554	22604.55
790.887	22667.14
791.219	22595.51
791.552	22512.35
791.884	22416.76
792.217	22361.84
792.549	22237.1
792.882	22018.12
793.214	22111.45
793.546	22043.43
793.879	21893.15
794.211	21821.97
794.543	21818.8
794.875	21789.2
795.207	21795.75
795.539	21587.4
795.871	21511.47
796.203	21317.8
796.535	21360.96
796.867	21386.73
797.198	21249.1
797.53	21229.44
797.862	21065.83
798.193	21084.13
798.525	20940.86
798.856	20889.34
799.188	20796.23
799.519	20735.67
799.85	20564.37
800.182	20618.61
800.513	20563.02
800.844	20373.87
801.175	20535.22
801.506	20444.38
801.837	20316.25
802.168	20190.15
802.499	20191.05
802.83	20127.78
803.161	19919.19
803.491	20017.27
803.822	19903.6
804.153	19789.71
804.483	19744.06
804.814	19638.75
805.145	19697.5
805.475	19598.98
805.805	19525.08
806.136	19478.53
806.466	19444.4
806.796	19426.78
807.126	19274.01
807.457	19186.33
807.787	19213
808.117	19044.19
808.447	19009.39
808.777	19129.16
809.107	19021.59
809.436	18950.18
809.766	18994.02
810.096	18916.96
810.426	18838.09
810.755	18829.96
811.085	18712.22
811.414	18712.9
811.744	18544.77
812.073	18536.86
812.403	18506.58
812.732	18409.85
813.061	18433.58
813.39	18262.29
813.719	18301.38
814.049	18345.45
814.378	18216.19
814.707	18200.59
815.036	18168.96
815.365	18062.52
815.693	17903.88
816.022	17888.51
816.351	17838.57
816.68	17862.07
817.008	17765.8
817.337	17629.99
817.665	17632.02
817.994	17683.55
818.322	17661.85
818.651	17593.61
818.979	17494.62
819.307	17526.71
819.636	17425.7
819.964	17449.65
820.292	17403.1
820.62	17413.5
820.948	17243.78
821.276	17384.35
821.604	17285.36
821.932	17333.27
822.259	17274.29
822.587	17343.67
822.915	17338.47
823.243	17147.74
823.57	17234.52
823.898	17252.15
824.225	17218.7
824.553	17148.19
824.88	17157.91
825.207	17211.69
825.535	17093.96
825.862	17167.4
826.189	17088.31
826.516	17221.64
826.843	17237.23
827.17	17280.62
827.497	17315.87
827.824	17117.69
828.151	17253.5
828.478	17115.2
828.805	17223.67
829.131	17039.04
829.458	17073.62
829.785	17025.03
830.111	17084.01
830.438	17172.83
830.764	17032.94
831.09	17081.98
831.417	16996.11
831.743	17046.27
832.069	17031.59
832.395	16971.02
832.722	17085.14
833.048	16968.54
833.374	16914.75
833.7	16816.9
834.026	16873.4
834.351	16880.63
834.677	16859.39
835.003	16877.01
835.329	16885.38
835.654	16756.57
835.98	16716.57
836.306	16742.33
836.631	16688.32
836.956	16753.18
837.282	16768.99
837.607	16632.5
837.932	16497.36
838.258	16498.72
838.583	16510.24
838.908	16422.34
839.233	16376.69
839.558	16393.41
839.883	16363.81
840.208	16320.64
840.533	16217.6
840.858	16322.45
841.182	16280.42
841.507	16209.46
841.832	16096.24
842.156	16148.22
842.481	16071.16
842.805	16011.05
843.13	16030.71
843.454	15955
843.778	15942.58
844.103	15836.36
844.427	15792.52
844.751	15776.93
845.075	15769.47
845.399	15665.52
845.723	15592.53
846.047	15631.62
846.371	15464.85
846.695	15435.24
847.019	15401.35
847.343	15277.73
847.666	15214.91
847.99	15163.61
848.313	15177.85
848.637	15061.24
848.96	15011.75
849.284	14920.46
849.607	14841.14
849.931	14842.72
850.254	14777.41
850.577	14649.5
850.9	14557.07
851.223	14505.32
851.546	14508.71
851.869	14386.68
852.192	14543.29
852.515	14308.27
852.838	14313.69
853.161	14301.04
853.483	14174.03
853.806	14056.07
854.129	14085.67
854.451	14094.49
854.774	14029.63
855.096	13970.65
855.419	13938.56
855.741	13891.1
856.063	13733.37
856.385	13823.08
856.708	13766.81
857.03	13675.06
857.352	13710.09
857.674	13696.31
857.996	13617.66
858.318	13525.01
858.64	13423.09
858.961	13438.23
859.283	13368.63
859.605	13302.87
859.926	13358.01
860.248	13252.93
860.57	13260.16
860.891	13270.1
861.212	13167.73
861.534	13192.82
861.855	13177.22
862.176	13169.99
862.498	13137.23
862.819	13159.6
863.14	13062.2
863.461	12993.73
863.782	12974.07
864.103	12960.51
864.424	12865.59
864.745	12944.24
865.065	12832.6
865.386	12766.39
865.707	12729.33
866.027	12804.13
866.348	12772.49
866.668	12749.44
866.989	12737.01
867.309	12635.54
867.63	12697.69
867.95	12578.82
868.27	12587.86
868.59	12616.56
868.91	12539.5
869.23	12565.94
869.55	12588.54
869.87	12505.83
870.19	12515.55
870.51	12447.75
870.83	12502.44
871.15	12431.71
871.469	12397.58
871.789	12409.11
872.109	12336.34
872.428	12256.57
872.748	12311.71
873.067	12263.58
873.386	12303.57
873.706	12200.07
874.025	12255.21
874.344	12188.55
874.663	12223.12
874.982	12169.12
875.301	12179.74
875.62	12044.15
875.939	12033.98
876.258	12019.74
876.577	11999.63
876.896	12059.97
877.214	11944.26
877.533	11948.78
877.852	11956.01
878.17	11918.5
878.489	11819.29
878.807	11948.33
879.125	11934.54
879.444	11943.58
879.762	11806.86
880.08	11798.05
880.398	11756.02
880.716	11799.41
881.034	11741.33
881.352	11721.44
881.67	11648
881.988	11655
882.306	11657.26
882.624	11631.73
882.941	11517.83
883.259	11503.82
883.577	11501.79
883.894	11421.79
884.212	11416.14
884.529	11457.5
884.846	11399.42
885.164	11321.23
885.481	11332.75
885.798	11450.04
886.115	11241
886.432	11328.01
886.75	11250.27
887.067	11216.37
887.383	11168.92
887.7	11172.76
888.017	11071.97
888.334	11028.58
888.651	11063.16
888.967	11035.59
889.284	10977.73
889.6	10991.74
889.917	10869.04
890.233	10866.32
890.55	10869.94
890.866	10854.57
891.182	10754.46
891.498	10756.72
891.815	10767.34
892.131	10666.33
892.447	10660
892.763	10638.76
893.079	10631.75
893.395	10557.18
893.71	10495.49
894.026	10475.83
894.342	10430.86
894.657	10311.31
894.973	10399.44
895.289	10372.78
895.604	10306.79
895.92	10229.05
896.235	10182.5
896.55	10231.99
896.865	10142.28
897.181	10128.72
897.496	10093.01
897.811	10081.94
898.126	10072.67
898.441	10016.63
898.756	9977.53
899.071	9892.56
899.386	9930.53
899.7	9834.94
900.015	9726.92
900.33	9751.78
900.644	9695.51
900.959	9731.21
901.273	9570.09
901.588	9527.15
901.902	9566.25
902.216	9536.64
902.531	9559.47
902.845	9515.17
903.159	9377.78
903.473	9390.21
903.787	9314.5
904.101	9290.09
904.415	9325.12
904.729	9206.71
905.042	9169.87
905.356	9138.69
905.67	9155.86
905.984	9064.34
906.297	9128.97
906.611	9041.74
906.924	8917.9
907.237	9003.32
907.551	8968.07
907.864	8896.66
908.177	8940.27
908.491	8864.12
908.804	8785.7
909.117	8679.49
909.43	8737.11
909.743	8641.98
910.056	8665.7
910.368	8636.33
910.681	8490.12
910.994	8552.04
911.307	8513.62
911.619	8344.81
911.932	8472.04
912.244	8399.04
912.557	8315.88
912.869	8281.08
913.181	8277.01
913.494	8280.18
913.806	8218.03
914.118	8120.86
914.43	8105.49
914.742	8150.69
915.054	7979.17
915.366	8063.46
915.678	8019.85
915.99	7951.82
916.302	7870.47
916.613	7920.64
916.925	7884.71
917.236	7875.44
917.548	7827.08
917.859	7821.88
918.171	7710.25
918.482	7714.77
918.794	7634.55
919.105	7705.28
919.416	7579.86
919.727	7616.24
920.038	7603.36
920.349	7486.75
920.66	7440.43
920.971	7453.98
921.282	7409.24
921.593	7413.99
921.903	7336.93
922.214	7358.85
922.525	7254.22
922.835	7243.37
923.146	7231.39
923.456	7208.57
923.767	7129.93
924.077	7150.49
924.387	7152.75
924.697	7029.82
925.008	7059.87
925.318	7019.65
925.628	6991.17
925.938	6977.84
926.248	6937.39
926.558	6884.96
926.867	6888.12
927.177	6836.37
927.487	6798.41
927.796	6782.82
928.106	6743.04
928.416	6730.84
928.725	6656.49
929.034	6710.5
929.344	6681.12
929.653	6609.04
929.962	6549.83
930.271	6511.86
930.581	6514.57
930.89	6484.29
931.199	6392.77
931.508	6437.06
931.817	6403.62
932.125	6384.63
932.434	6381.02
932.743	6285.65
933.051	6219.89
933.36	6179.67
933.669	6202.49
933.977	6158.65
934.286	6192.1
934.594	6152.55
934.902	6046.56
935.21	6066.9
935.519	6037.07
935.827	6003.4
936.135	5976.28
936.443	5908.04
936.751	5835.5
937.059	5907.81
937.367	5867.81
937.674	5824.42
937.982	5849.06
938.29	5828.72
938.597	5781.71
938.905	5703.75
939.213	5696.06
939.52	5623.3
939.827	5691.32
940.135	5617.65
940.442	5622.85
940.749	5628.95
941.056	5549.4
941.363	5539.46
941.67	5513.47
941.977	5432.12
942.284	5471.21
942.591	5431.89
942.898	5393.93
943.205	5389.41
943.511	5369.07
943.818	5285.45
944.125	5255.85
944.431	5216.76
944.738	5214.72
945.044	5231.22
945.35	5207.26
945.657	5177.43
945.963	5146.7
946.269	5125.46
946.575	5108.28
946.881	5086.59
947.187	5073.71
947.493	5030.77
947.799	5020.83
948.105	4986.71
948.41	4940.6
948.716	4965.91
949.022	4897.89
949.327	4933.37
949.633	4851.57
949.938	4879.82
950.244	4827.84
950.549	4785.35
950.854	4760.27
951.16	4770.89
951.465	4758.46
951.77	4747.16
952.075	4744.23
952.38	4706.94
952.685	4676.43
952.99	4599.14
953.294	4664.68
953.599	4585.59
953.904	4575.87
954.209	4563.67
954.513	4580.39
954.818	4518.02
955.122	4499.49
955.426	4459.71
955.731	4467.4
956.035	4437.34
956.339	4465.81
956.643	4420.62
956.948	4379.26
957.252	4322.32
957.556	4303.79
957.86	4334.74
958.163	4308.3
958.467	4298.14
958.771	4285.03
959.075	4264.69
959.378	4294.75
959.682	4276.89
959.985	4195.31
960.289	4214.97
960.592	4164.13
960.896	4116.67
961.199	4120.29
961.502	4120.97
961.805	4102.89
962.108	4046.84
962.411	4031.02
962.714	4010.01
963.017	3999.61
963.32	4026.28
963.623	4018.59
963.926	3949.9
964.228	3958.48
964.531	3882.1
964.833	3937.02
965.136	3864.47
965.438	3849.33
965.741	3831.48
966.043	3848.2
966.345	3845.72
966.648	3773.63
966.95	3757.36
967.252	3765.04
967.554	3736.79
967.856	3706.29
968.158	3666.06
968.46	3733.86
968.761	3673.75
969.063	3660.86
969.365	3633.07
969.666	3635.78
969.968	3608.66
970.269	3617.48
970.571	3597.14
970.872	3570.92
971.174	3529.34
971.475	3520.98
971.776	3540.64
972.077	3506.07
972.378	3520.53
972.679	3538.83
972.98	3494.09
973.281	3480.08
973.582	3402.34
973.883	3431.04
974.183	3393.53
974.484	3387.88
974.785	3394.2
975.085	3384.49
975.386	3318.73
975.686	3318.05
975.986	3311.49
976.287	3325.96
976.587	3268.33
976.887	3244.83
977.187	3243.02
977.487	3228.56
977.787	3223.36
978.087	3196.02
978.387	3218.84
978.687	3182.46
978.987	3185.85
979.286	3188.56
979.586	3211.84
979.885	3162.57
980.185	3122.57
980.484	3121.9
980.784	3099.75
981.083	3110.37
981.382	3103.82
981.682	3033.99
981.981	3049.81
982.28	3045.06
982.579	2994.44
982.878	3018.17
983.177	2976.14
983.475	2963.26
983.774	2950.15
984.073	2920.09
984.372	2925.29
984.67	2930.04
984.969	2928
985.267	2902.69
985.566	2888.23
985.864	2854.56
986.162	2857.72
986.461	2814.11
986.759	2848.68
987.057	2797.61
987.355	2785.41
987.653	2787.67
987.951	2766.88
988.249	2742.24
988.547	2728.91
988.844	2729.82
989.142	2713.77
989.44	2695.01
989.737	2653.66
990.035	2671.06
990.332	2681.68
990.63	2662.02
990.927	2636.26
991.224	2662.7
991.521	2617.95
991.819	2588.35
992.116	2564.62
992.413	2564.17
992.71	2541.57
993.006	2596.03
993.303	2523.72
993.6	2493.44
993.897	2509.93
994.193	2499.76
994.49	2476.71
994.787	2501.8
995.083	2437.39
995.379	2447.79
995.676	2425.64
995.972	2396.26
996.268	2404.17
996.565	2404.17
996.861	2358.07
997.157	2380.22
997.453	2354.23
997.749	2323.95
998.044	2345.42
998.34	2301.35
998.636	2333.89
998.932	2301.8
999.227	2289.37
999.523	2287.57
999.818	2261.35
1000.114	2218.87
1000.409	2238.75
1000.704	2222.26
1001	2245.76
1001.295	2188.36
1001.59	2205.08
1001.885	2197.4
1002.18	2154.24
1002.475	2141.81
1002.77	2158.76
1003.065	2105.88
1003.359	2111.3
1003.654	2111.53
1003.949	2087.35
1004.243	2046.22
1004.538	2055.48
1004.832	2031.98
1005.127	2052.32
1005.421	2016.84
1005.715	2046.22
1006.009	2006.44
1006.304	2017.74
1006.598	1945.66
1006.892	1968.25
1007.186	1944.53
1007.48	1941.36
1007.773	1935.49
1008.067	1936.62
1008.361	1886.9
1008.655	1887.58
1008.948	1867.01
1009.242	1897.07
1009.535	1869.72
1009.829	1889.84
1010.122	1855.04
1010.415	1843.96
1010.708	1836.28
1011.001	1795.15
1011.295	1826.56
1011.588	1803.96
1011.881	1800.8
1012.173	1764.19
1012.466	1790.86
1012.759	1749.5
1013.052	1747.47
1013.344	1749.73
1013.637	1726
1013.93	1693.23
1014.222	1692.33
1014.514	1700.46
1014.807	1688.26
1015.099	1678.54
1015.391	1651.43
1015.683	1624.99
1015.976	1635.38
1016.268	1635.38
1016.56	1594.48
1016.851	1619.34
1017.143	1606
1017.435	1568.94
1017.727	1560.35
1018.018	1552.67
1018.31	1576.63
1018.602	1537.53
1018.893	1543.41
1019.185	1504.76
1019.476	1533.01
1019.767	1517.64
1020.058	1498.66
1020.35	1484.65
1020.641	1500.92
1020.932	1453.24
1021.223	1436.74
1021.514	1445.1
1021.804	1436.97
1022.095	1432.67
1022.386	1421.15
1022.677	1388.16
1022.967	1392.22
1023.258	1369.17
1023.548	1373.47
1023.839	1376.4
1024.129	1359.23
1024.419	1336.86
1024.709	1341.83
1025	1328.04
1025.29	1331.21
1025.58	1295.73
1025.87	1290.31
1026.16	1303.41
1026.449	1299.57
1026.739	1287.59
1027.029	1265.45
1027.319	1274.26
1027.608	1254.6
1027.898	1241.27
1028.187	1227.03
1028.477	1239.23
1028.766	1201.72
1029.055	1212.57
1029.344	1210.99
1029.634	1178.22
1029.923	1175.73
1030.212	1194.49
1030.501	1197.65
1030.79	1185
1031.078	1140.93
1031.367	1176.41
1031.656	1159.46
1031.945	1105
1032.233	1128.28
1032.522	1120.59
1032.81	1111.1
1033.099	1108.61
1033.387	1096.86
1033.675	1081.05
1033.963	1090.08
1034.251	1080.37
1034.54	1071.33
1034.828	1075.62
1035.116	1060.93
1035.403	1032.68
1035.691	1015.28
1035.979	1070.65
1036.267	1040.14
1036.554	1013.48
1036.842	1009.18
1037.129	1017.09
1037.417	1004.89
1037.704	999.69
1037.992	981.39
1038.279	999.01
1038.566	985.91
1038.853	985.91
1039.14	985.91
