Data from white_wall_FLMS001491_042.txt Node
Date: Tue Feb 07 11:04:34 GMT 2017
User: dcchb
Spectrometer: FLMS00149
Trigger mode: 0
Integration Time (sec): 2.000000E-2
Scans to average: 10
Electric dark correction enabled: true
Nonlinearity correction enabled: false
Boxcar width: 0
XAxis mode: Wavelengths
Number of Pixels in Spectrum: 2048
>>>>>Begin Spectral Data<<<<<
341.393	7.7
341.776	7.7
342.16	7.7
342.543	-54.67
342.927	-55.58
343.31	-89.02
343.693	-46.99
344.077	-68.46
344.46	-54.9
344.843	-55.8
345.226	-36.37
345.61	-40.44
345.993	-18.06
346.376	-7.9
346.759	11.99
347.142	27.36
347.525	49.5
347.908	60.35
348.291	70.29
348.674	94.25
349.057	104.19
349.44	118.66
349.823	151.65
350.206	170.86
350.588	231.87
350.971	239.1
351.354	252.89
351.737	260.35
352.119	273
352.502	275.04
352.884	296.28
353.267	294.92
353.65	309.16
354.032	315.49
354.414	309.38
354.797	310.97
355.179	326.33
355.562	360.46
355.944	337.18
356.326	357.07
356.709	368.82
357.091	346.67
357.473	373.34
357.855	365.2
358.238	347.12
358.62	350.51
359.002	345.99
359.384	365.43
359.766	371.3
360.148	349.84
360.53	365.65
360.912	357.52
361.294	355.94
361.676	365.43
362.057	358.65
362.439	362.72
362.821	350.74
363.203	355.26
363.584	358.87
363.966	347.12
364.348	320.46
364.729	357.97
365.111	326.56
365.493	332.66
365.874	345.32
366.256	327.24
366.637	337.63
367.019	340.12
367.4	317.52
367.781	357.74
368.163	328.14
368.544	330.17
368.925	348.71
369.306	360.46
369.688	338.31
370.069	347.35
370.45	353.23
370.831	356.61
371.212	338.31
371.593	333.79
371.974	331.53
372.355	338.99
372.736	335.37
373.117	345.32
373.498	341.02
373.879	328.14
374.26	311.87
374.641	331.08
375.021	342.6
375.402	342.38
375.783	332.89
376.163	353.68
376.544	336.05
376.925	353
377.305	346.22
377.686	331.98
378.066	351.19
378.447	347.58
378.827	362.04
379.208	371.3
379.588	373.79
379.968	367.01
380.349	355.03
380.729	362.72
381.109	374.47
381.489	358.65
381.87	368.14
382.25	368.37
382.63	362.04
383.01	372.89
383.39	372.43
383.77	377.18
384.15	382.83
384.53	382.6
384.91	400
385.29	393.45
385.67	393.9
386.049	415.37
386.429	412.21
386.809	383.28
387.189	400.68
387.568	401.59
387.948	407.24
388.328	409.95
388.707	420.79
389.087	402.04
389.466	436.39
389.846	430.29
390.225	440.23
390.605	426.44
390.984	422.83
391.363	438.19
391.743	444.75
392.122	463.05
392.501	463.28
392.881	468.02
393.26	476.16
393.639	470.28
394.018	469.61
394.397	499.89
394.776	516.84
395.155	504.18
395.534	497.4
395.913	523.62
396.292	520.23
396.671	513.67
397.05	517.74
397.429	529.49
397.808	528.14
398.186	551.41
398.565	573.33
398.944	573.56
399.323	589.15
399.701	559.32
400.08	577.85
400.458	601.13
400.837	608.13
401.215	617.63
401.594	626.44
401.972	632.54
402.351	642.03
402.729	651.97
403.107	658.98
403.486	661.47
403.864	680.9
404.242	700.11
404.62	717.06
404.999	722.26
405.377	731.75
405.755	746.44
406.133	772.42
406.511	769.49
406.889	772.88
407.267	800.67
407.645	810.16
408.023	822.14
408.401	826.43
408.779	841.8
409.156	879.54
409.534	896.71
409.912	879.54
410.29	923.38
410.667	927
411.045	937.16
411.422	968.35
411.8	975.81
412.178	980.78
412.555	990.72
412.933	998.86
413.31	1040.21
413.687	1035.02
414.065	1057.61
414.442	1090.15
414.819	1086.77
415.197	1104.39
415.574	1128.8
415.951	1131.74
416.328	1166.09
416.705	1139.42
417.082	1148.01
417.46	1151.62
417.837	1191.62
418.214	1198.4
418.591	1200.89
418.967	1226.65
419.344	1239.53
419.721	1259.87
420.098	1256.93
420.475	1271.62
420.852	1305.97
421.228	1300.77
421.605	1311.39
421.982	1335.12
422.358	1341.45
422.735	1351.17
423.111	1391.84
423.488	1355.23
423.864	1392.75
424.241	1423.93
424.617	1432.97
424.994	1411.73
425.37	1471.16
425.746	1471.61
426.123	1491.27
426.499	1526.98
426.875	1515.45
427.251	1530.14
427.627	1569.69
428.003	1576.24
428.379	1606.75
428.756	1631.16
429.132	1658.28
429.507	1679.97
429.883	1695.34
430.259	1710.93
430.635	1736.92
431.011	1736.92
431.387	1806.29
431.763	1802.23
432.138	1821.89
432.514	1877.48
432.89	1863.47
433.265	1895.11
433.641	1932.84
434.016	1926.07
434.392	1963.8
434.767	2032.28
435.143	2007.19
435.518	2059.17
435.894	2047.19
436.269	2089.68
436.644	2133.97
437.02	2145.95
437.395	2150.24
437.77	2175.32
438.145	2209.67
438.52	2241.54
438.895	2268.88
439.271	2278.82
439.646	2328.54
440.021	2326.05
440.395	2357.92
440.77	2340.52
441.145	2389.78
441.52	2419.84
441.895	2375.77
442.27	2459.84
442.645	2424.36
443.019	2475.43
443.394	2453.06
443.769	2509.78
444.143	2525.6
444.518	2542.55
444.892	2548.42
445.267	2580.51
445.641	2627.74
446.016	2635.65
446.39	2649.44
446.764	2676.55
447.139	2653.96
447.513	2703.67
447.887	2712.49
448.262	2726.95
448.636	2758.81
449.01	2797.91
449.384	2821.63
449.758	2836.1
450.132	2875.42
450.506	2902.54
450.88	2901.63
451.254	2909.99
451.628	2924.68
452.002	2999.26
452.376	3040.39
452.75	3074.74
453.123	3092.14
453.497	3136.43
453.871	3134.62
454.244	3195.41
454.618	3275.63
454.992	3310.21
455.365	3280.61
455.739	3378.91
456.112	3403.99
456.486	3419.36
456.859	3471.56
457.232	3552.01
457.606	3549.07
457.979	3624.33
458.352	3682.86
458.725	3734.61
459.099	3691.67
459.472	3848.73
459.845	3845.34
460.218	3871.55
460.591	3937.76
460.964	3913.13
461.337	4052.11
461.71	4093.69
462.083	4167.81
462.456	4188.15
462.829	4217.76
463.201	4242.39
463.574	4293.01
463.947	4331.43
464.32	4420.46
464.692	4482.61
465.065	4513.79
465.438	4645.09
465.81	4615.49
466.183	4712.21
466.555	4806.44
466.928	4903.16
467.3	4886.21
467.672	4948.13
468.045	5101.35
468.417	5115.81
468.789	5081.91
469.161	5186.77
469.534	5274.68
469.906	5398.74
470.278	5436.03
470.65	5498.17
471.022	5568
471.394	5687.1
471.766	5763.48
472.138	5818.84
472.51	5969.12
472.882	6057.93
473.253	6161.89
473.625	6195.56
473.997	6309
474.369	6387.19
474.74	6526.4
475.112	6523.91
475.484	6676
475.855	6842.09
476.227	6931.13
476.598	7134.74
476.97	7182.65
477.341	7326.38
477.713	7412.02
478.084	7447.5
478.455	7662.86
478.827	7777.21
479.198	8013.59
479.569	8021.27
479.94	8325.67
480.311	8369.51
480.682	8527.25
481.053	8668.03
481.424	8886.11
481.795	8990.96
482.166	9052.66
482.537	9175.59
482.908	9364.74
483.279	9486.54
483.65	9680.21
484.021	9924.05
484.391	9937.38
484.762	10051.28
485.133	10197.03
485.503	10352.96
485.874	10585.72
486.244	10644.71
486.615	10904.81
486.985	11069.55
487.356	11308.87
487.726	11367.4
488.097	11556.09
488.467	11620.73
488.837	11845.8
489.207	11983.2
489.578	12185.91
489.948	12345.45
490.318	12510.87
490.688	12502.96
491.058	12764.88
491.428	12936.62
491.798	13127.13
492.168	13332.77
492.538	13428.59
492.908	13486.67
493.278	13794.45
493.648	13803.72
494.017	14083.94
494.387	14136.82
494.757	14205.74
495.126	14472.63
495.496	14451.39
495.866	14604.15
496.235	14721.66
496.605	14857.93
496.974	14995.1
497.344	15235.32
497.713	15231.93
498.082	15387.86
498.452	15541.98
498.821	15624.69
499.19	15668.75
499.559	15894.74
499.928	16011.34
500.298	16106.03
500.667	16242.98
501.036	16309.87
501.405	16407.04
501.774	16459.24
502.143	16687.26
502.512	16789.86
502.88	16934.94
503.249	17007.48
503.618	17098.32
503.987	17226.91
504.356	17373.57
504.724	17467.35
505.093	17581.92
505.462	17716.38
505.83	17858.3
506.199	18006.77
506.567	18256.03
506.936	18220.55
507.304	18471.17
507.672	18571.5
508.041	18733.31
508.409	18885.17
508.777	19025.73
509.145	19125.61
509.514	19267.3
509.882	19299.17
510.25	19430.46
510.618	19628.88
510.986	19710
511.354	19931.47
511.722	20164.23
512.09	20145.93
512.458	20255.3
512.826	20574.61
513.193	20552.92
513.561	20620.26
513.929	20847.38
514.297	21042.62
514.664	21217.08
515.032	21378.21
515.4	21539.11
515.767	21645.55
516.135	21827.46
516.502	21732.78
516.869	22219.09
517.237	22121.01
517.604	22222.93
517.972	22399.88
518.339	22614.79
518.706	22774.1
519.073	22940.43
519.44	22970.03
519.808	23293.64
520.175	23439.17
520.542	23552.16
520.909	23670.8
521.276	23831.48
521.643	24003.22
522.009	24358.92
522.376	24291.13
522.743	24507.17
523.11	24800.49
523.477	25034.16
523.843	25113.93
524.21	25436.63
524.577	25669.62
524.943	25791.88
525.31	25947.58
525.676	26144.19
526.043	26294.46
526.409	26381.47
526.776	26734.9
527.142	26825.98
527.508	26996.37
527.874	27060.77
528.241	27411.04
528.607	27388.22
528.973	27641.55
529.339	27538.27
529.705	27979.84
530.071	28119.27
530.437	28278.59
530.803	28496.44
531.169	28564.69
531.535	28679.03
531.901	28781.86
532.267	28876.32
532.632	29082.19
532.998	29222.3
533.364	29446.25
533.73	29525.11
534.095	29821.6
534.461	29845.11
534.826	30081.94
535.192	30226.56
535.557	30307.69
535.923	30363.96
536.288	30417.97
536.653	30597.63
537.019	30519.44
537.384	30719.88
537.749	31111.96
538.114	31048.24
538.479	31110.16
538.845	31302.24
539.21	31288.01
539.575	31417.95
539.94	31629.69
540.305	31843.92
540.67	31656.13
541.034	31884.6
541.399	32106.29
541.764	32254.99
542.129	32274.42
542.494	32344.7
542.858	32549.21
543.223	32533.85
543.587	32815.2
543.952	32790.11
544.316	32899.71
544.681	33015.87
545.045	33284.56
545.41	33313.49
545.774	33501.51
546.138	33554.39
546.503	33765.68
546.867	33741.95
547.231	33955.05
547.595	34060.59
547.959	34220.36
548.324	34325.89
548.688	34381.48
549.052	34608.37
549.416	34654.24
549.779	34717.75
550.143	35016.27
550.507	35159.99
550.871	35199.09
551.235	35283.61
551.599	35521.79
551.962	35682.69
552.326	35825.29
552.689	35983.7
553.053	35965.17
553.417	36129.91
553.78	36599.96
554.143	36443.8
554.507	36745.94
554.87	36814.87
555.234	37261.18
555.597	37043.33
555.96	37349.77
556.323	37426.6
556.686	37538.46
557.05	37894.84
557.413	38016.42
557.776	38107.94
558.139	38377.54
558.502	38468.61
558.865	38665.21
559.228	38912.66
559.59	39034.24
559.953	39123.51
560.316	39604.62
560.679	39471.07
561.041	39772.53
561.404	39970.49
561.767	40125.29
562.129	40090.71
562.492	40605.05
562.854	40459.29
563.217	40598.49
563.579	40663.8
563.941	41032.83
564.304	41116.67
564.666	41353.28
565.028	41498.13
565.39	41564.57
565.753	41797.33
566.115	42086.14
566.477	42101.28
566.839	42120.49
567.201	42466.24
567.563	42469.63
567.925	42694.03
568.287	42948.49
568.648	42981.26
569.01	43126.56
569.372	43455.82
569.734	43330.63
570.095	43580.34
570.457	43814.91
570.819	43866.88
571.18	43875.7
571.542	44173.32
571.903	44289.92
572.265	44343.03
572.626	44484.04
572.987	44463.7
573.349	44871.15
573.71	44832.51
574.071	44911.83
574.432	45064.37
574.794	45248.99
575.155	45350.69
575.516	45211.93
575.877	45398.14
576.238	45438.37
576.599	45680.17
576.96	45653.05
577.32	45716.55
577.681	45895.76
578.042	45955.42
578.403	45945.25
578.763	45975.53
579.124	46039.71
579.485	46186.37
579.845	46263.66
580.206	46180.95
580.566	46252.58
580.927	46288.74
581.287	46493.48
581.648	46394.27
582.008	46549.52
582.368	46455.06
582.728	46579.81
583.089	46474.27
583.449	46473.59
583.809	46577.77
584.169	46674.95
584.529	46501.39
584.889	46993.58
585.249	46750.65
585.609	46543.42
585.969	46716.53
586.329	46662.29
586.688	46810.76
587.048	46773.25
587.408	46592.91
587.768	46828.39
588.127	46698.67
588.487	46639.92
588.846	46877.2
589.206	46580.26
589.565	46629.97
589.925	46977.76
590.284	46712.01
590.643	46804.43
591.003	46788.16
591.362	46999
591.721	46916.07
592.08	46888.27
592.44	47001.04
592.799	46992.22
593.158	46784.55
593.517	46833.13
593.876	46912.23
594.235	46882.17
594.593	46975.28
594.952	47037.65
595.311	46972.56
595.67	47055.5
596.029	47263.4
596.387	47262.05
596.746	47190.19
597.104	47064.54
597.463	47032.45
597.822	47335.49
598.18	47076.06
598.538	46981.38
598.897	47443.06
599.255	47106.57
599.613	47517.86
599.972	47326.91
600.33	47421.82
600.688	47434.02
601.046	47487.81
601.404	47709.72
601.762	47446.9
602.12	47591.53
602.478	47696.61
602.836	47795.14
603.194	47580.23
603.552	47607.58
603.91	47492.78
604.268	47740.45
604.625	47650.29
604.983	47782.71
605.341	47698.65
605.698	47923.05
606.056	47989.03
606.413	47952.2
606.771	48161.46
607.128	48092.99
607.485	47984.74
607.843	47933.22
608.2	48068.58
608.557	48320.78
608.914	48173.21
609.272	48435.35
609.629	48396.71
609.986	48512.41
610.343	48296.15
610.7	48533.65
611.057	48521.22
611.414	48495.91
611.771	48496.37
612.127	48675.57
612.484	48612.75
612.841	48684.16
613.198	48640.32
613.554	48642.12
613.911	49024.49
614.267	48923.93
614.624	48795.79
614.98	48851.61
615.337	49038.72
615.693	49010.7
616.05	49045.96
616.406	49300.19
616.762	49065.39
617.118	49049.8
617.475	49056.8
617.831	49268.55
618.187	49287.76
618.543	49222.67
618.899	49444.36
619.255	49305.38
619.611	49376.57
619.967	49522.55
620.323	49532.05
620.678	49357.13
621.034	49347.42
621.39	49337.93
621.746	49299.51
622.101	49650.91
622.457	49326.63
622.812	49566.39
623.168	49634.42
623.523	49623.79
623.879	49644.81
624.234	49365.72
624.589	49552.61
624.945	49602.55
625.3	49410.92
625.655	49510.35
626.01	49512.61
626.365	49636.22
626.72	49588.77
627.075	49538.6
627.43	49506.74
627.785	49507.86
628.14	49569.11
628.495	49624.92
628.85	49464.7
629.205	49433.52
629.559	49643.23
629.914	49452.05
630.269	49468.54
630.623	49385.16
630.978	49224.71
631.332	49469.67
631.687	49433.97
632.041	49344.48
632.396	49396.91
632.75	49198.49
633.104	49176.12
633.459	49055.67
633.813	49110.59
634.167	49093.19
634.521	49025.84
634.875	49110.81
635.229	49088.67
635.583	48794.21
635.937	48942.23
636.291	48789.01
636.645	48835.11
636.999	48664.05
637.352	48797.15
637.706	48649.58
638.06	48893.87
638.413	48663.59
638.767	48548.79
639.121	48596.48
639.474	48378.86
639.828	48477.84
640.181	48496.37
640.534	48383.37
640.888	48368.69
641.241	48170.5
641.594	48338.86
641.947	48350.61
642.301	48263.6
642.654	48210.5
643.007	48189.48
643.36	48166.21
643.713	48085.98
644.066	48152.42
644.419	47919.43
644.771	47849.38
645.124	47345.66
645.477	47391.08
645.83	47027.25
646.182	47000.59
646.535	46844.88
646.888	46885.56
647.24	46642.4
647.593	46864.32
647.945	46746.58
648.298	46504.1
648.65	46441.96
649.002	46387.95
649.355	46557.21
649.707	46369.87
650.059	46600.37
650.411	46883.75
650.763	46933.7
651.115	47463.85
651.467	47275.38
651.819	47297.3
652.171	47215.04
652.523	46986.12
652.875	47000.81
653.227	46834.04
653.578	47193.35
653.93	47054.37
654.282	46841.49
654.633	46739.8
654.985	46846.92
655.337	46879.23
655.688	46832.46
656.039	46925.79
656.391	46636.75
656.742	46683.31
657.094	46775.96
657.445	46836.52
657.796	46683.98
658.147	46472.24
658.498	46520.6
658.849	46573.48
659.2	46530.54
659.551	46442.41
659.902	46608.28
660.253	46438.57
660.604	46351.34
660.955	46277.67
661.306	46422.07
661.656	46258.01
662.007	46321.28
662.358	46294.16
662.708	46336.87
663.059	46365.57
663.409	46127.61
663.76	46239.93
664.11	46194.73
664.461	46209.87
664.811	46183.43
665.161	46107.73
665.511	46163.09
665.862	46156.09
666.212	46303.43
666.562	46190.66
666.912	46103.21
667.262	46013.27
667.612	46140.72
667.962	46207.39
668.312	46074.06
668.662	46213.71
669.011	46023.44
669.361	45987.73
669.711	45812.82
670.06	45895.76
670.41	45803.78
670.76	45758.81
671.109	45885.59
671.459	45778.47
671.808	45748.87
672.157	45785.48
672.507	45501.19
672.856	45544.35
673.205	45743.22
673.554	45567.86
673.904	45428.88
674.253	45655.31
674.602	45466.39
674.951	44789.34
675.3	44683.36
675.649	45369.44
675.998	45179.62
676.346	45368.54
676.695	45387.3
677.044	45026.63
677.393	45083.57
677.741	45223.46
678.09	44991.37
678.438	44958.15
678.787	45072.95
679.135	45104.36
679.484	44743.24
679.832	44959.51
680.181	44593.87
680.529	44781.44
680.877	44618.73
681.225	44591.16
681.573	44837.03
681.922	44471.39
682.27	44336.7
682.618	44470.26
682.966	44178.97
683.314	44493.99
683.661	44308.23
684.009	44055.8
684.357	43888.8
684.705	43952.53
685.053	43937.16
685.4	43799.31
685.748	43704.18
686.095	43576.95
686.443	43484.07
686.79	43356.16
687.138	43593.22
687.485	43455.59
687.832	43275.03
688.18	43316.62
688.527	43042.95
688.874	43082.72
689.221	43016.28
689.568	42863.97
689.915	42812.45
690.262	42699.23
690.609	42610.87
690.956	42516.86
691.303	42446.13
691.65	42238.23
691.997	42146.25
692.344	42040.04
692.69	41980.61
693.037	41998.91
693.383	41663.78
693.73	41874.17
694.077	41515.53
694.423	41527.51
694.769	41348.53
695.116	41305.14
695.462	41197.8
695.808	41030.8
696.155	41201.64
696.501	40853.4
696.847	40881.43
697.193	40701.32
697.539	40742.45
697.885	40428.56
698.231	40400.76
698.577	40380.87
698.923	40154.44
699.269	40163.7
699.614	39882.36
699.96	39895.69
700.306	39811.85
700.651	39649.59
700.997	39488.92
701.342	39602.81
701.688	39431.07
702.033	39359.21
702.379	39284.4
702.724	39185.2
703.069	39134.13
703.415	38805.77
703.76	38779.11
704.105	38949.5
704.45	38778.43
704.795	38651.2
705.14	38477.87
705.485	38430.19
705.83	38280.14
706.175	38208.28
706.52	38198.11
706.865	38059.35
707.209	38018
707.554	37987.04
707.899	37951.33
708.243	37760.38
708.588	37663.2
708.932	37455.53
709.277	37358.35
709.621	37565.58
709.966	37218.24
710.31	37414.62
710.654	36891.25
710.998	37170.11
711.342	37184.8
711.687	36940.29
712.031	36793.85
712.375	36723.12
712.719	36622.55
713.063	36631.14
713.407	36736.22
713.75	36538.94
714.094	36521.77
714.438	36374.42
714.782	36450.13
715.125	36251.26
715.469	36256.69
715.812	36046.07
716.156	35829.81
716.499	35743.26
716.843	35917.04
717.186	35615.35
717.53	35897.83
717.873	35727.66
718.216	35697.61
718.559	35539.64
718.902	35319.09
719.246	35393.21
719.589	35234.12
719.932	35207.45
720.275	35228.47
720.617	35232.53
720.96	35188.69
721.303	35040.45
721.646	35096.49
721.989	34749.16
722.331	34930.4
722.674	34896.95
723.016	34841.36
723.359	34695.6
723.701	34892.88
724.044	34673.45
724.386	34411.99
724.729	34497.41
725.071	34466
725.413	34339.45
725.755	34358.43
726.097	34193.24
726.439	34019.91
726.782	34129.51
727.124	34268.49
727.465	33917.31
727.807	33995.73
728.149	33808.62
728.491	33843.42
728.833	33842.74
729.175	33725.68
729.516	33609.75
729.858	33674.38
730.199	33671.67
730.541	33511.9
730.882	33406.82
731.224	33507.38
731.565	33254.06
731.906	33193.49
732.248	33186.03
732.589	33185.13
732.93	33005.02
733.271	33075.98
733.612	33140.61
733.953	33085.7
734.294	32902.88
734.635	32833.28
734.976	32997.11
735.317	32746.27
735.658	32813.84
735.999	32705.82
736.339	32686.39
736.68	32668.76
737.021	32579.95
737.361	32462.21
737.702	32655.2
738.042	32434.19
738.383	32392.38
738.723	32498.37
739.063	32234.42
739.404	32342.21
739.744	32236
740.084	32101.09
740.424	32152.39
740.764	32062.67
741.104	32103.35
741.444	31922.11
741.784	31859.06
742.124	31905.62
742.464	31892.51
742.804	31706.07
743.143	31696.81
743.483	31608.45
743.823	31470.6
744.162	31534.55
744.502	31451.62
744.841	31361
745.181	31442.8
745.52	31360.77
745.86	31339.53
746.199	31383.14
746.538	31241.23
746.877	31219.08
747.216	31169.59
747.556	31130.95
747.895	31125.98
748.234	30991.06
748.573	31032.87
748.911	30991.52
749.25	30814.8
749.589	30673.33
749.928	30728.02
750.267	30737.06
750.605	30651.86
750.944	30537.29
751.283	30537.52
751.621	30550.17
751.96	30302.95
752.298	30317.64
752.636	30313.34
752.975	30195.83
753.313	30053.69
753.651	30217.98
753.989	30011.2
754.327	29995.84
754.666	29750.42
755.004	29849.17
755.342	29937.31
755.679	29779.12
756.017	29541.84
756.355	29599.46
756.693	29564.89
757.031	29614.38
757.368	29333.93
757.706	29455.06
758.044	29192.69
758.381	29126.03
758.719	29045.35
759.056	29072.7
759.394	29050.78
759.731	28861.85
760.068	28778.47
760.405	28674.97
760.743	28608.98
761.08	28573.73
761.417	28465.03
761.754	28350.46
762.091	28298.25
762.428	28207.86
762.765	28094.42
763.102	28181.65
763.438	28040.86
763.775	27872.95
764.112	27908.43
764.449	27785.27
764.785	27754.99
765.122	27466.86
765.458	27489.91
765.795	27380.09
766.131	27368.56
766.467	27262.8
766.804	27186.87
767.14	27029.81
767.476	26925.41
767.812	26884.5
768.148	26977.61
768.485	26789.82
768.821	26607
769.157	26615.81
769.492	26451.97
769.828	26354.58
770.164	26202.94
770.5	26184.64
770.836	26204.75
771.171	25856.51
771.507	25958.43
771.842	25727.02
772.178	25807.7
772.513	25681.6
772.849	25557.08
773.184	25358.67
773.519	25530.42
773.855	25291.78
774.19	25257.88
774.525	25109.64
774.86	25152.57
775.195	25104.44
775.53	24932.47
775.865	24775.86
776.2	24571.12
776.535	24334.06
776.87	24505.81
777.205	24298.81
777.539	24188.53
777.874	24398.24
778.209	24123.45
778.543	24035.31
778.878	23991.02
779.212	23906.73
779.547	23664.48
779.881	23915.09
780.215	23632.39
780.55	23638.49
780.884	23488.44
781.218	23460.64
781.552	23443.92
781.886	23373.41
782.22	23090.93
782.554	23042.35
782.888	22885.29
783.222	22764.84
783.556	22717.16
783.889	22592.87
784.223	22471.06
784.557	22495.47
784.89	22532.75
785.224	22423.38
785.557	22234.91
785.891	22289.15
786.224	22202.82
786.558	22120.79
786.891	21853.68
787.224	21874.24
787.557	21812.32
787.891	21841.93
788.224	21719.22
788.557	21745.88
788.89	21645.77
789.223	21534.14
789.556	21411.43
789.888	21327.14
790.221	21207.59
790.554	21048.73
790.887	21010.76
791.219	21012.34
791.552	20976.19
791.884	20876.53
792.217	20805.34
792.549	20716.98
792.882	20531.23
793.214	20460.95
793.546	20545.91
793.879	20375.3
794.211	20330.55
794.543	20332.13
794.875	20168.3
795.207	20312.25
795.539	20196.09
795.871	20144.12
796.203	19956.55
796.535	19915.65
796.867	19792.49
797.198	19798.36
797.53	19749.78
797.862	19638.59
798.193	19705.26
798.525	19541.65
798.856	19618.26
799.188	19373.97
799.519	19300.3
799.85	19223.69
800.182	19241.09
800.513	19201.77
800.844	18978.27
801.175	19065.28
801.506	19059.63
801.837	18930.59
802.168	18949.12
802.499	18764.04
802.83	18754.78
803.161	18662.8
803.491	18640.43
803.822	18521.34
804.153	18540.09
804.483	18355.69
804.814	18323.15
805.145	18343.26
805.475	18385.52
805.805	18223.04
806.136	18194.79
806.466	18146.88
806.796	18153.66
807.126	18007.68
807.457	18022.59
807.787	17985.08
808.117	17849.94
808.447	17888.81
808.777	17779.66
809.107	17771.07
809.436	17799.77
809.766	17730.17
810.096	17656.95
810.426	17539.21
810.755	17642.26
811.085	17497.18
811.414	17533.79
811.744	17281.82
812.073	17310.97
812.403	17404.08
812.732	17124.08
813.061	17201.6
813.39	17140.58
813.719	17105.1
814.049	17160.92
814.378	17062.62
814.707	17047.25
815.036	16837.09
815.365	16797.31
815.693	16657.66
816.022	16699.91
816.351	16689.07
816.68	16577.66
817.008	16678.67
817.337	16563.42
817.665	16482.97
817.994	16508.73
818.322	16488.39
818.651	16375.18
818.979	16326.14
819.307	16375.18
819.636	16328.62
819.964	16196.65
820.292	16256.31
820.62	16119.36
820.948	16091.34
821.276	16202.98
821.604	16187.39
821.932	16232.36
822.259	16144
822.587	16135.18
822.915	15994.62
823.243	16191.45
823.57	16118.23
823.898	16148.29
824.225	16028.52
824.553	16083.66
824.88	16056.77
825.207	16100.38
825.535	16083.66
825.862	16090.66
826.189	15958.46
826.516	16095.18
826.843	16068.29
827.17	16042.76
827.497	16165.01
827.824	16117.1
828.151	16123.43
828.478	16077.33
828.805	16157.1
829.131	16041.63
829.458	16090.66
829.785	15991.23
830.111	16019.93
830.438	16162.3
830.764	16090.21
831.09	16066.94
831.417	15985.36
831.743	16011.12
832.069	16046.82
832.395	15959.82
832.722	15984.23
833.048	15954.4
833.374	15906.94
833.7	15814.06
834.026	15839.82
834.351	15941.97
834.677	15875.53
835.003	15944.91
835.329	15875.08
835.654	15895.19
835.98	15778.81
836.306	15779.94
836.631	15662.65
836.956	15757.34
837.282	15752.37
837.607	15655.42
837.932	15691.35
838.258	15622.2
838.583	15559.15
838.908	15510.11
839.233	15671.24
839.558	15586.72
839.883	15569.1
840.208	15479.16
840.533	15403.9
840.858	15433.05
841.182	15333.62
841.507	15293.85
841.832	15256.11
842.156	15190.35
842.481	15189.22
842.805	15135.66
843.13	15158.71
843.454	15137.92
843.778	15147.86
844.103	15069.67
844.427	15037.36
844.751	15006.63
845.075	14894.99
845.399	14942.45
845.723	14811.83
846.047	14810.92
846.371	14747.42
846.695	14659.06
847.019	14579.74
847.343	14580.87
847.666	14530.03
847.99	14447.54
848.313	14439.41
848.637	14302.69
848.96	14367.32
849.284	14346.3
849.607	14161.68
849.931	14168.46
850.254	14010.49
850.577	14014.33
850.9	13871.74
851.223	13907.45
851.546	13802.36
851.869	13627.9
852.192	13743.61
852.515	13669.71
852.838	13590.17
853.161	13588.81
853.483	13519.43
853.806	13488.47
854.129	13419.55
854.451	13321.02
854.774	13314.69
855.096	13306.56
855.419	13269.27
855.741	13201.47
856.063	13167.35
856.385	13118.77
856.708	13063.17
857.03	13014.81
857.352	13052.78
857.674	12988.6
857.996	12901.6
858.318	12848.49
858.64	12831.77
858.961	12763.75
859.283	12686.01
859.605	12664.31
859.926	12684.2
860.248	12701.38
860.57	12614.15
860.891	12656.4
861.212	12622.28
861.534	12501.38
861.855	12478.1
862.176	12490.08
862.498	12456.86
862.819	12437.88
863.14	12402.85
863.461	12369.86
863.782	12293.02
864.103	12324.89
864.424	12290.76
864.745	12298.45
865.065	12226.36
865.386	12171.9
865.707	12186.81
866.027	12193.59
866.348	12255.74
866.668	12126.93
866.989	12180.48
867.309	11958.57
867.63	12024.56
867.95	11993.15
868.27	11926.93
868.59	11995.86
868.91	12002.64
869.23	11958.34
869.55	11857.56
869.87	11915.63
870.19	11878.57
870.51	11967.84
870.83	11853.49
871.15	11819.59
871.469	11852.36
871.789	11813.94
872.109	11779.14
872.428	11755.19
872.748	11745.24
873.067	11801.06
873.386	11776.65
873.706	11800.16
874.025	11620.95
874.344	11686.71
874.663	11647.39
874.982	11651.91
875.301	11685.13
875.62	11579.6
875.939	11556.77
876.258	11640.61
876.577	11466.38
876.896	11491.92
877.214	11515.87
877.533	11418.47
877.852	11423.22
878.17	11459.37
878.489	11430
878.807	11401.07
879.125	11356.33
879.444	11354.29
879.762	11332.15
880.08	11294.41
880.398	11207.18
880.716	11265.93
881.034	11230.68
881.352	11212.83
881.67	11203.79
881.988	11223.45
882.306	11143
882.624	11100.74
882.941	11035.88
883.259	11028.65
883.577	11019.61
883.894	10989.33
884.212	10903.23
884.529	10968.31
884.846	10967.41
885.164	10854.42
885.481	10896.22
885.798	10885.6
886.115	10809.67
886.432	10812.61
886.75	10672.95
887.067	10788.88
887.383	10720.86
887.7	10706.4
888.017	10641.54
888.334	10693.74
888.651	10592.05
888.967	10592.73
889.284	10542.34
889.6	10512.73
889.917	10467.08
890.233	10382.11
890.55	10430.25
890.866	10464.37
891.182	10364.26
891.498	10380.98
891.815	10332.62
892.131	10311.16
892.447	10239.52
892.763	10197.71
893.079	10192.29
893.395	10143.48
893.71	10144.61
894.026	10130.37
894.342	10083.82
894.657	9991.16
894.973	10029.13
895.289	9911.17
895.604	9986.64
895.92	9877.72
896.235	9827.1
896.55	9829.59
896.865	9771.06
897.181	9774.9
897.496	9726.09
897.811	9730.83
898.126	9685.41
898.441	9672.98
898.756	9642.92
899.071	9638.86
899.386	9586.65
899.7	9476.6
900.015	9425.75
900.33	9411.52
900.644	9391.18
900.959	9371.97
901.273	9336.27
901.588	9247.45
901.902	9260.34
902.216	9246.32
902.531	9221.01
902.845	9194.8
903.159	9131.53
903.473	9064.86
903.787	9048.82
904.101	8988.48
904.415	9036.16
904.729	9021.7
905.042	8978.76
905.356	8910.74
905.67	8897.18
905.984	8858.54
906.297	8950.29
906.611	8719.33
906.924	8651.31
907.237	8738.09
907.551	8683.18
907.864	8604.99
908.177	8652.67
908.491	8590.97
908.804	8557.98
909.117	8538.55
909.43	8438.44
909.743	8468.49
910.056	8405.22
910.368	8392.34
910.681	8361.83
910.994	8320.47
911.307	8206.13
911.619	8184.21
911.932	8196.63
912.244	8158.22
912.557	8154.6
912.869	8158.9
913.181	8103.53
913.494	8070.54
913.806	7956.19
914.118	7961.61
914.43	7887.72
914.742	7953.93
915.054	7844.33
915.366	7856.08
915.678	7762.07
915.99	7748.28
916.302	7721.17
916.613	7722.75
916.925	7678.46
917.236	7618.8
917.548	7667.16
917.859	7586.03
918.171	7488.63
918.482	7556.43
918.794	7494.51
919.105	7511.68
919.416	7401.18
919.727	7416.09
920.038	7362.08
920.349	7326.83
920.66	7345.58
920.971	7246.83
921.282	7208.64
921.593	7207.96
921.903	7106.04
922.214	7149.66
922.525	7133.61
922.835	7130.45
923.146	7043.22
923.456	6993.73
923.767	7032.37
924.077	7020.62
924.387	6934.97
924.697	6887.74
925.008	6845.94
925.318	6826.5
925.628	6834.86
925.938	6843.68
926.248	6753.06
926.558	6758.48
926.867	6713.51
927.177	6662.21
927.487	6633.51
927.796	6616.34
928.106	6553.74
928.416	6499.5
928.725	6504.02
929.034	6457.47
929.344	6507.19
929.653	6453.18
929.962	6374.76
930.271	6353.97
930.581	6352.39
930.89	6340.19
931.199	6277.36
931.508	6299.06
931.817	6274.43
932.125	6210.47
932.434	6260.19
932.743	6089.8
933.051	6110.36
933.36	6100.64
933.669	6031.95
933.977	6045.05
934.286	6011.38
934.594	5971.83
934.902	5959.18
935.21	5928.67
935.519	5925.51
935.827	5890.93
936.135	5849.8
936.443	5811.16
936.751	5843.48
937.059	5829.47
937.367	5753.54
937.674	5783.59
937.982	5753.76
938.29	5646.42
938.597	5671.5
938.905	5655.91
939.213	5636.48
939.52	5586.53
939.827	5575.23
940.135	5596.25
940.442	5580.43
940.749	5555.35
941.056	5543.15
941.363	5434.9
941.67	5437.61
941.977	5401.91
942.284	5376.37
942.591	5380.21
942.898	5359.2
943.205	5320.1
943.511	5294.79
943.818	5291.17
944.125	5233.1
944.431	5276.49
944.738	5187
945.044	5193.1
945.35	5162.82
945.657	5161.23
945.963	5120.33
946.269	5100.44
946.575	5100.22
946.881	5004.18
947.187	5008.47
947.493	4987.91
947.799	4991.75
948.105	5005.53
948.41	4904.97
948.716	4883.73
949.022	4867.46
949.327	4841.47
949.633	4801.47
949.938	4819.55
950.244	4826.1
950.549	4735.93
950.854	4767.57
951.16	4763.5
951.465	4703.85
951.77	4703.39
952.075	4650.97
952.38	4609.16
952.685	4656.16
952.99	4632.66
953.294	4555.37
953.599	4562.15
953.904	4535.26
954.209	4514.02
954.513	4522.61
954.818	4485.55
955.122	4484.64
955.426	4487.13
955.731	4429.5
956.035	4400.58
956.339	4408.94
956.643	4398.54
956.948	4418.88
957.252	4394.02
957.556	4361.48
957.86	4311.09
958.163	4339.34
958.467	4250.3
958.771	4262.05
959.075	4287.59
959.378	4194.03
959.682	4228.83
959.985	4206.01
960.289	4144.54
960.592	4153.8
960.896	4129.4
961.199	4111.77
961.502	4081.26
961.805	4054.6
962.108	4059.79
962.411	4095.73
962.714	4012.56
963.017	4004.88
963.32	4037.65
963.623	3969.4
963.926	3950.64
964.228	3876.07
964.531	3915.17
964.833	3913.58
965.136	3879.23
965.438	3868.16
965.741	3841.95
966.043	3829.29
966.345	3796.75
966.648	3749.29
966.95	3791.33
967.252	3743.64
967.554	3741.16
967.856	3693.25
968.158	3706.81
968.46	3711.33
968.761	3712.46
969.063	3651.9
969.365	3672.69
969.666	3651.67
969.968	3573.03
970.269	3606.92
970.571	3572.35
970.872	3577.55
971.174	3535.74
971.475	3523.99
971.776	3471.56
972.077	3508.17
972.378	3498.45
972.679	3482.63
972.98	3472.92
973.281	3461.62
973.582	3408.29
973.883	3439.25
974.183	3430.88
974.484	3408.29
974.785	3343.43
975.085	3349.53
975.386	3340.72
975.686	3342.98
975.986	3305.46
976.287	3310.44
976.587	3272.92
976.887	3289.19
977.187	3262.53
977.487	3260.04
977.787	3225.01
978.087	3206.26
978.387	3144.56
978.687	3177.78
978.987	3158.12
979.286	3149.99
979.586	3132.14
979.885	3101.63
980.185	3106.15
980.484	3095.75
980.784	3100.5
981.083	3068.86
981.382	3043.1
981.682	3078.8
981.981	3063.66
982.28	3006.04
982.579	2985.47
982.878	2975.3
983.177	2973.95
983.475	2958.58
983.774	2925.59
984.073	2932.59
984.372	2912.93
984.67	2961.52
984.969	2930.33
985.267	2912.25
985.566	2855.76
985.864	2824.8
986.162	2822.54
986.461	2834.29
986.759	2798.13
987.057	2775.31
987.355	2765.82
987.653	2754.97
987.951	2760.85
988.249	2763.78
988.547	2748.64
988.844	2732.15
989.142	2750.9
989.44	2709.77
989.737	2672.03
990.035	2673.62
990.332	2664.8
990.63	2641.53
990.927	2644.46
991.224	2624.8
991.521	2617.8
991.819	2583.22
992.116	2579.38
992.413	2605.82
992.71	2567.86
993.006	2547.07
993.303	2550
993.6	2562.43
993.897	2509.1
994.193	2527.63
994.49	2488.54
994.787	2489.67
995.083	2455.54
995.379	2481.53
995.676	2462.1
995.972	2453.28
996.268	2432.94
996.565	2408.54
996.861	2396.56
997.157	2387.97
997.453	2370.35
997.749	2404.7
998.044	2373.51
998.34	2352.72
998.636	2331.93
998.932	2347.3
999.227	2328.09
999.523	2323.34
999.818	2304.81
1000.114	2304.13
1000.409	2250.8
1000.704	2225.72
1001	2202.67
1001.295	2216.9
1001.59	2251.93
1001.885	2211.26
1002.18	2173.97
1002.475	2166.28
1002.77	2132.16
1003.065	2152.95
1003.359	2137.59
1003.654	2119.51
1003.949	2099.62
1004.243	2127.42
1004.538	2086.74
1004.832	2079.51
1005.127	2079.06
1005.421	2075.89
1005.715	2043.12
1006.009	2061.43
1006.304	2029.34
1006.598	2027.98
1006.892	1993.41
1007.186	1971.49
1007.48	1984.82
1007.773	1971.49
1008.067	1950.7
1008.361	1908.66
1008.655	1922.22
1008.948	1937.36
1009.242	1911.83
1009.535	1923.81
1009.829	1884.94
1010.122	1900.53
1010.415	1871.6
1010.708	1879.51
1011.001	1831.15
1011.295	1830.7
1011.588	1817.82
1011.881	1792.51
1012.173	1843.81
1012.466	1783.47
1012.759	1793.87
1013.052	1784.6
1013.344	1779.18
1013.637	1753.19
1013.93	1741.66
1014.222	1710.93
1014.514	1723.81
1014.807	1732.62
1015.099	1703.02
1015.391	1683.81
1015.683	1694.88
1015.976	1675.22
1016.268	1660.54
1016.56	1645.17
1016.851	1656.24
1017.143	1619.41
1017.435	1615.11
1017.727	1618.28
1018.018	1581.22
1018.31	1613.76
1018.602	1560.65
1018.893	1538.96
1019.185	1547.54
1019.476	1554.78
1019.767	1569.46
1020.058	1532.18
1020.35	1518.62
1020.641	1510.48
1020.932	1484.27
1021.223	1464.38
1021.514	1499.41
1021.804	1451.95
1022.095	1463.7
1022.386	1440.65
1022.677	1437.94
1022.967	1406.98
1023.258	1450.37
1023.548	1395.23
1023.839	1409.47
1024.129	1415.57
1024.419	1366.98
1024.709	1358.17
1025	1357.49
1025.29	1371.5
1025.58	1347.55
1025.87	1341
1026.16	1335.35
1026.449	1324.73
1026.739	1303.93
1027.029	1291.05
1027.319	1275.91
1027.608	1304.84
1027.898	1274.78
1028.187	1283.82
1028.477	1230.04
1028.766	1229.81
1029.055	1234.78
1029.344	1214.22
1029.634	1223.26
1029.923	1222.35
1030.212	1248.12
1030.501	1217.16
1030.79	1208.34
1031.078	1182.13
1031.367	1171.28
1031.656	1184.62
1031.945	1160.44
1032.233	1155.01
1032.522	1162.02
1032.81	1144.16
1033.099	1109.14
1033.387	1122.7
1033.675	1129.48
1033.963	1106.88
1034.251	1104.62
1034.54	1114.79
1034.828	1087.22
1035.116	1087.22
1035.403	1081.34
1035.691	1089.25
1035.979	1061.91
1036.267	1032.53
1036.554	1075.24
1036.842	1021.23
1037.129	1033.21
1037.417	1040.44
1037.704	1022.13
1037.992	1020.33
1038.279	1016.03
1038.566	977.62
1038.853	977.62
1039.14	977.62
