Data from white_wall_FLMS001491_096.txt Node
Date: Tue Feb 07 11:06:16 GMT 2017
User: dcchb
Spectrometer: FLMS00149
Trigger mode: 0
Integration Time (sec): 2.000000E-2
Scans to average: 10
Electric dark correction enabled: true
Nonlinearity correction enabled: false
Boxcar width: 0
XAxis mode: Wavelengths
Number of Pixels in Spectrum: 2048
>>>>>Begin Spectral Data<<<<<
341.393	-9
341.776	-9
342.16	-9
342.543	-50.58
342.927	-63.46
343.31	-66.62
343.693	-67.75
344.077	-78.6
344.46	-54.42
344.843	-59.39
345.226	-52.16
345.61	-15.55
345.993	-13.74
346.376	-6.06
346.759	-2.67
347.142	23.09
347.525	47.72
347.908	61.96
348.291	78.91
348.674	96.09
349.057	109.19
349.44	124.56
349.823	137.44
350.206	172.02
350.588	221.05
350.971	236.42
351.354	254.95
351.737	263.76
352.119	289.75
352.502	308.51
352.884	304.22
353.267	288.62
353.65	317.55
354.032	311.9
354.414	325.01
354.797	338.56
355.179	358.23
355.562	343.76
355.944	341.28
356.326	363.87
356.709	352.8
357.091	365.23
357.473	388.96
357.855	370.65
358.238	380.82
358.62	372.01
359.002	359.13
359.384	358
359.766	359.58
360.148	354.61
360.53	365.23
360.912	362.29
361.294	359.13
361.676	348.28
362.057	345.8
362.439	342.63
362.821	393.03
363.203	371.33
363.584	359.13
363.966	358.68
364.348	352.58
364.729	356.87
365.111	349.41
365.493	333.14
365.874	333.37
366.256	343.31
366.637	363.65
367.019	354.16
367.4	346.47
367.781	352.8
368.163	369.98
368.544	363.87
368.925	353.93
369.306	366.13
369.688	333.14
370.069	358.23
370.45	360.94
370.831	336.98
371.212	337.21
371.593	365.91
371.974	345.12
372.355	351.67
372.736	361.84
373.117	371.11
373.498	353.71
373.879	348.51
374.26	363.42
374.641	357.32
375.021	371.33
375.402	347.6
375.783	353.93
376.163	362.97
376.544	355.29
376.925	373.59
377.305	363.65
377.686	361.84
378.066	337.66
378.447	379.47
378.827	387.6
379.208	364.1
379.588	380.82
379.968	371.56
380.349	388.73
380.729	383.76
381.109	416.3
381.489	407.49
381.87	398.45
382.25	390.77
382.63	408.62
383.01	395.51
383.39	407.04
383.77	400.03
384.15	394.83
384.53	384.44
384.91	424.89
385.29	422.4
385.67	425.57
386.049	423.76
386.429	405.68
386.809	421.73
387.189	433.93
387.568	440.03
387.948	444.32
388.328	448.17
388.707	447.71
389.087	437.77
389.466	433.93
389.846	445.45
390.225	472.57
390.605	451.33
390.984	499.24
391.363	486.58
391.743	489.97
392.122	500.37
392.501	511.89
392.881	497.2
393.26	533.36
393.639	513.48
394.018	528.39
394.397	526.36
394.776	526.58
395.155	544.89
395.534	538.56
395.913	566.81
396.292	585.79
396.671	592.34
397.05	609.29
397.429	603.64
397.808	593.7
398.186	625.11
398.565	642.74
398.944	640.25
399.323	649.97
399.701	673.92
400.08	677.76
400.458	701.27
400.837	708.27
401.215	719.57
401.594	703.3
401.972	733.36
402.351	741.72
402.729	797.54
403.107	789.17
403.486	790.76
403.864	819
404.242	803.19
404.62	825.11
404.999	854.26
405.377	867.82
405.755	870.3
406.133	906.23
406.511	916.18
406.889	944.88
407.267	921.15
407.645	945.55
408.023	997.08
408.401	1014.7
408.779	1024.42
409.156	1032.78
409.534	1066.91
409.912	1060.58
410.29	1111.2
410.667	1133.57
411.045	1136.06
411.422	1139.67
411.8	1165.89
412.178	1175.38
412.555	1194.59
412.933	1240.69
413.31	1256.96
413.687	1293.12
414.065	1306.67
414.442	1303.06
414.819	1303.51
415.197	1342.38
415.574	1337.86
415.951	1395.26
416.328	1395.03
416.705	1420.12
417.082	1421.7
417.46	1434.58
417.837	1463.73
418.214	1438.65
418.591	1469.16
418.967	1493.11
419.344	1513.22
419.721	1543.96
420.098	1527.01
420.475	1581.92
420.852	1577.18
421.228	1600.68
421.605	1612.43
421.982	1645.65
422.358	1670.51
422.735	1664.63
423.111	1706.21
423.488	1690.85
423.864	1717.96
424.241	1734.23
424.617	1779.66
424.994	1805.19
425.37	1798.64
425.746	1803.16
426.123	1849.26
426.499	1866.43
426.875	1879.09
427.251	1934.91
427.627	1960.67
428.003	1971.29
428.379	1997.28
428.756	2014.9
429.132	2034.11
429.507	2081.34
429.883	2102.36
430.259	2173.77
430.635	2163.83
431.011	2167.89
431.387	2249.02
431.763	2292.41
432.138	2311.85
432.514	2315.46
432.89	2357.27
433.265	2397.27
433.641	2421
434.016	2437.04
434.392	2487.89
434.767	2539.18
435.143	2547.77
435.518	2554.78
435.894	2595.91
436.269	2616.02
436.644	2644.49
437.02	2707.77
437.395	2696.02
437.77	2752.06
438.145	2764.49
438.52	2806.3
438.895	2867.54
439.271	2851.49
439.646	2934.43
440.021	2936.69
440.395	2935.33
440.77	2923.81
441.145	2993.18
441.52	3089.68
441.895	3073.18
442.27	3082.22
442.645	3108.44
443.019	3137.81
443.394	3132.16
443.769	3181.88
444.143	3155.44
444.518	3247.41
444.892	3214.65
445.267	3275.66
445.641	3317.47
446.016	3310.69
446.39	3305.94
446.764	3348.65
447.139	3359.28
447.513	3459.16
447.887	3433.4
448.262	3484.7
448.636	3492.15
449.01	3563.11
449.384	3550.23
449.758	3603.34
450.132	3652.15
450.506	3663.22
450.88	3673.84
451.254	3704.35
451.628	3773.73
452.002	3843.33
452.376	3814.18
452.75	3881.07
453.123	3895.76
453.497	3952.93
453.871	3994.06
454.244	4124
454.618	4127.39
454.992	4148.18
455.365	4194.96
455.739	4273.38
456.112	4356.31
456.486	4355.41
456.859	4447.84
457.232	4501.17
457.606	4537.32
457.979	4618.23
458.352	4673.37
458.725	4752.91
459.099	4784.1
459.472	4874.26
459.845	4922.62
460.218	4917.43
460.591	4983.41
460.964	5054.15
461.337	5130.75
461.71	5271.77
462.083	5354.93
462.456	5357.19
462.829	5388.83
463.201	5442.16
463.574	5492.78
463.947	5599.9
464.32	5692.32
464.692	5739.1
465.065	5768.48
465.438	5914.24
465.81	6040.79
466.183	6034.69
466.555	6177.51
466.928	6224.51
467.3	6232.19
467.672	6354.45
468.045	6541.57
468.417	6589.7
468.789	6578.17
469.161	6728
469.534	6781.33
469.906	6963.93
470.278	7006.64
470.65	7090.48
471.022	7245.05
471.394	7373.86
471.766	7421.32
472.138	7535.66
472.51	7704.47
472.882	7803.68
473.253	7888.2
473.625	8019.72
473.997	8223.33
474.369	8295.87
474.74	8327.28
475.112	8554.17
475.484	8680.49
475.855	8850.66
476.227	8961.84
476.598	9227.37
476.97	9298.33
477.341	9539.9
477.713	9607.02
478.084	9688.6
478.455	10032.55
478.827	10044.07
479.198	10414.68
479.569	10398.64
479.94	10687.67
480.311	10792.07
480.682	11060.32
481.053	11355.22
481.424	11457.37
481.795	11571.49
482.166	11723.8
482.537	11951.82
482.908	12299.15
483.279	12258.25
483.65	12648.75
484.021	12823.66
484.391	13057.33
484.762	12995.41
485.133	13252.35
485.503	13563.98
485.874	13736.63
486.244	13812.79
486.615	14081.48
486.985	14312.89
487.356	14589.72
487.726	14775.7
488.097	15056.82
488.467	15071.74
488.837	15376.81
489.207	15634.43
489.578	15779.51
489.948	15956.23
490.318	16182.89
490.688	16323.23
491.058	16626.95
491.428	16855.87
491.798	16944.23
492.168	17334.5
492.538	17362.75
492.908	17648.84
493.278	17924.32
493.648	17895.17
494.017	18258.09
494.387	18417.64
494.757	18487.69
495.126	18722.26
495.496	18715.03
495.866	18927.45
496.235	19229.82
496.605	19336.26
496.974	19468.91
497.344	19746.87
497.713	19933.98
498.082	19977.37
498.452	20133.98
498.821	20289.23
499.19	20394.08
499.559	20603.79
499.928	20735.77
500.298	21023.44
500.667	21219.15
501.036	21214.85
501.405	21362.19
501.774	21384.79
502.143	21627.5
502.512	21792.69
502.88	22082.17
503.249	22085.79
503.618	22306.35
503.987	22316.74
504.356	22591.54
504.724	22848.93
505.093	22963.51
505.462	22948.59
505.83	23239.43
506.199	23476.04
506.567	23675.13
506.936	23705.63
507.304	23984.95
507.672	24033.99
508.041	24239.41
508.409	24454.31
508.777	24640.07
509.145	24876.68
509.514	24824.02
509.882	25111.02
510.25	25110.34
510.618	25459.03
510.986	25642.31
511.354	25895.86
511.722	26115.29
512.09	26463.98
512.458	26241.16
512.826	26543.3
513.193	26736.97
513.561	26785.33
513.929	27120.23
514.297	27432.54
514.664	27555.25
515.032	27681.8
515.4	27908.46
515.767	28081.56
516.135	28210.37
516.502	28161.34
516.869	28604.94
517.237	28788.89
517.604	28783.47
517.972	29214.64
518.339	29275.66
518.706	29433.84
519.073	29700.28
519.44	29868.18
519.808	30182.75
520.175	30066.6
520.542	30629.29
520.909	30716.97
521.276	30890.98
521.643	31025.67
522.009	31408.26
522.376	31610.51
522.743	31827.68
523.11	32114.23
523.477	32342.69
523.843	32557.6
524.21	32969.8
524.577	33237.36
524.943	33257.47
525.31	33403.91
525.676	33788.76
526.043	34057
526.409	34214.74
526.776	34576.76
527.142	34517.33
527.508	34919.35
527.874	35133.58
528.241	35343.97
528.607	35667.81
528.973	35744.19
529.339	35750.06
529.705	36190.73
530.071	36446.77
530.437	36483.6
530.803	36803.82
531.169	37083.81
531.535	37032.74
531.901	37157.48
532.267	37355.9
532.632	37538.26
532.998	37875.43
533.364	37959.95
533.73	38241.75
534.095	38578.91
534.461	38563.55
534.826	38814.16
535.192	38893.26
535.557	39197.2
535.923	38994.72
536.288	39377.54
536.653	39537.53
537.019	39511.32
537.384	39764.65
537.749	39913.57
538.114	39962.61
538.479	40178.42
538.845	40320.56
539.21	40284.86
539.575	40629.03
539.94	40674.45
540.305	40983.37
540.67	40858.86
541.034	41173.88
541.399	41321.67
541.764	41488.44
542.129	41682.34
542.494	41778.15
542.858	41978.83
543.223	41977.02
543.587	42217.24
543.952	42275.31
544.316	42422.2
544.681	42351.02
545.045	42769.09
545.41	42916.2
545.774	43132.02
546.138	43124.11
546.503	43225.8
546.867	43407.94
547.231	43724.99
547.595	43857.87
547.959	43984.87
548.324	44040.69
548.688	44078.66
549.052	44465.77
549.416	44483.17
549.779	44560.23
550.143	44588.25
550.507	45021.23
550.871	45183.04
551.235	45178.06
551.599	45472.52
551.962	45520.65
552.326	45869.12
552.689	45956.35
553.053	45979.62
553.417	46128.55
553.78	46660.96
554.143	46549.1
554.507	46671.36
554.87	46968.52
555.234	47338.68
555.597	47113.61
555.96	47445.35
556.323	47615.29
556.686	47556.53
557.05	47804.89
557.413	48134.82
557.776	48229.06
558.139	48446.68
558.502	48667.01
558.865	48694.81
559.228	49083.95
559.59	49108.58
559.953	49164.85
560.316	49605.52
560.679	49598.96
561.041	49754.44
561.404	50012.29
561.767	50179.51
562.129	50111.27
562.492	50569.56
562.854	50436.91
563.217	50605.72
563.579	50676.9
563.941	50981.75
564.304	51158.47
564.666	51330.67
565.028	51433.49
565.39	51554.62
565.753	51579.7
566.115	51831
566.477	51932.46
566.839	51986.7
567.201	52223.75
567.563	52158.67
567.925	52513.92
568.287	52464.2
568.648	52644.53
569.01	52727.02
569.372	52977.18
569.734	52890.18
570.095	53138.31
570.457	53213.56
570.819	53305.08
571.18	53387.57
571.542	53428.02
571.903	53451.97
572.265	53550.27
572.626	53693.32
572.987	53778.74
573.349	53832.07
573.71	53944.84
574.071	53985.29
574.432	54117.94
574.794	54330.59
575.155	54316.35
575.516	54257.82
575.877	54451.72
576.238	54457.82
576.599	54625.5
576.96	54522.22
577.32	54629.57
577.681	54678.6
578.042	54760.64
578.403	54719.06
578.763	54815.32
579.124	54847.64
579.485	54887.41
579.845	54951.82
580.206	54964.47
580.566	55004.25
580.927	55040.4
581.287	55068.2
581.648	55024.81
582.008	55147.07
582.368	55100.29
582.728	55189.78
583.089	55173.96
583.449	55111.14
583.809	55226.16
584.169	55255.54
584.529	55181.19
584.889	55361.75
585.249	55187.29
585.609	55164.47
585.969	55379.15
586.329	55279.04
586.688	55384.12
587.048	55314.07
587.408	55313.16
587.768	55263.67
588.127	55257.12
588.487	55247.18
588.846	55476.1
589.206	55249.89
589.565	55370.56
589.925	55471.13
590.284	55297.12
590.643	55415.08
591.003	55393.61
591.362	55547.06
591.721	55455.08
592.08	55414.86
592.44	55544.8
592.799	55512.26
593.158	55411.47
593.517	55482.88
593.876	55551.8
594.235	55468.41
594.593	55473.84
594.952	55599.03
595.311	55502.99
595.67	55566.72
596.029	55661.4
596.387	55649.65
596.746	55687.17
597.104	55591.8
597.463	55614.4
597.822	55658.24
598.18	55583.44
598.538	55603.78
598.897	55819.37
599.255	55563.33
599.613	55933.71
599.972	55803.77
600.33	55853.49
600.688	55748.86
601.046	55824.34
601.404	55920.38
601.762	55851.91
602.12	55981.85
602.478	55975.97
602.836	55995.18
603.194	55890.78
603.552	55947.72
603.91	55819.14
604.268	55987.95
604.625	55906.59
604.983	56065.46
605.341	55904.56
605.698	56093.48
606.056	56123.54
606.413	56076.53
606.771	56248.73
607.128	56303.87
607.485	56095.74
607.843	56166.48
608.2	56267.94
608.557	56355.17
608.914	56205.8
609.272	56431.55
609.629	56358.79
609.986	56499.57
610.343	56415.28
610.7	56619.57
611.057	56555.17
611.414	56560.59
611.771	56486.01
612.127	56628.16
612.484	56622.28
612.841	56675.16
613.198	56617.54
613.554	56637.42
613.911	56817.76
614.267	56768.04
614.624	56795.16
614.98	56793.58
615.337	56876.96
615.693	56836.51
616.05	56810.98
616.406	56961.26
616.762	56971.65
617.118	56880.35
617.475	56913.35
617.831	56958.54
618.187	57048.03
618.543	56999.22
618.899	57106.34
619.255	57158.99
619.611	57127.35
619.967	57240.8
620.323	57237.18
620.678	57188.82
621.034	57121.48
621.39	57077.19
621.746	57133.23
622.101	57386.56
622.457	57176.39
622.812	57231.76
623.168	57246.9
623.523	57267.92
623.879	57399.44
624.234	57163.96
624.589	57312.43
624.945	57221.36
625.3	57311.53
625.655	57267.69
626.01	57291.64
626.365	57207.13
626.72	57235.6
627.075	57330.74
627.43	57209.61
627.785	57208.26
628.14	57280.8
628.495	57267.24
628.85	57268.14
629.205	57176.84
629.559	57369.38
629.914	57186.11
630.269	57158.54
630.623	57105.89
630.978	57064.76
631.332	57136.85
631.687	57236.05
632.041	57118.31
632.396	57183.85
632.75	57017.75
633.104	57061.82
633.459	56938.21
633.813	56900.92
634.167	56900.24
634.521	56976.62
634.875	56972.33
635.229	56914.48
635.583	56813.24
635.937	56849.4
636.291	56826.8
636.645	56785.67
636.999	56719
637.352	56748.38
637.706	56648.27
638.06	56768.95
638.413	56689.63
638.767	56535.28
639.121	56646.24
639.474	56454.6
639.828	56465.68
640.181	56472.68
640.534	56499.35
640.888	56362.4
641.241	56343.19
641.594	56397.88
641.947	56456.19
642.301	56284.21
642.654	56330.76
643.007	56278.11
643.36	56335.96
643.713	56195.63
644.066	56319.47
644.419	56088.06
644.771	55907.95
645.124	55732.59
645.477	55621.63
645.83	55436.55
646.182	55405.14
646.535	55383.44
646.888	55406.27
647.24	55251.92
647.593	55323.33
647.945	55246.95
648.298	55131.25
648.65	55178.48
649.002	55042.89
649.355	55110.68
649.707	55053.28
650.059	55245.37
650.411	55558.13
650.763	55557
651.115	55690.56
651.467	55608.52
651.819	55662.53
652.171	55681.52
652.523	55525.14
652.875	55507.96
653.227	55431.35
653.578	55551.58
653.93	55532.37
654.282	55455.31
654.633	55418.7
654.985	55448.08
655.337	55364.91
655.688	55398.13
656.039	55359.94
656.391	55268.87
656.742	55226.84
657.094	55247.18
657.445	55381.64
657.796	55303.9
658.147	55232.94
658.498	55229.55
658.849	55253.73
659.2	55205.6
659.551	55075.43
659.902	55293.96
660.253	55117.92
660.604	55137.58
660.955	54993.17
661.306	55154.98
661.656	55025.49
662.007	55027.3
662.358	55007.41
662.708	54959.28
663.059	54981.65
663.409	54768.55
663.76	55008.31
664.11	55028.88
664.461	54951.82
664.811	55006.28
665.161	54935.77
665.511	54816
665.862	54824.59
666.212	54960.18
666.562	54954.08
666.912	54881.99
667.262	54802.67
667.612	54832.95
667.962	54778.26
668.312	54743.69
668.662	54844.48
669.011	54803.57
669.361	54720.41
669.711	54629.34
670.06	54662.79
670.41	54546.63
670.76	54634.09
671.109	54708.89
671.459	54576.01
671.808	54564.71
672.157	54645.61
672.507	54345.51
672.856	54432.51
673.205	54492.85
673.554	54612.39
673.904	54415.79
674.253	54638.38
674.602	54487.65
674.951	53978.06
675.3	53848.12
675.649	54365.84
675.998	54256.02
676.346	54366.3
676.695	54402.68
677.044	54170.14
677.393	54310.48
677.741	54237.03
678.09	54184.15
678.438	54099.64
678.787	54201.56
679.135	54127.88
679.484	53920.66
679.832	54048.79
680.181	53868
680.529	53959.08
680.877	53840.43
681.225	53842.47
681.573	53930.83
681.922	53751.4
682.27	53619.42
682.618	53673.89
682.966	53635.47
683.314	53617.84
683.661	53514.57
684.009	53274.35
684.357	53315.02
684.705	53341.92
685.053	53321.8
685.4	53247.23
685.748	53047.69
686.095	53103.05
686.443	53005.43
686.79	52853.12
687.138	52963.62
687.485	52884.98
687.832	52768.82
688.18	52700.13
688.527	52576.74
688.874	52504.65
689.221	52520.02
689.568	52328.61
689.915	52372.68
690.262	52335.62
690.609	52237.54
690.956	52151.67
691.303	52106.02
691.65	51956.19
691.997	51932.69
692.344	51673.26
692.69	51651.11
693.037	51689.08
693.383	51396.21
693.73	51537.67
694.077	51393.04
694.423	51307.39
694.769	51239.6
695.116	51261.29
695.462	51108.53
695.808	50941.08
696.155	50963.22
696.501	50679.16
696.847	50680.07
697.193	50559.62
697.539	50628.77
697.885	50386.06
698.231	50385.38
698.577	50265.84
698.923	50175.45
699.269	50062.68
699.614	49917.6
699.96	49760.32
700.306	49868.56
700.651	49695.91
700.997	49633.99
701.342	49510.6
701.688	49501.11
702.033	49313.77
702.379	49323.72
702.724	49183.16
703.069	49213.21
703.415	48817.97
703.76	48756.05
704.105	48922.6
704.45	48653
704.795	48472.44
705.14	48405.32
705.485	48365.1
705.83	48167.14
706.175	48275.84
706.52	48215.27
706.865	48028.16
707.209	48019.8
707.554	47950.65
707.899	47871.55
708.243	47745
708.588	47690.77
708.932	47440.6
709.277	47426.14
709.621	47410.1
709.966	47190.44
710.31	47244.22
710.654	46823.44
710.998	46964.23
711.342	46926.27
711.687	46886.49
712.031	46639.72
712.375	46569.89
712.719	46677.91
713.063	46511.36
713.407	46550
713.75	46338.48
714.094	46446.5
714.438	46167.19
714.782	46369.67
715.125	46011.26
715.469	46191.14
715.812	45949.57
716.156	45678.39
716.499	45730.59
716.843	45875.22
717.186	45544.61
717.53	45631.61
717.873	45623.93
718.216	45479.52
718.559	45253.77
718.902	45095.13
719.246	45152.53
719.589	44893.78
719.932	44828.47
720.275	44855.59
720.617	44804.29
720.96	44830.5
721.303	44693.1
721.646	44720
721.989	44387.58
722.331	44614.46
722.674	44308.48
723.016	44531.75
723.359	44456.05
723.701	44377.41
724.044	44134.02
724.386	43913.69
724.729	44039.11
725.071	43957.76
725.413	43952.33
725.755	43838.89
726.097	43713.7
726.439	43434.83
726.782	43554.38
727.124	43769.06
727.465	43504.89
727.807	43484.1
728.149	43382.4
728.491	43245.68
728.833	43404.78
729.175	43138.12
729.516	42997.78
729.858	42998.69
730.199	43031.45
730.541	42975.64
730.882	42755.75
731.224	42956.88
731.565	42618.58
731.906	42764.57
732.248	42741.29
732.589	42450
732.93	42398.25
733.271	42365.03
733.612	42375.43
733.953	42375.88
734.294	42100.86
734.635	41950.35
734.976	42151.25
735.317	41894.31
735.658	41809.34
735.999	41831.94
736.339	41794.88
736.68	41878.49
737.021	41758.72
737.361	41473.98
737.702	41677.59
738.042	41549.23
738.383	41401.21
738.723	41574.09
739.063	41345.4
739.404	41382.23
739.744	41295.68
740.084	41201.67
740.424	41288.67
740.764	41048.23
741.104	41244.61
741.444	40909.02
741.784	40741.34
742.124	40860.21
742.464	40915.12
742.804	40742.02
743.143	40610.5
743.483	40751.74
743.823	40559.88
744.162	40521.91
744.502	40556.26
744.841	40182.04
745.181	40442.59
745.52	40287.12
745.86	40299.55
746.199	40222.71
746.538	40086.22
746.877	40279.66
747.216	40092.55
747.556	40031.53
747.895	40100.68
748.234	39859.56
748.573	39828.6
748.911	39725.1
749.25	39610.3
749.589	39582.05
749.928	39509.74
750.267	39573.47
750.605	39454.15
750.944	39384.09
751.283	39153.36
751.621	39224.77
751.96	38998.56
752.298	38924.67
752.636	38809.64
752.975	38675.86
753.313	38689.65
753.651	38831.79
753.989	38527.62
754.327	38566.71
754.666	38331.24
755.004	38381.86
755.342	38369.65
755.679	38225.7
756.017	38013.05
756.355	38020.29
756.693	37890.35
757.031	37848.76
757.368	37617.81
757.706	37742.1
758.044	37522.67
758.381	37546.63
758.719	37328.55
759.056	37361.09
759.394	37105.96
759.731	36933.31
760.068	36868
760.405	36840.2
760.743	36720.43
761.08	37038.16
761.417	36611.06
761.754	36596.59
762.091	36408.35
762.428	36196.83
762.765	35979.21
763.102	36266.89
763.438	35934.92
763.775	35736.05
764.112	35784.86
764.449	35814.92
764.785	35683.85
765.122	35387.13
765.458	35369.73
765.795	35258.55
766.131	35199.12
766.467	35080.48
766.804	34969.52
767.14	34752.8
767.476	34773.37
767.812	34584.44
768.148	34615.63
768.485	34386.71
768.821	34182.65
769.157	34124.79
769.492	33983.1
769.828	34054.06
770.164	33819.27
770.5	33628.54
770.836	33647.29
771.171	33519.16
771.507	33464.25
771.842	33122.56
772.178	33158.72
772.513	32970.02
772.849	33013.86
773.184	32753.08
773.519	32859.74
773.855	32600.32
774.19	32431.96
774.525	32444.61
774.86	32421.11
775.195	32228.35
775.53	32012.08
775.865	31948.35
776.2	31653.9
776.535	31592.43
776.87	31723.5
777.205	31476.5
777.539	31214.59
777.874	31374.81
778.209	30961.04
778.543	30933.92
778.878	30808.05
779.212	30730.53
779.547	30556.75
779.881	30598.33
780.215	30370.54
780.55	30506.58
780.884	30184.56
781.218	30185.92
781.552	30224.11
781.886	29867.05
782.22	29832.7
782.554	29733.27
782.888	29452.38
783.222	29437.46
783.556	29305.03
783.889	29206.73
784.223	29079.28
784.557	28951.37
784.89	29126.06
785.224	28913.86
785.557	28656.69
785.891	28665.96
786.224	28553.87
786.558	28434.55
786.891	28214.22
787.224	28196.82
787.557	28079.08
787.891	27997.05
788.224	27955.69
788.557	27880.67
788.89	27865.98
789.223	27731.52
789.556	27605.87
789.888	27405.42
790.221	27384.41
790.554	27088.37
790.887	27125.43
791.219	27138.99
791.552	26926.57
791.884	26801.82
792.217	26967.24
792.549	26713.92
792.882	26652
793.214	26416.97
793.546	26483.19
793.879	26297.43
794.211	26099.92
794.543	26141.28
794.875	26014.5
795.207	26152.8
795.539	25933.6
795.871	25889.98
796.203	25701.06
796.535	25647.28
796.867	25455.19
797.198	25527.96
797.53	25482.76
797.862	25350.79
798.193	25392.14
798.525	25268.98
798.856	25273.05
799.188	25007.29
799.519	24887.07
799.85	24687.53
800.182	24735.44
800.513	24782.44
800.844	24419.97
801.175	24612.05
801.506	24558.72
801.837	24397.82
802.168	24233.08
802.499	24354.2
802.83	24127.54
803.161	24155.57
803.491	24122.12
803.822	24036.7
804.153	23901.33
804.483	23738.18
804.814	23711.51
805.145	23709.25
805.475	23540.44
805.805	23477.84
806.136	23475.13
806.466	23404.4
806.796	23370.28
807.126	23258.87
807.457	23212.77
807.787	23046.89
808.117	23052.09
808.447	23059.78
808.777	23141.13
809.107	22894.36
809.436	22758.09
809.766	22781.59
810.096	22805.32
810.426	22652.33
810.755	22673.12
811.085	22487.59
811.414	22518.55
811.744	22316.97
812.073	22283.07
812.403	22222.28
812.732	22166.01
813.061	22212.34
813.39	21987.26
813.719	21966.92
814.049	22060.03
814.378	21940.93
814.707	21918.56
815.036	21788.62
815.365	21693.71
815.693	21648.06
816.022	21596.99
816.351	21497.78
816.68	21415.75
817.008	21461.85
817.337	21335.98
817.665	21288.97
817.994	21321.06
818.322	21234.74
818.651	21131.24
818.979	21061.64
819.307	21038.36
819.636	21074.52
819.964	20957.68
820.292	21022.99
820.62	21043.56
820.948	21041.52
821.276	20903.45
821.604	20976.44
821.932	20917.91
822.259	20911.81
822.587	20708.2
822.915	20822.32
823.243	20876.78
823.57	20768.08
823.898	20787.74
824.225	20724.02
824.553	20726.73
824.88	20828.65
825.207	20817.35
825.535	20791.36
825.862	20793.62
826.189	20649.44
826.516	20754.98
826.843	20755.43
827.17	20769.67
827.497	20738.48
827.824	20786.61
828.151	20775.32
828.478	20722.44
828.805	20895.09
829.131	20707.97
829.458	20719.27
829.785	20650.57
830.111	20666.84
830.438	20754.52
830.764	20737.8
831.09	20646.05
831.417	20600.63
831.743	20650.12
832.069	20721.98
832.395	20526.73
832.722	20545.04
833.048	20525.83
833.374	20526.73
833.7	20504.14
834.026	20463.91
834.351	20490.35
834.677	20512.27
835.003	20538.71
835.329	20422.33
835.654	20457.13
835.98	20327.19
836.306	20484.93
836.631	20274.76
836.956	20412.16
837.282	20327.64
837.607	20218.72
837.932	20196.12
838.258	20149.57
838.583	20096.46
838.908	20038.84
839.233	20057.82
839.558	20100.08
839.883	19955.45
840.208	19899.18
840.533	19867.99
840.858	20021.44
841.182	19888.33
841.507	19744.38
841.832	19679.98
842.156	19690.6
842.481	19634.1
842.805	19667.77
843.13	19594.1
843.454	19613.31
843.778	19596.14
844.103	19454.9
844.427	19403.37
844.751	19417.84
845.075	19285.86
845.399	19191.85
845.723	19095.36
846.047	19160.22
846.371	19084.74
846.695	19022.82
847.019	18874.8
847.343	18860.11
847.666	18794.8
847.99	18607.01
848.313	18578.54
848.637	18504.19
848.96	18490.63
849.284	18394.36
849.607	18194.82
849.931	18163.18
850.254	18079.34
850.577	18101.71
850.9	17860.14
851.223	17873.47
851.546	17777.43
851.869	17746.24
852.192	17791.66
852.515	17489.75
852.838	17562.74
853.161	17534.04
853.483	17385.35
853.806	17356.2
854.129	17342.19
854.451	17225.35
854.774	17208.86
855.096	17081.4
855.419	17017.9
855.741	16971.35
856.063	16912.82
856.385	16900.61
856.708	16857.23
857.03	16749.21
857.352	16809.54
857.674	16794.63
857.996	16604.58
858.318	16527.74
858.64	16619.04
858.961	16541.53
859.283	16461.08
859.605	16364.13
859.926	16400.52
860.248	16336.34
860.57	16297.47
860.891	16250.46
861.212	16134.08
861.534	16159.62
861.855	16111.71
862.176	16131.14
862.498	16105.83
862.819	16039.17
863.14	15941.32
863.461	15943.8
863.782	15834.88
864.103	15927.31
864.424	15878.27
864.745	15880.53
865.065	15825.16
865.386	15617.48
865.707	15669.01
866.027	15713.3
866.348	15602.12
866.668	15643.02
866.989	15590.59
867.309	15516.02
867.63	15593.98
867.95	15489.8
868.27	15437.15
868.59	15384.04
868.91	15372.75
869.23	15366.19
869.55	15331.62
869.87	15452.52
870.19	15410.26
870.51	15304.72
870.83	15318.51
871.15	15207.33
871.469	15221.34
871.789	15242.13
872.109	15125.07
872.428	15041
872.748	15116.48
873.067	15051.62
873.386	15082.58
873.706	15088.23
874.025	15048.01
874.344	14977.95
874.663	14893.44
874.982	14977.28
875.301	14964.39
875.62	14880.33
875.939	14834.45
876.258	14837.17
876.577	14726.89
876.896	14826.09
877.214	14794.46
877.533	14752.87
877.852	14652.54
878.17	14709.26
878.489	14619.54
878.807	14699.32
879.125	14602.14
879.444	14577.29
879.762	14513.11
880.08	14575.7
880.398	14453.9
880.716	14474.01
881.034	14405.09
881.352	14413.9
881.67	14423.17
881.988	14437.85
882.306	14325.54
882.624	14258.65
882.941	14305.2
883.259	14239.44
883.577	14169.39
883.894	14212.32
884.212	14135.04
884.529	14048.71
884.846	14039.9
885.164	14001.26
885.481	13997.41
885.798	13982.27
886.115	13967.58
886.432	13910.41
886.75	13890.3
887.067	13841.26
887.383	13766.46
887.7	13790.64
888.017	13705.67
888.334	13717.42
888.651	13593.58
888.967	13638.78
889.284	13562.85
889.6	13599.68
889.917	13488.28
890.233	13521.72
890.55	13429.97
890.866	13457.99
891.182	13312.23
891.498	13339.35
891.815	13285.34
892.131	13196.53
892.447	13138.45
892.763	13156.08
893.079	13113.14
893.395	13065.69
893.71	13052.13
894.026	13039.93
894.342	12977.1
894.657	12840.16
894.973	12890.55
895.289	12804.9
895.604	12775.3
895.92	12704.79
896.235	12630.22
896.55	12694.17
896.865	12641.97
897.181	12583.21
897.496	12556.32
897.811	12522.65
898.126	12483.1
898.441	12426.16
898.756	12266.84
899.071	12237.91
899.386	12296.89
899.7	12241.53
900.015	12230
900.33	12104.13
900.644	12186.84
900.959	12100.52
901.273	12041.31
901.588	11882.67
901.902	11878.83
902.216	11904.36
902.531	11832.27
902.845	11818.04
903.159	11707.08
903.473	11706.63
903.787	11691.94
904.101	11578.95
904.415	11581.66
904.729	11558.61
905.042	11474.32
905.356	11414.88
905.67	11413.08
905.984	11418.27
906.297	11322.68
906.611	11242.68
906.924	11179.18
907.237	11155.68
907.551	11189.8
907.864	11045.85
908.177	11055.12
908.491	11012.18
908.804	10957.27
909.117	10815.58
909.43	10830.72
909.743	10831.62
910.056	10721.34
910.368	10692.64
910.681	10632.98
910.994	10619.65
911.307	10617.39
911.619	10509.14
911.932	10646.77
912.244	10508.24
912.557	10429.6
912.869	10403.84
913.181	10360
913.494	10329.71
913.806	10272.77
914.118	10266.21
914.43	10119.55
914.742	10124.07
915.054	10108.93
915.366	10021.47
915.678	10042.72
915.99	10040.91
916.302	9882.95
916.613	9857.86
916.925	9826.45
917.236	9761.82
917.548	9731.99
917.859	9672.56
918.171	9746.9
918.482	9568.15
918.794	9560.47
919.105	9505.1
919.416	9484.99
919.727	9416.97
920.038	9455.16
920.349	9377.42
920.66	9270.76
920.971	9287.26
921.282	9233.25
921.593	9185.34
921.903	9189.41
922.214	9147.37
922.525	9078.22
922.835	9010.2
923.146	8979.92
923.456	9019.01
923.767	8965.46
924.077	8957.55
924.387	8832.13
924.697	8781.51
925.008	8831
925.318	8754.84
925.628	8755.97
925.938	8684.56
926.248	8615.41
926.558	8600.72
926.867	8578.57
927.177	8592.81
927.487	8488.18
927.796	8384.68
928.106	8426.49
928.416	8402.99
928.725	8356.21
929.034	8302.65
929.344	8284.12
929.653	8214.29
929.962	8144.24
930.271	8149.43
930.581	8115.08
930.89	8144.69
931.199	8026.72
931.508	7979.49
931.817	8028.76
932.125	7989.89
932.434	7950.79
932.743	7890
933.051	7805.71
933.36	7815.66
933.669	7766.39
933.977	7691.14
934.286	7701.53
934.594	7702.89
934.902	7581.31
935.21	7591.48
935.519	7570.01
935.827	7521.2
936.135	7466.96
936.443	7366.18
936.751	7363.24
937.059	7332.73
937.367	7285.95
937.674	7355.78
937.982	7325.27
938.29	7234.65
938.597	7186.52
938.905	7154.88
939.213	7151.27
939.52	7105.39
939.827	7135.9
940.135	7000.54
940.442	6981.33
940.749	7013.87
941.056	7031.5
941.363	6928
941.67	6899.75
941.977	6823.59
942.284	6814.78
942.591	6810.71
942.898	6756.25
943.205	6770.94
943.511	6722.8
943.818	6690.94
944.125	6678.51
944.431	6659.08
944.738	6651.84
945.044	6567.78
945.35	6558.29
945.657	6467.67
945.963	6471.96
946.269	6430.83
946.575	6442.36
946.881	6368.46
947.187	6348.12
947.493	6312.64
947.799	6355.81
948.105	6261.12
948.41	6230.16
948.716	6219.09
949.022	6133.44
949.327	6160.78
949.633	6066.32
949.938	6130.05
950.244	6099.09
950.549	6062.03
950.854	6030.84
951.16	5982.71
951.465	5939.1
951.77	5917.17
952.075	5909.94
952.38	5873.11
952.685	5869.27
952.99	5819.55
953.294	5835.82
953.599	5784.3
953.904	5771.19
954.209	5691.64
954.513	5693
954.818	5696.39
955.122	5695.03
955.426	5632.21
955.731	5604.19
956.035	5587.92
956.339	5545.21
956.643	5575.71
956.948	5517.86
957.252	5502.5
957.556	5514.7
957.86	5484.42
958.163	5449.39
958.467	5381.37
958.771	5388.38
959.075	5424.08
959.378	5358.09
959.682	5335.5
959.985	5301.82
960.289	5279.9
960.592	5223.41
960.896	5206.69
961.199	5212.11
961.502	5165.33
961.805	5134.14
962.108	5126.91
962.411	5118.55
962.714	5104.99
963.017	5041.49
963.32	5068.84
963.623	5009.18
963.926	4924.43
964.228	4982.51
964.531	4922.85
964.833	4909.97
965.136	4873.13
965.438	4868.84
965.741	4810.76
966.043	4855.28
966.345	4758.79
966.648	4768.5
966.95	4760.6
967.252	4730.31
967.554	4720.14
967.856	4707.26
968.158	4671.78
968.46	4646.47
968.761	4604.44
969.063	4598.11
969.365	4580.94
969.666	4529.19
969.968	4524.67
970.269	4556.31
970.571	4515.18
970.872	4446.93
971.174	4444.22
971.475	4428.85
971.776	4450.55
972.077	4365.35
972.378	4358.57
972.679	4388.85
972.98	4368.52
973.281	4352.24
973.582	4330.1
973.883	4330.78
974.183	4253.04
974.484	4235.86
974.785	4219.37
975.085	4247.61
975.386	4196.32
975.686	4188.86
975.986	4194.73
976.287	4156.54
976.587	4144.79
976.887	4115.41
977.187	4075.42
977.487	4067.73
977.787	4092.14
978.087	4018.02
978.387	3994.97
978.687	4051.69
978.987	3965.81
979.286	3930.56
979.586	3959.71
979.885	3937.57
980.185	3890.11
980.484	3881.75
980.784	3873.16
981.083	3859.15
981.382	3812.6
981.682	3786.16
981.981	3801.3
982.28	3791.36
982.579	3782.54
982.878	3756.33
983.177	3727.18
983.475	3715.88
983.774	3678.82
984.073	3702.32
984.372	3648.53
984.67	3653.73
984.969	3647.86
985.267	3611.47
985.566	3602.89
985.864	3559.04
986.162	3569.89
986.461	3511.59
986.759	3561.76
987.057	3483.11
987.355	3441.99
987.653	3493.51
987.951	3446.28
988.249	3418.03
988.547	3433.17
988.844	3431.36
989.142	3369.9
989.44	3399.5
989.737	3371.25
990.035	3333.51
990.332	3338.03
990.63	3335.1
990.927	3292.16
991.224	3308.66
991.521	3322.67
991.819	3261.43
992.116	3247.64
992.413	3225.04
992.71	3186.4
993.006	3182.33
993.303	3179.62
993.6	3159.73
993.897	3120.41
994.193	3119.96
994.49	3117.02
994.787	3105.05
995.083	3084.48
995.379	3050.81
995.676	3061.43
995.972	3044.71
996.268	3016.91
996.565	3010.81
996.861	2961.32
997.157	2952.73
997.453	2937.14
997.749	2958.61
998.044	2896.46
998.34	2930.13
998.636	2860.98
998.932	2844.26
999.227	2860.98
999.523	2872.06
999.818	2842.23
1000.114	2827.09
1000.409	2801.78
1000.704	2753.42
1001	2763.13
1001.295	2760.65
1001.59	2756.35
1001.885	2712.51
1002.18	2707.09
1002.475	2656.7
1002.77	2683.36
1003.065	2677.03
1003.359	2640.65
1003.654	2671.16
1003.949	2635
1004.243	2613.31
1004.538	2595
1004.832	2586.42
1005.127	2535.57
1005.421	2552.52
1005.715	2538.73
1006.009	2516.36
1006.304	2510.94
1006.598	2461.45
1006.892	2461.22
1007.186	2471.16
1007.48	2434.55
1007.773	2446.53
1008.067	2402.47
1008.361	2383.71
1008.655	2351.84
1008.948	2374.44
1009.242	2372.18
1009.535	2332.41
1009.829	2376.25
1010.122	2319.08
1010.415	2293.77
1010.708	2272.3
1011.001	2282.69
1011.295	2269.59
1011.588	2256.71
1011.881	2194.79
1012.173	2228.91
1012.466	2200.44
1012.759	2199.76
1013.052	2192.53
1013.344	2164.05
1013.637	2137.39
1013.93	2126.31
1014.222	2107.78
1014.514	2112.98
1014.807	2156.14
1015.099	2129.03
1015.391	2073.66
1015.683	2076.15
1015.976	2020.33
1016.268	2033.44
1016.56	2048.58
1016.851	2006.54
1017.143	1970.16
1017.435	2001.57
1017.727	1971.29
1018.018	1913.44
1018.31	1951.86
1018.602	1929.94
1018.893	1896.72
1019.185	1929.48
1019.476	1906.66
1019.767	1883.61
1020.058	1880.22
1020.35	1838.86
1020.641	1849.71
1020.932	1848.58
1021.223	1823.27
1021.514	1794.8
1021.804	1802.48
1022.095	1764.97
1022.386	1761.13
1022.677	1738.3
1022.967	1756.83
1023.258	1734.01
1023.548	1709.38
1023.839	1694.46
1024.129	1675.48
1024.419	1693.33
1024.709	1659.66
1025	1661.24
1025.29	1622.15
1025.58	1632.32
1025.87	1577.18
1026.16	1642.49
1026.449	1605.88
1026.739	1621.24
1027.029	1585.54
1027.319	1599.55
1027.608	1581.24
1027.898	1542.83
1028.187	1542.6
1028.477	1526.33
1028.766	1513
1029.055	1499.66
1029.344	1497.4
1029.634	1463.05
1029.923	1485.2
1030.212	1480.23
1030.501	1468.25
1030.79	1420.34
1031.078	1404.3
1031.367	1423.06
1031.656	1417.63
1031.945	1417.63
1032.233	1393.9
1032.522	1394.36
1032.81	1369.27
1033.099	1360.68
1033.387	1334.24
1033.675	1359.1
1033.963	1311.87
1034.251	1337.18
1034.54	1306.67
1034.828	1304.19
1035.116	1295.38
1035.403	1278.65
1035.691	1280.91
1035.979	1281.59
1036.267	1264.64
1036.554	1286.34
1036.842	1223.74
1037.129	1205.66
1037.417	1217.19
1037.704	1206.79
1037.992	1219.45
1038.279	1199.78
1038.566	1214.25
1038.853	1214.25
1039.14	1214.25
