Data from white_wall_FLMS001491_027.txt Node
Date: Tue Feb 07 11:04:01 GMT 2017
User: dcchb
Spectrometer: FLMS00149
Trigger mode: 0
Integration Time (sec): 2.000000E-2
Scans to average: 10
Electric dark correction enabled: true
Nonlinearity correction enabled: false
Boxcar width: 0
XAxis mode: Wavelengths
Number of Pixels in Spectrum: 2048
>>>>>Begin Spectral Data<<<<<
341.393	-30.61
341.776	-30.61
342.16	-30.61
342.543	-50.04
342.927	-54.33
343.31	-56.59
343.693	-74.67
344.077	-72.87
344.46	-54.56
344.843	-69.93
345.226	-41.68
345.61	-41.68
345.993	-11.85
346.376	-5.07
346.759	18.21
347.142	23.4
347.525	32.89
347.908	53.46
348.291	74.93
348.674	101.37
349.057	124.64
349.44	138.65
349.823	130.97
350.206	175.49
350.588	218.2
350.971	235.38
351.354	256.84
351.737	251.87
352.119	260.91
352.502	275.15
352.884	279.89
353.267	298.42
353.65	303.17
354.032	310.63
354.414	322.83
354.797	327.12
355.179	325.99
355.562	344.3
355.944	342.49
356.326	358.31
356.709	340.68
357.091	373.9
357.473	348.59
357.855	353.79
358.238	355.37
358.62	329.61
359.002	364.19
359.384	358.31
359.766	368.25
360.148	356.73
360.53	372.55
360.912	380.23
361.294	359.21
361.676	381.36
362.057	334.81
362.439	340.23
362.821	341.14
363.203	360.12
363.584	361.93
363.966	343.62
364.348	328.48
364.729	331.87
365.111	349.72
365.493	337.75
365.874	339.1
366.256	315.37
366.637	335.26
367.019	324.86
367.4	341.14
367.781	351.76
368.163	333.68
368.544	328.71
368.925	342.27
369.306	349.04
369.688	327.8
370.069	327.35
370.45	318.76
370.831	348.37
371.212	347.46
371.593	347.01
371.974	339.78
372.355	338.2
372.736	350.17
373.117	339.1
373.498	332.32
373.879	339.1
374.26	348.82
374.641	335.26
375.021	332.77
375.402	345.43
375.783	323.51
376.163	338.65
376.544	358.08
376.925	343.62
377.305	356.05
377.686	338.88
378.066	345.65
378.447	360.12
378.827	379.55
379.208	362.6
379.588	362.15
379.968	352.66
380.349	345.2
380.729	368.48
381.109	380.91
381.489	358.54
381.87	370.96
382.25	386.56
382.63	366.22
383.01	371.64
383.39	365.54
383.77	398.31
384.15	386.78
384.53	381.81
384.91	399.89
385.29	384.75
385.67	393.79
386.049	404.64
386.429	400.57
386.809	409.38
387.189	396.73
387.568	395.6
387.948	430.4
388.328	418.2
388.707	405.99
389.087	431.53
389.466	424.07
389.846	445.77
390.225	408.7
390.605	418.65
390.984	446.9
391.363	442.15
391.743	442.15
392.122	441.47
392.501	458.42
392.881	466.78
393.26	474.69
393.639	487.35
394.018	496.84
394.397	483.73
394.776	488.02
395.155	497.29
395.534	513.56
395.913	522.83
396.292	530.73
396.671	540.23
397.05	507.91
397.429	553.33
397.808	545.88
398.186	548.14
398.565	572.77
398.944	576.61
399.323	573.67
399.701	595.14
400.08	610.05
400.458	614.57
400.837	603.73
401.215	619.77
401.594	637.85
401.972	648.47
402.351	652.31
402.729	636.72
403.107	687.57
403.486	692.76
403.864	696.83
404.242	706.32
404.62	719.88
404.999	714.01
405.377	730.28
405.755	734.35
406.133	748.58
406.511	768.24
406.889	797.17
407.267	810.73
407.645	805.08
408.023	846.66
408.401	851.4
408.779	857.05
409.156	895.24
409.534	879.65
409.912	920.78
410.29	913.32
410.667	922.81
411.045	961.91
411.422	975.92
411.8	971.4
412.178	1003.26
412.555	1006.65
412.933	1024.96
413.31	1043.49
413.687	1052.08
414.065	1066.99
414.442	1079.87
414.819	1104.5
415.197	1071.96
415.574	1115.13
415.951	1130.94
416.328	1143.15
416.705	1148.35
417.082	1170.49
417.46	1177.5
417.837	1187.89
418.214	1206.65
418.591	1213.88
418.967	1234.9
419.344	1244.61
419.721	1245.74
420.098	1275.12
420.475	1302.24
420.852	1283.48
421.228	1337.49
421.605	1308.34
421.982	1325.74
422.358	1348.57
422.735	1335.69
423.111	1372.07
423.488	1384.27
423.864	1410.03
424.241	1446.87
424.617	1462.69
424.994	1450.94
425.37	1474.44
425.746	1466.08
426.123	1489.81
426.499	1514.89
426.875	1533.19
427.251	1539.3
427.627	1607.09
428.003	1605.06
428.379	1638.73
428.756	1645.28
429.132	1644.83
429.507	1698.39
429.883	1700.87
430.259	1747.88
430.635	1769.57
431.011	1755.11
431.387	1823.81
431.763	1845.28
432.138	1836.91
432.514	1835.56
432.89	1895.67
433.265	1911.04
433.641	1936.12
434.016	1938.16
434.392	2005.72
434.767	2049.79
435.143	2040.75
435.518	2052.5
435.894	2072.16
436.269	2083.91
436.644	2115.55
437.02	2157.36
437.395	2163.46
437.77	2201.43
438.145	2259.73
438.52	2243.91
438.895	2239.16
439.271	2266.06
439.646	2355.55
440.021	2363.45
440.395	2357.35
440.77	2366.84
441.145	2390.57
441.52	2451.36
441.895	2430.8
442.27	2460.85
442.645	2466.95
443.019	2508.08
443.394	2503.34
443.769	2546.05
444.143	2557.8
444.518	2567.29
444.892	2555.54
445.267	2586.27
445.641	2620.85
446.016	2631.24
446.39	2679.38
446.764	2671.47
447.139	2676.21
447.513	2722.09
447.887	2737
448.262	2760.51
448.636	2786.27
449.01	2851.35
449.384	2850.9
449.758	2859.49
450.132	2863.78
450.506	2916.21
450.88	2951.46
451.254	2972.93
451.628	3022.19
452.002	2996.43
452.376	3043.44
452.75	3101.97
453.123	3101.74
453.497	3178.12
453.871	3176.09
454.244	3243.43
454.618	3250.44
454.992	3297.44
455.365	3330.66
455.739	3411.56
456.112	3422.18
456.486	3517.77
456.859	3459.25
457.232	3604.33
457.606	3593.48
457.979	3612.01
458.352	3662.86
458.725	3727.94
459.099	3782.63
459.472	3846.35
459.845	3915.05
460.218	3881.16
460.591	3957.31
460.964	3934.94
461.337	4048.61
461.71	4127.25
462.083	4204.54
462.456	4143.75
462.829	4188.27
463.201	4290.18
463.574	4298.55
463.947	4367.02
464.32	4478.88
464.692	4516.39
465.065	4487.69
465.438	4609.5
465.81	4734.92
466.183	4710.29
466.555	4868.7
466.928	4877.29
467.3	4870.51
467.672	4988.24
468.045	5058.75
468.417	5128.35
468.789	5154.79
469.161	5215.13
469.534	5258.29
469.906	5418.52
470.278	5482.92
470.65	5506.87
471.022	5583.03
471.394	5762.69
471.766	5830.03
472.138	5855.34
472.51	6006.3
472.882	6124.49
473.253	6154.77
473.625	6248.78
473.997	6404.48
474.369	6407.64
474.74	6515.66
475.112	6670.01
475.484	6738.03
475.855	6850.57
476.227	6881.75
476.598	7153.39
476.97	7139.83
477.341	7363.78
477.713	7452.13
478.084	7500.49
478.455	7654.62
478.827	7714.5
479.198	8059.35
479.569	8067.94
479.94	8234.71
480.311	8346.57
480.682	8535.72
481.053	8782.72
481.424	8878.99
481.795	9000.12
482.166	9121.24
482.537	9305.65
482.908	9485.08
483.279	9569.59
483.65	9710.38
484.021	9980.66
484.391	10046.42
484.762	10135.68
485.133	10258.61
485.503	10460.42
485.874	10622.45
486.244	10695.21
486.615	10998.71
486.985	11047.97
487.356	11309.21
487.726	11430.34
488.097	11644.34
488.467	11751.68
488.837	11942.64
489.207	12084.33
489.578	12276.19
489.948	12416.07
490.318	12594.37
490.688	12644.09
491.058	12774.25
491.428	13021.93
491.798	13137.86
492.168	13414.01
492.538	13516.38
492.908	13536.72
493.278	13838.18
493.648	13824.62
494.017	14079.53
494.387	14235.46
494.757	14312.75
495.126	14406.98
495.496	14555.22
495.866	14642.23
496.235	14796.12
496.605	14994.31
496.974	15041.09
497.344	15299.16
497.713	15386.84
498.082	15459.61
498.452	15595.65
498.821	15702.54
499.19	15758.36
499.559	15982.31
499.928	16060.72
500.298	16124.9
500.667	16338.45
501.036	16363.09
501.405	16563.31
501.774	16604.66
502.143	16743.87
502.512	16880.81
502.88	17033.58
503.249	17035.61
503.618	17195.16
503.987	17328.71
504.356	17467.92
504.724	17563.96
505.093	17677.85
505.462	17758.53
505.83	17935.47
506.199	18055.92
506.567	18298.63
506.936	18273.09
507.304	18581.56
507.672	18736.36
508.041	18756.7
508.409	18979.74
508.777	19061.55
509.145	19204.37
509.514	19324.59
509.882	19479.61
510.25	19501.54
510.618	19683.68
510.986	19749.89
511.354	19916.44
511.722	20228.3
512.09	20268.75
512.458	20384.68
512.826	20560.72
513.193	20663.99
513.561	20736.53
513.929	21035.28
514.297	21096.07
514.664	21349.4
515.032	21358.89
515.4	21687.92
515.767	21770.4
516.135	21786.9
516.502	21832.1
516.869	22182.14
517.237	22312.31
517.604	22264.63
517.972	22532.19
518.339	22704.16
518.706	22827.55
519.073	22984.16
519.44	23068.22
519.808	23477.25
520.175	23352.96
520.542	23724.02
520.909	23877.01
521.276	23869.33
521.643	24164.92
522.009	24321.97
522.376	24440.84
522.743	24729.65
523.11	24885.57
523.477	25208.5
523.843	25412.79
524.21	25585.22
524.577	25758.32
524.943	25915.15
525.31	25951.54
525.676	26214.81
526.043	26478.98
526.409	26561.46
526.776	26860.89
527.142	26983.6
527.508	27143.82
527.874	27244.61
528.241	27452.74
528.607	27473.53
528.973	27788.32
529.339	27876.91
529.705	28161.19
530.071	28519.15
530.437	28440.06
530.803	28740.16
531.169	28837.11
531.535	28905.13
531.901	28965.24
532.267	29120.04
532.632	29366.13
532.998	29442.52
533.364	29647.26
533.73	29685.45
534.095	29936.52
534.461	29943.75
534.826	30193.23
535.192	30240.69
535.557	30379.89
535.923	30560
536.288	30699.66
536.653	31011.74
537.019	30657.17
537.384	31029.82
537.749	31086.77
538.114	31176.93
538.479	31336.93
538.845	31596.36
539.21	31529.69
539.575	31705.28
539.94	31922.23
540.305	32067.31
540.67	31927.2
541.034	32142.78
541.399	32148.89
541.764	32360.86
542.129	32580.29
542.494	32626.84
542.858	32707.06
543.223	32697.8
543.587	33151.12
543.952	33076.77
544.316	33133.72
544.681	33192.25
545.045	33501.85
545.41	33587.49
545.774	33702.97
546.138	33795.17
546.503	33940.03
546.867	34020.93
547.231	34214.37
547.595	34440.58
547.959	34542.27
548.324	34518.54
548.688	34582.49
549.052	34897.06
549.416	34925.76
549.779	35041.92
550.143	35105.87
550.507	35390.38
550.871	35545.63
551.235	35518.52
551.599	35811.39
551.962	35993.98
552.326	36068.78
552.689	36281.43
553.053	36250.93
553.417	36361.88
553.78	36907.86
554.143	36769.56
554.507	36964.35
554.87	37035.54
555.234	37462.64
555.597	37341.52
555.96	37508.75
556.323	37675.75
556.686	37816.76
557.05	38109.18
557.413	38183.76
557.776	38340.36
558.139	38519.57
558.502	38661.94
558.865	38853.34
559.228	38907.8
559.59	39212.66
559.953	39263.5
560.316	39627.11
560.679	39756.6
561.041	39873.43
561.404	40098.51
561.767	40306.64
562.129	40266.64
562.492	40592.28
562.854	40577.14
563.217	40809.45
563.579	41063.45
563.941	41284.69
564.304	41415.08
564.666	41684.91
565.028	41732.36
565.39	41712.25
565.753	42042.41
566.115	42250.09
566.477	42359.01
566.839	42564.21
567.201	42817.31
567.563	42736.63
567.925	43155.15
568.287	43083.74
568.648	43213.91
569.01	43445.76
569.372	43593.33
569.734	43624.06
570.095	43850.95
570.457	44050.95
570.819	44078.97
571.18	44114
571.542	44450.94
571.903	44509.69
572.265	44651.38
572.626	44765.73
572.987	44804.82
573.349	45012.28
573.71	45231.71
574.071	45200.75
574.432	45392.15
574.794	45671.24
575.155	45606.39
575.516	45456.56
575.877	45689.32
576.238	45843.44
576.599	46010.89
576.96	45938.58
577.32	46003.89
577.681	46233.49
578.042	46145.81
578.403	46222.19
578.763	46216.31
579.124	46448.85
579.485	46541.5
579.845	46651.78
580.206	46436.65
580.566	46532.69
580.927	46567.26
581.287	46826.92
581.648	46664.89
582.008	46829.86
582.368	46745.11
582.728	46805.22
583.089	46843.19
583.449	46707.15
583.809	46734.04
584.169	46890.65
584.529	46821.49
584.889	47090.41
585.249	46828.5
585.609	46864.88
585.969	47121.6
586.329	46929.74
586.688	46882.28
587.048	46998.67
587.408	46856.3
587.768	46949.85
588.127	46848.84
588.487	46972
588.846	47118.66
589.206	46962.51
589.565	47006.8
589.925	46999.8
590.284	46932
590.643	46993.24
591.003	47054.26
591.362	47263.74
591.721	47108.94
592.08	47209.51
592.44	47332.89
592.799	47239.56
593.158	47027.59
593.517	47225.33
593.876	47213.57
594.235	47225.78
594.593	47211.54
594.952	47243.86
595.311	47238.66
595.67	47258.09
596.029	47413.57
596.387	47448.6
596.746	47518.88
597.104	47320.01
597.463	47393.01
597.822	47526.79
598.18	47397.3
598.538	47411.54
598.897	47602.49
599.255	47252.9
599.613	47853.11
599.972	47549.16
600.33	47675.48
600.688	47543.51
601.046	47706.9
601.404	47758.19
601.762	47610.17
602.12	47790.51
602.478	47859.21
602.836	47869.83
603.194	47701.02
603.552	47778.53
603.91	47659.89
604.268	47848.36
604.625	47882.94
604.983	48029.37
605.341	47736.5
605.698	48042.71
606.056	48087.68
606.413	47943.05
606.771	48303.94
607.128	48209.48
607.485	48076.83
607.843	48148.24
608.2	48340.32
608.557	48442.92
608.914	48273.43
609.272	48520.66
609.629	48494.22
609.986	48584.84
610.343	48523.15
610.7	48771.73
611.057	48626.87
611.414	48658.73
611.771	48724.72
612.127	48795.91
612.484	48717.72
612.841	48894.21
613.198	48864.83
613.554	48892.4
613.911	49030.48
614.267	48974.43
614.624	48995.67
614.98	49032.51
615.337	49263.69
615.693	49201.55
616.05	49155.9
616.406	49393.4
616.762	49312.05
617.118	49302.11
617.475	49374.2
617.831	49336.46
618.187	49425.72
618.543	49459.39
618.899	49624.81
619.255	49477.92
619.611	49525.83
619.967	49700.29
620.323	49675.66
620.678	49585.04
621.034	49503.01
621.39	49439.28
621.746	49515.21
622.101	49874.52
622.457	49595.21
622.812	49586.62
623.168	49648.31
623.523	49724.47
623.879	49792.49
624.234	49552.04
624.589	49655.32
624.945	49783.68
625.3	49830.68
625.655	49743.68
626.01	49761.08
626.365	49827.07
626.72	49707.07
627.075	49687.41
627.43	49654.19
627.785	49548.88
628.14	49706.39
628.495	49725.6
628.85	49646.28
629.205	49486.51
629.559	49776.45
629.914	49668.2
630.269	49473.4
630.623	49480.18
630.978	49347.98
631.332	49616.68
631.687	49571.71
632.041	49468.43
632.396	49566.06
632.75	49330.36
633.104	49406.74
633.459	49279.28
633.813	49237.48
634.167	49260.53
634.521	49203.13
634.875	49375.78
635.229	49180.75
635.583	48914.77
635.937	49035.9
636.291	49029.57
636.645	49004.04
636.999	48933.08
637.352	48960.65
637.706	48787.09
638.06	48975.79
638.413	48875.68
638.767	48707.55
639.121	48858.28
639.474	48520.43
639.828	48523.15
640.181	48744.83
640.534	48668
640.888	48649.7
641.241	48366.31
641.594	48429.59
641.947	48532.64
642.301	48360.44
642.654	48496.71
643.007	48322.02
643.36	48345.3
643.713	48232.31
644.066	48503.26
644.419	48147.56
644.771	47811.3
645.124	47584.41
645.477	47441.37
645.83	47178.55
646.182	47113.69
646.535	46931.1
646.888	47110.07
647.24	46756.19
647.593	47048.61
647.945	46954.15
648.298	46870.76
648.65	46662.63
649.002	46583.31
649.355	46803.87
649.707	46596.19
650.059	46752.12
650.411	47203.41
650.763	47209.51
651.115	47475.04
651.467	47318.43
651.819	47487.01
652.171	47363.85
652.523	47271.65
652.875	47215.38
653.227	47080.92
653.578	47452.21
653.93	47273.01
654.282	47071.21
654.633	46891.55
654.985	47104.2
655.337	47061.26
655.688	46913.02
656.039	47239.11
656.391	46853.81
656.742	46988.72
657.094	46809.52
657.445	47073.47
657.796	46848.61
658.147	46863.75
658.498	46804.55
658.849	46910.53
659.2	46687.26
659.551	46738.56
659.902	46882.28
660.253	46704.89
660.604	46785.56
660.955	46475.52
661.306	46772.68
661.656	46758.67
662.007	46511.9
662.358	46611.78
662.708	46605
663.059	46555.97
663.409	46295.41
663.76	46426.03
664.11	46444.33
664.461	46490.66
664.811	46488.85
665.161	46570.43
665.511	46361.17
665.862	46448.4
666.212	46466.02
666.562	46337.21
666.912	46459.92
667.262	46214.73
667.612	46342.41
667.962	46320.49
668.312	46085.02
668.662	46405.01
669.011	46234.62
669.361	46270.1
669.711	46216.77
670.06	46165.01
670.41	46008.63
670.76	45922.54
671.109	46089.99
671.459	45967.96
671.808	45925.02
672.157	45913.27
672.507	45684.58
672.856	45744.24
673.205	45828.53
673.554	45969.54
673.904	45777.23
674.253	45919.6
674.602	45903.55
674.951	45153.06
675.3	45109.45
675.649	45564.58
675.998	45517.35
676.346	45546.5
676.695	45727.06
677.044	45335.88
677.393	45450.68
677.741	45425.15
678.09	45319.16
678.438	45276.9
678.787	45273.29
679.135	45212.72
679.484	44997.36
679.832	45270.12
680.181	44829
680.529	45142.22
680.877	44939.06
681.225	44794.88
681.573	44980.41
681.922	44808.89
682.27	44576.36
682.618	44629.69
682.966	44586.53
683.314	44540.65
683.661	44555.57
684.009	44168.68
684.357	44313.09
684.705	44196.93
685.053	44208.46
685.4	44103.15
685.748	43913.32
686.095	43963.72
686.443	43838.75
686.79	43617.06
687.138	43736.38
687.485	43667.45
687.832	43630.39
688.18	43632.43
688.527	43381.59
688.874	43309.72
689.221	43153.57
689.568	42990.41
689.915	42900.24
690.262	42974.59
690.609	42824.99
690.956	42853.46
691.303	42728.27
691.65	42430.2
691.997	42496.18
692.344	42242.63
692.69	42189.98
693.037	42251.22
693.383	41742.76
693.73	42001.73
694.077	41657.56
694.423	41677.68
694.769	41476.32
695.116	41530.56
695.462	41573.72
695.808	41283.34
696.155	41319.72
696.501	40980.29
696.847	41055.32
697.193	40877.7
697.539	41067.3
697.885	40672.28
698.231	40570.13
698.577	40422.12
698.923	40474.32
699.269	40211.05
699.614	40075.01
699.96	39993.2
700.306	40040.66
700.651	39787.78
700.997	39757.05
701.342	39806.54
701.688	39581.91
702.033	39545.08
702.379	39505.08
702.724	39319.55
703.069	39466.89
703.415	38970.63
703.76	39068.93
704.105	38927.24
704.45	38879.1
704.795	38728.83
705.14	38655.38
705.485	38636.4
705.83	38371.55
706.175	38515.72
706.52	38379.91
706.865	38158.67
707.209	38148.05
707.554	38023.08
707.899	38158.9
708.243	37865.35
708.588	37852.24
708.932	37555.52
709.277	37540.38
709.621	37608.4
709.966	37411.8
710.31	37347.39
710.654	37035.31
710.998	37208.19
711.342	37169.77
711.687	37094.97
712.031	36963.67
712.375	36883.23
712.719	37058.14
713.063	36809.33
713.407	36921.19
713.75	36707.64
714.094	36660.86
714.438	36563.46
714.782	36627.86
715.125	36307.87
715.469	36450.69
715.812	36127.54
716.156	36068.56
716.499	36043.7
716.843	36080.76
717.186	35709.47
717.53	36009.8
717.873	35985.85
718.216	35820.43
718.559	35674.22
718.902	35559.64
719.246	35514.45
719.589	35466.99
719.932	35185.87
720.275	35305.41
720.617	35160.78
720.96	35201.24
721.303	35061.35
721.646	35111.52
721.989	34797.86
722.331	35014.8
722.674	34949.04
723.016	34903.16
723.359	34857.29
723.701	34805.99
724.044	34666.79
724.386	34428.6
724.729	34676.28
725.071	34602.83
725.413	34406.23
725.755	34366.68
726.097	34250.53
726.439	34153.58
726.782	34145.44
727.124	34428.6
727.465	34184.76
727.807	34141.6
728.149	34014.15
728.491	33980.48
728.833	34057.31
729.175	33904.55
729.516	33867.71
729.858	33817.77
730.199	33776.87
730.541	33628.85
730.882	33643.54
731.224	33880.37
731.565	33447.16
731.906	33570.32
732.248	33497.33
732.589	33293.71
732.93	33162.19
733.271	33312.02
733.612	33323.54
733.953	33241.51
734.294	33090.78
734.635	32950.45
734.976	33256.43
735.317	32952.03
735.658	32917.91
735.999	32887.62
736.339	32776.67
736.68	32826.83
737.021	32740.96
737.361	32597.91
737.702	32710.23
738.042	32648.76
738.383	32559.27
738.723	32621.42
739.063	32433.4
739.404	32483.57
739.744	32407.41
740.084	32334.64
740.424	32298.71
740.764	32140.98
741.104	32395.89
741.444	32065.27
741.784	32087.42
742.124	32174.2
742.464	32005.39
742.804	31958.38
743.143	31913.19
743.483	31790.25
743.823	31698.5
744.162	31712.29
744.502	31767.43
744.841	31479.07
745.181	31705.73
745.52	31459.86
745.86	31515.23
746.199	31484.5
746.538	31441.11
746.877	31381.9
747.216	31338.51
747.556	31261.68
747.895	31329.7
748.234	31091.29
748.573	31173.09
748.911	31026.2
749.25	31090.84
749.589	30930.84
749.928	30924.96
750.267	30808.36
750.605	30819.2
750.944	30798.19
751.283	30529.27
751.621	30696.27
751.96	30445.88
752.298	30479.33
752.636	30458.54
752.975	30313
753.313	30153.23
753.651	30371.76
753.989	30077.53
754.327	30092.22
754.666	29965.67
755.004	29943.97
755.342	30007.47
755.679	29856.29
756.017	29635.73
756.355	29718.67
756.693	29535.4
757.031	29576.98
757.368	29456.75
757.706	29413.82
758.044	29304.89
758.381	29301.5
758.719	29148.74
759.056	29316.19
759.394	29081.4
759.731	28923.66
760.068	28738.13
760.405	28883.66
760.743	28672.37
761.08	28809.99
761.417	28511.69
761.754	28409.1
762.091	28453.16
762.428	28314.41
762.765	28201.87
763.102	28252.27
763.438	28145.15
763.775	27882.11
764.112	27955.78
764.449	27967.08
764.785	27815.89
765.122	27597.82
765.458	27573.41
765.795	27518.5
766.131	27522.12
766.467	27445.06
766.804	27284.16
767.14	27052.75
767.476	27070.38
767.812	27000.1
768.148	27008.46
768.485	26862.02
768.821	26698.86
769.157	26622.25
769.492	26709.93
769.828	26563.5
770.164	26343.84
770.5	26250.28
770.836	26347.46
771.171	26092.1
771.507	26012.78
771.842	25820.24
772.178	25801.93
772.513	25808.94
772.849	25629.96
773.184	25463.19
773.519	25510.42
773.855	25365.11
774.19	25242.85
774.525	25195.4
774.86	25187.04
775.195	25165.12
775.53	25139.13
775.865	24794.28
776.2	24735.3
776.535	24449.2
776.87	24522.42
777.205	24434.74
777.539	24334.18
777.874	24385.25
778.209	24191.81
778.543	24018.7
778.878	24012.15
779.212	23991.81
779.547	23874.08
779.881	23903.45
780.215	23694.19
780.55	23686.28
780.884	23624.36
781.218	23454.2
781.552	23397.48
781.886	23388.66
782.22	23222.34
782.554	23110.71
782.888	22966.3
783.222	22846.31
783.556	22760.88
783.889	22723.6
784.223	22664.84
784.557	22623.94
784.89	22599.76
785.224	22421.68
785.557	22378.75
785.891	22232.54
786.224	22260.33
786.558	22183.95
786.891	21992.09
787.224	21971.07
787.557	21800.23
787.891	21840
788.224	21803.4
788.557	21729.05
788.89	21623.29
789.223	21705.32
789.556	21456.51
789.888	21446.34
790.221	21253.81
790.554	21108.5
790.887	21192.56
791.219	21049.74
791.552	21067.14
791.884	20923.19
792.217	20935.85
792.549	20726.59
792.882	20685.68
793.214	20579.02
793.546	20602.75
793.879	20550.32
794.211	20476.65
794.543	20483.88
794.875	20335.64
795.207	20437.56
795.539	20237.56
795.871	20240.5
796.203	20129.32
796.535	19912.15
796.867	19889.1
797.198	19837.35
797.53	19788.31
797.862	19749.44
798.193	19737.46
798.525	19577.47
798.856	19601.87
799.188	19469.67
799.519	19382.44
799.85	19331.14
800.182	19253.86
800.513	19212.73
800.844	19081.43
801.175	19172.5
801.506	19160.75
801.837	18996.92
802.168	18946.3
802.499	18902.23
802.83	18687.77
803.161	18718.73
803.491	18744.27
803.822	18686.42
804.153	18659.07
804.483	18483.48
804.814	18347.89
805.145	18399.87
805.475	18392.64
805.805	18273.54
806.136	18336.37
806.466	18272.19
806.796	18148.8
807.126	18022.48
807.457	18052.08
807.787	18015.47
808.117	17935.02
808.447	17983.61
808.777	17939.32
809.107	17854.35
809.436	17759.66
809.766	17719.66
810.096	17594.01
810.426	17622.71
810.755	17607.8
811.085	17563.28
811.414	17464.75
811.744	17443.06
812.073	17303.4
812.403	17318.99
812.732	17096.85
813.061	17203.29
813.39	17135.95
813.719	17072.67
814.049	17094.14
814.378	17198.77
814.707	17087.81
815.036	17039.91
815.365	16933.47
815.693	16733.7
816.022	16714.26
816.351	16691.67
816.68	16700.25
817.008	16736.18
817.337	16598.79
817.665	16482.18
817.994	16564.21
818.322	16527.38
818.651	16447.15
818.979	16400.15
819.307	16480.37
819.636	16320.15
819.964	16309.53
820.292	16410.09
820.62	16307.72
820.948	16167.84
821.276	16246.03
821.604	16180.72
821.932	16241.96
822.259	16315.4
822.587	16153.15
822.915	16159.25
823.243	16262.3
823.57	16103.88
823.898	16164
824.225	16147.5
824.553	16126.26
824.88	16109.08
825.207	16175.52
825.535	16098.46
825.862	16178.23
826.189	15996.77
826.516	16133.71
826.843	16187.5
827.17	16201.74
827.497	16039.03
827.824	16076.09
828.151	16070.21
828.478	16149.53
828.805	16247.61
829.131	15995.86
829.458	16076.54
829.785	16078.12
830.111	16072.25
830.438	16056.65
830.764	16065.92
831.09	16035.86
831.417	15973.72
831.743	16104.11
832.069	16001.51
832.395	15918.13
832.722	15975.3
833.048	15815.98
833.374	15977.11
833.7	15879.26
834.026	15901.18
834.351	15935.98
834.677	15877.22
835.003	15935.53
835.329	15869.77
835.654	15742.99
835.98	15738.47
836.306	15728.98
836.631	15740.28
836.956	15759.94
837.282	15733.27
837.607	15707.06
837.932	15582.77
838.258	15609.21
838.583	15571.7
838.908	15555.88
839.233	15643.78
839.558	15540.28
839.883	15422.77
840.208	15431.13
840.533	15473.17
840.858	15439.72
841.182	15352.04
841.507	15418.7
841.832	15299.16
842.156	15291.25
842.481	15146.4
842.805	15316.11
843.13	15128.54
843.454	15139.16
843.778	15089.67
844.103	15059.17
844.427	15026.17
844.751	14961.09
845.075	14964.03
845.399	14905.05
845.723	14809.23
846.047	14863.01
846.371	14660.98
846.695	14623.47
847.019	14620.31
847.343	14520.42
847.666	14561.1
847.99	14378.96
848.313	14397.26
848.637	14361.33
848.96	14261.67
849.284	14277.27
849.607	14120.43
849.931	14141.68
850.254	14035.24
850.577	13967.44
850.9	13909.59
851.223	13853.32
851.546	13737.84
851.869	13769.71
852.192	13785.08
852.515	13567.91
852.838	13573.78
853.161	13614.23
853.483	13470.73
853.806	13471.19
854.129	13439.55
854.451	13367.69
854.774	13248.37
855.096	13276.84
855.419	13207.46
855.741	13189.16
856.063	13103.96
856.385	13145.54
856.708	13105.55
857.03	13060.12
857.352	13066.9
857.674	13020.8
857.996	12844.99
858.318	12880.69
858.64	12804.54
858.961	12802.5
859.283	12739
859.605	12692.45
859.926	12718.44
860.248	12669.4
860.57	12558.67
860.891	12568.61
861.212	12597.31
861.534	12534.71
861.855	12552.79
862.176	12503.53
862.498	12498.33
862.819	12471.44
863.14	12419.24
863.461	12310.54
863.782	12356.64
864.103	12361.16
864.424	12334.04
864.745	12375.85
865.065	12192.12
865.386	12181.73
865.707	12256.08
866.027	12188.51
866.348	12187.38
866.668	12215.63
866.989	12132.92
867.309	11985.12
867.63	12079.58
867.95	12051.79
868.27	12028.74
868.59	12035.29
868.91	11895.63
869.23	11940.15
869.55	11889.53
869.87	11941.28
870.19	11855.18
870.51	11937.44
870.83	11877.1
871.15	11825.35
871.469	11799.82
871.789	11823.09
872.109	11784
872.428	11706.26
872.748	11734.28
873.067	11752.36
873.386	11743.55
873.706	11706.03
874.025	11704.45
874.344	11629.65
874.663	11691.35
874.982	11698.8
875.301	11568.18
875.62	11658.35
875.939	11619.71
876.258	11586.04
876.577	11475.08
876.896	11506.04
877.214	11421.52
877.533	11465.81
877.852	11443.22
878.17	11526.38
878.489	11413.16
878.807	11475.08
879.125	11397.79
879.444	11346.5
879.762	11324.58
880.08	11336.55
880.398	11276.21
880.716	11317.8
881.034	11269.66
881.352	11221.3
881.67	11237.8
881.988	11262.2
882.306	11163.9
882.624	11172.94
882.941	11162.55
883.259	11075.99
883.577	11042.1
883.894	11001.42
884.212	10985.83
884.529	10948.09
884.846	10998.93
885.164	10996.22
885.481	10950.8
885.798	10949.9
886.115	10757.36
886.432	10898.82
886.75	10701.09
887.067	10759.17
887.383	10705.83
887.7	10723.23
888.017	10777.47
888.334	10715.33
888.651	10639.17
888.967	10626.29
889.284	10587.19
889.6	10507.42
889.917	10388.55
890.233	10452.28
890.55	10459.51
890.866	10536.8
891.182	10388.1
891.498	10362.11
891.815	10291.83
892.131	10297.94
892.447	10280.76
892.763	10236.24
893.079	10267.43
893.395	10202.57
893.71	10118.28
894.026	10123.93
894.342	10158.28
894.657	10010.94
894.973	10021.11
895.289	10002.35
895.604	9918.74
895.92	9883.26
896.235	9830.38
896.55	9825.41
896.865	9793.54
897.181	9796.48
897.496	9813.43
897.811	9756.03
898.126	9695.92
898.441	9711.06
898.756	9653.43
899.071	9507.22
899.386	9604.62
899.7	9480.33
900.015	9470.16
900.33	9341.58
900.644	9358.3
900.959	9383.38
901.273	9275.14
901.588	9327.34
901.902	9222.94
902.216	9285.98
902.531	9186.55
902.845	9201.47
903.159	9137.51
903.473	9106.78
903.787	9083.73
904.101	9003.51
904.415	9013.22
904.729	8994.01
905.042	9016.39
905.356	8908.37
905.67	8951.08
905.984	8925.99
906.297	8821.14
906.611	8751.76
906.924	8789.27
907.237	8709.73
907.551	8696.17
907.864	8574.59
908.177	8636.06
908.491	8611.43
908.804	8488.72
909.117	8473.8
909.43	8448.72
909.743	8448.27
910.056	8392.22
910.368	8381.83
910.681	8337.08
910.994	8314.48
911.307	8240.14
911.619	8221.38
911.932	8244.43
912.244	8172.34
912.557	8184.09
912.869	8114.49
913.181	8096.41
913.494	8084.66
913.806	7935.74
914.118	7965.12
914.43	7909.75
914.742	7951.33
915.054	7846.47
915.366	7818.23
915.678	7756.99
915.99	7806.25
916.302	7717.66
916.613	7666.37
916.925	7686.25
917.236	7651.68
917.548	7611
917.859	7618.23
918.171	7520.38
918.482	7441.06
918.794	7489.42
919.105	7438.35
919.416	7389.76
919.727	7440.84
920.038	7367.39
920.349	7298.69
920.66	7283.55
920.971	7273.16
921.282	7252.14
921.593	7186.83
921.903	7123.56
922.214	7128.08
922.525	7134.63
922.835	7103.44
923.146	7010.56
923.456	6996.55
923.767	6999.72
924.077	7002.65
924.387	6944.58
924.697	6874.52
925.008	6891.25
925.318	6814.19
925.628	6791.59
925.938	6824.81
926.248	6802.21
926.558	6775.09
926.867	6754.98
927.177	6706.39
927.487	6600.86
927.796	6547.75
928.106	6578.71
928.416	6537.58
928.725	6499.17
929.034	6480.41
929.344	6499.84
929.653	6474.99
929.962	6413.74
930.271	6364.71
930.581	6329.45
930.89	6313.18
931.199	6265.05
931.508	6280.41
931.817	6210.59
932.125	6194.31
932.434	6249.45
932.743	6163.81
933.051	6161.77
933.36	6111.15
933.669	6120.19
933.977	5999.74
934.286	6028.44
934.594	6040.65
934.902	5997.71
935.21	5994.32
935.519	5946.19
935.827	5856.24
936.135	5867.54
936.443	5810.14
936.751	5849.01
937.059	5804.49
937.367	5767.43
937.674	5766.3
937.982	5783.48
938.29	5674.1
938.597	5720.88
938.905	5651.5
939.213	5605.86
939.52	5580.09
939.827	5640.88
940.135	5532.41
940.442	5536.7
940.749	5476.59
941.056	5484.05
941.363	5449.7
941.67	5413.32
941.977	5418.74
942.284	5389.14
942.591	5363.38
942.898	5318.86
943.205	5328.12
943.511	5287.45
943.818	5245.19
944.125	5226.2
944.431	5263.94
944.738	5218.97
945.044	5194.57
945.35	5190.05
945.657	5147.34
945.963	5147.34
946.269	5126.77
946.575	5128.13
946.881	5051.29
947.187	5041.12
947.493	4990.73
947.799	5018.53
948.105	4981.69
948.41	4944.4
948.716	4855.59
949.022	4854.46
949.327	4888.13
949.633	4800.68
949.938	4806.55
950.244	4824.18
950.549	4805.2
950.854	4777.85
951.16	4745.09
951.465	4710.29
951.77	4709.83
952.075	4642.26
952.38	4658.54
952.685	4635.49
952.99	4633
953.294	4576.28
953.599	4574.92
953.904	4547.8
954.209	4522.72
954.513	4555.49
954.818	4470.97
955.122	4491.76
955.426	4445.66
955.731	4410.41
956.035	4405.44
956.339	4401.37
956.643	4395.27
956.948	4343.06
957.252	4335.15
957.556	4322.27
957.86	4274.14
958.163	4268.72
958.467	4265.78
958.771	4258.09
959.075	4241.82
959.378	4226
959.682	4253.57
959.985	4165.22
960.289	4176.97
960.592	4158.66
960.896	4112.56
961.199	4123.63
961.502	4085.22
961.805	4088.16
962.108	4012
962.411	4065.78
962.714	4023.75
963.017	4008.84
963.32	3980.14
963.623	3911.66
963.926	3940.81
964.228	3912.34
964.531	3899.69
964.833	3880.48
965.136	3869.18
965.438	3840.93
965.741	3852.23
966.043	3846.58
966.345	3795.96
966.648	3804.77
966.95	3776.75
967.252	3742.63
967.554	3711.22
967.856	3734.04
968.158	3708.5
968.46	3715.51
968.761	3673.48
969.063	3685.68
969.365	3669.18
969.666	3648.62
969.968	3631.22
970.269	3589.41
970.571	3574.72
970.872	3570.43
971.174	3552.58
971.475	3523.2
971.776	3497.89
972.077	3529.3
972.378	3508.74
972.679	3438
972.98	3463.09
973.281	3439.81
973.582	3440.04
973.883	3450.66
974.183	3388.74
974.484	3412.92
974.785	3422.86
975.085	3340.15
975.386	3346.25
975.686	3314.39
975.986	3276.88
976.287	3294.73
976.587	3266.48
976.887	3279.59
977.187	3269.19
977.487	3236.2
977.787	3205.01
978.087	3173.15
978.387	3209.99
978.687	3172.93
978.987	3157.33
979.286	3187.39
979.586	3159.37
979.885	3135.86
980.185	3132.25
980.484	3124.11
980.784	3084.57
981.083	3054.28
981.382	3081.63
981.682	3063.55
981.981	3035.08
982.28	3045.24
982.579	2971.57
982.878	3002.31
983.177	2972.48
983.475	2991.01
983.774	2964.57
984.073	2916.89
984.372	2923.21
984.67	2927.96
984.969	2886.6
985.267	2913.27
985.566	2864.46
985.864	2860.39
986.162	2870.33
986.461	2809.54
986.759	2803.9
987.057	2781.3
987.355	2771.58
987.653	2801.41
987.951	2779.49
988.249	2727.29
988.547	2730.9
988.844	2725.03
989.142	2692.03
989.44	2716.89
989.737	2681.86
990.035	2668.31
990.332	2654.97
990.63	2685.93
990.927	2644.35
991.224	2612.71
991.521	2620.4
991.819	2613.62
992.116	2598.48
992.413	2569.33
992.71	2565.71
993.006	2587.63
993.303	2544.02
993.6	2566.16
993.897	2501.53
994.193	2502.21
994.49	2495.65
994.787	2483.9
995.083	2466.28
995.379	2466.5
995.676	2428.76
995.972	2444.13
996.268	2408.2
996.565	2401.42
996.861	2411.14
997.157	2360.07
997.453	2365.94
997.749	2355.32
998.044	2326.62
998.34	2373.17
998.636	2329.56
998.932	2267.41
999.227	2302.21
999.523	2296.34
999.818	2261.08
1000.114	2258.82
1000.409	2254.98
1000.704	2245.04
1001	2252.5
1001.295	2210.01
1001.59	2192.61
1001.885	2223.8
1002.18	2190.58
1002.475	2185.61
1002.77	2149.45
1003.065	2156.45
1003.359	2125.04
1003.654	2176.79
1003.949	2095.44
1004.243	2091.82
1004.538	2080.75
1004.832	2059.06
1005.127	2082.56
1005.421	2062.22
1005.715	2028.32
1006.009	2024.48
1006.304	2025.16
1006.598	2017.48
1006.892	2016.35
1007.186	2019.06
1007.48	1987.65
1007.773	1957.14
1008.067	1965.5
1008.361	1928.66
1008.655	1923.01
1008.948	1919.17
1009.242	1914.2
1009.535	1910.13
1009.829	1901.77
1010.122	1871.72
1010.415	1871.94
1010.708	1820.19
1011.001	1845.5
1011.295	1837.82
1011.588	1835.56
1011.881	1806.41
1012.173	1785.62
1012.466	1818.38
1012.759	1772.06
1013.052	1795.11
1013.344	1775.67
1013.637	1736.58
1013.93	1755.79
1014.222	1721.44
1014.514	1735.22
1014.807	1712.17
1015.099	1685.05
1015.391	1717.6
1015.683	1683.47
1015.976	1676.02
1016.268	1662.46
1016.56	1644.15
1016.851	1619.52
1017.143	1624.94
1017.435	1613.87
1017.727	1612.29
1018.018	1601.21
1018.31	1610.48
1018.602	1600.99
1018.893	1600.31
1019.185	1566.41
1019.476	1522.12
1019.767	1544.04
1020.058	1513.76
1020.35	1551.05
1020.641	1526.64
1020.932	1481.44
1021.223	1503.82
1021.514	1488.45
1021.804	1468.79
1022.095	1441.45
1022.386	1447.09
1022.677	1417.72
1022.967	1409.13
1023.258	1416.36
1023.548	1391.5
1023.839	1407.32
1024.129	1393.76
1024.419	1414.78
1024.709	1400.32
1025	1357.61
1025.29	1371.62
1025.58	1343.37
1025.87	1322.58
1026.16	1319.87
1026.449	1319.87
1026.739	1321
1027.029	1319.87
1027.319	1276.03
1027.608	1289.13
1027.898	1287.32
1028.187	1311.51
1028.477	1252.75
1028.766	1265.18
1029.055	1237.83
1029.344	1225.41
1029.634	1238.29
1029.923	1225.63
1030.212	1239.19
1030.501	1225.18
1030.79	1196.48
1031.078	1194.67
1031.367	1184.95
1031.656	1174.33
1031.945	1174.56
1032.233	1201
1032.522	1156.25
1032.81	1136.14
1033.099	1132.75
1033.387	1122.13
1033.675	1112.19
1033.963	1091.17
1034.251	1133.88
1034.54	1102.47
1034.828	1091.62
1035.116	1070.16
1035.403	1085.07
1035.691	1051.4
1035.979	1047.33
1036.267	1029.48
1036.554	1038.29
1036.842	1060.21
1037.129	1024.73
1037.417	1045.07
1037.704	1012.3
1037.992	1035.81
1038.279	991.74
1038.566	1018.86
1038.853	1018.86
1039.14	1018.86
