Data from White_paper_FLMS001491_028.txt Node
Date: Tue Feb 07 10:34:52 GMT 2017
User: dcchb
Spectrometer: FLMS00149
Trigger mode: 0
Integration Time (sec): 2.000000E-2
Scans to average: 10
Electric dark correction enabled: true
Nonlinearity correction enabled: false
Boxcar width: 0
XAxis mode: Wavelengths
Number of Pixels in Spectrum: 2048
>>>>>Begin Spectral Data<<<<<
341.393	-19.07
341.776	-19.07
342.16	-19.07
342.543	-69.46
342.927	-71.72
343.31	-67.65
343.693	-64.26
344.077	-62.46
344.46	-52.74
344.843	-66.75
345.226	-62.46
345.61	-17.49
345.993	-18.16
346.376	12.57
346.759	32.68
347.142	31.78
347.525	27.03
347.908	53.02
348.291	70.2
348.674	93.47
349.057	91.21
349.44	118.33
349.823	119.91
350.206	166.69
350.588	221.83
350.971	237.88
351.354	229.51
351.737	273.81
352.119	275.39
352.502	306.57
352.884	309.06
353.267	313.81
353.65	317.65
354.032	333.47
354.414	352.67
354.797	336.63
355.179	345.67
355.562	360.81
355.944	353.35
356.326	384.54
356.709	347.93
357.091	366.91
357.473	354.93
357.855	368.49
358.238	382.5
358.62	403.07
359.002	384.99
359.384	368.72
359.766	391.77
360.148	363.3
360.53	365.56
360.912	377.08
361.294	362.84
361.676	368.27
362.057	374.37
362.439	382.28
362.821	368.72
363.203	356.06
363.584	369.62
363.966	378.21
364.348	389.96
364.729	372.79
365.111	379.79
365.493	362.84
365.874	351.77
366.256	365.78
366.637	360.36
367.019	372.11
367.4	366.23
367.781	345.44
368.163	379.57
368.544	374.59
368.925	365.56
369.306	363.07
369.688	351.54
370.069	364.2
370.45	360.13
370.831	370.53
371.212	358.32
371.593	379.34
371.974	375.5
372.355	354.26
372.736	374.14
373.117	379.57
373.498	378.89
373.879	374.59
374.26	365.78
374.641	363.75
375.021	365.78
375.402	397.64
375.783	394.48
376.163	381.37
376.544	391.09
376.925	427.7
377.305	405.1
377.686	383.86
378.066	404.88
378.447	408.04
378.827	412.79
379.208	398.55
379.588	384.09
379.968	402.39
380.349	400.36
380.729	409.85
381.109	412.79
381.489	405.78
381.87	393.35
382.25	415.72
382.63	430.86
383.01	429.96
383.39	424.08
383.77	419.11
384.15	441.49
384.53	443.52
384.91	440.36
385.29	441.71
385.67	480.13
386.049	436.97
386.429	455.72
386.809	473.8
387.189	489.39
387.568	464.54
387.948	461.37
388.328	471.32
388.707	483.97
389.087	478.55
389.466	487.59
389.846	507.92
390.225	474.25
390.605	520.81
390.984	508.15
391.363	525.1
391.743	495.5
392.122	517.42
392.501	523.97
392.881	516.51
393.26	542.27
393.639	550.64
394.018	532.78
394.397	557.87
394.776	535.95
395.155	540.92
395.534	568.94
395.913	575.04
396.292	588.6
396.671	580.24
397.05	601.03
397.429	601.03
397.808	595.61
398.186	588.37
398.565	600.35
398.944	595.83
399.323	619.33
399.701	625.21
400.08	629.05
400.458	635.15
400.837	658.65
401.215	664.08
401.594	655.72
401.972	667.02
402.351	675.6
402.729	695.26
403.107	720.57
403.486	711.76
403.864	730.52
404.242	714.25
404.62	753.12
404.999	776.84
405.377	787.47
405.755	766.22
406.133	808.93
406.511	822.49
406.889	843.06
407.267	844.41
407.645	861.14
408.023	897.52
408.401	893.23
408.779	912.89
409.156	944.52
409.534	969.16
409.912	972.77
410.29	1008.02
410.667	1046.44
411.045	1044.63
411.422	1079.89
411.8	1097.74
412.178	1118.08
412.555	1168.25
412.933	1201.47
413.31	1209.15
413.687	1229.71
414.065	1272.2
414.442	1286.21
414.819	1325.76
415.197	1323.27
415.574	1406.21
415.951	1422.93
416.328	1424.28
416.705	1462.48
417.082	1475.36
417.46	1534.34
417.837	1545.64
418.214	1551.29
418.591	1597.84
418.967	1641
419.344	1652.75
419.721	1646.88
420.098	1678.29
420.475	1715.8
420.852	1721.23
421.228	1775.46
421.605	1774.56
421.982	1801
422.358	1836.93
422.735	1862.24
423.111	1894.33
423.488	1946.08
423.864	1930.03
424.241	1959.64
424.617	2001.44
424.994	1987.89
425.37	2042.8
425.746	2057.04
426.123	2093.42
426.499	2101.55
426.875	2142.46
427.251	2190.14
427.627	2216.58
428.003	2264.04
428.379	2283.92
428.756	2315.56
429.132	2338.61
429.507	2390.36
429.883	2446.4
430.259	2490.92
430.635	2503.35
431.011	2520.98
431.387	2614.31
431.763	2631.03
432.138	2645.27
432.514	2656.79
432.89	2681.2
433.265	2771.82
433.641	2837.81
434.016	2850.01
434.392	2885.49
434.767	2919.16
435.143	2952.61
435.518	2969.33
435.894	2994.86
436.269	3069.67
436.644	3118.25
437.02	3118.03
437.395	3122.09
437.77	3225.82
438.145	3258.36
438.52	3271.24
438.895	3297.91
439.271	3316.89
439.646	3401.41
440.021	3451.35
440.395	3458.81
440.77	3427.17
441.145	3463.33
441.52	3539.71
441.895	3525.92
442.27	3588.75
442.645	3601.4
443.019	3642.76
443.394	3603.44
443.769	3701.29
444.143	3616.32
444.518	3713.26
444.892	3748.74
445.267	3733.83
445.641	3790.55
446.016	3809.08
446.39	3831.9
446.764	3835.29
447.139	3842.75
447.513	3911
447.887	3959.59
448.262	3938.57
448.636	3947.83
449.01	4026.93
449.384	4068.28
449.758	4063.99
450.132	4143.76
450.506	4159.13
450.88	4166.81
451.254	4176.75
451.628	4230.99
452.002	4297.66
452.376	4303.76
452.75	4355.51
453.123	4375.39
453.497	4468.95
453.871	4477.99
454.244	4559.57
454.618	4602.28
454.992	4639.34
455.365	4659.45
455.739	4775.38
456.112	4835.49
456.486	4875.72
456.859	4893.57
457.232	5003.63
457.606	5035.72
457.979	5054.25
458.352	5151.64
458.725	5249.04
459.099	5277.29
459.472	5332.2
459.845	5360.23
460.218	5437.74
460.591	5523.39
460.964	5499.21
461.337	5654.46
461.71	5755.47
462.083	5783.72
462.456	5858.07
462.829	5851.06
463.201	5985.75
463.574	6002.47
463.947	6110.49
464.32	6217.6
464.692	6260.77
465.065	6298.28
465.438	6443.59
465.81	6505.96
466.183	6558.16
466.555	6705.05
466.928	6728.33
467.3	6757.03
467.672	6863.24
468.045	7047.87
468.417	7079.96
468.789	7101.65
469.161	7243.34
469.534	7331.93
469.906	7479.27
470.278	7562.88
470.65	7666.83
471.022	7773.5
471.394	7960.38
471.766	7952.47
472.138	8047.61
472.51	8274.05
472.882	8403.99
473.253	8510.65
473.625	8586.36
473.997	8782.74
474.369	8847.59
474.74	8954.48
475.112	9057.76
475.484	9267.92
475.855	9405.77
476.227	9494.35
476.598	9722.37
476.97	9784.74
477.341	10012.99
477.713	10141.8
478.084	10224.96
478.455	10537.49
478.827	10641.44
479.198	10918.05
479.569	10886.63
479.94	11231.71
480.311	11284.36
480.682	11608.65
481.053	11833.73
481.424	11972.71
481.795	12106.26
482.166	12381.51
482.537	12483.43
482.908	12727.04
483.279	12889.75
483.65	13140.36
484.021	13280.7
484.391	13463.06
484.762	13548.26
485.133	13616.05
485.503	13847.01
485.874	14239.09
486.244	14334.45
486.615	14659.64
486.985	14735.57
487.356	14984.61
487.726	15130.14
488.097	15428.21
488.467	15507.98
488.837	15742.55
489.207	15941.19
489.578	16183.44
489.948	16412.14
490.318	16505.24
490.688	16604.22
491.058	16805.12
491.428	17135.51
491.798	17233.13
492.168	17646.46
492.538	17671.99
492.908	17878.54
493.278	18037.41
493.648	18067.91
494.017	18292.54
494.387	18520.33
494.757	18628.58
495.126	18806.43
495.496	18888.23
495.866	19028.57
496.235	19211.39
496.605	19395.11
496.974	19513.98
497.344	19646.4
497.713	19828.32
498.082	20034.42
498.452	20253.85
498.821	20275.09
499.19	20407.29
499.559	20556.44
499.928	20631.92
500.298	20767.05
500.667	20983.32
501.036	20945.35
501.405	21101.73
501.774	21170.43
502.143	21425.34
502.512	21479.35
502.88	21820.13
503.249	21733.13
503.618	21915.27
503.987	22048.15
504.356	22155.72
504.724	22310.52
505.093	22335.15
505.462	22520.68
505.83	22701.01
506.199	22927.45
506.567	23170.83
506.936	23113.21
507.304	23380.54
507.672	23396.59
508.041	23664.15
508.409	23805.84
508.777	23901.89
509.145	24158.15
509.514	24198.38
509.882	24238.37
510.25	24405.6
510.618	24677.01
510.986	24670.23
511.354	24960.16
511.722	25189.99
512.09	25267.27
512.458	25263.88
512.826	25562.86
513.193	25703.19
513.561	25833.59
513.929	26031.77
514.297	26159
514.664	26355.61
515.032	26415.94
515.4	26770.06
515.767	26924.63
516.135	26963.27
516.502	26955.14
516.869	27284.17
517.237	27459.53
517.604	27377.95
517.972	27834.89
518.339	27912.18
518.706	28033.08
519.073	28053.19
519.44	28365.72
519.808	28676.22
520.175	28649.56
520.542	29024.24
520.909	29085.25
521.276	29233.27
521.643	29575.86
522.009	29631
522.376	29853.82
522.743	30075.06
523.11	30306.01
523.477	30722.72
523.843	30758.43
524.21	31098.76
524.577	31301.01
524.943	31343.95
525.31	31542.14
525.676	31915.23
526.043	32107.32
526.409	32180.09
526.776	32543.01
527.142	32713.63
527.508	32800.63
527.874	33103.23
528.241	33234.52
528.607	33360.39
528.973	33630.22
529.339	33615.08
529.705	33957.67
530.071	34204.44
530.437	34387.71
530.803	34618.44
531.169	34830.86
531.535	34739.11
531.901	34945.89
532.267	35167.8
532.632	35488.02
532.998	35507
533.364	35633.78
533.73	35731.41
534.095	35985.86
534.461	36217.95
534.826	36520.08
535.192	36470.14
535.557	36662.45
535.923	36714.66
536.288	36856.57
536.653	37063.12
537.019	37063.35
537.384	37132.5
537.749	37452.26
538.114	37601.86
538.479	37544.01
538.845	37820.39
539.21	37737.23
539.575	38040.72
539.94	38119.36
540.305	38460.6
540.67	38346.48
541.034	38580.82
541.399	38711.67
541.764	38884.99
542.129	38820.36
542.494	39021.94
542.858	39188.49
543.223	39306.23
543.587	39505.54
543.952	39501.02
544.316	39887.68
544.681	39710.28
545.045	40021.69
545.41	40175.81
545.774	40270.04
546.138	40263.49
546.503	40373.32
546.867	40420.77
547.231	40911.16
547.595	40778.5
547.959	41085.61
548.324	40975.34
548.688	41212.16
549.052	41277.02
549.416	41463.91
549.779	41465.72
550.143	41607.86
550.507	41926.72
550.871	41961.98
551.235	42000.17
551.599	42152.48
551.962	42421.62
552.326	42438.35
552.689	42720.6
553.053	42543.88
553.417	42775.06
553.78	43293.47
554.143	43119.69
554.507	43451.43
554.87	43387.93
555.234	43798.99
555.597	43582.72
555.96	43770.52
556.323	44061.58
556.686	44110.17
557.05	44363.72
557.413	44476.94
557.776	44504.51
558.139	44823.14
558.502	44971.84
558.865	44907.66
559.228	45215
559.59	45288.44
559.953	45462.22
560.316	45824.47
560.679	45803.91
561.041	46055.88
561.404	46151.92
561.767	46405.7
562.129	46320.51
562.492	46658.35
562.854	46675.75
563.217	46814.96
563.579	46958.45
563.941	47091.78
564.304	47289.97
564.666	47636.18
565.028	47773.35
565.39	47744.2
565.753	48043.62
566.115	48055.37
566.477	48288.36
566.839	48400
567.201	48741.68
567.563	48739.2
567.925	48937.84
568.287	49017.16
568.648	49032.07
569.01	49288.34
569.372	49661.21
569.734	49421.67
570.095	49592.96
570.457	49962.67
570.819	49973.52
571.18	49979.62
571.542	50219.61
571.903	50300.74
572.265	50408.08
572.626	50535.76
572.987	50585.25
573.349	50579.38
573.71	50785.25
574.071	50932.36
574.432	50991.12
574.794	51273.37
575.155	51284.67
575.516	51229.53
575.877	51360.82
576.238	51458.68
576.599	51539.35
576.96	51586.13
577.32	51674.49
577.681	51839
578.042	51902.28
578.403	51915.39
578.763	51923.07
579.124	52050.3
579.485	52149.73
579.845	52263.4
580.206	52313.57
580.566	52233.34
580.927	52261.37
581.287	52373.68
581.648	52220.01
582.008	52558.08
582.368	52484.41
582.728	52519.21
583.089	52479.21
583.449	52611.19
583.809	52511.3
584.169	52706.78
584.529	52590.4
584.889	52816.38
585.249	52660.45
585.609	52556.73
585.969	52738.64
586.329	52737.51
586.688	52792.2
587.048	52705.2
587.408	52720.11
587.768	52859.54
588.127	52827.68
588.487	52810.73
588.846	52986.32
589.206	52697.29
589.565	52961.46
589.925	53027
590.284	52921.91
590.643	53061.12
591.003	53069.03
591.362	53143.6
591.721	53017.5
592.08	53066.77
592.44	53228.8
592.799	53238.74
593.158	53120.1
593.517	53209.59
593.876	53251.85
594.235	53204.17
594.593	53222.02
594.952	53283.94
595.311	53262.92
595.67	53335.46
596.029	53459.3
596.387	53487.55
596.746	53563.93
597.104	53405.74
597.463	53476.25
597.822	53593.08
598.18	53433.99
598.538	53493.42
598.897	53589.92
599.255	53366.87
599.613	53829.69
599.972	53579.07
600.33	53655.68
600.688	53589.24
601.046	53720.08
601.404	53902.9
601.762	53666.3
602.12	53956.91
602.478	53859.06
602.836	53842.57
603.194	53752.17
603.552	53783.81
603.91	53741.78
604.268	53927.99
604.625	53816.58
604.983	53975.67
605.341	53869.69
605.698	53944.03
606.056	54042.11
606.413	54019.74
606.771	54038.72
607.128	54038.95
607.485	53999.4
607.843	54028.78
608.2	54240.75
608.557	54323.91
608.914	54155.33
609.272	54316.23
609.629	54363.01
609.986	54436.9
610.343	54294.08
610.7	54483.45
611.057	54494.3
611.414	54407.3
611.771	54539.05
612.127	54584.24
612.484	54468.77
612.841	54593.51
613.198	54544.47
613.554	54632.6
613.911	54723.45
614.267	54651.59
614.624	54688.87
614.98	54657.46
615.337	54826.5
615.693	54737.91
616.05	54750.34
616.406	54817.46
616.762	54763.22
617.118	54791.24
617.475	54771.58
617.831	54908.3
618.187	54826.95
618.543	54880.05
618.899	55079.14
619.255	54961.86
619.611	54971.58
619.967	55011.8
620.323	55163.21
620.678	54951.01
621.034	54897.91
621.39	54979.49
621.746	54958.24
622.101	55268.07
622.457	55016.1
622.812	55008.64
623.168	55124.34
623.523	55086.15
623.879	55220.38
624.234	54985.59
624.589	55155.53
624.945	55077.56
625.3	55153.95
625.655	55126.15
626.01	55149.65
626.365	55116.21
626.72	55143.78
627.075	55127.73
627.43	55099.71
627.785	55048.41
628.14	55139.03
628.495	55103.33
628.85	55135.19
629.205	55125.47
629.559	55216.54
629.914	55095.87
630.269	55052.03
630.623	55028.3
630.978	55059.71
631.332	55118.47
631.687	55212.7
632.041	54930
632.396	55133.15
632.75	54995.08
633.104	55082.08
633.459	55006.38
633.813	54898.58
634.167	54963.67
634.521	54957.57
634.875	54950.56
635.229	54871.01
635.583	54763.22
635.937	54785.37
636.291	54810.68
636.645	54814.75
636.999	54709.44
637.352	54787.4
637.706	54736.1
638.06	54783.33
638.413	54682.55
638.767	54653.85
639.121	54818.36
639.474	54609.55
639.828	54624.47
640.181	54744.01
640.534	54700.17
640.888	54491.82
641.241	54488.65
641.594	54536.56
641.947	54581.53
642.301	54510.57
642.654	54590.12
643.007	54537.24
643.36	54518.71
643.713	54473.74
644.066	54546.5
644.419	54339.28
644.771	54137.7
645.124	53837.82
645.477	53941.1
645.83	53657.49
646.182	53553.76
646.535	53565.96
646.888	53592.86
647.24	53445.97
647.593	53628.79
647.945	53581.56
648.298	53436.02
648.65	53407.1
649.002	53344.5
649.355	53459.3
649.707	53351.96
650.059	53483.48
650.411	53913.3
650.763	53943.36
651.115	54238.94
651.467	54129.34
651.819	54172.73
652.171	54046.4
652.523	54011.38
652.875	53978.16
653.227	53798.73
653.578	54015.44
653.93	53988.78
654.282	53875.56
654.633	53795.11
654.985	53850.48
655.337	53862.91
655.688	53882.79
656.039	53992.62
656.391	53679.63
656.742	53780.87
657.094	53782.68
657.445	53921.66
657.796	53846.41
658.147	53768.67
658.498	53681.44
658.849	53810.7
659.2	53784.26
659.551	53632.63
659.902	53813.64
660.253	53708.33
660.604	53682.35
660.955	53599.86
661.306	53775.22
661.656	53670.14
662.007	53689.35
662.358	53689.13
662.708	53683.02
663.059	53598.05
663.409	53456.59
663.76	53672.85
664.11	53610.48
664.461	53666.53
664.811	53587.88
665.161	53625.4
665.511	53532.97
665.862	53547.43
666.212	53643.02
666.562	53584.5
666.912	53541.78
667.262	53517.6
667.612	53481.67
667.962	53465.63
668.312	53490.49
668.662	53564.16
669.011	53471.96
669.361	53386.08
669.711	53311.96
670.06	53293.66
670.41	53295.92
670.76	53271.73
671.109	53403.93
671.459	53268.35
671.808	53231.28
672.157	53355.57
672.507	52998.3
672.856	53058.41
673.205	53160.33
673.554	53177.95
673.904	53142.02
674.253	53217.95
674.602	53070.84
674.951	52650.06
675.3	52506.33
675.649	52962.82
675.998	52920.11
676.346	52987.67
676.695	53024.51
677.044	52723.5
677.393	52854.12
677.741	52854.34
678.09	52763.95
678.438	52698.19
678.787	52735.7
679.135	52776.38
679.484	52562.37
679.832	52582.94
680.181	52372.1
680.529	52503.62
680.877	52398.09
681.225	52377.97
681.573	52530.06
681.922	52228.37
682.27	52248.94
682.618	52246.45
682.966	52117.64
683.314	52210.07
683.661	52081.94
684.009	51990.86
684.357	51860.47
684.705	51825.45
685.053	51901.15
685.4	51717.2
685.748	51632.68
686.095	51661.38
686.443	51405.34
686.79	51356.53
687.138	51436.98
687.485	51443.99
687.832	51315.4
688.18	51236.99
688.527	51011
688.874	51028.18
689.221	51055.97
689.568	50774.4
689.915	50743.67
690.262	50774.4
690.609	50742.08
690.956	50496.67
691.303	50471.81
691.65	50250.12
691.997	50208.54
692.344	50001.99
692.69	50082.89
693.037	50003.12
693.383	49758.83
693.73	49916.12
694.077	49742.79
694.423	49730.13
694.769	49517.94
695.116	49431.16
695.462	49374.44
695.808	49330.37
696.155	49309.81
696.501	48971.51
696.847	49031.62
697.193	48724.74
697.539	48981.9
697.885	48668.92
698.231	48578.3
698.577	48480.22
698.923	48438.64
699.269	48204.52
699.614	48078.88
699.96	48051.31
700.306	47983.74
700.651	47833.01
700.997	47831.88
701.342	47698.1
701.688	47667.81
702.033	47519.34
702.379	47491.55
702.724	47373.36
703.069	47426.46
703.415	46782.87
703.76	47021.73
704.105	46962.97
704.45	46857.44
704.795	46653.38
705.14	46556.43
705.485	46629.42
705.83	46314.63
706.175	46398.24
706.52	46160.28
706.865	46126.61
707.209	46149.66
707.554	45954.41
707.899	45907.18
708.243	45774.53
708.588	45636.91
708.932	45438.27
709.277	45465.61
709.621	45508.1
709.966	45140.88
710.31	45349.91
710.654	44888
710.998	45077.15
711.342	45118.73
711.687	44836.48
712.031	44817.27
712.375	44644.17
712.719	44676.48
713.063	44582.92
713.407	44902.01
713.75	44401.46
714.094	44349.48
714.438	44359.88
714.782	44323.27
715.125	44006.22
715.469	44067.23
715.812	43929.61
716.156	43698.43
716.499	43754.92
716.843	43797.86
717.186	43632.67
717.53	43700.01
717.873	43601.93
718.216	43632.67
718.559	43475.38
718.902	43044.89
719.246	43216.86
719.589	43072.68
719.932	42919.46
720.275	42950.2
720.617	42931.89
720.96	42887.15
721.303	42893.02
721.646	42783.65
721.989	42606.03
722.331	42632.01
722.674	42576.65
723.016	42685.12
723.359	42390.67
723.701	42411
724.044	42244.23
724.386	41919.94
724.729	42232.7
725.071	42066.83
725.413	41982.31
725.755	42061.18
726.097	41927.4
726.439	41632.49
726.782	41706.84
727.124	41833.84
727.465	41705.71
727.807	41700.51
728.149	41523.57
728.491	41557.92
728.833	41582.32
729.175	41304.14
729.516	41356.12
729.858	41178.27
730.199	41132.85
730.541	41153.18
730.882	41144.6
731.224	41085.16
731.565	40915.68
731.906	40814.89
732.248	40940.99
732.589	40802.23
732.93	40666.42
733.271	40624.16
733.612	40648.11
733.953	40770.82
734.294	40533.99
734.635	40394.33
734.976	40486.53
735.317	40306.2
735.658	40303.26
735.999	40221.23
736.339	40186.2
736.68	40093.1
737.021	40082.25
737.361	39966.32
737.702	40204.96
738.042	40005.64
738.383	39945.76
738.723	40103.49
739.063	39855.82
739.404	39879.77
739.744	39600.23
740.084	39502.15
740.424	39714.8
740.764	39550.06
741.104	39749.83
741.444	39348.94
741.784	39330.63
742.124	39327.92
742.464	39279.79
742.804	39274.81
743.143	39116.4
743.483	39218.77
743.823	39022.39
744.162	38952.11
744.502	39061.26
744.841	38781.04
745.181	38988.04
745.52	38741.27
745.86	38847.93
746.199	38660.82
746.538	38721.38
746.877	38850.87
747.216	38630.09
747.556	38616.98
747.895	38558.45
748.234	38503.76
748.573	38304.9
748.911	38167.73
749.25	38367.49
749.589	38120.72
749.928	38045.92
750.267	38110.33
750.605	38048.18
750.944	37922.53
751.283	37832.37
751.621	37919.6
751.96	37605.48
752.298	37593.5
752.636	37633.5
752.975	37501.75
753.313	37362.55
753.651	37520.74
753.989	37253.62
754.327	37207.75
754.666	37085.04
755.004	37028.09
755.342	37113.97
755.679	37073.97
756.017	36799.17
756.355	36880.53
756.693	36707.88
757.031	36763.47
757.368	36431.27
757.706	36349.69
758.044	36334.1
758.381	36408.9
758.719	36225.86
759.056	36223.82
759.394	36006.88
759.731	35757.39
760.068	35775.25
760.405	35639.43
760.743	35542.48
761.08	35620
761.417	35367.57
761.754	35238.99
762.091	35340
762.428	35149.73
762.765	34994.48
763.102	35027.92
763.438	34959.67
763.775	34739.57
764.112	34833.35
764.449	34802.62
764.785	34597.88
765.122	34260.94
765.458	34318.11
765.795	34274.95
766.131	34219.13
766.467	34019.81
766.804	33845.13
767.14	33683.32
767.476	33825.69
767.812	33493.27
768.148	33512.48
768.485	33297.34
768.821	33097.58
769.157	33125.6
769.492	33007.18
769.828	33001.99
770.164	32751.6
770.5	32657.81
770.836	32763.57
771.171	32337.6
771.507	32432.28
771.842	32210.82
772.178	32106.42
772.513	32094.21
772.849	31918.17
773.184	31798.63
773.519	31884.95
773.855	31664.62
774.19	31514.11
774.525	31388.24
774.86	31375.59
775.195	31347.57
775.53	31100.11
775.865	30922.04
776.2	30783.96
776.535	30503.97
776.87	30677.07
777.205	30557.98
777.539	30332.45
777.874	30545.55
778.209	30302.17
778.543	30192.57
778.878	29983.76
779.212	29962.97
779.547	29801.84
779.881	29782.18
780.215	29570.44
780.55	29657.89
780.884	29402.98
781.218	29395.75
781.552	29330.9
781.886	29085.25
782.22	28983.79
782.554	28986.5
782.888	28653.4
783.222	28646.17
783.556	28471.48
783.889	28398.72
784.223	28132.51
784.557	28190.36
784.89	28217.25
785.224	27967.09
785.557	27830.14
785.891	27852.06
786.224	27729.81
786.558	27799.18
786.891	27392.87
787.224	27423.83
787.557	27323.26
787.891	27273.55
788.224	27124.63
788.557	27129.82
788.89	27018.64
789.223	27034.23
789.556	26737.97
789.888	26810.51
790.221	26584.75
790.554	26543.4
790.887	26301.37
791.219	26237.19
791.552	26284.2
791.884	26233.35
792.217	26088.04
792.549	26045.78
792.882	25835.62
793.214	25644.89
793.546	25771.89
793.879	25663.2
794.211	25576.64
794.543	25590.2
794.875	25485.35
795.207	25498
795.539	25248.52
795.871	25267.5
796.203	24970.56
796.535	24932.59
796.867	24950.67
797.198	24742.99
797.53	24818.47
797.862	24662.54
798.193	24653.96
798.525	24470.23
798.856	24632.71
799.188	24262.55
799.519	24289.45
799.85	24058.72
800.182	24163.35
800.513	24179.84
800.844	23939.17
801.175	23949.34
801.506	23963.58
801.837	23873.64
802.168	23683.13
802.499	23609.24
802.83	23541.9
803.161	23526.08
803.491	23393.2
803.822	23420.32
804.153	23364.72
804.483	23222.13
804.814	23025.07
805.145	23004.73
805.475	22999.99
805.805	22888.58
806.136	22884.74
806.466	22911.4
806.796	22750.05
807.126	22741.46
807.457	22608.81
807.787	22536.95
808.117	22489.04
808.447	22399.1
808.777	22443.84
809.107	22230.74
809.436	22284.08
809.766	22204.53
810.096	22207.69
810.426	22062.39
810.755	21984.87
811.085	21893.12
811.414	22034.59
811.744	21808.83
812.073	21717.54
812.403	21685.9
812.732	21539.46
813.061	21602.51
813.39	21546.24
813.719	21506.24
814.049	21476.19
814.378	21386.47
814.707	21392.57
815.036	21254.72
815.365	21170.66
815.693	21015.41
816.022	21000.49
816.351	20881.85
816.68	20808.18
817.008	21049.53
817.337	20760.05
817.665	20722.31
817.994	20774.51
818.322	20655.64
818.651	20640.95
818.979	20571.8
819.307	20620.62
819.636	20562.31
819.964	20305.37
820.292	20586.27
820.62	20475.76
820.948	20384.69
821.276	20411.36
821.604	20404.58
821.932	20427.17
822.259	20479.38
822.587	20383.79
822.915	20215.2
823.243	20452.03
823.57	20291.81
823.898	20330.45
824.225	20305.14
824.553	20215.65
824.88	20191.02
825.207	20359.83
825.535	20228.08
825.862	20392.6
826.189	20228.31
826.516	20264.92
826.843	20263.79
827.17	20221.08
827.497	20344.24
827.824	20169.55
828.151	20285.26
828.478	20291.36
828.805	20313.73
829.131	20144.02
829.458	20156.45
829.785	20099.73
830.111	20133.62
830.438	20231.02
830.764	20144.7
831.09	20229.89
831.417	19995.32
831.743	20132.04
832.069	20128.88
832.395	19980.41
832.722	20177.24
833.048	20064.47
833.374	20045.94
833.7	19912.84
834.026	19973.18
834.351	20021.99
834.677	19953.51
835.003	19989.67
835.329	19955.1
835.654	19836.23
835.98	19899.51
836.306	19971.14
836.631	19702.22
836.956	19820.19
837.282	19698.38
837.607	19653.18
837.932	19727.53
838.258	19746.74
838.583	19679.17
838.908	19584.49
839.233	19589.23
839.558	19528.89
839.883	19450.7
840.208	19375.45
840.533	19390.14
840.858	19521.21
841.182	19413.64
841.507	19367.99
841.832	19288.9
842.156	19157.6
842.481	19169.13
842.805	19205.51
843.13	19137.72
843.454	19092.07
843.778	19016.59
844.103	18922.58
844.427	18755.81
844.751	18919.87
845.075	18857.27
845.399	18766.43
845.723	18598.97
846.047	18755.35
846.371	18501.8
846.695	18500.45
847.019	18358.3
847.343	18336.61
847.666	18245.31
847.99	18164.86
848.313	18157.4
848.637	18056.39
848.96	17954.7
849.284	17854.59
849.607	17832.67
849.931	17722.61
850.254	17602.62
850.577	17528.27
850.9	17480.13
851.223	17437.2
851.546	17363.98
851.869	17244.66
852.192	17254.38
852.515	17172.57
852.838	17140.71
853.161	17110.2
853.483	16986.81
853.806	16871.34
854.129	16934.84
854.451	16861.17
854.774	16792.02
855.096	16725.35
855.419	16774.84
855.741	16670.21
856.063	16524.68
856.385	16556.77
856.708	16404.46
857.03	16413.72
857.352	16324.23
857.674	16312.03
857.996	16224.8
858.318	16145.93
858.64	16169.21
858.961	16117.46
859.283	16015.54
859.605	15933.28
859.926	16025.71
860.248	15907.29
860.57	15827.75
860.891	15863.9
861.212	15796.11
861.534	15752.27
861.855	15690.58
862.176	15705.04
862.498	15624.36
862.819	15697.81
863.14	15580.52
863.461	15564.93
863.782	15545.72
864.103	15510.69
864.424	15419.85
864.745	15545.5
865.065	15423.24
865.386	15369.23
865.707	15385.73
866.027	15364.71
866.348	15351.6
866.668	15403.35
866.989	15251.94
867.309	15062.8
867.63	15156.8
867.95	15167.43
868.27	15086.07
868.59	15089.24
868.91	15018.96
869.23	15029.8
869.55	14972.63
869.87	14956.36
870.19	14869.81
870.51	14995.91
870.83	15020.76
871.15	14788.45
871.469	14906.64
871.789	14793.88
872.109	14835.91
872.428	14760.66
872.748	14856.25
873.067	14802.92
873.386	14768.79
873.706	14723.14
874.025	14607.21
874.344	14576.71
874.663	14632.98
874.982	14623.71
875.301	14658.74
875.62	14574.22
875.939	14505.52
876.258	14511.85
876.577	14483.6
876.896	14416.94
877.214	14333.1
877.533	14465.3
877.852	14344.62
878.17	14395.92
878.489	14382.14
878.807	14256.72
879.125	14306.43
879.444	14272.08
879.762	14196.6
880.08	14161.35
880.398	14184.4
880.716	14160.22
881.034	14069.6
881.352	14113.89
881.67	14061.69
881.988	14083.84
882.306	14020.11
882.624	14068.25
882.941	13845.65
883.259	13836.84
883.577	13842.94
883.894	13787.58
884.212	13862.83
884.529	13800
884.846	13724.75
885.164	13687.69
885.481	13604.98
885.798	13680.23
886.115	13546.23
886.432	13575.83
886.75	13459.9
887.067	13503.29
887.383	13452.67
887.7	13406.34
888.017	13369.51
888.334	13406.57
888.651	13320.24
888.967	13308.72
889.284	13241.83
889.6	13191.66
889.917	13084.32
890.233	13174.48
890.55	13095.39
890.866	13100.81
891.182	13033.47
891.498	12944.66
891.815	12944.21
892.131	12852.23
892.447	12867.15
892.763	12867.15
893.079	12767.49
893.395	12699.92
893.71	12799.8
894.026	12645.46
894.342	12639.36
894.657	12581.51
894.973	12486.82
895.289	12572.24
895.604	12481.62
895.92	12392.58
896.235	12392.58
896.55	12325.24
896.865	12380.83
897.181	12296.99
897.496	12266.26
897.811	12188.3
898.126	12185.36
898.441	12083.89
898.756	12018.81
899.071	12012.25
899.386	11972.26
899.7	11885.93
900.015	11895.87
900.33	11746.05
900.644	11736.56
900.959	11757.8
901.273	11732.94
901.588	11679.16
901.902	11640.29
902.216	11549.22
902.531	11564.81
902.845	11504.47
903.159	11473.74
903.473	11417.92
903.787	11307.19
904.101	11325.04
904.415	11284.36
904.729	11154.88
905.042	11167.98
905.356	11104.48
905.67	11078.49
905.984	11172.05
906.297	10994.43
906.611	11007.54
906.924	10929.57
907.237	10930.93
907.551	10851.83
907.864	10795.34
908.177	10832.17
908.491	10768.9
908.804	10672.63
909.117	10621.33
909.43	10666.75
909.743	10473.54
910.056	10556.47
910.368	10515.8
910.681	10490.26
910.994	10449.81
911.307	10289.59
911.619	10266.31
911.932	10273.32
912.244	10212.08
912.557	10224.28
912.869	10103.15
913.181	10084.4
913.494	10003.27
913.806	9961.46
914.118	10031.06
914.43	9931.63
914.742	9906.1
915.054	9819.54
915.366	9771.18
915.678	9729.6
915.99	9710.17
916.302	9659.77
916.613	9575.48
916.925	9539.33
917.236	9530.96
917.548	9546.33
917.859	9477.18
918.171	9406.9
918.482	9387.01
918.794	9365.32
919.105	9288.94
919.416	9223.18
919.727	9241.93
920.038	9190.41
920.349	9131.88
920.66	9076.51
920.971	9085.33
921.282	9033.12
921.593	8947.7
921.903	8886.01
922.214	8942.05
922.525	8865.9
922.835	8813.69
923.146	8780.02
923.456	8721.49
923.767	8662.74
924.077	8693.02
924.387	8598.33
924.697	8581.61
925.008	8542.29
925.318	8523.31
925.628	8540.93
925.938	8508.17
926.248	8431.11
926.558	8363.54
926.867	8312.47
927.177	8285.8
927.487	8227.5
927.796	8146.37
928.106	8213.71
928.416	8121.74
928.725	8100.49
929.034	8021.63
929.344	8085.13
929.653	8058.01
929.962	7999.93
930.271	7894.62
930.581	7876.77
930.89	7849.43
931.199	7825.02
931.508	7773.04
931.817	7755.42
932.125	7777.34
932.434	7779.6
932.743	7662.31
933.051	7598.81
933.36	7616.66
933.669	7528.76
933.977	7470.23
934.286	7504.35
934.594	7505.48
934.902	7374.86
935.21	7414.86
935.519	7413.73
935.827	7338.48
936.135	7276.56
936.443	7233.62
936.751	7183.46
937.059	7205.38
937.367	7134.64
937.674	7178.03
937.982	7087.19
938.29	7060.29
938.597	6979.62
938.905	6972.16
939.213	6943.69
939.52	6905.5
939.827	6960.64
940.135	6867.76
940.442	6837.02
940.749	6818.04
941.056	6846.51
941.363	6674.77
941.67	6711.15
941.977	6708.44
942.284	6624.83
942.591	6614.66
942.898	6610.81
943.205	6602.45
943.511	6542.12
943.818	6540.08
944.125	6473.42
944.431	6428.22
944.738	6449.24
945.044	6357.49
945.35	6324.27
945.657	6341.67
945.963	6304.38
946.269	6304.83
946.575	6272.97
946.881	6238.85
947.187	6242.24
947.493	6172.18
947.799	6132.18
948.105	6090.15
948.41	6103.03
948.716	6031.17
949.022	5983.26
949.327	6023.49
949.633	5936.93
949.938	5953.88
950.244	5884.73
950.549	5929.48
950.854	5880.21
951.16	5873.21
951.465	5788.24
951.77	5833.21
952.075	5797.28
952.38	5759.76
952.685	5725.64
952.99	5685.64
953.294	5672.53
953.599	5675.25
953.904	5591.41
954.209	5588.47
954.513	5585.31
954.818	5566.55
955.122	5527
955.426	5480.68
955.731	5450.39
956.035	5450.17
956.339	5384.41
956.643	5414.01
956.948	5331.3
957.252	5352.32
957.556	5328.14
957.86	5256.95
958.163	5262.83
958.467	5290.62
958.771	5250.85
959.075	5210.63
959.378	5189.38
959.682	5179.44
959.985	5142.38
960.289	5113.68
960.592	5100.12
960.896	5035.72
961.199	5002.27
961.502	4996.85
961.805	5007.24
962.108	4937.86
962.411	4933.57
962.714	4881.14
963.017	4890.18
963.32	4904.87
963.623	4862.61
963.926	4848.15
964.228	4848.6
964.531	4783.29
964.833	4762.73
965.136	4716.18
965.438	4735.38
965.741	4701.94
966.043	4671.88
966.345	4660.58
966.648	4637.99
966.95	4622.39
967.252	4606.12
967.554	4599.57
967.856	4541.94
968.158	4490.87
968.46	4471.21
968.761	4493.58
969.063	4509.63
969.365	4473.92
969.666	4456.52
969.968	4376.07
970.269	4394.38
970.571	4375.39
970.872	4349.41
971.174	4334.04
971.475	4333.36
971.776	4286.81
972.077	4256.53
972.378	4236.87
972.679	4199.13
972.98	4234.15
973.281	4198
973.582	4165.46
973.883	4145.57
974.183	4145.34
974.484	4119.13
974.785	4066.7
975.085	4071.22
975.386	4101.05
975.686	4033.48
975.986	4007.95
976.287	3997.1
976.587	3923.65
976.887	3954.16
977.187	3945.8
977.487	3928.4
977.787	3916.42
978.087	3920.72
978.387	3932.24
978.687	3854.05
978.987	3865.8
979.286	3787.39
979.586	3784
979.885	3773.83
980.185	3726.14
980.484	3711.46
980.784	3720.72
981.083	3757.78
981.382	3739.7
981.682	3718.69
981.981	3677.56
982.28	3633.49
982.579	3607.05
982.878	3570.44
983.177	3659.48
983.475	3610.67
983.774	3588.3
984.073	3513.72
984.372	3514.17
984.67	3514.17
984.969	3514.63
985.267	3513.04
985.566	3489.77
985.864	3432.82
986.162	3431.24
986.461	3416.55
986.759	3452.25
987.057	3341.97
987.355	3335.65
987.653	3362.99
987.951	3341.52
988.249	3338.36
988.547	3310.34
988.844	3264.91
989.142	3317.79
989.44	3261.3
989.737	3252.49
990.035	3225.14
990.332	3216.33
990.63	3193.73
990.927	3177.46
991.224	3188.08
991.521	3141.53
991.819	3166.61
992.116	3125.71
992.413	3111.7
992.71	3100.85
993.006	3061.53
993.303	3071.02
993.6	3073.51
993.897	3053.39
994.193	3053.17
994.49	3014.98
994.787	2957.58
995.083	2978.59
995.379	2949.67
995.676	2933.85
995.972	2925.26
996.268	2893.17
996.565	2883.46
996.861	2894.08
997.157	2825.15
997.453	2818.6
997.749	2857.92
998.044	2826.28
998.34	2784.93
998.636	2786.73
998.932	2757.36
999.227	2725.04
999.523	2741.54
999.818	2735.21
1000.114	2728.66
1000.409	2661.09
1000.704	2679.39
1001	2648.66
1001.295	2666.06
1001.59	2628.09
1001.885	2626.06
1002.18	2601.65
1002.475	2572.05
1002.77	2580.19
1003.065	2600.75
1003.359	2564.82
1003.654	2550.58
1003.949	2509
1004.243	2487.53
1004.538	2495.89
1004.832	2476.01
1005.127	2464.26
1005.421	2453.86
1005.715	2413.19
1006.009	2435.56
1006.304	2418.83
1006.598	2349.23
1006.892	2392.62
1007.186	2383.36
1007.48	2347.42
1007.773	2337.03
1008.067	2334.54
1008.361	2314.88
1008.655	2272.62
1008.948	2299.52
1009.242	2301.1
1009.535	2269.23
1009.829	2253.87
1010.122	2224.72
1010.415	2197.82
1010.708	2205.51
1011.001	2185.62
1011.295	2184.26
1011.588	2156.47
1011.881	2149.01
1012.173	2183.81
1012.466	2140.2
1012.759	2130.71
1013.052	2075.57
1013.344	2071.73
1013.637	2053.42
1013.93	2063.59
1014.222	2031.05
1014.514	2038.28
1014.807	2017.49
1015.099	1997.38
1015.391	1995.57
1015.683	1985.17
1015.976	2000.99
1016.268	1944.72
1016.56	1957.83
1016.851	1919.41
1017.143	1923.93
1017.435	1907.89
1017.727	1891.39
1018.018	1881.22
1018.31	1862.47
1018.602	1893.65
1018.893	1877.38
1019.185	1829.7
1019.476	1789.92
1019.767	1824.73
1020.058	1796.03
1020.35	1770.49
1020.641	1753.99
1020.932	1771.85
1021.223	1725.52
1021.514	1717.16
1021.804	1720.32
1022.095	1724.39
1022.386	1698.85
1022.677	1697.72
1022.967	1676.48
1023.258	1664.73
1023.548	1653.21
1023.839	1662.02
1024.129	1650.49
1024.419	1628.57
1024.709	1613.21
1025	1588.57
1025.29	1617.73
1025.58	1564.39
1025.87	1575.24
1026.16	1582.92
1026.449	1575.24
1026.739	1523.04
1027.029	1510.61
1027.319	1517.39
1027.608	1487.56
1027.898	1479.42
1028.187	1459.31
1028.477	1509.25
1028.766	1466.77
1029.055	1453.89
1029.344	1463.83
1029.634	1407.56
1029.923	1430.61
1030.212	1424.96
1030.501	1394
1030.79	1393.1
1031.078	1358.98
1031.367	1372.08
1031.656	1362.14
1031.945	1328.69
1032.233	1351.07
1032.522	1331.86
1032.81	1312.42
1033.099	1315.81
1033.387	1298.41
1033.675	1302.03
1033.963	1255.25
1034.251	1274.46
1034.54	1271.52
1034.828	1260.9
1035.116	1277.17
1035.403	1259.09
1035.691	1232.65
1035.979	1239.2
1036.267	1221.35
1036.554	1225.19
1036.842	1208.02
1037.129	1198.98
1037.417	1195.82
1037.704	1165.76
1037.992	1160.79
1038.279	1198.08
1038.566	1144.52
1038.853	1144.52
1039.14	1144.52
