Data from white_wall_FLMS001491_056.txt Node
Date: Tue Feb 07 11:04:58 GMT 2017
User: dcchb
Spectrometer: FLMS00149
Trigger mode: 0
Integration Time (sec): 2.000000E-2
Scans to average: 10
Electric dark correction enabled: true
Nonlinearity correction enabled: false
Boxcar width: 0
XAxis mode: Wavelengths
Number of Pixels in Spectrum: 2048
>>>>>Begin Spectral Data<<<<<
341.393	0.97
341.776	0.97
342.16	0.97
342.543	-69.31
342.927	-76.09
343.31	-53.94
343.693	-78.12
344.077	-76.31
344.46	-50.55
344.843	-62.07
345.226	-44.22
345.61	-29.08
345.993	-22.75
346.376	-17.33
346.759	8.21
347.142	34.65
347.525	35.55
347.908	73.97
348.291	75.55
348.674	98.83
349.057	107.64
349.44	139.5
349.823	134.08
350.206	167.07
350.588	178.6
350.971	236.9
351.354	222.44
351.737	250.91
352.119	251.36
352.502	280.29
352.884	275.32
353.267	278.93
353.65	293.17
354.032	306.05
354.414	314.41
354.797	317.8
355.179	335.43
355.562	336.11
355.944	328.42
356.326	325.94
356.709	340.4
357.091	339.27
357.473	339.5
357.855	360.29
358.238	350.57
358.62	373.39
359.002	349.44
359.384	330.46
359.766	340.85
360.148	347.41
360.53	343.34
360.912	342.89
361.294	342.43
361.676	330.23
362.057	353.06
362.439	359.16
362.821	350.34
363.203	331.81
363.584	341.08
363.966	352.38
364.348	335.43
364.729	324.36
365.111	325.94
365.493	320.29
365.874	313.06
366.256	311.7
366.637	317.12
367.019	322.55
367.4	327.07
367.781	324.13
368.163	309.89
368.544	301.53
368.925	314.19
369.306	310.57
369.688	323
370.069	310.34
370.45	325.03
370.831	324.81
371.212	305.15
371.593	317.58
371.974	307.63
372.355	313.28
372.736	311.7
373.117	300.4
373.498	310.57
373.879	324.13
374.26	340.17
374.641	306.5
375.021	317.58
375.402	330.68
375.783	316.22
376.163	317.8
376.544	318.93
376.925	347.63
377.305	320.29
377.686	334.07
378.066	343.56
378.447	353.96
378.827	332.49
379.208	348.76
379.588	326.39
379.968	317.8
380.349	351.93
380.729	348.31
381.109	350.57
381.489	354.64
381.87	355.99
382.25	367.97
382.63	367.29
383.01	344.69
383.39	358.48
383.77	358.71
384.15	362.09
384.53	373.39
384.91	356.9
385.29	363.45
385.67	368.42
386.049	371.13
386.429	384.92
386.809	364.81
387.189	386.95
387.568	396.44
387.948	384.02
388.328	397.35
388.707	369.55
389.087	381.53
389.466	396.9
389.846	404.81
390.225	411.13
390.605	403.68
390.984	388.08
391.363	412.04
391.743	424.69
392.122	397.12
392.501	427.18
392.881	428.76
393.26	443.67
393.639	410.23
394.018	450.45
394.397	449.78
394.776	435.77
395.155	457.69
395.534	437.35
395.913	462.88
396.292	463.34
396.671	477.12
397.05	486.39
397.429	474.18
397.808	492.04
398.186	478.02
398.565	483.67
398.944	484.8
399.323	537.68
399.701	516.44
400.08	539.27
400.458	518.7
400.837	538.36
401.215	552.6
401.594	548.53
401.972	580.39
402.351	564.35
402.729	575.87
403.107	594.86
403.486	587.85
403.864	590.79
404.242	612.26
404.62	597.12
404.999	605.48
405.377	642.09
405.755	673.73
406.133	656.1
406.511	673.05
406.889	693.61
407.267	686.38
407.645	714.85
408.023	707.85
408.401	718.24
408.779	722.99
409.156	740.84
409.534	734.06
409.912	765.93
410.29	773.16
410.667	787.17
411.045	776.55
411.422	817.45
411.8	802.54
412.178	841.86
412.555	832.14
412.933	852.93
413.31	872.82
413.687	867.17
414.065	876.43
414.442	889.76
414.819	907.62
415.197	904.23
415.574	933.15
415.951	946.94
416.328	937
416.705	950.55
417.082	966.6
417.46	993.26
417.837	990.1
418.214	1002.3
418.591	1005.24
418.967	990.33
419.344	1040.95
419.721	1062.87
420.098	1044.34
420.475	1065.35
420.852	1073.94
421.228	1048.18
421.605	1087.95
421.982	1101.06
422.358	1109.87
422.735	1138.57
423.111	1115.97
423.488	1157.1
423.864	1145.58
424.241	1155.97
424.617	1189.19
424.994	1196.42
425.37	1225.35
425.746	1208.63
426.123	1212.24
426.499	1236.42
426.875	1248.4
427.251	1258.34
427.627	1302.64
428.003	1294.5
428.379	1337.89
428.756	1340.37
429.132	1336.08
429.507	1361.39
429.883	1391.9
430.259	1414.5
430.635	1403.42
431.011	1423.54
431.387	1445.23
431.763	1484.78
432.138	1473.48
432.514	1492.01
432.89	1525.68
433.265	1577.43
433.641	1597.32
434.016	1579.46
434.392	1607.49
434.767	1595.96
435.143	1656.3
435.518	1636.86
435.894	1671.44
436.269	1679.8
436.644	1745.34
437.02	1742.85
437.395	1756.18
437.77	1757.54
438.145	1790.53
438.52	1792.57
438.895	1819.91
439.271	1820.81
439.646	1894.48
440.021	1871.43
440.395	1902.39
440.77	1896.97
441.145	1892.9
441.52	1925.22
441.895	1945.56
442.27	1952.34
442.645	1955.73
443.019	1981.26
443.394	1983.97
443.769	2043.18
444.143	2017.87
444.518	2066.23
444.892	2047.7
445.267	2073.91
445.641	2089.73
446.016	2124.08
446.39	2123.4
446.764	2113.46
447.139	2141.71
447.513	2171.99
447.887	2163.63
448.262	2183.74
448.636	2189.39
449.01	2236.4
449.384	2291.54
449.758	2269.39
450.132	2267.58
450.506	2325.43
450.88	2374.25
451.254	2324.76
451.628	2346
452.002	2423.96
452.376	2444.98
452.75	2452.66
453.123	2451.31
453.497	2499.67
453.871	2506.9
454.244	2557.52
454.618	2604.75
454.992	2612.43
455.365	2643.39
455.739	2690.17
456.112	2698.08
456.486	2745.99
456.859	2741.24
457.232	2825.08
457.606	2797.29
457.979	2844.06
458.352	2918.19
458.725	2908.69
459.099	2971.97
459.472	2996.6
459.845	3035.02
460.218	3060.1
460.591	3090.38
460.964	3094.45
461.337	3216.71
461.71	3256.71
462.083	3310.94
462.456	3344.84
462.829	3324.73
463.201	3378.06
463.574	3411.28
463.947	3438.4
464.32	3485.63
464.692	3531.05
465.065	3622.8
465.438	3624.61
465.81	3668.22
466.183	3714.78
466.555	3828.9
466.928	3858.05
467.3	3844.26
467.672	3902.79
468.045	4027.08
468.417	3990.25
468.789	4040.64
469.161	4103.92
469.534	4153.18
469.906	4216.68
470.278	4275.44
470.65	4362.89
471.022	4377.36
471.394	4484.47
471.766	4502.78
472.138	4607.86
472.51	4706.61
472.882	4765.82
473.253	4803.33
473.625	4871.81
473.997	4953.61
474.369	5037.68
474.74	5075.42
475.112	5163.1
475.484	5223.44
475.855	5346.37
476.227	5378.23
476.598	5584.78
476.97	5620.04
477.341	5751.11
477.713	5817.32
478.084	5819.58
478.455	6027.93
478.827	6069.74
479.198	6248.04
479.569	6244.88
479.94	6391.31
480.311	6488.71
480.682	6676.96
481.053	6782.49
481.424	6849.61
481.795	6959.89
482.166	7074.69
482.537	7195.81
482.908	7271.29
483.279	7371.63
483.65	7546.31
484.021	7677.16
484.391	7786.31
484.762	7880.09
485.133	7933.87
485.503	8007.77
485.874	8242.11
486.244	8287.31
486.615	8412.5
486.985	8559.85
487.356	8705.6
487.726	8772.5
488.097	8953.06
488.467	9013.62
488.837	9225.82
489.207	9307.4
489.578	9427.62
489.948	9568.41
490.318	9695.63
490.688	9741.51
491.058	9824.67
491.428	10005.46
491.798	10168.84
492.168	10350.31
492.538	10333.81
492.908	10562.5
493.278	10633.24
493.648	10666.23
494.017	10803.63
494.387	10942.83
494.757	11072.77
495.126	11152.55
495.496	11213.34
495.866	11314.58
496.235	11530.39
496.605	11473.67
496.974	11500.11
497.344	11675.92
497.713	11805.18
498.082	11933.99
498.452	12044.27
498.821	12046.76
499.19	12067.32
499.559	12321.55
499.928	12332.85
500.298	12437.03
500.667	12581.89
501.036	12509.35
501.405	12796.34
501.774	12741.43
502.143	12954.76
502.512	12978.49
502.88	13143.23
503.249	13114.53
503.618	13250.8
503.987	13385.26
504.356	13484.69
504.724	13543.9
505.093	13598.36
505.462	13658.24
505.83	13784.11
506.199	13942.53
506.567	14113.37
506.936	14112.69
507.304	14314.5
507.672	14331.45
508.041	14379.58
508.409	14552.68
508.777	14656.18
509.145	14813.24
509.514	14773.69
509.882	14999.22
510.25	15008.04
510.618	15106.34
510.986	15264.08
511.354	15356.95
511.722	15507.91
512.09	15671.97
512.458	15697.51
512.826	15822.93
513.193	15886.21
513.561	15951.97
513.929	16111.74
514.297	16266.31
514.664	16392.63
515.032	16473.54
515.4	16615
515.767	16718.73
516.135	16854.77
516.502	16790.82
516.869	17106.06
517.237	17118.72
517.604	17181.31
517.972	17405.94
518.339	17518.48
518.706	17562.77
519.073	17636.9
519.44	17902.2
519.808	17986.94
520.175	17964.34
520.542	18227.39
520.909	18367.72
521.276	18387.61
521.643	18699.92
522.009	18715.28
522.376	18933.58
522.743	18979.23
523.11	19227.59
523.477	19335.16
523.843	19322.95
524.21	19644.3
524.577	19826.22
524.943	19855.14
525.31	19983.5
525.676	20224.4
526.043	20366.99
526.409	20448.35
526.776	20649.7
527.142	20684.5
527.508	20869.35
527.874	21036.81
528.241	21145.73
528.607	21197.71
528.973	21376.68
529.339	21363.58
529.705	21663.68
530.071	21739.39
530.437	21896.22
530.803	22123.56
531.169	22251.24
531.535	22229.99
531.901	22297.79
532.267	22377.56
532.632	22583.43
532.998	22623.66
533.364	22865.01
533.73	22890.09
534.095	23082.85
534.461	23185.9
534.826	23273.81
535.192	23372.56
535.557	23592.22
535.923	23695.27
536.288	23662.73
536.653	23764.87
537.019	23708.6
537.384	23860.01
537.749	24010.96
538.114	24170.28
538.479	24110.62
538.845	24326.21
539.21	24244.86
539.575	24337.51
539.94	24573.44
540.305	24699.99
540.67	24662.7
541.034	24690.72
541.399	24919.64
541.764	24989.7
542.129	25083.93
542.494	25176.58
542.858	25354.66
543.223	25232.63
543.587	25333.87
543.952	25574.54
544.316	25605.5
544.681	25541.77
545.045	25858.37
545.41	25954.64
545.774	25998.03
546.138	26117.8
546.503	26203.68
546.867	26287.29
547.231	26579.03
547.595	26452.93
547.959	26687.05
548.324	26649.99
548.688	26732.93
549.052	26967.95
549.416	27020.15
549.779	27086.82
550.143	27162.52
550.507	27342.18
550.871	27470.08
551.235	27388.05
551.599	27685.9
551.962	27749.85
552.326	27928.6
552.689	28203.85
553.053	28035.27
553.417	28180.57
553.78	28547.57
554.143	28391.41
554.507	28690.16
554.87	28672.99
555.234	28945.75
555.597	28816.94
555.96	29003.15
556.323	29190.04
556.686	29171.73
557.05	29542.8
557.413	29650.14
557.776	29712.51
558.139	29836.57
558.502	29891.71
558.865	30012.16
559.228	30222.78
559.59	30447.18
559.953	30364.7
560.316	30795.87
560.679	30841.97
561.041	31092.59
561.404	31181.62
561.767	31313.15
562.129	31270.43
562.492	31462.75
562.854	31524.21
563.217	31661.61
563.579	31950.87
563.941	31904.32
564.304	32173.24
564.666	32246.23
565.028	32370.97
565.39	32596.95
565.753	32675.37
566.115	32716.27
566.477	33015.25
566.839	33007.34
567.201	33318.06
567.563	33349.93
567.925	33454.33
568.287	33611.62
568.648	33619.53
569.01	33843.7
569.372	33988.33
569.734	34047.54
570.095	34297.93
570.457	34459.05
570.819	34417.47
571.18	34495.89
571.542	34751.93
571.903	34700.85
572.265	34829.66
572.626	34929.77
572.987	35009.32
573.349	35097.45
573.71	35200.95
574.071	35388.29
574.432	35481.62
574.794	35792.12
575.155	35680.49
575.516	35669.64
575.877	35760.26
576.238	35861.73
576.599	35844.1
576.96	35793.93
577.32	35957.09
577.681	36214.49
578.042	36257.42
578.403	36300.59
578.763	36261.72
579.124	36308.95
579.485	36397.53
579.845	36458.1
580.206	36310.98
580.566	36425.78
580.927	36479.11
581.287	36576.74
581.648	36519.56
582.008	36631.42
582.368	36500.58
582.728	36638.88
583.089	36629.16
583.449	36664.19
583.809	36785.54
584.169	36805.66
584.529	36741.03
584.889	36935.14
585.249	36614.02
585.609	36684.3
585.969	36867.35
586.329	36753.23
586.688	36864.64
587.048	36806.56
587.408	36748.03
587.768	36872.77
588.127	36798.65
588.487	36753.91
588.846	36967.23
589.206	36715.72
589.565	36800.01
589.925	36978.76
590.284	36948.7
590.643	36899.21
591.003	37179.43
591.362	37164.07
591.721	37011.53
592.08	36997.52
592.44	37223.72
592.799	37048.36
593.158	37053.79
593.517	37044.52
593.876	37120.68
594.235	37033.9
594.593	37096.72
594.952	37350.5
595.311	36990.74
595.67	37171.3
596.029	37305.3
596.387	37272.54
596.746	37318.19
597.104	37187.34
597.463	37189.38
597.822	37364.06
598.18	37344.17
598.538	37173.78
598.897	37663.94
599.255	37215.82
599.613	37811.51
599.972	37473.44
600.33	37511.63
600.688	37336.49
601.046	37523.15
601.404	37798.4
601.762	37569.03
602.12	37851.96
602.478	37802.92
602.836	37705.29
603.194	37653.32
603.552	37756.59
603.91	37559.99
604.268	37714.33
604.625	37689.25
604.983	37898.06
605.341	37705.97
605.698	38027.09
606.056	38078.39
606.413	37977.83
606.771	38171.72
607.128	38199.97
607.485	38010.14
607.843	38046.53
608.2	38233.19
608.557	38347.76
608.914	38204.49
609.272	38350.25
609.629	38389.12
609.986	38483.13
610.343	38379.4
610.7	38636.34
611.057	38523.35
611.414	38423.02
611.771	38609.68
612.127	38779.84
612.484	38749.11
612.841	38824.59
613.198	38670.24
613.554	38636.34
613.911	38938.03
614.267	38886.73
614.624	38883.79
614.98	38950.23
615.337	39104.13
615.693	38943.45
616.05	38917.47
616.406	39236.78
616.762	39055.31
617.118	39145.03
617.475	38990.68
617.831	39106.39
618.187	39265.48
618.543	39228.64
618.899	39424.34
619.255	39305.25
619.611	39401.75
619.967	39477.45
620.323	39460.73
620.678	39323.78
621.034	39314.29
621.39	39282.2
621.746	39431.12
622.101	39669.31
622.457	39302.09
622.812	39468.19
623.168	39632.25
623.523	39573.95
623.879	39668.18
624.234	39459.82
624.589	39594.51
624.945	39618.46
625.3	39773.94
625.655	39557.22
626.01	39617.11
626.365	39599.93
626.72	39662.76
627.075	39493.5
627.43	39469.09
627.785	39628.41
628.14	39592.93
628.495	39656.88
628.85	39553.61
629.205	39564.91
629.559	39787.5
629.914	39571.01
630.269	39571.23
630.623	39517
630.978	39384.12
631.332	39538.47
631.687	39509.09
632.041	39331.01
632.396	39524.46
632.75	39290.56
633.104	39200.17
633.459	39240.62
633.813	39185.25
634.167	39192.94
634.521	39152.49
634.875	39253.73
635.229	39180.51
635.583	39056.9
635.937	39060.96
636.291	38924.24
636.645	38989.33
636.999	38755.89
637.352	38886.96
637.706	38753.4
638.06	38952.94
638.413	38767.86
638.767	38672.95
639.121	38721.31
639.474	38406.29
639.828	38469.12
640.181	38560.19
640.534	38488.1
640.888	38354.77
641.241	38236.58
641.594	38339.18
641.947	38303.47
642.301	38244.26
642.654	38162.23
643.007	38247.2
643.36	38282.91
643.713	38084.94
644.066	38385.73
644.419	38082.69
644.771	37685.18
645.124	37473.44
645.477	37372.42
645.83	37182.14
646.182	37025.99
646.535	36969.27
646.888	37029.61
647.24	36681.82
647.593	37052.43
647.945	36955.03
648.298	36718.43
648.65	36687.69
649.002	36659.67
649.355	36770.63
649.707	36695.15
650.059	36770.86
650.411	37225.76
650.763	37158.42
651.115	37647.89
651.467	37473.21
651.819	37416.94
652.171	37258.53
652.523	37212.2
652.875	37235.7
653.227	37044.52
653.578	37354.79
653.93	37181.69
654.282	36962.49
654.633	37059.44
654.985	36970.4
655.337	36955.71
655.688	36971.53
656.039	37138.3
656.391	36860.34
656.742	36859.67
657.094	37007.01
657.445	36936.95
657.796	36869.84
658.147	36864.41
658.498	36727.47
658.849	36834.81
659.2	36757.97
659.551	36751.87
659.902	36843.4
660.253	36622.38
660.604	36791.65
660.955	36593.01
661.306	36781.02
661.656	36599.79
662.007	36588.04
662.358	36524.76
662.708	36546.91
663.059	36576.06
663.409	36310.98
663.76	36464.2
664.11	36649.28
664.461	36474.14
664.811	36526.57
665.161	36513.91
665.511	36245.9
665.862	36361.6
666.212	36553.69
666.562	36413.12
666.912	36400.92
667.262	36347.36
667.612	36327.48
667.962	36339.23
668.312	36375.84
668.662	36394.82
669.011	36318.89
669.361	36166.8
669.711	36138.1
670.06	36123.64
670.41	36160.7
670.76	36080.03
671.109	36155.73
671.459	36038.67
671.808	36084.32
672.157	36143.98
672.507	35937.88
672.856	35923.65
673.205	35932.91
673.554	35985.34
673.904	35806.81
674.253	36035.06
674.602	35846.59
674.951	35348.75
675.3	35261.52
675.649	35711.22
675.998	35565.92
676.346	35637.78
676.695	35821.73
677.044	35474.39
677.393	35607.5
677.741	35652.24
678.09	35513.71
678.438	35516.42
678.787	35460.61
679.135	35382.87
679.484	35266.04
679.832	35443.43
680.181	35071.46
680.529	35249.77
680.877	35055.19
681.225	35156.43
681.573	35223.55
681.922	35156.43
682.27	34893.39
682.618	34863.33
682.966	34833.05
683.314	34876.89
683.661	34808.19
684.009	34521.65
684.357	34548.77
684.705	34475.55
685.053	34443.23
685.4	34379.96
685.748	34226.29
686.095	34271.71
686.443	34108.33
686.79	34012.74
687.138	34167.99
687.485	34220.87
687.832	34072.62
688.18	33896.81
688.527	33775.68
688.874	33811.38
689.221	33790.14
689.568	33534.78
689.915	33388.35
690.262	33443.03
690.609	33413.43
690.956	33284.62
691.303	33262.25
691.65	33005.98
691.997	33099.54
692.344	32919.66
692.69	32872.88
693.037	32879.21
693.383	32486
693.73	32757.18
694.077	32593.34
694.423	32490.52
694.769	32374.81
695.116	32254.36
695.462	32347.24
695.808	32109.73
696.155	32167.13
696.501	31858.89
696.847	31975.95
697.193	31725.56
697.539	31912.23
697.885	31596.75
698.231	31579.35
698.577	31512.01
698.923	31565.57
699.269	31331.22
699.614	31234.5
699.96	31197.67
700.306	31135.07
700.651	30888.75
700.997	30943.44
701.342	30937.34
701.688	30935.75
702.033	30637.68
702.379	30781.86
702.724	30616.89
703.069	30595.2
703.415	30455.77
703.76	30351.14
704.105	30276.34
704.45	30233.17
704.795	30160.41
705.14	30056.46
705.485	30083.12
705.83	29803.58
706.175	29862.79
706.52	29751.38
706.865	29654.21
707.209	29690.82
707.554	29426.87
707.899	29566.98
708.243	29460.31
708.588	29274.78
708.932	29227.78
709.277	29218.06
709.621	29304.61
709.966	28926.54
710.31	28992.75
710.654	28768.81
710.998	28847.67
711.342	28777.85
711.687	28768.13
712.031	28609.94
712.375	28562.26
712.719	28478.42
713.063	28462.37
713.407	28645.19
713.75	28380.34
714.094	28385.54
714.438	28248.82
714.782	28260.12
715.125	28231.42
715.469	28209.27
715.812	28056.06
716.156	27793.24
716.499	27952.33
716.843	27963.4
717.186	27814.71
717.53	27871.88
717.873	27796.4
718.216	27845.21
718.559	27570.42
718.902	27503.08
719.246	27593.47
719.589	27493.36
719.932	27374.49
720.275	27484.32
720.617	27333.14
720.96	27413.14
721.303	27275.06
721.646	27372.68
721.989	27104.67
722.331	27280.94
722.674	27205.46
723.016	27054.73
723.359	26993.26
723.701	27080.49
724.044	26778.12
724.386	26780.61
724.729	26943.54
725.071	26791.91
725.413	26760.04
725.755	26736.99
726.097	26458.36
726.439	26521.18
726.782	26461.07
727.124	26577.45
727.465	26329.77
727.807	26393.95
728.149	26384.46
728.491	26315.76
728.833	26340.85
729.175	26129.55
729.516	26077.58
729.858	26047.07
730.199	26012.72
730.541	26018.37
730.882	25998.48
731.224	26019.27
731.565	25923.23
731.906	25941.54
732.248	25878.49
732.589	25679.85
732.93	25644.14
733.271	25643.92
733.612	25702.22
733.953	25658.15
734.294	25538.38
734.635	25532.05
734.976	25569.12
735.317	25418.16
735.658	25472.62
735.999	25471.72
736.339	25288.45
736.68	25400.76
737.021	25342
737.361	25126.87
737.702	25391.04
738.042	25158.05
738.383	25170.03
738.723	25293.42
739.063	25190.37
739.404	25105.63
739.744	25080.09
740.084	24931.39
740.424	25100.65
740.764	24907.21
741.104	25041.67
741.444	24908.12
741.784	24855.46
742.124	24789.93
742.464	24895.01
742.804	24820.43
743.143	24687.78
743.483	24700.44
743.823	24562.81
744.162	24622.93
744.502	24486.43
744.841	24406.66
745.181	24554.91
745.52	24513.55
745.86	24558.07
746.199	24462.03
746.538	24280.11
746.877	24427.45
747.216	24243.73
747.556	24141.58
747.895	24142.49
748.234	24057.74
748.573	24092.77
748.911	23995.6
749.25	24028.82
749.589	23922.38
749.928	23905.66
750.267	23876.05
750.605	23818.43
750.944	23754.47
751.283	23663.86
751.621	23704.31
751.96	23589.96
752.298	23564.65
752.636	23665.44
752.975	23507.02
753.313	23467.7
753.651	23430.41
753.989	23312.45
754.327	23357.87
754.666	23160.37
755.004	23224.77
755.342	23194.49
755.679	23090.99
756.017	22929.41
756.355	23033.36
756.693	22957.89
757.031	22954.27
757.368	22837.21
757.706	22782.07
758.044	22671.34
758.381	22650.32
758.719	22651.23
759.056	22639.48
759.394	22623.88
759.731	22430.67
760.068	22360.39
760.405	22311.35
760.743	22131.47
761.08	22200.39
761.417	22143.67
761.754	22070.22
762.091	21984.13
762.428	21974.86
762.765	21808.76
763.102	21930.34
763.438	21792.49
763.775	21618.03
764.112	21565.61
764.449	21678.82
764.785	21496.68
765.122	21418.94
765.458	21295.56
765.795	21339.62
766.131	21246.97
766.467	21169.68
766.804	21129.91
767.14	20963.81
767.476	20979.86
767.812	20850.6
768.148	20921.33
768.485	20754.1
768.821	20710.71
769.157	20655.8
769.492	20559.53
769.828	20540.1
770.164	20361.12
770.5	20384.85
770.836	20345.75
771.171	20194.12
771.507	20168.35
771.842	19942.15
772.178	20014.91
772.513	19932.65
772.849	19805.43
773.184	19738.76
773.519	19802.04
773.855	19577.86
774.19	19574.92
774.525	19430.97
774.86	19466
775.195	19409.05
775.53	19322.27
775.865	19258.32
776.2	19026.91
776.535	18992.57
776.87	18965.9
777.205	18958.67
777.539	18793.47
777.874	18840.71
778.209	18641.61
778.543	18653.59
778.878	18549.41
779.212	18572.46
779.547	18400.49
779.881	18442.98
780.215	18290.66
780.55	18344.22
780.884	18172.47
781.218	18164.56
781.552	18302.41
781.886	18047.28
782.22	17944.01
782.554	17896.78
782.888	17651.13
783.222	17769.55
783.556	17570.68
783.889	17530.46
784.223	17482.32
784.557	17461.53
784.89	17429.67
785.224	17377.01
785.557	17317.58
785.891	17204.59
786.224	17083.01
786.558	17165.95
786.891	17020.41
787.224	16964.14
787.557	16871.94
787.891	16871.94
788.224	16861.1
788.557	16784.04
788.89	16819.97
789.223	16706.3
789.556	16564.38
789.888	16517.6
790.221	16450.71
790.554	16315.35
790.887	16331.84
791.219	16326.2
791.552	16326.87
791.884	16253.65
792.217	16178.85
792.549	16135.01
792.882	15978.41
793.214	15864.74
793.546	15804.85
793.879	15775.02
794.211	15711.75
794.543	15857.05
794.875	15648.92
795.207	15691.86
795.539	15564.63
795.871	15613.22
796.203	15431.76
796.535	15416.61
796.867	15306.11
797.198	15347.69
797.53	15286.9
797.862	15222.95
798.193	15277.64
798.525	15172.55
798.856	15160.35
799.188	14964.42
799.519	14888.49
799.85	14895.95
800.182	14873.58
800.513	14822.05
800.844	14730.08
801.175	14752
801.506	14793.35
801.837	14697.54
802.168	14722.62
802.499	14626.35
802.83	14550.87
803.161	14458.22
803.491	14590.42
803.822	14411.44
804.153	14417.77
804.483	14319.92
804.814	14275.63
805.145	14266.59
805.475	14227.27
805.805	14130.55
806.136	14152.47
806.466	14141.39
806.796	14114.05
807.126	13940.72
807.457	13927.16
807.787	13971.91
808.117	13873.83
808.447	13900.95
808.777	13860.05
809.107	13759.03
809.436	13685.81
809.766	13716.77
810.096	13719.03
810.426	13679.03
810.755	13640.84
811.085	13517.91
811.414	13588.87
811.744	13422.09
812.073	13410.79
812.403	13433.39
812.732	13412.37
813.061	13360.85
813.39	13218.71
813.719	13205.83
814.049	13319.95
814.378	13205.15
814.707	13221.64
815.036	13147.3
815.365	13069.33
815.693	12921.54
816.022	13021.65
816.351	12930.13
816.68	12879.51
817.008	12994.76
817.337	12721.54
817.665	12799.51
817.994	12889
818.322	12790.92
818.651	12677.25
818.979	12736.68
819.307	12767.87
819.636	12622.34
819.964	12584.6
820.292	12618.04
820.62	12658.04
820.948	12674.31
821.276	12590.02
821.604	12589.8
821.932	12601.1
822.259	12561.77
822.587	12578.27
822.915	12489.01
823.243	12578.5
823.57	12506.18
823.898	12551.38
824.225	12503.7
824.553	12430.03
824.88	12573.98
825.207	12540.98
825.535	12398.84
825.862	12513.64
826.189	12515.22
826.516	12627.76
826.843	12559.74
827.17	12525.39
827.497	12536.69
827.824	12456.01
828.151	12508.67
828.478	12486.75
828.805	12578.04
829.131	12425.73
829.458	12543.92
829.785	12364.04
830.111	12483.13
830.438	12553.19
830.764	12454.88
831.09	12452.4
831.417	12456.24
831.743	12453.53
832.069	12393.64
832.395	12358.62
832.722	12392.29
833.048	12373.08
833.374	12393.19
833.7	12341.89
834.026	12328.11
834.351	12285.85
834.677	12285.4
835.003	12363.14
835.329	12251.27
835.654	12256.02
835.98	12262.12
836.306	12250.6
836.631	12221.22
836.956	12176.02
837.282	12252.63
837.607	12133.99
837.932	12132.86
838.258	12193.42
838.583	12090.15
838.908	11996.37
839.233	12110.71
839.558	12154.1
839.883	12017.38
840.208	11957.27
840.533	11975.35
840.858	11934.67
841.182	11998.85
841.507	11918.4
841.832	11900.1
842.156	11874.11
842.481	11827.56
842.805	11825.52
843.13	11716.82
843.454	11721.34
843.778	11661.01
844.103	11760.67
844.427	11605.19
844.751	11639.31
845.075	11630.05
845.399	11594.12
845.723	11571.97
846.047	11511.41
846.371	11486.1
846.695	11463.72
847.019	11307.8
847.343	11271.64
847.666	11200.68
847.99	11100.57
848.313	11178.76
848.637	11172.88
848.96	11080.91
849.284	11065.77
849.607	10994.36
849.931	10925.66
850.254	10898.99
850.577	10859.22
850.9	10783.29
851.223	10771.54
851.546	10784.65
851.869	10622.39
852.192	10690.64
852.515	10626.68
852.838	10556.86
853.161	10564.31
853.483	10485.9
853.806	10454.94
854.129	10441.83
854.451	10337.43
854.774	10324.54
855.096	10289.97
855.419	10280.03
855.741	10258.33
856.063	10166.13
856.385	10259.46
856.708	10148.28
857.03	10144.89
857.352	10193.02
857.674	10029.41
857.996	9981.05
858.318	10004.55
858.64	10004.1
858.961	9909.19
859.283	9924.56
859.605	9917.55
859.926	9920.49
860.248	9816.31
860.57	9818.12
860.891	9780.15
861.212	9779.93
861.534	9755.75
861.855	9692.47
862.176	9704
862.498	9635.3
862.819	9688.4
863.14	9619.48
863.461	9661.74
863.782	9614.73
864.103	9609.99
864.424	9531.8
864.745	9576.54
865.065	9544.68
865.386	9495.64
865.707	9457.68
866.027	9526.83
866.348	9474.85
866.668	9482.31
866.989	9396.66
867.309	9318.7
867.63	9346.94
867.95	9385.13
868.27	9315.08
868.59	9335.64
868.91	9336.55
869.23	9292.71
869.55	9285.25
869.87	9305.36
870.19	9319.37
870.51	9308.75
870.83	9248.87
871.15	9153.95
871.469	9258.13
871.789	9217.91
872.109	9197.57
872.428	9200.05
872.748	9127.74
873.067	9153.73
873.386	9164.35
873.706	9123.45
874.025	9085.71
874.344	9031.25
874.663	9003.22
874.982	9069.66
875.301	9017.01
875.62	8941.98
875.939	8997.8
876.258	8990.57
876.577	8979.72
876.896	8952.38
877.214	8928.42
877.533	8912.15
877.852	8946.95
878.17	8898.59
878.489	8856.11
878.807	8821.53
879.125	8875.77
879.444	8819.73
879.762	8817.92
880.08	8796.45
880.398	8781.99
880.716	8728.43
881.034	8746.96
881.352	8691.37
881.67	8721.88
881.988	8711.71
882.306	8727.07
882.624	8611.37
882.941	8624.25
883.259	8605.95
883.577	8635.78
883.894	8483.92
884.212	8552.61
884.529	8546.29
884.846	8448.89
885.164	8524.82
885.481	8488.21
885.798	8509.68
886.115	8434.2
886.432	8425.16
886.75	8385.61
887.067	8422.9
887.383	8290.02
887.7	8353.07
888.017	8309.91
888.334	8252.51
888.651	8269.23
888.967	8256.8
889.284	8218.84
889.6	8224.49
889.917	8166.64
890.233	8198.05
890.55	8122.12
890.866	8189.69
891.182	8163.7
891.498	8082.34
891.815	8056.36
892.131	7979.07
892.447	7982.23
892.763	7981.33
893.079	7940.2
893.395	7913.99
893.71	7882.8
894.026	7873.08
894.342	7847.32
894.657	7787.66
894.973	7816.14
895.289	7793.54
895.604	7773.43
895.92	7739.53
896.235	7708.34
896.55	7706.76
896.865	7652.75
897.181	7654.33
897.496	7630.6
897.811	7541.79
898.126	7541.34
898.441	7566.65
898.756	7512.42
899.071	7478.29
899.386	7507.67
899.7	7414.79
900.015	7395.81
900.33	7289.6
900.644	7296.38
900.959	7311.06
901.273	7272.65
901.588	7247.79
901.902	7213.67
902.216	7168.47
902.531	7189.94
902.845	7098.19
903.159	7141.58
903.473	7066.55
903.787	7069.49
904.101	7052.09
904.415	7004.63
904.729	6989.72
905.042	7000.34
905.356	6844.18
905.67	6934.35
905.984	6944.07
906.297	6887.57
906.611	6853
906.924	6825.65
907.237	6773.68
907.551	6755.83
907.864	6756.05
908.177	6710.85
908.491	6715.83
908.804	6630.4
909.117	6593.8
909.43	6550.63
909.743	6587.47
910.056	6556.73
910.368	6556.51
910.681	6494.36
910.994	6471.54
911.307	6489.62
911.619	6405.33
911.932	6452.33
912.244	6349.06
912.557	6316.74
912.869	6313.58
913.181	6323.75
913.494	6225.67
913.806	6227.48
914.118	6232.45
914.43	6161.94
914.742	6141.15
915.054	6088.72
915.366	6141.38
915.678	6074.71
915.99	6057.54
916.302	6036.97
916.613	6008.73
916.925	5977.99
917.236	6006.47
917.548	5901.61
917.859	5928.95
918.171	5883.08
918.482	5916.53
918.794	5856.19
919.105	5859.58
919.416	5808.05
919.727	5819.35
920.038	5755.17
920.349	5732.8
920.66	5700.26
920.971	5709.53
921.282	5677.44
921.593	5631.79
921.903	5612.8
922.214	5568.29
922.525	5569.87
922.835	5521.06
923.146	5507.04
923.456	5505.69
923.767	5417.1
924.077	5467.05
924.387	5396.31
924.697	5387.05
925.008	5371.45
925.318	5374.17
925.628	5362.42
925.938	5351.12
926.248	5275.64
926.558	5270.44
926.867	5284.23
927.177	5235.19
927.487	5219.37
927.796	5178.92
928.106	5172.36
928.416	5090.11
928.725	5126.49
929.034	5055.3
929.344	5085.36
929.653	5062.31
929.962	5053.95
930.271	4990.9
930.581	4985.93
930.89	4954.52
931.199	4961.07
931.508	4934.18
931.817	4886.27
932.125	4895.54
932.434	4863.67
932.743	4838.59
933.051	4813.73
933.36	4839.72
933.669	4777.57
933.977	4726.27
934.286	4759.04
934.594	4703
934.902	4718.82
935.21	4710.23
935.519	4688.53
935.827	4668.2
936.135	4601.08
936.443	4577.8
936.751	4608.99
937.059	4571.93
937.367	4530.8
937.674	4545.26
937.982	4507.3
938.29	4469.56
938.597	4486.05
938.905	4447.64
939.213	4365.83
939.52	4394.98
939.827	4411.48
940.135	4387.98
940.442	4369.9
940.749	4315.44
941.056	4336.23
941.363	4278.15
941.67	4309.56
941.977	4223.01
942.284	4237.02
942.591	4188.66
942.898	4222.33
943.205	4192.73
943.511	4177.36
943.818	4167.19
944.125	4124.48
944.431	4156.57
944.738	4104.14
945.044	4089
945.35	4013.75
945.657	4051.26
945.963	4043.81
946.269	3998.61
946.575	4032.73
946.881	3956.8
947.187	3969.68
947.493	3923.13
947.799	3966.52
948.105	3947.76
948.41	3902.57
948.716	3866.18
949.022	3833.42
949.327	3829.12
949.633	3816.47
949.938	3810.37
950.244	3795.9
950.549	3780.54
950.854	3804.94
951.16	3742.57
951.465	3747.77
951.77	3733.31
952.075	3706.87
952.38	3665.28
952.685	3659.86
952.99	3671.84
953.294	3642.69
953.599	3605.4
953.904	3535.57
954.209	3591.39
954.513	3594.1
954.818	3568.79
955.122	3562.46
955.426	3521.56
955.731	3541.45
956.035	3466.19
956.339	3509.36
956.643	3465.97
956.948	3444.5
957.252	3476.59
957.556	3413.99
957.86	3388.68
958.163	3383.94
958.467	3375.35
958.771	3395.91
959.075	3382.58
959.378	3339.19
959.682	3376.25
959.985	3301
960.289	3290.38
960.592	3266.43
960.896	3284.05
961.199	3244.05
961.502	3290.83
961.805	3208.8
962.108	3234.79
962.411	3199.53
962.714	3206.54
963.017	3211.96
963.32	3174.9
963.623	3169.03
963.926	3125.41
964.228	3182.13
964.531	3110.5
964.833	3101.68
965.136	3071.63
965.438	3072.76
965.741	3058.3
966.043	3020.78
966.345	3013.32
966.648	3020.1
966.95	2992.76
967.252	2957.51
967.554	3007.45
967.856	3005.64
968.158	2916.83
968.46	2959.99
968.761	2920.22
969.063	2908.69
969.365	2885.19
969.666	2870.96
969.968	2891.75
970.269	2868.47
970.571	2851.07
970.872	2846.32
971.174	2838.87
971.475	2813.56
971.776	2797.74
972.077	2775.59
972.378	2793.44
972.679	2787.34
972.98	2780.56
973.281	2736.72
973.582	2671.41
973.883	2733.56
974.183	2691.75
974.484	2680.23
974.785	2676.38
975.085	2675.93
975.386	2664.18
975.686	2614.92
975.986	2644.97
976.287	2642.49
976.587	2591.19
976.887	2607.69
977.187	2609.95
977.487	2581.25
977.787	2595.26
978.087	2534.92
978.387	2538.76
978.687	2570.17
978.987	2541.47
979.286	2505.54
979.586	2512.32
979.885	2498.54
980.185	2475.94
980.484	2485.65
980.784	2430.74
981.083	2437.97
981.382	2461.02
981.682	2484.75
981.981	2464.64
982.28	2430.97
982.579	2396.84
982.878	2421.02
983.177	2403.62
983.475	2413.11
983.774	2355.49
984.073	2352.78
984.372	2324.53
984.67	2342.38
984.969	2327.02
985.267	2308.71
985.566	2307.35
985.864	2305.55
986.162	2282.27
986.461	2299.9
986.759	2254.02
987.057	2271.42
987.355	2227.58
987.653	2214.93
987.951	2194.36
988.249	2189.39
988.547	2204.98
988.844	2165.89
989.142	2169.96
989.44	2141.03
989.737	2126.12
990.035	2162.95
990.332	2115.04
990.63	2125.21
990.927	2102.84
991.224	2124.08
991.521	2086.12
991.819	2102.39
992.116	2096.74
992.413	2059.68
992.71	2083.63
993.006	2059.68
993.303	2060.81
993.6	2059.9
993.897	2043.63
994.193	2010.41
994.49	2036.63
994.787	1997.76
995.083	1975.84
995.379	1992.56
995.676	1980.81
995.972	1972
996.268	1980.36
996.565	1926.8
996.861	1909.62
997.157	1936.06
997.453	1913.47
997.749	1897.2
998.044	1884.77
998.34	1879.12
998.636	1901.04
998.932	1853.13
999.227	1843.19
999.523	1861.49
999.818	1824.66
1000.114	1807.93
1000.409	1827.82
1000.704	1823.3
1001	1816.52
1001.295	1760.02
1001.59	1789.4
1001.885	1792.11
1002.18	1747.37
1002.475	1745.56
1002.77	1777.43
1003.065	1743.75
1003.359	1724.55
1003.654	1728.16
1003.949	1728.84
1004.243	1724.32
1004.538	1712.57
1004.832	1700.59
1005.127	1664.66
1005.421	1644.1
1005.715	1674.15
1006.009	1655.17
1006.304	1637.32
1006.598	1642.74
1006.892	1654.72
1007.186	1600.25
1007.48	1604.77
1007.773	1578.56
1008.067	1596.19
1008.361	1585.79
1008.655	1571.78
1008.948	1545.57
1009.242	1561.16
1009.535	1561.84
1009.829	1567.49
1010.122	1555.96
1010.415	1521.61
1010.708	1510.99
1011.001	1493.82
1011.295	1478
1011.588	1466.47
1011.881	1487.94
1012.173	1449.07
1012.466	1466.02
1012.759	1445.68
1013.052	1468.05
1013.344	1440.71
1013.637	1437.09
1013.93	1428.96
1014.222	1410.2
1014.514	1423.99
1014.807	1389.64
1015.099	1414.5
1015.391	1370.66
1015.683	1388.96
1015.976	1372.92
1016.268	1345.12
1016.56	1345.12
1016.851	1339.47
1017.143	1334.95
1017.435	1340.15
1017.727	1292.69
1018.018	1274.61
1018.31	1307.83
1018.602	1299.25
1018.893	1278.91
1019.185	1279.58
1019.476	1287.95
1019.767	1244.11
1020.058	1267.61
1020.35	1225.8
1020.641	1267.38
1020.932	1222.86
1021.223	1212.47
1021.514	1239.36
1021.804	1217.44
1022.095	1194.16
1022.386	1181.28
1022.677	1187.38
1022.967	1164.11
1023.258	1192.13
1023.548	1152.13
1023.839	1161.85
1024.129	1163.88
1024.419	1141.28
1024.709	1142.64
1025	1128.63
1025.29	1133.15
1025.58	1127.27
1025.87	1088.18
1026.16	1091.79
1026.449	1108.29
1026.739	1072.13
1027.029	1077.56
1027.319	1100.83
1027.608	1080.27
1027.898	1053.38
1028.187	1071
1028.477	1039.14
1028.766	1060.83
1029.055	1016.54
1029.344	1020.61
1029.634	1031.23
1029.923	1019.48
1030.212	1009.99
1030.501	1011.57
1030.79	999.14
1031.078	979.03
1031.367	985.13
1031.656	996.43
1031.945	981.06
1032.233	967.73
1032.522	964.57
1032.81	938.58
1033.099	956.43
1033.387	946.94
1033.675	941.06
1033.963	944
1034.251	951.01
1034.54	918.24
1034.828	897.9
1035.116	894.51
1035.403	887.73
1035.691	897
1035.979	914.4
1036.267	910.33
1036.554	891.35
1036.842	879.6
1037.129	868.97
1037.417	854.74
1037.704	897.22
1037.992	841.4
1038.279	876.43
1038.566	842.99
1038.853	842.99
1039.14	842.99
