Data from White_paper_FLMS001491_033.txt Node
Date: Tue Feb 07 10:35:00 GMT 2017
User: dcchb
Spectrometer: FLMS00149
Trigger mode: 0
Integration Time (sec): 2.000000E-2
Scans to average: 10
Electric dark correction enabled: true
Nonlinearity correction enabled: false
Boxcar width: 0
XAxis mode: Wavelengths
Number of Pixels in Spectrum: 2048
>>>>>Begin Spectral Data<<<<<
341.393	-30.48
341.776	-30.48
342.16	-30.48
342.543	-77.03
342.927	-74.32
343.31	-76.58
343.693	-73.42
344.077	-75.45
344.46	-44.49
344.843	-58.95
345.226	-51.72
345.61	-14.66
345.993	-25.73
346.376	-12.4
346.759	7.26
347.142	28.28
347.525	37.32
347.908	62.85
348.291	63.3
348.674	116.86
349.057	117.54
349.44	125.67
349.823	112.57
350.206	161.61
350.588	226.24
350.971	258.33
351.354	252.23
351.737	257.87
352.119	282.73
352.502	288.38
352.884	298.1
353.267	319.34
353.65	326.35
354.032	322.05
354.414	344.43
354.797	334.71
355.179	353.92
355.562	340.81
355.944	370.87
356.326	370.87
356.709	378.78
357.091	354.6
357.473	380.81
357.855	351.88
358.238	368.83
358.62	371.09
359.002	358.44
359.384	351.66
359.766	385.55
360.148	396.18
360.53	368.61
360.912	378.1
361.294	370.87
361.676	350.53
362.057	377.65
362.439	347.36
362.821	381.04
363.203	353.47
363.584	366.57
363.966	365.89
364.348	374.03
364.729	362.96
365.111	374.03
365.493	363.63
365.874	361.37
366.256	353.47
366.637	349.85
367.019	360.24
367.4	354.37
367.781	355.5
368.163	360.47
368.544	385.55
368.925	351.66
369.306	354.82
369.688	377.19
370.069	367.7
370.45	351.43
370.831	359.57
371.212	360.7
371.593	356.63
371.974	370.64
372.355	368.38
372.736	372.9
373.117	381.26
373.498	361.83
373.879	389.4
374.26	376.52
374.641	365.67
375.021	371.54
375.402	386.46
375.783	386.68
376.163	406.8
376.544	407.25
376.925	391.2
377.305	386.91
377.686	417.19
378.066	408.61
378.447	393.69
378.827	393.24
379.208	411.09
379.588	423.52
379.968	402.28
380.349	386.46
380.729	440.47
381.109	381.71
381.489	422.16
381.87	438.89
382.25	436.17
382.63	402.73
383.01	413.12
383.39	428.04
383.77	435.05
384.15	430.3
384.53	429.62
384.91	442.28
385.29	439.56
385.67	459.9
386.049	458.1
386.429	456.06
386.809	448.6
387.189	463.07
387.568	475.95
387.948	444.08
388.328	465.78
388.707	492.67
389.087	482.73
389.466	497.19
389.846	481.6
390.225	505.33
390.605	502.16
390.984	528.15
391.363	519.56
391.743	513.69
392.122	509.85
392.501	530.86
392.881	538.32
393.26	545.78
393.639	545.1
394.018	548.49
394.397	539.45
394.776	537.42
395.155	571.09
395.534	574.25
395.913	545.78
396.292	568.83
396.671	627.58
397.05	604.53
397.429	593.46
397.808	597.07
398.186	602.5
398.565	605.44
398.944	619.9
399.323	619
399.701	638.2
400.08	654.02
400.458	653.12
400.837	660.12
401.215	671.2
401.594	662.61
401.972	691.99
402.351	694.7
402.729	715.26
403.107	709.39
403.486	731.99
403.864	731.53
404.242	757.97
404.62	774.47
404.999	767.69
405.377	773.12
405.755	805.88
406.133	817.18
406.511	850.63
406.889	841.14
407.267	847.46
407.645	892.21
408.023	887.69
408.401	923.39
408.779	957.74
409.156	943.73
409.534	995.93
409.912	1003.62
410.29	1046.33
410.667	1042.94
411.045	1089.72
411.422	1098.76
411.8	1118.64
412.178	1161.35
412.555	1189.6
412.933	1212.88
413.31	1260.33
413.687	1271.41
414.065	1298.07
414.442	1313.89
414.819	1353.66
415.197	1368.81
415.574	1418.52
415.951	1440.67
416.328	1479.09
416.705	1484.06
417.082	1494.45
417.46	1524.73
417.837	1571.51
418.214	1581
418.591	1610.61
418.967	1630.95
419.344	1671.85
419.721	1723.6
420.098	1728.34
420.475	1727.44
420.852	1757.5
421.228	1801.56
421.605	1829.81
421.982	1846.99
422.358	1879.3
422.735	1915.01
423.111	1912.97
423.488	1940.77
423.864	1980.09
424.241	2011.27
424.617	2003.82
424.994	2040.43
425.37	2063.02
425.746	2116.36
426.123	2140.99
426.499	2122.46
426.875	2169.24
427.251	2207.43
427.627	2246.07
428.003	2287.65
428.379	2366.97
428.756	2354.99
429.132	2379.85
429.507	2467.99
429.883	2441.09
430.259	2519.51
430.635	2523.58
431.011	2585.72
431.387	2594.54
431.763	2642.9
432.138	2686.29
432.514	2749.79
432.89	2752.05
433.265	2805.38
433.641	2830.69
434.016	2870.69
434.392	2943.23
434.767	2966.73
435.143	2983.23
435.518	3035.65
435.894	3052.15
436.269	3097.57
436.644	3135.09
437.02	3199.72
437.395	3174.41
437.77	3287.63
438.145	3302.99
438.52	3341.18
438.895	3386.83
439.271	3413.05
439.646	3461.86
440.021	3495.3
440.395	3487.39
440.77	3466.15
441.145	3551.57
441.52	3568.75
441.895	3580.27
442.27	3636.54
442.645	3645.36
443.019	3691.91
443.394	3694.62
443.769	3710.67
444.143	3725.81
444.518	3789.53
444.892	3780.95
445.267	3809.19
445.641	3845.12
446.016	3823.66
446.39	3889.19
446.764	3896.65
447.139	3912.69
447.513	3942.98
447.887	3934.61
448.262	3991.56
448.636	4049.19
449.01	4074.5
449.384	4078.57
449.758	4133.93
450.132	4182.07
450.506	4191.78
450.88	4222.74
451.254	4239.24
451.628	4332.57
452.002	4388.16
452.376	4420.48
452.75	4425
453.123	4450.98
453.497	4463.19
453.871	4523.07
454.244	4637.19
454.618	4748.15
454.992	4736.85
455.365	4718.32
455.739	4853.91
456.112	4897.75
456.486	4972.1
456.859	4993.12
457.232	5095.49
457.606	5096.84
457.979	5174.58
458.352	5284.64
458.725	5309.72
459.099	5310.62
459.472	5433.56
459.845	5503.16
460.218	5578.41
460.591	5623.16
460.964	5642.37
461.337	5772.31
461.71	5881
462.083	5923.71
462.456	5937.73
462.829	5993.09
463.201	6138.85
463.574	6069.93
463.947	6194.44
464.32	6350.82
464.692	6392.63
465.065	6415.9
465.438	6550.36
465.81	6631.94
466.183	6642.57
466.555	6814.76
466.928	6874.65
467.3	6898.6
467.672	7015.44
468.045	7145.83
468.417	7201.65
468.789	7210.69
469.161	7383.56
469.534	7479.83
469.906	7685.7
470.278	7706.94
470.65	7795.3
471.022	7979.71
471.394	8073.26
471.766	8116.43
472.138	8293.6
472.51	8457.88
472.882	8589.41
473.253	8662.17
473.625	8857.65
473.997	8968.38
474.369	9001.83
474.74	9080.69
475.112	9354.13
475.484	9426.67
475.855	9589.15
476.227	9698.98
476.598	9945.53
476.97	9993.66
477.341	10191.62
477.713	10379.87
478.084	10458.74
478.455	10676.36
478.827	10762.46
479.198	11144.14
479.569	11121.09
479.94	11466.39
480.311	11514.75
480.682	11883.33
481.053	12124.46
481.424	12326.94
481.795	12343.21
482.166	12598.12
482.537	12772.12
482.908	13015.73
483.279	13114.71
483.65	13469.73
484.021	13628.82
484.391	13794.24
484.762	13870.62
485.133	14000.79
485.503	14266.09
485.874	14592.41
486.244	14594.22
486.615	14962.35
486.985	15036.47
487.356	15352.84
487.726	15459.73
488.097	15834.19
488.467	15871.93
488.837	16170.45
489.207	16304.91
489.578	16544
489.948	16693.37
490.318	16949.41
490.688	17003.65
491.058	17216.07
491.428	17551.43
491.798	17644.31
492.168	17942.16
492.538	18065.99
492.908	18253.79
493.278	18421.01
493.648	18440.9
494.017	18771.29
494.387	18951.62
494.757	19043.14
495.126	19342.8
495.496	19401.1
495.866	19592.73
496.235	19700.98
496.605	19857.59
496.974	20024.36
497.344	20161.76
497.713	20320.62
498.082	20386.61
498.452	20591.8
498.821	20847.62
499.19	20780.95
499.559	21126.93
499.928	21090.55
500.298	21274.95
500.667	21470.65
501.036	21453.48
501.405	21744.99
501.774	21670.42
502.143	21932.78
502.512	22012.33
502.88	22295.04
503.249	22273.34
503.618	22386.78
503.987	22556.5
504.356	22637.17
504.724	22848.92
505.093	22979.54
505.462	23060.21
505.83	23363.93
506.199	23409.58
506.567	23664.49
506.936	23763.7
507.304	23921.21
507.672	24020.87
508.041	24156.23
508.409	24282.55
508.777	24619.04
509.145	24702.43
509.514	24694.29
509.882	24900.84
510.25	25033.95
510.618	25210.21
510.986	25321.17
511.354	25505.35
511.722	25852.46
512.09	26068.95
512.458	25847.71
512.826	26248.83
513.193	26333.12
513.561	26494.92
513.929	26681.81
514.297	26849.94
514.664	27032.76
515.032	27225.98
515.4	27432.75
515.767	27523.82
516.135	27691.5
516.502	27691.05
516.869	28024.15
517.237	28077.48
517.604	28069.57
517.972	28490.58
518.339	28637.02
518.706	28700.74
519.073	28917.46
519.44	29016.89
519.808	29278.58
520.175	29248.98
520.542	29672.02
520.909	29849.86
521.276	29983.87
521.643	30244.43
522.009	30514.71
522.376	30648.26
522.743	30893.45
523.11	31185.87
523.477	31441.01
523.843	31613.66
524.21	31905.4
524.577	32065.17
524.943	32231.27
525.31	32374.09
525.676	32744.03
526.043	32807.08
526.409	32984.25
526.776	33324.8
527.142	33393.5
527.508	33648.41
527.874	33861.74
528.241	34160.94
528.607	34134.72
528.973	34548.05
529.339	34477.54
529.705	34690.64
530.071	34992.33
530.437	35300.57
530.803	35561.35
531.169	35681.12
531.535	35630.96
531.901	35873.44
532.267	36046.76
532.632	36449.92
532.998	36385.96
533.364	36674.09
533.73	36665.5
534.095	36983.24
534.461	37034.76
534.826	37286.96
535.192	37559.27
535.557	37700.73
535.923	37663.9
536.288	37919.26
536.653	38067.05
537.019	37996.77
537.384	38296.87
537.749	38453.93
538.114	38508.62
538.479	38579.58
538.845	38732.57
539.21	38764.88
539.575	38962.85
539.94	39064.31
540.305	39372.78
540.67	39337.98
541.034	39467.24
541.399	39690.51
541.764	39681.47
542.129	39928.02
542.494	40025.42
542.858	40268.57
543.223	40216.82
543.587	40544.5
543.952	40506.76
544.316	40832.85
544.681	40602.8
545.045	40981.55
545.41	41216.12
545.774	41156.69
546.138	41277.59
546.503	41482.33
546.867	41366.62
547.231	41902.43
547.595	41967.06
547.959	41972.94
548.324	42069.66
548.688	42144.68
549.052	42289.99
549.416	42390.55
549.779	42530.21
550.143	42656.08
550.507	42854.27
550.871	43119.57
551.235	42968.62
551.599	43299.23
551.962	43377.19
552.326	43554.82
552.689	43891.53
553.053	43677.07
553.417	43830.97
553.78	44288.13
554.143	44209.71
554.507	44397.28
554.87	44611.74
555.234	44822.8
555.597	44700.32
555.96	44953.87
556.323	45011.5
556.686	45141.21
557.05	45450.13
557.413	45602.22
557.776	45701.65
558.139	45861.2
558.502	45858.03
558.865	45981.42
559.228	46350.9
559.59	46311.58
559.953	46429.77
560.316	46886.71
560.679	46825.92
561.041	47048.28
561.404	47321.95
561.767	47478.55
562.129	47339.35
562.492	47766.23
562.854	47799.22
563.217	47834.25
563.579	48008.26
563.941	48205.09
564.304	48361.69
564.666	48672.19
565.028	48607.34
565.39	48911.51
565.753	48981.57
566.115	49168.9
566.477	49399.63
566.839	49462
567.201	49703.13
567.563	49645.28
567.925	49858.83
568.287	49972.05
568.648	49995.32
569.01	50189.44
569.372	50443.22
569.734	50305.37
570.095	50698.13
570.457	50792.59
570.819	50823.1
571.18	50905.13
571.542	51172.47
571.903	51107.61
572.265	51263.99
572.626	51475.06
572.987	51503.98
573.349	51595.51
573.71	51719.8
574.071	51858.55
574.432	51964.54
574.794	52181.03
575.155	52068.04
575.516	51991.43
575.877	52189.16
576.238	52458.99
576.599	52440.68
576.96	52389.61
577.32	52486.33
577.681	52651.07
578.042	52728.59
578.403	52755.03
578.763	52785.53
579.124	52924.06
579.485	53024.17
579.845	53075.24
580.206	53045.64
580.566	52972.65
580.927	53095.81
581.287	53240.66
581.648	53086.99
582.008	53325.18
582.368	53260.1
582.728	53351.85
583.089	53318.4
583.449	53243.37
583.809	53389.58
584.169	53440.66
584.529	53467.32
584.889	53688.56
585.249	53495.57
585.609	53389.36
585.969	53526.53
586.329	53441.79
586.688	53550.71
587.048	53689.92
587.408	53585.96
587.768	53542.8
588.127	53614.66
588.487	53604.72
588.846	53841.32
589.206	53654.21
589.565	53709.58
589.925	53797.03
590.284	53759.74
590.643	53827.54
591.003	53863.7
591.362	54011.04
591.721	53891.04
592.08	53883.81
592.44	54027.99
592.799	54047.87
593.158	53919.06
593.517	53971.94
593.876	54020.3
594.235	53928.33
594.593	54043.13
594.952	54039.74
595.311	53977.14
595.67	54085.39
596.029	54171.26
596.387	54222.33
596.746	54228.21
597.104	54192.5
597.463	54177.81
597.822	54346.4
598.18	54225.95
598.538	54209
598.897	54347.07
599.255	54134.88
599.613	54576.67
599.972	54432.04
600.33	54454.19
600.688	54333.74
601.046	54492.38
601.404	54527.18
601.762	54527.18
602.12	54672.49
602.478	54590.68
602.836	54612.15
603.194	54522.21
603.552	54551.81
603.91	54506.39
604.268	54614.19
604.625	54609.89
604.983	54710.23
605.341	54599.72
605.698	54722.66
606.056	54822.32
606.413	54692.6
606.771	54836.1
607.128	54859.6
607.485	54805.82
607.843	54816.44
608.2	54961.75
608.557	55033.61
608.914	54874.07
609.272	55016.89
609.629	55055.08
609.986	55175.07
610.343	55027.73
610.7	55188.41
611.057	55215.75
611.414	55178.46
611.771	55256.65
612.127	55316.54
612.484	55255.07
612.841	55360.61
613.198	55285.58
613.554	55293.04
613.911	55419.81
614.267	55412.36
614.624	55389.53
614.98	55484.67
615.337	55500.49
615.693	55546.59
616.05	55495.74
616.406	55643.54
616.762	55445.8
617.118	55487.16
617.475	55543.43
617.831	55598.34
618.187	55601.05
618.543	55623.2
618.899	55725.79
619.255	55759.01
619.611	55770.99
619.967	55710.43
620.323	55832.23
620.678	55663.88
621.034	55739.58
621.39	55700.94
621.746	55694.16
622.101	55960.59
622.457	55699.35
622.812	55829.07
623.168	55915.17
623.523	55833.14
623.879	55898.22
624.234	55657.32
624.589	55821.16
624.945	55884.43
625.3	55882.85
625.655	55894.15
626.01	55857.32
626.365	55863.42
626.72	55815.28
627.075	55806.47
627.43	55800.37
627.785	55772.8
628.14	55811.22
628.495	55894.83
628.85	55815.51
629.205	55759.47
629.559	55981.61
629.914	55870.42
630.269	55792.46
630.623	55805.57
630.978	55776.64
631.332	55777.77
631.687	55939.57
632.041	55783.42
632.396	55824.55
632.75	55668.17
633.104	55813.48
633.459	55649.19
633.813	55676.98
634.167	55648.51
634.521	55589.98
634.875	55696.64
635.229	55583.65
635.583	55475.41
635.937	55561.05
636.291	55569.87
636.645	55538
636.999	55490.09
637.352	55548.17
637.706	55389.76
638.06	55541.84
638.413	55445.35
638.767	55433.6
639.121	55480.15
639.474	55325.13
639.828	55343.88
640.181	55416.42
640.534	55396.09
640.888	55298.01
641.241	55129.2
641.594	55298.46
641.947	55339.36
642.301	55277.44
642.654	55279.93
643.007	55234.28
643.36	55266.82
643.713	55139.14
644.066	55172.81
644.419	55036.32
644.771	54909.54
645.124	54623.9
645.477	54620.74
645.83	54464.58
646.182	54349.33
646.535	54290.8
646.888	54401.31
647.24	54272.27
647.593	54396.34
647.945	54284.93
648.298	54147.53
648.65	54091.71
649.002	54131.94
649.355	54183.69
649.707	54092.17
650.059	54329.22
650.411	54616.22
650.763	54637.69
651.115	54903.9
651.467	54832.94
651.819	54808.3
652.171	54800.17
652.523	54670
652.875	54681.98
653.227	54672.49
653.578	54836.55
653.93	54716.78
654.282	54594.98
654.633	54522.21
654.985	54639.95
655.337	54658.03
655.688	54598.37
656.039	54651.92
656.391	54430.01
656.742	54475.88
657.094	54523.57
657.445	54658.7
657.796	54517.46
658.147	54551.14
658.498	54535.77
658.849	54525.15
659.2	54478.14
659.551	54433.4
659.902	54489.89
660.253	54432.95
660.604	54454.19
660.955	54419.84
661.306	54429.33
661.656	54522.21
662.007	54394.53
662.358	54381.88
662.708	54380.29
663.059	54427.07
663.409	54225.95
663.76	54443.79
664.11	54290.58
664.461	54386.62
664.811	54368.54
665.161	54312.95
665.511	54247.87
665.862	54244.25
666.212	54221.2
666.562	54312.5
666.912	54287.87
667.262	54177.13
667.612	54195.89
667.962	54255.55
668.312	54223.46
668.662	54298.04
669.011	54132.62
669.361	54088.1
669.711	54133.07
670.06	54072.05
670.41	54035.9
670.76	53927.88
671.109	54085.16
671.459	54015.33
671.808	53959.06
672.157	54020.3
672.507	53821.44
672.856	53825.51
673.205	53825.28
673.554	53927.88
673.904	53795
674.253	53885.84
674.602	53814.21
674.951	53419.19
675.3	53240.44
675.649	53741.44
675.998	53689.92
676.346	53716.36
676.695	53807.2
677.044	53507.77
677.393	53623.7
677.741	53668
678.09	53541.22
678.438	53540.54
678.787	53420.77
679.135	53521.33
679.484	53194.34
679.832	53335.12
680.181	53166.31
680.529	53317.04
680.877	53190.04
681.225	53192.3
681.573	53268.23
681.922	53032.53
682.27	52933.78
682.618	52947.34
682.966	53012.65
683.314	53065.98
683.661	52863.5
684.009	52777.62
684.357	52646.33
684.705	52588.7
685.053	52689.49
685.4	52586.89
685.748	52415.6
686.095	52399.33
686.443	52191.42
686.79	52191.88
687.138	52232.55
687.485	52176.28
687.832	52118.43
688.18	52138.32
688.527	51885.9
688.874	51851.32
689.221	51861.04
689.568	51752.34
689.915	51653.13
690.262	51557.77
690.609	51511.67
690.956	51418.34
691.303	51343.76
691.65	51181.28
691.997	51169.3
692.344	50925.02
692.69	50939.48
693.037	51025.58
693.383	50619.94
693.73	50860.39
694.077	50586.95
694.423	50417.01
694.769	50479.83
695.116	50411.81
695.462	50213.85
695.808	50155.09
696.155	50295.2
696.501	49970.92
696.847	49851.82
697.193	49651.15
697.539	49836.01
697.885	49610.7
698.231	49469.01
698.577	49501.1
698.923	49434.21
699.269	49160.54
699.614	49028.12
699.96	49024.28
700.306	48947.67
700.651	48731.63
700.997	48762.36
701.342	48648.01
701.688	48600.33
702.033	48498.41
702.379	48459.09
702.724	48393.78
703.069	48419.09
703.415	47869.05
703.76	47999.44
704.105	48043.51
704.45	47918.09
704.795	47690.3
705.14	47620.47
705.485	47442.4
705.83	47246.47
706.175	47448.05
706.52	47114.27
706.865	47144.55
707.209	46976.87
707.554	46907.95
707.899	46979.36
708.243	46755.18
708.588	46823.2
708.932	46536.43
709.277	46466.6
709.621	46458.24
709.966	46273.84
710.31	46314.97
710.654	45952.27
710.998	46012.83
711.342	46108.19
711.687	46016.67
712.031	45704.59
712.375	45649.68
712.719	45685.83
713.063	45648.55
713.407	45717.02
713.75	45501.2
714.094	45479.74
714.438	45257.14
714.782	45289.23
715.125	45034.78
715.469	45236.35
715.812	44986.87
716.156	44852.63
716.499	44663.03
716.843	44876.59
717.186	44588.69
717.53	44701.45
717.873	44704.39
718.216	44624.39
718.559	44357.73
718.902	44098.76
719.246	44266.89
719.589	44045.2
719.932	43936.95
720.275	43947.12
720.617	43898.31
720.96	43923.17
721.303	43840.68
721.646	43766.56
721.989	43592.55
722.331	43699.9
722.674	43397.31
723.016	43542.61
723.359	43493.35
723.701	43597.75
724.044	43102.62
724.386	43132.23
724.729	43262.39
725.071	43106.47
725.413	43060.82
725.755	43165.67
726.097	42824.66
726.439	42716.87
726.782	42647.72
727.124	42886.58
727.465	42438.91
727.807	42570.66
728.149	42353.49
728.491	42442.75
728.833	42438.69
729.175	42190.56
729.516	42239.37
729.858	42074.4
730.199	42089.54
730.541	42140.84
730.882	41998.25
731.224	42099.26
731.565	41916.21
731.906	41873.96
732.248	41876.67
732.589	41638.26
732.93	41578.37
733.271	41631.25
733.612	41685.26
733.953	41671.47
734.294	41463.12
734.635	41431.93
734.976	41396.23
735.317	41226.97
735.658	41134.31
735.999	41193.52
736.339	41073.98
736.68	41254.54
737.021	40956.92
737.361	40744.04
737.702	40985.62
738.042	40885.51
738.383	40783.14
738.723	40697.26
739.063	40711.95
739.404	40804.15
739.744	40621.33
740.084	40571.39
740.424	40515.8
740.764	40280.78
741.104	40482.35
741.444	40325.97
741.784	40170.05
742.124	40273.77
742.464	40256.82
742.804	40159.88
743.143	40107.9
743.483	39915.36
743.823	39991.29
744.162	39819.77
744.502	39933.89
744.841	39770.06
745.181	39862.71
745.52	39783.16
745.86	39781.58
746.199	39548.59
746.538	39632.21
746.877	39670.4
747.216	39610.06
747.556	39472.21
747.895	39485.77
748.234	39224.31
748.573	39140.47
748.911	39165.78
749.25	39185.21
749.589	38997.87
749.928	39040.58
750.267	39018.21
750.605	38927.14
750.944	38754.26
751.283	38712
751.621	38741.16
751.96	38532.12
752.298	38514.27
752.636	38667.26
752.975	38311.79
753.313	38192.92
753.651	38427.72
753.989	38080.16
754.327	38097.33
754.666	37822.54
755.004	37924.68
755.342	37858.02
755.679	37941.18
756.017	37726.72
756.355	37767.4
756.693	37444.92
757.031	37665.48
757.368	37370.12
757.706	37380.74
758.044	37217.58
758.381	37203.12
758.719	37045.38
759.056	37050.35
759.394	36914.76
759.731	36617.37
760.068	36592.51
760.405	36593.42
760.743	36359.07
761.08	36443.59
761.417	36142.35
761.754	36215.57
762.091	36065.75
762.428	35945.98
762.765	35764.51
763.102	35983.71
763.438	35647.68
763.775	35609.04
764.112	35513.44
764.449	35497.85
764.785	35465.99
765.122	35047.47
765.458	35089.95
765.795	34948.71
766.131	34990.97
766.467	34755.05
766.804	34721.6
767.14	34306.7
767.476	34565.67
767.812	34295.4
768.148	34395.51
768.485	34107.61
768.821	33940.6
769.157	33938.12
769.492	33823.09
769.828	33807.95
770.164	33507.17
770.5	33415.19
770.836	33331.36
771.171	33226.95
771.507	33183.34
771.842	32993.51
772.178	33039.16
772.513	32857.24
772.849	32618.83
773.184	32628.32
773.519	32581.09
773.855	32410.25
774.19	32218.39
774.525	32271.5
774.86	32287.77
775.195	32029.69
775.53	31993.31
775.865	31690.95
776.2	31581.34
776.535	31349.94
776.87	31308.58
777.205	31266.55
777.539	31172.99
777.874	31210.06
778.209	30890.97
778.543	30812.1
778.878	30780.91
779.212	30581.37
779.547	30486.01
779.881	30361.26
780.215	30274.26
780.55	30380.47
780.884	30128.28
781.218	30082.4
781.552	30087.15
781.886	29780.26
782.22	29818.23
782.554	29624.56
782.888	29341.63
783.222	29300.05
783.556	29178.7
783.889	29065.93
784.223	28851.92
784.557	28909.1
784.89	28904.13
785.224	28673.4
785.557	28667.07
785.891	28465.72
786.224	28396.12
786.558	28421.65
786.891	28168.78
787.224	28091.94
787.557	28028.67
787.891	27905.28
788.224	27799.98
788.557	27720.88
788.89	27740.99
789.223	27631.62
789.556	27502.58
789.888	27384.17
790.221	27300.1
790.554	26994.57
790.887	27076.83
791.219	27001.13
791.552	26857.18
791.884	26828.25
792.217	26812.2
792.549	26660.34
792.882	26368.6
793.214	26346.23
793.546	26395.27
793.879	26159.57
794.211	26133.35
794.543	26240.47
794.875	25981.72
795.207	26077.76
795.539	25892.45
795.871	25900.14
796.203	25711.89
796.535	25522.07
796.867	25541.28
797.198	25531.11
797.53	25348.06
797.862	25116.88
798.193	25280.04
798.525	25130.67
798.856	25131.8
799.188	24847.06
799.519	24802.77
799.85	24636.22
800.182	24726.38
800.513	24765.7
800.844	24511.02
801.175	24565.71
801.506	24549.67
801.837	24316.23
802.168	24377.24
802.499	24257.7
802.83	24034.42
803.161	24054.54
803.491	24047.76
803.822	24046.85
804.153	23915.11
804.483	23600.09
804.814	23535.91
805.145	23621.78
805.475	23605.74
805.805	23547.21
806.136	23476.25
806.466	23472.18
806.796	23341.34
807.126	23231.51
807.457	23158.52
807.787	23078.97
808.117	23026.54
808.447	22944.96
808.777	23012.98
809.107	22808.24
809.436	22775.25
809.766	22798.75
810.096	22679.21
810.426	22505.43
810.755	22614.57
811.085	22548.59
811.414	22460.45
811.744	22362.83
812.073	22170.74
812.403	22314.7
812.732	22116.51
813.061	22159.22
813.39	21957.19
813.719	21899.11
814.049	22073.57
814.378	21864.31
814.707	21787.25
815.036	21761.72
815.365	21631.55
815.693	21445.79
816.022	21536.86
816.351	21451.44
816.68	21356.3
817.008	21506.13
817.337	21271.79
817.665	21208.28
817.994	21260.03
818.322	21239.47
818.651	21109.98
818.979	21048.29
819.307	21080.83
819.636	21045.8
819.964	20886.48
820.292	20980.27
820.62	20869.31
820.948	20877.9
821.276	20870.44
821.604	20770.1
821.932	20843.77
822.259	20849.42
822.587	20789.76
822.915	20696.43
823.243	20763.32
823.57	20738.47
823.898	20793.83
824.225	20575.53
824.553	20679.26
824.88	20780.05
825.207	20778.24
825.535	20646.27
825.862	20721.29
826.189	20634.06
826.516	20755.41
826.843	20858.91
827.17	20782.98
827.497	20803.1
827.824	20736.66
828.151	20787.96
828.478	20821.4
828.805	20781.4
829.131	20719.94
829.458	20676.55
829.785	20556.78
830.111	20575.53
830.438	20737.11
830.764	20666.6
831.09	20648.07
831.417	20550.9
831.743	20657.79
832.069	20572.14
832.395	20506.16
832.722	20540.73
833.048	20448.53
833.374	20646.04
833.7	20397.68
834.026	20439.72
834.351	20503.9
834.677	20499.38
835.003	20543.67
835.329	20397.46
835.654	20392.71
835.98	20254.64
836.306	20352.94
836.631	20225.03
836.956	20321.53
837.282	20228.65
837.607	20186.84
837.932	20132.61
838.258	20142.78
838.583	20071.59
838.908	20075.43
839.233	20020.07
839.558	20036.79
839.883	19950.01
840.208	19845.38
840.533	19914.98
840.858	19888.32
841.182	19781.66
841.507	19748.66
841.832	19722.22
842.156	19637.25
842.481	19656.46
842.805	19599.74
843.13	19505.96
843.454	19627.99
843.778	19460.53
844.103	19458.73
844.427	19319.07
844.751	19382.57
845.075	19238.17
845.399	19257.6
845.723	19131.05
846.047	19075.68
846.371	18999.75
846.695	18988.23
847.019	18843.83
847.343	18730.38
847.666	18633.21
847.99	18531.07
848.313	18571.07
848.637	18317.96
848.96	18442.93
849.284	18344.4
849.607	18184.18
849.931	18166.56
850.254	18058.76
850.577	17989.39
850.9	17808.6
851.223	17878.88
851.546	17680.92
851.869	17632.56
852.192	17721.37
852.515	17459.68
852.838	17550.75
853.161	17498.78
853.483	17430.08
853.806	17205.68
854.129	17329.06
854.451	17212.01
854.774	17220.37
855.096	17064.66
855.419	17040.03
855.741	16959.13
856.063	16785.8
856.385	16841.62
856.708	16760.04
857.03	16677.56
857.352	16742.86
857.674	16675.07
857.996	16680.95
858.318	16571.57
858.64	16534.73
858.961	16502.19
859.283	16444.34
859.605	16336.77
859.926	16411.57
860.248	16311.01
860.57	16163.22
860.891	16256.32
861.212	16130.68
861.534	16107.63
861.855	16116.21
862.176	16114.63
862.498	16005.48
862.819	16044.13
863.14	15971.81
863.461	15949.67
863.782	15845.04
864.103	15979.27
864.424	15907.41
864.745	15834.87
865.065	15731.14
865.386	15670.8
865.707	15602.33
866.027	15645.72
866.348	15669.67
866.668	15691.14
866.989	15557.13
867.309	15515.78
867.63	15568.66
867.95	15632.16
868.27	15356.69
868.59	15423.13
868.91	15369.79
869.23	15308.55
869.55	15323.69
869.87	15376.8
870.19	15311.49
870.51	15305.39
870.83	15304.03
871.15	15224.03
871.469	15222.23
871.789	15223.13
872.109	15160.99
872.428	15069.46
872.748	15097.94
873.067	15076.92
873.386	15139.97
873.706	15172.96
874.025	14955.34
874.344	14961.89
874.663	15083.25
874.982	14912.86
875.301	14976.13
875.62	14953.99
875.939	14926.19
876.258	14848
876.577	14761.9
876.896	14745.4
877.214	14732.75
877.533	14721
877.852	14675.57
878.17	14685.29
878.489	14766.42
878.807	14718.06
879.125	14705.18
879.444	14640.32
879.762	14605.52
880.08	14601.45
880.398	14450.95
880.716	14506.99
881.034	14402.14
881.352	14453.21
881.67	14393.77
881.988	14342.93
882.306	14325.08
882.624	14341.12
882.941	14211.18
883.259	14154.68
883.577	14209.15
883.894	14139.54
884.212	14104.74
884.529	14093.67
884.846	14024.07
885.164	13968.25
885.481	13996.04
885.798	13980
886.115	13887.8
886.432	13900
886.75	13868.36
887.067	13889.38
887.383	13710.63
887.7	13837.63
888.017	13719.22
888.334	13683.51
888.651	13703.17
888.967	13663.17
889.284	13606
889.6	13638.09
889.917	13497.07
890.233	13498.66
890.55	13403.29
890.866	13379.11
891.182	13357.42
891.498	13259.34
891.815	13222.73
892.131	13212.56
892.447	13124.88
892.763	13094.37
893.079	13031.32
893.395	13056.41
893.71	13107.25
894.026	12967.37
894.342	12947.26
894.657	12866.36
894.973	12872.01
895.289	12839.24
895.604	12848.5
895.92	12694.16
896.235	12648.74
896.55	12675.63
896.865	12615.29
897.181	12632.01
897.496	12581.39
897.811	12509.3
898.126	12444.45
898.441	12323.32
898.756	12413.04
899.071	12318.8
899.386	12271.34
899.7	12187.05
900.015	12149.09
900.33	12045.81
900.644	12024.12
900.959	12128.52
901.273	11999.26
901.588	11964.69
901.902	11899.15
902.216	11868.42
902.531	11839.72
902.845	11715.43
903.159	11686.5
903.473	11642.66
903.787	11613.28
904.101	11588.65
904.415	11514.75
904.729	11482.21
905.042	11476.11
905.356	11392.05
905.67	11302.56
905.984	11371.71
906.297	11280.86
906.611	11284.48
906.924	11227.76
907.237	11293.06
907.551	11161.77
907.864	11076.8
908.177	11001.09
908.491	10968.78
908.804	10945.28
909.117	10891.04
909.43	10824.15
909.743	10811.5
910.056	10751.84
910.368	10704.15
910.681	10689.24
910.994	10617.6
911.307	10526.08
911.619	10494.44
911.932	10474.56
912.244	10443.6
912.557	10409.7
912.869	10349.36
913.181	10321.79
913.494	10301.45
913.806	10186.43
914.118	10212.42
914.43	10110.95
914.742	10101.68
915.054	10055.13
915.366	9972.42
915.678	9981.01
915.99	9953.21
916.302	9880.22
916.613	9844.06
916.925	9825.08
917.236	9749.38
917.548	9717.29
917.859	9645.2
918.171	9612.66
918.482	9557.07
918.794	9537.86
919.105	9527.91
919.416	9483.62
919.727	9460.34
920.038	9463.73
920.349	9344.87
920.66	9352.55
920.971	9256.96
921.282	9219.67
921.593	9150.52
921.903	9152.56
922.214	9113.46
922.525	9088.38
922.835	9024.42
923.146	8934.26
923.456	8931.54
923.767	8959.34
924.077	8817.42
924.387	8742.4
924.697	8807.71
925.008	8795.28
925.318	8753.7
925.628	8741.49
925.938	8697.65
926.248	8602.74
926.558	8582.4
926.867	8553.25
927.177	8527.94
927.487	8471.22
927.796	8443.65
928.106	8324.56
928.416	8301.05
928.725	8329.07
929.034	8273.03
929.344	8299.47
929.653	8233.03
929.962	8178.34
930.271	8110.32
930.581	8062.87
930.89	8059.03
931.199	8001.17
931.508	7969.54
931.817	7993.72
932.125	7949.42
932.434	7851.12
932.743	7805.7
933.051	7805.25
933.36	7783.1
933.669	7741.29
933.977	7707.85
934.286	7683.22
934.594	7691.13
934.902	7560.73
935.21	7576.78
935.519	7603.9
935.827	7564.8
936.135	7483.67
936.443	7395.09
936.751	7405.94
937.059	7380.63
937.367	7329.55
937.674	7327.52
937.982	7293.4
938.29	7280.74
938.597	7240.97
938.905	7098.15
939.213	7139.5
939.52	7034.19
939.827	7136.79
940.135	7104.93
940.442	7050.69
940.749	7016.79
941.056	6979.51
941.363	6923.01
941.67	6948.09
941.977	6849.57
942.284	6783.35
942.591	6789.68
942.898	6732.28
943.205	6734.99
943.511	6694.54
943.818	6713.3
944.125	6623.36
944.431	6586.07
944.738	6624.71
945.044	6541.55
945.35	6536.35
945.657	6471.5
945.963	6485.28
946.269	6401.67
946.575	6471.27
946.881	6384.04
947.187	6351.05
947.493	6308.11
947.799	6248
948.105	6269.24
948.41	6239.19
948.716	6186.08
949.022	6184.05
949.327	6125.06
949.633	6142.24
949.938	6086.42
950.244	6122.35
950.549	6046.2
950.854	6013.2
951.16	5962.13
951.465	5939.99
951.77	5918.74
952.075	5912.42
952.38	5827.9
952.685	5839.42
952.99	5789.93
953.294	5807.33
953.599	5761.01
953.904	5739.76
954.209	5729.37
954.513	5692.31
954.818	5625.42
955.122	5632.42
955.426	5605.53
955.731	5632.42
956.035	5514.46
956.339	5523.27
956.643	5538.64
956.948	5487.57
957.252	5464.29
957.556	5436.5
957.86	5381.13
958.163	5378.19
958.467	5306.33
958.771	5317.18
959.075	5346.1
959.378	5294.35
959.682	5270.62
959.985	5201.7
960.289	5207.12
960.592	5185.65
960.896	5160.12
961.199	5171.19
961.502	5114.7
961.805	5090.97
962.108	5102.49
962.411	5029.05
962.714	4998.54
963.017	4994.02
963.32	4986.11
963.623	4962.61
963.926	4955.38
964.228	4951.99
964.531	4858.66
964.833	4870.86
965.136	4793.35
965.438	4852.78
965.741	4838.09
966.043	4776.85
966.345	4797.42
966.648	4759.23
966.95	4717.87
967.252	4690.75
967.554	4687.59
967.856	4653.92
968.158	4639.68
968.46	4607.59
968.761	4631.54
969.063	4568.04
969.365	4530.08
969.666	4509.06
969.968	4541.6
970.269	4474.94
970.571	4434.71
970.872	4435.17
971.174	4447.14
971.475	4411.89
971.776	4382.96
972.077	4378.9
972.378	4367.82
972.679	4350.2
972.98	4319.01
973.281	4305.45
973.582	4282.4
973.883	4242.85
974.183	4233.59
974.484	4243.98
974.785	4190.88
975.085	4170.54
975.386	4164.44
975.686	4094.84
975.986	4110.2
976.287	4128.06
976.587	4085.8
976.887	4058.9
977.187	4076.76
977.487	4019.36
977.787	4029.3
978.087	3967.83
978.387	4014.39
978.687	3934.61
978.987	3921.28
979.286	3899.59
979.586	3931.22
979.885	3883.99
980.185	3873.15
980.484	3850.77
980.784	3807.61
981.083	3826.14
981.382	3764.68
981.682	3733.72
981.981	3734.39
982.28	3713.83
982.579	3694.39
982.878	3685.81
983.177	3683.77
983.475	3643.32
983.774	3633.83
984.073	3633.15
984.372	3569.65
984.67	3611.91
984.969	3587.05
985.267	3584.11
985.566	3538.24
985.864	3505.25
986.162	3489.2
986.461	3515.87
986.759	3490.56
987.057	3455.53
987.355	3437.9
987.653	3402.65
987.951	3425.93
988.249	3386.61
988.547	3404.01
988.844	3328.3
989.142	3340.28
989.44	3323.33
989.737	3307.51
990.035	3330.79
990.332	3275.65
990.63	3282.43
990.927	3220.06
991.224	3258.7
991.521	3209.66
991.819	3195.2
992.116	3187.97
992.413	3201.53
992.71	3153.62
993.006	3155.2
993.303	3125.82
993.6	3102.32
993.897	3120.4
994.193	3077.01
994.49	3031.81
994.787	3072.49
995.083	2991.81
995.379	3034.75
995.676	2995.2
995.972	2963.11
996.268	2956.11
996.565	2961.98
996.861	2976.22
997.157	2947.75
997.453	2894.64
997.749	2858.71
998.044	2881.08
998.34	2852.61
998.636	2856.45
998.932	2853.96
999.227	2846.28
999.523	2823.91
999.818	2794.53
1000.114	2768.32
1000.409	2740.97
1000.704	2763.57
1001	2709.79
1001.295	2715.66
1001.59	2684.25
1001.885	2669.79
1002.18	2658.26
1002.475	2633.63
1002.77	2668.66
1003.065	2596.57
1003.359	2619.39
1003.654	2598.83
1003.949	2562.45
1004.243	2561.09
1004.538	2536.91
1004.832	2548.44
1005.127	2482.45
1005.421	2509.11
1005.715	2461.66
1006.009	2467.53
1006.304	2470.02
1006.598	2426.18
1006.892	2427.99
1007.186	2416.24
1007.48	2434.77
1007.773	2405.16
1008.067	2387.76
1008.361	2350.25
1008.655	2315.67
1008.948	2364.03
1009.242	2309.12
1009.535	2289.23
1009.829	2258.95
1010.122	2258.95
1010.415	2256.24
1010.708	2279.06
1011.001	2245.17
1011.295	2242
1011.588	2199.07
1011.881	2183.47
1012.173	2204.04
1012.466	2141.67
1012.759	2140.99
1013.052	2164.94
1013.344	2133.31
1013.637	2123.14
1013.93	2087.88
1014.222	2065.96
1014.514	2097.83
1014.807	2075.68
1015.099	2053.99
1015.391	2031.61
1015.683	1987.55
1015.976	2029.35
1016.268	1983.25
1016.56	1974.89
1016.851	1981.67
1017.143	1947.55
1017.435	1956.59
1017.727	1966.08
1018.018	1933.76
1018.31	1914.55
1018.602	1886.31
1018.893	1882.69
1019.185	1842.01
1019.476	1842.69
1019.767	1868.91
1020.058	1813.31
1020.35	1827.78
1020.641	1790.04
1020.932	1776.48
1021.223	1796.82
1021.514	1769.47
1021.804	1722.47
1022.095	1732.19
1022.386	1716.59
1022.677	1722.69
1022.967	1722.24
1023.258	1698.06
1023.548	1678.4
1023.839	1673.66
1024.129	1654.22
1024.419	1660.55
1024.709	1620.55
1025	1647.44
1025.29	1639.53
1025.58	1616.26
1025.87	1617.16
1026.16	1584.62
1026.449	1585.98
1026.739	1560.89
1027.029	1556.6
1027.319	1547.11
1027.608	1510.5
1027.898	1526.77
1028.187	1502.81
1028.477	1526.54
1028.766	1497.62
1029.055	1469.82
1029.344	1472.76
1029.634	1451.06
1029.923	1468.69
1030.212	1444.06
1030.501	1447.9
1030.79	1411.06
1031.078	1425.08
1031.367	1412.19
1031.656	1386.66
1031.945	1379.43
1032.233	1359.77
1032.522	1367.68
1032.81	1327.68
1033.099	1312.99
1033.387	1328.58
1033.675	1331.29
1033.963	1315.25
1034.251	1292.42
1034.54	1294.68
1034.828	1276.83
1035.116	1265.53
1035.403	1299.66
1035.691	1280.67
1035.979	1239.54
1036.267	1247
1036.554	1206.78
1036.842	1215.59
1037.129	1200.45
1037.417	1197.96
1037.704	1185.31
1037.992	1190.73
1038.279	1167.68
1038.566	1177.17
1038.853	1177.17
1039.14	1177.17
