Data from white_wall_FLMS001491_073.txt Node
Date: Tue Feb 07 11:05:45 GMT 2017
User: dcchb
Spectrometer: FLMS00149
Trigger mode: 0
Integration Time (sec): 2.000000E-2
Scans to average: 10
Electric dark correction enabled: true
Nonlinearity correction enabled: false
Boxcar width: 0
XAxis mode: Wavelengths
Number of Pixels in Spectrum: 2048
>>>>>Begin Spectral Data<<<<<
341.393	-18.93
341.776	-18.93
342.16	-18.93
342.543	-61.41
342.927	-53.05
343.31	-60.96
343.693	-72.94
344.077	-58.7
344.46	-51.02
344.843	-49.66
345.226	-51.92
345.61	-26.61
345.993	-16.67
346.376	-10.79
346.759	-0.85
347.142	31.92
347.525	40.51
347.908	49.77
348.291	77.34
348.674	88.42
349.057	112.14
349.44	116.21
349.823	138.13
350.206	162.54
350.588	210.9
350.971	233.27
351.354	235.3
351.737	224.01
352.119	278.69
352.502	261.97
352.884	277.56
353.267	290.44
353.65	308.75
354.032	314.62
354.414	310.56
354.797	315.08
355.179	331.35
355.562	324.34
355.944	345.13
356.326	364.79
356.709	343.78
357.091	361.63
357.473	362.98
357.855	337.67
358.238	354.4
358.62	347.39
359.002	346.49
359.384	356.88
359.766	345.36
360.148	350.33
360.53	363.66
360.912	367.96
361.294	359.6
361.676	341.74
362.057	365.02
362.439	323.66
362.821	356.43
363.203	332.7
363.584	352.14
363.966	356.88
364.348	333.83
364.729	348.97
365.111	329.99
365.493	361.85
365.874	337.67
366.256	365.92
366.637	333.16
367.019	316.66
367.4	345.58
367.781	323.89
368.163	338.35
368.544	327.05
368.925	327.28
369.306	327.28
369.688	329.77
370.069	333.38
370.45	322.99
370.831	338.8
371.212	321.18
371.593	316.21
371.974	335.87
372.355	333.16
372.736	337
373.117	318.24
373.498	334.74
373.879	340.39
374.26	335.87
374.641	348.3
375.021	334.28
375.402	330.67
375.783	347.17
376.163	337.9
376.544	341.29
376.925	360.72
377.305	358.69
377.686	341.97
378.066	368.86
378.447	350.56
378.827	355.98
379.208	353.04
379.588	358.92
379.968	351.23
380.349	380.39
380.729	373.15
381.109	375.64
381.489	362.53
381.87	356.43
382.25	383.1
382.63	383.32
383.01	368.86
383.39	382.65
383.77	383.1
384.15	391.23
384.53	379.71
384.91	389.88
385.29	370.67
385.67	396.43
386.049	419.71
386.429	402.76
386.809	385.58
387.189	419.48
387.568	421.29
387.948	424.68
388.328	429.65
388.707	418.8
389.087	410.67
389.466	426.71
389.846	413.83
390.225	442.53
390.605	436.88
390.984	441.17
391.363	449.08
391.743	466.48
392.122	459.48
392.501	487.05
392.881	459.03
393.26	464.68
393.639	454.06
394.018	473.72
394.397	483.66
394.776	502.64
395.155	515.75
395.534	528.18
395.913	526.6
396.292	508.74
396.671	539.93
397.05	533.15
397.429	563.66
397.808	565.24
398.186	566.37
398.565	573.83
398.944	587.39
399.323	595.07
399.701	587.84
400.08	606.82
400.458	629.42
400.837	639.59
401.215	651.56
401.594	654.73
401.972	662.19
402.351	663.77
402.729	696.54
403.107	698.12
403.486	692.47
403.864	708.51
404.242	720.04
404.62	750.09
404.999	759.36
405.377	753.71
405.755	780.83
406.133	795.97
406.511	799.81
406.889	814.72
407.267	829.87
407.645	847.72
408.023	875.51
408.401	864.67
408.779	875.51
409.156	912.8
409.534	908.51
409.912	925.68
410.29	964.55
410.667	957.77
411.045	992.35
411.422	1011.33
411.8	1006.81
412.178	1042.06
412.555	1042.06
412.933	1020.82
413.31	1087.71
413.687	1100.37
414.065	1071.67
414.442	1131.33
414.819	1137.65
415.197	1157.54
415.574	1174.71
415.951	1194.15
416.328	1207.03
416.705	1195.96
417.082	1214.71
417.46	1231.89
417.837	1251.1
418.214	1259.68
418.591	1282.06
418.967	1280.02
419.344	1296.52
419.721	1331.32
420.098	1316.41
420.475	1347.82
420.852	1363.64
421.228	1369.51
421.605	1397.53
421.982	1379.91
422.358	1416.74
422.735	1429.4
423.111	1423.07
423.488	1474.82
423.864	1464.88
424.241	1475.27
424.617	1516.17
424.994	1496.97
425.37	1501.71
425.746	1554.37
426.123	1572.44
426.499	1587.59
426.875	1609.05
427.251	1635.72
427.627	1634.59
428.003	1664.19
428.379	1712.33
428.756	1704.19
429.132	1720.46
429.507	1760.69
429.883	1809.73
430.259	1793
430.635	1804.53
431.011	1874.13
431.387	1881.81
431.763	1959.55
432.138	1944.19
432.514	1976.73
432.89	1984.86
433.265	2034.81
433.641	2015.6
434.016	2049.49
434.392	2114.8
434.767	2112.54
435.143	2156.84
435.518	2165.42
435.894	2188.02
436.269	2216.04
436.644	2240.68
437.02	2246.78
437.395	2289.94
437.77	2322.26
438.145	2380.33
438.52	2392.54
438.895	2382.82
439.271	2411.52
439.646	2465.75
440.021	2470.5
440.395	2451.52
440.77	2462.36
441.145	2513.44
441.52	2589.14
441.895	2537.84
442.27	2561.35
442.645	2600.21
443.019	2660.1
443.394	2667.33
443.769	2687.9
444.143	2640.44
444.518	2699.65
444.892	2728.35
445.267	2747.1
445.641	2747.78
446.016	2815.12
446.39	2799.76
446.764	2852.41
447.139	2834.33
447.513	2825.74
447.887	2903.03
448.262	2872.3
448.636	2939.87
449.01	2971.05
449.384	2987.55
449.758	2981.45
450.132	3078.39
450.506	3105.06
450.88	3080.88
451.254	3102.12
451.628	3123.36
452.002	3215.34
452.376	3216.02
452.75	3241.33
453.123	3291.95
453.497	3344.15
453.871	3378.27
454.244	3462.11
454.618	3486.74
454.992	3541.43
455.365	3502.11
455.739	3613.29
456.112	3641.09
456.486	3623.46
456.859	3729.45
457.232	3779.62
457.606	3790.24
457.979	3837.24
458.352	3902.55
458.725	3955.21
459.099	3941.65
459.472	4074.75
459.845	4104.58
460.218	4127.63
460.591	4194.3
460.964	4192.94
461.337	4313.84
461.71	4371.69
462.083	4417.57
462.456	4434.06
462.829	4401.97
463.201	4548.19
463.574	4564.23
463.947	4642.19
464.32	4747.28
464.692	4815.98
465.065	4855.97
465.438	4855.3
465.81	4949.53
466.183	4988.63
466.555	5121.73
466.928	5151.56
467.3	5140.71
467.672	5274.49
468.045	5391.78
468.417	5433.81
468.789	5446.01
469.161	5537.31
469.534	5614.37
469.906	5712.67
470.278	5793.8
470.65	5862.5
471.022	6003.97
471.394	6074.93
471.766	6137.3
472.138	6227.01
472.51	6332.77
472.882	6418.42
473.253	6460.9
473.625	6630.84
473.997	6749.48
474.369	6801.01
474.74	6894.11
475.112	7090.94
475.484	7058.18
475.855	7340.88
476.227	7318.51
476.598	7597.37
476.97	7596.47
477.341	7793.3
477.713	7934.99
478.084	7983.12
478.455	8242.33
478.827	8275.09
479.198	8541.53
479.569	8613.62
479.94	8791.24
480.311	8928.41
480.682	9093.38
481.053	9309.64
481.424	9462.18
481.795	9522.29
482.166	9742.85
482.537	9883.41
482.908	10090.41
483.279	10177.64
483.65	10360.91
484.021	10551.87
484.391	10719.55
484.762	10762.26
485.133	10887.68
485.503	11066.66
485.874	11305.52
486.244	11486.53
486.615	11599.07
486.985	11809.69
487.356	12051.94
487.726	12094.43
488.097	12304.37
488.467	12396.57
488.837	12719.04
489.207	12784.35
489.578	12992.26
489.948	13127.39
490.318	13325.13
490.688	13386.37
491.058	13611.45
491.428	13794.95
491.798	14015.73
492.168	14147.48
492.538	14327.82
492.908	14495.04
493.278	14632.89
493.648	14782.04
494.017	14918.53
494.387	15107
494.757	15220.45
495.126	15348.58
495.496	15450.5
495.866	15654.33
496.235	15742.24
496.605	15969.13
496.974	16000.99
497.344	16171.83
497.713	16334.99
498.082	16407.08
498.452	16624.48
498.821	16697.02
499.19	16777.02
499.559	17014.52
499.928	17116.22
500.298	17133.17
500.667	17396.21
501.036	17344.91
501.405	17632.59
501.774	17642.08
502.143	17737.44
502.512	17925.01
502.88	18120.26
503.249	18119.13
503.618	18323.19
503.987	18447.48
504.356	18629.17
504.724	18661.03
505.093	18782.84
505.462	18823.74
505.83	19066
506.199	19175.82
506.567	19422.14
506.936	19413.33
507.304	19712.31
507.672	19828.24
508.041	19915.69
508.409	20109.36
508.777	20252.41
509.145	20481.78
509.514	20442.46
509.882	20704.14
510.25	20658.72
510.618	20861.43
510.986	21058.94
511.354	21294.64
511.722	21327.41
512.09	21705.7
512.458	21715.42
512.826	21775.08
513.193	21914.96
513.561	22035.41
513.929	22349.75
514.297	22442.63
514.664	22679.69
515.032	22712.45
515.4	22892.56
515.767	23036.06
516.135	23208.71
516.502	23173.91
516.869	23633.11
517.237	23762.82
517.604	23788.81
517.972	23985.64
518.339	24144.28
518.706	24283.71
519.073	24359.64
519.44	24580.2
519.808	24933.64
520.175	24835.11
520.542	25291.14
520.909	25370.46
521.276	25410.46
521.643	25644.13
522.009	25865.82
522.376	26107.17
522.743	26265.81
523.11	26434.39
523.477	26806.36
523.843	26866.02
524.21	27147.37
524.577	27252.45
524.943	27482.72
525.31	27703.73
525.676	28009.94
526.043	28069.37
526.409	28179.2
526.776	28399.76
527.142	28546.42
527.508	28834.78
527.874	29138.27
528.241	29266.63
528.607	29270.7
528.973	29620.29
529.339	29627.75
529.705	29964.01
530.071	30160.17
530.437	30233.16
530.803	30546.82
531.169	30613.49
531.535	30587.73
531.901	30785.24
532.267	30989.75
532.632	31093.02
532.998	31307.48
533.364	31446.91
533.73	31440.59
534.095	31758.77
534.461	31878.09
534.826	32068.14
535.192	32182.04
535.557	32468.58
535.923	32299.77
536.288	32516.04
536.653	32666.99
537.019	32692.76
537.384	32856.59
537.749	33048.68
538.114	33141.56
538.479	33073.31
538.845	33435.34
539.21	33344.72
539.575	33635.1
539.94	33630.13
540.305	33881.43
540.67	33973.85
541.034	33956
541.399	34227.18
541.764	34268.08
542.129	34527.74
542.494	34685.25
542.858	34646.15
543.223	34771.8
543.587	35024.45
543.952	35062.86
544.316	35207.72
544.681	35254.72
545.045	35346.25
545.41	35648.16
545.774	35690.19
546.138	35762.28
546.503	35858.77
546.867	36003.4
547.231	36250.63
547.595	36421.25
547.959	36621.47
548.324	36532.2
548.688	36685.87
549.052	36822.59
549.416	36910.27
549.779	37178.29
550.143	37224.39
550.507	37492.63
550.871	37545.96
551.235	37676.81
551.599	37992.96
551.962	38107.98
552.326	38216.23
552.689	38527.63
553.053	38425.71
553.417	38595.43
553.78	39037.45
554.143	38957
554.507	39226.14
554.87	39345.91
555.234	39593.82
555.597	39587.49
555.96	39629.52
556.323	39900.93
556.686	39944.99
557.05	40247.13
557.413	40231.99
557.776	40478.31
558.139	40775.03
558.502	40982.71
558.865	41064.51
559.228	41423.15
559.59	41426.76
559.953	41602.8
560.316	42097.71
560.679	42052.28
561.041	42284.59
561.404	42481.65
561.767	42682.32
562.129	42593.06
562.492	43047.74
562.854	43034.63
563.217	43202.08
563.579	43206.83
563.941	43511.45
564.304	43807.94
564.666	43908.05
565.028	44017.66
565.39	44243.64
565.753	44358.66
566.115	44350.08
566.477	44676.85
566.839	44805.66
567.201	45087.68
567.563	45165.65
567.925	45443.38
568.287	45450.84
568.648	45572.19
569.01	45827.33
569.372	45997.72
569.734	45911.17
570.095	46299.18
570.457	46470.02
570.819	46552.73
571.18	46534.65
571.542	46745.95
571.903	46771.26
572.265	46911.59
572.626	47124.47
572.987	47170.79
573.349	47333.95
573.71	47521.07
574.071	47516.32
574.432	47654.17
574.794	47947.27
575.155	47921.96
575.516	47717.9
575.877	47985.24
576.238	48086.25
576.599	48125.12
576.96	48267.04
577.32	48237.88
577.681	48357.66
578.042	48500.48
578.403	48503.64
578.763	48565.33
579.124	48546.12
579.485	48636.29
579.845	48717.19
580.206	48803.75
580.566	48725.78
580.927	48852.11
581.287	48975.72
581.648	48737.53
582.008	49084.64
582.368	48895.72
582.728	49118.76
583.089	48977.53
583.449	48939.33
583.809	48996.73
584.169	49146.11
584.529	49017.52
584.889	49292.55
585.249	49052.55
585.609	49053.46
585.969	49262.72
586.329	49019.33
586.688	49206.22
587.048	49122.83
587.408	49040.8
587.768	49091.65
588.127	49081.7
588.487	49048.71
588.846	49370.74
589.206	49107.69
589.565	49183.4
589.925	49317.86
590.284	49291.87
590.643	49316.5
591.003	49434.69
591.362	49529.83
591.721	49465.42
592.08	49390.85
592.44	49519.66
592.799	49477.85
593.158	49385.88
593.517	49324.18
593.876	49489.38
594.235	49306.1
594.593	49321.7
594.952	49373.45
595.311	49271.3
595.67	49420
596.029	49548.58
596.387	49612.54
596.746	49721.01
597.104	49511.3
597.463	49605.98
597.822	49695.47
598.18	49545.19
598.538	49615.7
598.897	49819.09
599.255	49520.79
599.613	50014.79
599.972	49791.74
600.33	49815.02
600.688	49719.2
601.046	49811.63
601.404	49963.26
601.762	49874.23
602.12	50030.61
602.478	50068.12
602.836	50068.57
603.194	49992.41
603.552	49986.31
603.91	49831.29
604.268	49973.43
604.625	50042.58
604.983	50192.41
605.341	49979.99
605.698	50165.74
606.056	50320.99
606.413	50211.84
606.771	50444.61
607.128	50450.71
607.485	50340.88
607.843	50412.97
608.2	50460.2
608.557	50556.92
608.914	50437.6
609.272	50605.73
609.629	50598.95
609.986	50832.84
610.343	50699.29
610.7	50795.56
611.057	50719.4
611.414	50847.53
611.771	50771.6
612.127	50915.78
612.484	50879.4
612.841	51032.84
613.198	50908.32
613.554	50961.2
613.911	51181.76
614.267	51109.22
614.624	51134.98
614.98	51134.53
615.337	51352.6
615.693	51207.75
616.05	51174.3
616.406	51374.98
616.762	51287.07
617.118	51391.25
617.475	51421.08
617.831	51431.7
618.187	51437.8
618.543	51458.14
618.899	51626.27
619.255	51657.91
619.611	51622.2
619.967	51707.4
620.323	51767.51
620.678	51595.99
621.034	51564.12
621.39	51592.37
621.746	51621.98
622.101	52005.69
622.457	51592.6
622.812	51772.48
623.168	51797.34
623.523	51830.56
623.879	52004.11
624.234	51620.17
624.589	51752.59
624.945	51745.59
625.3	51768.64
625.655	51773.61
626.01	51832.82
626.365	51865.36
626.72	51676.66
627.075	51706.27
627.43	51675.08
627.785	51621.98
628.14	51742.2
628.495	51715.31
628.85	51765.02
629.205	51632.82
629.559	51893.61
629.914	51621.75
630.269	51652.26
630.623	51521.41
630.978	51440.06
631.332	51616.55
631.687	51627.4
632.041	51430.57
632.396	51601.64
632.75	51449.1
633.104	51537.91
633.459	51307.86
633.813	51353.73
634.167	51306.28
634.521	51285.71
634.875	51232.61
635.229	51224.02
635.583	51066.28
635.937	51109
636.291	51006.17
636.645	51069.22
636.999	50916.23
637.352	51062.89
637.706	50917.59
638.06	51032.39
638.413	50911.49
638.767	50920.75
639.121	50932.05
639.474	50714.88
639.828	50782
640.181	50732.73
640.534	50765.5
640.888	50549.01
641.241	50471.95
641.594	50529.35
641.947	50618.16
642.301	50391.95
642.654	50452.97
643.007	50538.39
643.36	50430.59
643.713	50339.3
644.066	50422.23
644.419	50264.27
644.771	50093.43
645.124	49697.51
645.477	49659.09
645.83	49394.46
646.182	49329.38
646.535	49258.42
646.888	49190.63
647.24	48951.99
647.593	49235.37
647.945	49167.58
648.298	48897.75
648.65	48915.61
649.002	48786.57
649.355	49010.97
649.707	48827.25
650.059	48937.07
650.411	49474.91
650.763	49474.69
651.115	49777.96
651.467	49654.12
651.819	49639.43
652.171	49541.35
652.523	49460.45
652.875	49428.14
653.227	49308.14
653.578	49555.14
653.93	49476.5
654.282	49203.06
654.633	49290.06
654.985	49365.99
655.337	49326.67
655.688	49303.62
656.039	49388.14
656.391	49152.44
656.742	49147.69
657.094	49137.52
657.445	49155.15
657.796	49078.09
658.147	48992.44
658.498	49158.76
658.849	49169.61
659.2	48856.85
659.551	48877.19
659.902	49020.91
660.253	48928.26
660.604	48993.34
660.955	48714.26
661.306	48932.78
661.656	48738.66
662.007	48815.72
662.358	48752.45
662.708	48734.82
663.059	48661.15
663.409	48542.06
663.76	48853.91
664.11	48760.13
664.461	48635.61
664.811	48788.6
665.161	48733.24
665.511	48608.5
665.862	48563.3
666.212	48679.45
666.562	48723.52
666.912	48603.52
667.262	48535.73
667.612	48432.68
667.962	48689.85
668.312	48469.29
668.662	48683.75
669.011	48472.45
669.361	48453.7
669.711	48474.49
670.06	48351.78
670.41	48273.36
670.76	48220.71
671.109	48347.03
671.459	48225.91
671.808	48175.51
672.157	48238.79
672.507	48087.15
672.856	48149.52
673.205	48128.06
673.554	48090.77
673.904	47992.92
674.253	48202.4
674.602	48085.57
674.951	47470.9
675.3	47271.81
675.649	47922.86
675.998	47859.14
676.346	47840.38
676.695	48025.01
677.044	47575.53
677.393	47826.6
677.741	47825.69
678.09	47728.97
678.438	47539.37
678.787	47681.29
679.135	47564.91
679.484	47235.88
679.832	47400.62
680.181	47298.7
680.529	47381.64
680.877	47294.18
681.225	47150
681.573	47457.11
681.922	47214.41
682.27	47002.44
682.618	47038.82
682.966	46762.67
683.314	47011.7
683.661	46849.9
684.009	46598.15
684.357	46495.11
684.705	46411.27
685.053	46540.98
685.4	46346.41
685.748	46157.26
686.095	46165.4
686.443	46183.93
686.79	45950.94
687.138	46076.36
687.485	46053.08
687.832	45794.56
688.18	45784.39
688.527	45600.44
688.874	45598.41
689.221	45484.96
689.568	45323.84
689.915	45318.41
690.262	45205.42
690.609	45170.62
690.956	44941.93
691.303	44988.25
691.65	44808.37
691.997	44968.82
692.344	44659.9
692.69	44531.09
693.037	44519.11
693.383	44086.58
693.73	44324.77
694.077	44179.91
694.423	44052.91
694.769	43955.06
695.116	43790.32
695.462	43779.7
695.808	43678
696.155	43704.9
696.501	43496.77
696.847	43320.73
697.193	43170.9
697.539	43313.04
697.885	42973.62
698.231	42932.71
698.577	42828.31
698.923	42784.24
699.269	42561.88
699.614	42447.53
699.96	42434.87
700.306	42217.93
700.651	42144.03
700.997	41933.64
701.342	42065.17
701.688	41880.76
702.033	41839.63
702.379	41605.29
702.724	41636.93
703.069	41829.24
703.415	41297.05
703.76	41228.8
704.105	41415.01
704.45	41293.66
704.795	40991.3
705.14	40873.33
705.485	40881.24
705.83	40750.17
706.175	40596.28
706.52	40607.8
706.865	40458.43
707.209	40330.52
707.554	40341.14
707.899	40305.44
708.243	40216.17
708.588	40018.89
708.932	39840.82
709.277	39846.01
709.621	39730.09
709.966	39531.45
710.31	39572.58
710.654	39271.79
710.998	39396.99
711.342	39484.67
711.687	39250.32
712.031	39187.5
712.375	38986.38
712.719	39161.74
713.063	39139.14
713.407	39032.48
713.75	38768.3
714.094	38823.44
714.438	38559.72
714.782	38655.76
715.125	38475.88
715.469	38576.9
715.812	38322.66
716.156	38115.66
716.499	38143.23
716.843	38136.91
717.186	38111.6
717.53	38159.28
717.873	38056.91
718.216	37966.52
718.559	37814.43
718.902	37541.89
719.246	37672.06
719.589	37553.19
719.932	37339.41
720.275	37401.11
720.617	37358.17
720.96	37196.37
721.303	37262.13
721.646	37139.19
721.989	37110.95
722.331	37289.47
722.674	37068.46
723.016	37025.07
723.359	37054.9
723.701	37095.58
724.044	36824.62
724.386	36500.79
724.729	36851.97
725.071	36628.02
725.413	36695.59
725.755	36645.42
726.097	36416.27
726.439	36288.14
726.782	36208.6
727.124	36532.88
727.465	36156.85
727.807	36181.93
728.149	36070.29
728.491	36029.62
728.833	36061.26
729.175	35937.87
729.516	35776.29
729.858	35884.54
730.199	35869.17
730.541	35678.21
730.882	35717.08
731.224	35675.95
731.565	35433.48
731.906	35496.52
732.248	35450.42
732.589	35328.85
732.93	35305.79
733.271	35188.74
733.612	35308.28
733.953	35094.05
734.294	35124.78
734.635	35004.33
734.976	35071
735.317	34891.79
735.658	34787.62
735.999	34811.57
736.339	34729.09
736.68	34820.84
737.021	34746.04
737.361	34442.99
737.702	34710.1
738.042	34720.5
738.383	34572.48
738.723	34511.92
739.063	34529.09
739.404	34458.81
739.744	34479.6
740.084	34267.86
740.424	34274.41
740.764	34247.29
741.104	34270.57
741.444	34021.53
741.784	33867.87
742.124	34052.27
742.464	33939.05
742.804	33987.64
743.143	33850.69
743.483	33948.54
743.823	33846.85
744.162	33631.04
744.502	33707.19
744.841	33524.6
745.181	33593.75
745.52	33368.9
745.86	33580.42
746.199	33518.05
746.538	33375.68
746.877	33289.8
747.216	33232.4
747.556	33183.82
747.895	33077.6
748.234	32942.02
748.573	32936.14
748.911	32952.18
749.25	33000.54
749.589	32704.28
749.928	32825.18
750.267	32822.7
750.605	32761.23
750.944	32583.15
751.283	32564.85
751.621	32535.7
751.96	32363.05
752.298	32396.04
752.636	32299.09
752.975	32176.61
753.313	32248.93
753.651	32161.24
753.989	32044.41
754.327	32018.65
754.666	31766.9
755.004	31846.22
755.342	31818.65
755.679	31754.02
756.017	31483.07
756.355	31560.58
756.693	31537.53
757.031	31573.92
757.368	31325.33
757.706	31349.97
758.044	31220.03
758.381	31125.34
758.719	30991.11
759.056	31187.49
759.394	30904.55
759.731	30858.23
760.068	30740.27
760.405	30740.27
760.743	30498.01
761.08	30636.09
761.417	30339.37
761.754	30380.5
762.091	30348.41
762.428	30202.88
762.765	29969.21
763.102	30102.09
763.438	29828.65
763.775	29775.54
764.112	29645.83
764.449	29687.86
764.785	29616.23
765.122	29363.8
765.458	29230.93
765.795	29307.08
766.131	29159.97
766.467	29020.31
766.804	28992.51
767.14	28831.39
767.476	28792.29
767.812	28649.47
768.148	28806.08
768.485	28454.22
768.821	28341.01
769.157	28348.69
769.492	28313.66
769.828	28225.3
770.164	27917.06
770.5	27907.12
770.836	27916.16
771.171	27567.47
771.507	27590.07
771.842	27422.84
772.178	27516.85
772.513	27311.88
772.849	27251.32
773.184	27212.45
773.519	27150.08
773.855	26978.33
774.19	26832.8
774.525	26791.22
774.86	26745.79
775.195	26735.62
775.53	26505.12
775.865	26455.86
776.2	26354.84
776.535	26123.66
776.87	26155.75
777.205	25960.96
777.539	25889.55
777.874	25940.39
778.209	25775.2
778.543	25586.5
778.878	25491.59
779.212	25559.38
779.547	25438.03
779.881	25414.76
780.215	25211.37
780.55	25287.3
780.884	25056.57
781.218	24977.03
781.552	24969.34
781.886	24958.04
782.22	24690.25
782.554	24606.42
782.888	24348.79
783.222	24317.84
783.556	24246.42
783.889	24281
784.223	23990.39
784.557	24025.87
784.89	24088.46
785.224	23837.85
785.557	23773.44
785.891	23783.61
786.224	23749.94
786.558	23551.75
786.891	23333.45
787.224	23230.63
787.557	23256.85
787.891	23252.55
788.224	23229.95
788.557	23162.61
788.89	23046
789.223	22974.82
789.556	22857.99
789.888	22778.21
790.221	22625.45
790.554	22657.54
790.887	22419.58
791.219	22480.82
791.552	22321.96
791.884	22295.97
792.217	22182.07
792.549	22106.82
792.882	21949.99
793.214	21851.46
793.546	21919.25
793.879	21777.34
794.211	21588.64
794.543	21641.97
794.875	21604.69
795.207	21605.36
795.539	21522.88
795.871	21520.17
796.203	21407.4
796.535	21177.13
796.867	21205.37
797.198	21129.22
797.53	21063.46
797.862	20882.9
798.193	21030.24
798.525	20831.6
798.856	20938.04
799.188	20629.8
799.519	20611.94
799.85	20509.35
800.182	20533.08
800.513	20501.44
800.844	20303.7
801.175	20438.84
801.506	20337.37
801.837	20175.12
802.168	20085.4
802.499	20117.04
802.83	19895.8
803.161	19909.59
803.491	19847.67
803.822	19904.62
804.153	19750.27
804.483	19703.72
804.814	19605.64
805.145	19561.35
805.475	19577.85
805.805	19513.22
806.136	19365.42
806.466	19354.58
806.796	19380.34
807.126	19138.31
807.457	19166.11
807.787	19159.1
808.117	19044.08
808.447	18956.62
808.777	19060.8
809.107	18954.81
809.436	18910.29
809.766	18827.81
810.096	18746.23
810.426	18696.06
810.755	18729.96
811.085	18649.74
811.414	18604.54
811.744	18456.29
812.073	18421.94
812.403	18443.41
812.732	18300.82
813.061	18320.25
813.39	18173.36
813.719	18159.58
814.049	18198
814.378	18132.69
814.707	18085
815.036	18082.07
815.365	17966.82
815.693	17786.03
816.022	17856.08
816.351	17765.69
816.68	17644.56
817.008	17748.97
817.337	17550.1
817.665	17508.75
817.994	17602.98
818.322	17579.03
818.651	17484.12
818.979	17372.03
819.307	17445.47
819.636	17466.94
819.964	17240.73
820.292	17358.24
820.62	17302.88
820.948	17300.62
821.276	17278.92
821.604	17170.68
821.932	17209.55
822.259	17208.87
822.587	17305.36
822.915	17133.39
823.243	17182.88
823.57	17188.31
823.898	17221.3
824.225	17121.87
824.553	17125.03
824.88	17174.97
825.207	17285.48
825.535	16988.08
825.862	17221.07
826.189	17123.67
826.516	17146.5
826.843	17233.05
827.17	17206.16
827.497	17170.23
827.824	17144.01
828.151	17221.07
828.478	17168.19
828.805	17159.15
829.131	17037.12
829.458	17083
829.785	17040.06
830.111	17049.33
830.438	17113.96
830.764	17123.67
831.09	17099.04
831.417	17019.27
831.743	17036.9
832.069	17000.97
832.395	17006.16
832.722	17080.74
833.048	16971.81
833.374	16937.01
833.7	16875.32
834.026	16894.75
834.351	16963
834.677	16955.32
835.003	16957.35
835.329	16873.74
835.654	16839.61
835.98	16891.59
836.306	16744.02
836.631	16846.85
836.956	16876.22
837.282	16781.54
837.607	16691.82
837.932	16629.68
838.258	16621.54
838.583	16589.68
838.908	16556.46
839.233	16655.89
839.558	16599.85
839.883	16474.2
840.208	16447.76
840.533	16489.57
840.858	16405.27
841.182	16417.93
841.507	16346.97
841.832	16276.24
842.156	16191.95
842.481	16255.22
842.805	16165.51
843.13	16163.93
843.454	16142.91
843.778	16086.87
844.103	15993.31
844.427	15949.47
844.751	15977.94
845.075	16001.22
845.399	15862.24
845.723	15862.69
846.047	15854.1
846.371	15694.56
846.695	15700.21
847.019	15560.33
847.343	15572.3
847.666	15404.4
847.99	15362.59
848.313	15434.23
848.637	15269.49
848.96	15180.45
849.284	15190.62
849.607	14997.63
849.931	15092.09
850.254	14920.34
850.577	14899.33
850.9	14801.93
851.223	14768.71
851.546	14640.12
851.869	14610.75
852.192	14673.79
852.515	14477.42
852.838	14507.25
853.161	14392.67
853.483	14358.1
853.806	14304.54
854.129	14345.89
854.451	14253.47
854.774	14147.71
855.096	14155.84
855.419	14050.08
855.741	14037.88
856.063	14019.12
856.385	13935.51
856.708	13926.24
857.03	13869.3
857.352	13874.04
857.674	13787.94
857.996	13780.49
858.318	13733.25
858.64	13675.86
858.961	13667.49
859.283	13634.95
859.605	13564.45
859.926	13530.1
860.248	13447.84
860.57	13512.47
860.891	13419.14
861.212	13369.42
861.534	13290.78
861.855	13305.02
862.176	13334.62
862.498	13400.83
862.819	13289.65
863.14	13146.15
863.461	13165.59
863.782	13082.65
864.103	13143.44
864.424	13065.93
864.745	13077.68
865.065	13001.52
865.386	12905.25
865.707	12925.82
866.027	12978.25
866.348	12898.02
866.668	12945.48
866.989	12965.59
867.309	12803.34
867.63	12747.74
867.95	12869.1
868.27	12689.67
868.59	12868.19
868.91	12737.12
869.23	12746.84
869.55	12667.07
869.87	12779.38
870.19	12703.9
870.51	12701.87
870.83	12754.98
871.15	12561.53
871.469	12580.74
871.789	12623.45
872.109	12532.61
872.428	12505.26
872.748	12549.33
873.067	12516.56
873.386	12539.39
873.706	12388.21
874.025	12369
874.344	12362.44
874.663	12349.79
874.982	12335.33
875.301	12329.45
875.62	12375.55
875.939	12299.85
876.258	12271.15
876.577	12236.57
876.896	12270.69
877.214	12179.62
877.533	12204.48
877.852	12219.85
878.17	12100.98
878.489	12132.17
878.807	12197.25
879.125	12056.69
879.444	12102.34
879.762	12092.85
880.08	12002.68
880.398	12019.85
880.716	11943.02
881.034	11922.68
881.352	11935.79
881.67	11893.08
881.988	11915
882.306	11876.81
882.624	11873.64
882.941	11778.96
883.259	11705.96
883.577	11705.74
883.894	11739.18
884.212	11731.05
884.529	11681.56
884.846	11613.99
885.164	11543.71
885.481	11511.62
885.798	11578.51
886.115	11458.74
886.432	11421.23
886.75	11473.2
887.067	11404.73
887.383	11293.09
887.7	11422.36
888.017	11361.57
888.334	11367.44
888.651	11246.09
888.967	11213.77
889.284	11231.17
889.6	11166.32
889.917	11133.78
890.233	11109.37
890.55	11083.83
890.866	11083.15
891.182	11064.85
891.498	10946.89
891.815	10880.22
892.131	10894.01
892.447	10939.43
892.763	10851.07
893.079	10793.9
893.395	10803.39
893.71	10737.4
894.026	10751.64
894.342	10586.67
894.657	10724.97
894.973	10638.65
895.289	10639.1
895.604	10609.5
895.92	10449.5
896.235	10501.7
896.55	10451.08
896.865	10441.36
897.181	10407.69
897.496	10383.74
897.811	10328.82
898.126	10307.36
898.441	10233.91
898.756	10219.45
899.071	10195.49
899.386	10126.57
899.7	10079.11
900.015	10080.47
900.33	9949.17
900.644	10001.83
900.959	10008.61
901.273	9960.25
901.588	9910.98
901.902	9850.19
902.216	9811.32
902.531	9775.84
902.845	9788.95
903.159	9623.31
903.473	9642.51
903.787	9618.33
904.101	9522.52
904.415	9578.11
904.729	9576.75
905.042	9479.58
905.356	9483.87
905.67	9462.86
905.984	9425.57
906.297	9389.87
906.611	9271.9
906.924	9355.97
907.237	9254.73
907.551	9180.38
907.864	9179.48
908.177	9134.96
908.491	9096.77
908.804	9111
909.117	8996.2
909.43	9012.25
909.743	8918.92
910.056	8931.8
910.368	8925.92
910.681	8848.41
910.994	8833.72
911.307	8816.77
911.619	8674.63
911.932	8697.68
912.244	8623.33
912.557	8658.81
912.869	8577.23
913.181	8540.4
913.494	8558.25
913.806	8451.81
914.118	8442.32
914.43	8406.39
914.742	8389.21
915.054	8320.29
915.366	8333.85
915.678	8253.17
915.99	8231.25
916.302	8134.98
916.613	8145.38
916.925	8200.29
917.236	8113.29
917.548	8060.41
917.859	8069
918.171	8042.1
918.482	8009.11
918.794	7932.05
919.105	7902.22
919.416	7814.99
919.727	7848.21
920.038	7767.76
920.349	7762.34
920.66	7715.79
920.971	7708.78
921.282	7639.18
921.593	7630.36
921.903	7593.98
922.214	7579.74
922.525	7552.85
922.835	7495.9
923.146	7507.66
923.456	7449.13
923.767	7405.29
924.077	7423.59
924.387	7333.65
924.697	7299.07
925.008	7255.68
925.318	7298.62
925.628	7273.54
925.938	7212.75
926.248	7073.99
926.558	7092.07
926.867	7113.32
927.177	7041
927.487	7060.66
927.796	6992.64
928.106	6944.28
928.416	6924.62
928.725	6934.56
929.034	6882.81
929.344	6835.36
929.653	6835.58
929.962	6802.36
930.271	6792.87
930.581	6739.54
930.89	6722.14
931.199	6724.17
931.508	6638.98
931.817	6650.05
932.125	6579.09
932.434	6560.11
932.743	6548.13
933.051	6546.33
933.36	6476.95
933.669	6447.8
933.977	6462.71
934.286	6436.27
934.594	6403.96
934.902	6280.57
935.21	6320.79
935.519	6301.13
935.827	6304.52
936.135	6208.93
936.443	6147.24
936.751	6116.05
937.059	6160.35
937.367	6090.07
937.674	6096.85
937.982	6021.14
938.29	5979.79
938.597	6077.41
938.905	5984.53
939.213	5992.89
939.52	5919.22
939.827	5901.14
940.135	5895.04
940.442	5897.75
940.749	5875.16
941.056	5865.21
941.363	5731.88
941.67	5761.26
941.977	5713.58
942.284	5678.33
942.591	5661.83
942.898	5614.6
943.205	5619.12
943.511	5635.16
943.818	5617.31
944.125	5550.42
944.431	5515.62
944.738	5528.05
945.044	5502.74
945.35	5450.76
945.657	5430.87
945.963	5428.16
946.269	5420.93
946.575	5365.11
946.881	5352.01
947.187	5334.83
947.493	5267.04
947.799	5271.78
948.105	5263.19
948.41	5239.69
948.716	5198.34
949.022	5155.4
949.327	5123.54
949.633	5097.78
949.938	5074.27
950.244	5063.88
950.549	5018.68
950.854	5015.52
951.16	5037.89
951.465	4921.28
951.77	4971.45
952.075	4961.51
952.38	4921.06
952.685	4915.63
952.99	4860.04
953.294	4875.63
953.599	4811.91
953.904	4802.87
954.209	4791.79
954.513	4784.79
954.818	4797.9
955.122	4777.56
955.426	4716.99
955.731	4665.47
956.035	4663.44
956.339	4645.13
956.643	4632.48
956.948	4650.78
957.252	4636.32
957.556	4597
957.86	4514.06
958.163	4564.23
958.467	4497.79
958.771	4516.55
959.075	4511.35
959.378	4416.44
959.682	4474.29
959.985	4427.28
960.289	4390.68
960.592	4373.05
960.896	4344.58
961.199	4359.26
961.502	4302.77
961.805	4318.81
962.108	4272.94
962.411	4266.61
962.714	4262.32
963.017	4232.26
963.32	4225.48
963.623	4174.41
963.926	4173.73
964.228	4110
964.531	4122.21
964.833	4127.18
965.136	4073.4
965.438	4062.55
965.741	4059.61
966.043	4064.13
966.345	4044.47
966.648	3992.27
966.95	4039.72
967.252	3997.69
967.554	3996.79
967.856	3984.36
968.158	3949.11
968.46	3938.03
968.761	3879.28
969.063	3843.57
969.365	3825.04
969.666	3819.17
969.968	3833.18
970.269	3782.33
970.571	3808.09
970.872	3754.76
971.174	3756.57
971.475	3726.06
971.776	3727.87
972.077	3720.64
972.378	3713.18
972.679	3677.47
972.98	3652.39
973.281	3642.9
973.582	3628.89
973.883	3605.16
974.183	3640.64
974.484	3580.3
974.785	3533.75
975.085	3536.69
975.386	3532.84
975.686	3522.45
975.986	3512.73
976.287	3450.36
976.587	3425.96
976.887	3459.17
977.187	3444.26
977.487	3395.45
977.787	3400.65
978.087	3402.23
978.387	3360.65
978.687	3360.19
978.987	3348.89
979.286	3346.18
979.586	3288.11
979.885	3272.06
980.185	3268.9
980.484	3254.43
980.784	3239.75
981.083	3218.28
981.382	3210.37
981.682	3209.46
981.981	3148.45
982.28	3199.97
982.579	3167.43
982.878	3160.43
983.177	3103.93
983.475	3128.79
983.774	3102.12
984.073	3134.21
984.372	3036.59
984.67	3077.94
984.969	3025.06
985.267	3060.99
985.566	3015.57
985.864	3049.47
986.162	2965.18
986.461	2981.67
986.759	2927.44
987.057	2938.51
987.355	2899.19
987.653	2956.36
987.951	2905.52
988.249	2850.15
988.547	2858.06
988.844	2856.48
989.142	2903.93
989.44	2840.89
989.737	2815.12
990.035	2849.47
990.332	2812.64
990.63	2777.38
990.927	2758.4
991.224	2785.29
991.521	2759.08
991.819	2735.8
992.116	2719.08
992.413	2711.4
992.71	2736.26
993.006	2639.08
993.303	2672.53
993.6	2665.75
993.897	2661
994.193	2670.72
994.49	2649.03
994.787	2570.16
995.083	2602.7
995.379	2593.66
995.676	2564.06
995.972	2553.21
996.268	2586.88
996.565	2521.8
996.861	2521.8
997.157	2496.49
997.453	2487
997.749	2510.05
998.044	2461.69
998.34	2485.87
998.636	2447.22
998.932	2439.09
999.227	2440.67
999.523	2406.77
999.818	2391.41
1000.114	2390.05
1000.409	2378.07
1000.704	2328.58
1001	2310.96
1001.295	2320.45
1001.59	2333.33
1001.885	2286.78
1002.18	2290.84
1002.475	2277.28
1002.77	2261.69
1003.065	2273.22
1003.359	2269.15
1003.654	2213.78
1003.949	2178.98
1004.243	2229.15
1004.538	2183.5
1004.832	2183.73
1005.127	2187.12
1005.421	2137.4
1005.715	2129.72
1006.009	2118.64
1006.304	2096.5
1006.598	2063.28
1006.892	2100.57
1007.186	2109.38
1007.48	2057.86
1007.773	2077.06
1008.067	2068.02
1008.361	2009.27
1008.655	2025.09
1008.948	2015.37
1009.242	2017.86
1009.535	1998.65
1009.829	2023.05
1010.122	1941.7
1010.415	1958.65
1010.708	1923.85
1011.001	1934.02
1011.295	1901.7
1011.588	1935.82
1011.881	1892.89
1012.173	1873.68
1012.466	1878.65
1012.759	1848.37
1013.052	1859.89
1013.344	1872.1
1013.637	1819.9
1013.93	1828.71
1014.222	1820.12
1014.514	1847.01
1014.807	1768.82
1015.099	1779.9
1015.391	1776.05
1015.683	1767.24
1015.976	1766.56
1016.268	1749.16
1016.56	1729.95
1016.851	1735.38
1017.143	1706.9
1017.435	1709.84
1017.727	1690.86
1018.018	1673.91
1018.31	1635.27
1018.602	1649.73
1018.893	1651.76
1019.185	1636.4
1019.476	1601.6
1019.767	1609.73
1020.058	1618.55
1020.35	1571.09
1020.641	1556.17
1020.932	1559.79
1021.223	1541.94
1021.514	1566.57
1021.804	1534.03
1022.095	1539.23
1022.386	1486.35
1022.677	1494.48
1022.967	1520.69
1023.258	1488.83
1023.548	1462.84
1023.839	1468.72
1024.129	1466.01
1024.419	1441.37
1024.709	1407.48
1025	1450.41
1025.29	1425.56
1025.58	1412.22
1025.87	1399.57
1026.16	1402.96
1026.449	1391.88
1026.739	1377.42
1027.029	1363.86
1027.319	1358.21
1027.608	1344.88
1027.898	1346.01
1028.187	1310.3
1028.477	1299.91
1028.766	1309.17
1029.055	1300.59
1029.344	1280.02
1029.634	1274.83
1029.923	1266.46
1030.212	1280.93
1030.501	1251.77
1030.79	1216.07
1031.078	1237.31
1031.367	1216.07
1031.656	1215.84
1031.945	1214.26
1032.233	1208.39
1032.522	1213.13
1032.81	1186.92
1033.099	1185.56
1033.387	1185.34
1033.675	1196.64
1033.963	1137.2
1034.251	1154.6
1034.54	1167.48
1034.828	1149.18
1035.116	1110.76
1035.403	1144.21
1035.691	1126.35
1035.979	1101.04
1036.267	1096.75
1036.554	1095.62
1036.842	1067.15
1037.129	1050.2
1037.417	1041.61
1037.704	1042.29
1037.992	1063.76
1038.279	1044.1
1038.566	1034.61
1038.853	1034.61
1039.14	1034.61
