Data from white_wall_FLMS001491_085.txt Node
Date: Tue Feb 07 11:06:02 GMT 2017
User: dcchb
Spectrometer: FLMS00149
Trigger mode: 0
Integration Time (sec): 2.000000E-2
Scans to average: 10
Electric dark correction enabled: true
Nonlinearity correction enabled: false
Boxcar width: 0
XAxis mode: Wavelengths
Number of Pixels in Spectrum: 2048
>>>>>Begin Spectral Data<<<<<
341.393	-10.14
341.776	-10.14
342.16	-10.14
342.543	-61.21
342.927	-71.16
343.31	-77.26
343.693	-71.16
344.077	-54.43
344.46	-70.7
344.843	-67.54
345.226	-50.14
345.61	-34.1
345.993	-8.33
346.376	-14.89
346.759	7.26
347.142	30.54
347.525	48.16
347.908	76.41
348.291	67.37
348.674	108.27
349.057	110.53
349.44	127.71
349.823	143.08
350.206	157.31
350.588	226.69
350.971	235.5
351.354	225.79
351.737	257.65
352.119	273.92
352.502	273.02
352.884	282.73
353.267	322.28
353.65	310.75
354.032	313.69
354.414	327.25
354.797	332.22
355.179	346.01
355.562	329.51
355.944	346.91
356.326	357.98
356.709	346.01
357.091	354.82
357.473	344.2
357.855	358.66
358.238	387.36
358.62	370.41
359.002	367.02
359.384	368.61
359.766	352.34
360.148	347.36
360.53	348.49
360.912	375.84
361.294	366.35
361.676	358.44
362.057	383.52
362.439	363.18
362.821	362.96
363.203	351.43
363.584	347.36
363.966	345.33
364.348	350.53
364.729	351.88
365.111	348.72
365.493	362.73
365.874	346.46
366.256	343.52
366.637	348.04
367.019	346.23
367.4	356.86
367.781	350.08
368.163	348.95
368.544	341.04
368.925	363.18
369.306	373.35
369.688	348.04
370.069	347.14
370.45	351.21
370.831	353.01
371.212	348.95
371.593	361.6
371.974	349.85
372.355	359.79
372.736	371.09
373.117	359.34
373.498	337.87
373.879	353.92
374.26	333.58
374.641	362.73
375.021	347.82
375.402	356.86
375.783	369.51
376.163	371.32
376.544	369.28
376.925	372
377.305	375.61
377.686	358.44
378.066	376.29
378.447	379.91
378.827	393.24
379.208	387.81
379.588	358.89
379.968	385.55
380.349	384.65
380.729	374.71
381.109	396.85
381.489	400.92
381.87	388.49
382.25	390.98
382.63	400.47
383.01	394.59
383.39	393.46
383.77	411.54
384.15	408.61
384.53	395.95
384.91	419.68
385.29	415.61
385.67	399.34
386.049	422.16
386.429	449.06
386.809	406.12
387.189	419.9
387.568	428.72
387.948	442.73
388.328	439.34
388.707	430.3
389.087	447.93
389.466	471.43
389.846	472.33
390.225	474.82
390.605	464.2
390.984	484.99
391.363	494.7
391.743	483.41
392.122	485.67
392.501	495.38
392.881	522.73
393.26	526.57
393.639	511.88
394.018	533.57
394.397	536.29
394.776	550.97
395.155	546
395.534	569.96
395.913	570.86
396.292	577.19
396.671	609.73
397.05	591.88
397.429	592.33
397.808	613.35
398.186	600.24
398.565	608.6
398.944	632.78
399.323	637.3
399.701	668.94
400.08	670.52
400.458	698.54
400.837	726.11
401.215	727.24
401.594	694.93
401.972	730.18
402.351	726.79
402.729	749.16
403.107	751.42
403.486	772.66
403.864	804.75
404.242	785.09
404.62	824.41
404.999	841.59
405.377	852.21
405.755	884.3
406.133	890.85
406.511	913.22
406.889	936.05
407.267	926.56
407.645	966.33
408.023	974.69
408.401	976.5
408.779	983.73
409.156	1020.34
409.534	1051.07
409.912	1070.28
410.29	1067.12
410.667	1099.66
411.045	1129.49
411.422	1141.69
411.8	1133.78
412.178	1182.82
412.555	1190.73
412.933	1217.4
413.31	1230.05
413.687	1245.42
414.065	1315.47
414.442	1300.79
414.819	1289.94
415.197	1321.35
415.574	1345.53
415.951	1345.3
416.328	1389.6
416.705	1399.54
417.082	1415.81
417.46	1421.46
417.837	1444.96
418.214	1440.22
418.591	1494.45
418.967	1455.13
419.344	1493.32
419.721	1532.64
420.098	1503.94
420.475	1540.78
420.852	1556.82
421.228	1569.25
421.605	1595.69
421.982	1621.68
422.358	1639.76
422.735	1641.34
423.111	1651.74
423.488	1698.51
423.864	1706.2
424.241	1703.71
424.617	1740.1
424.994	1767.89
425.37	1803.37
425.746	1809.02
426.123	1832.97
426.499	1830.94
426.875	1862.35
427.251	1889.92
427.627	1935.57
428.003	1957.72
428.379	1991.84
428.756	1991.84
429.132	2017.38
429.507	2046.3
429.883	2065.74
430.259	2116.36
430.635	2133.31
431.011	2205.62
431.387	2240.2
431.763	2244.49
432.138	2257.37
432.514	2328.55
432.89	2306.86
433.265	2369.01
433.641	2388.44
434.016	2422.79
434.392	2469.12
434.767	2515.67
435.143	2529.23
435.518	2536.91
435.894	2552.96
436.269	2601.54
436.644	2668.66
437.02	2690.8
437.395	2702.78
437.77	2703.91
438.145	2771.71
438.52	2762.89
438.895	2821.42
439.271	2844.47
439.646	2891.25
440.021	2896.68
440.395	2938.93
440.77	2919.5
441.145	2940.06
441.52	3005.15
441.895	3026.62
442.27	3066.84
442.645	3022.55
443.019	3082.21
443.394	3074.07
443.769	3167.4
444.143	3126.95
444.518	3214.86
444.892	3234.52
445.267	3260.96
445.641	3242.43
446.016	3277.68
446.39	3298.47
446.764	3349.09
447.139	3325.59
447.513	3391.13
447.887	3376.21
448.262	3418.92
448.636	3413.27
449.01	3506.15
449.384	3539.82
449.758	3567.62
450.132	3617.11
450.506	3628.63
450.88	3658.46
451.254	3666.37
451.628	3735.52
452.002	3775.52
452.376	3792.92
452.75	3842.87
453.123	3907.5
453.497	3949.08
453.871	3949.75
454.244	4102.75
454.618	4087.6
454.992	4185.23
455.365	4160.37
455.739	4263.87
456.112	4308.62
456.486	4356.75
456.859	4376.41
457.232	4477.88
457.606	4496.41
457.979	4535.28
458.352	4643.3
458.725	4729.17
459.099	4768.26
459.472	4854.59
459.845	4913.57
460.218	4935.04
460.591	4955.38
460.964	4990.41
461.337	5109.05
461.71	5217.74
462.083	5298.65
462.456	5283.51
462.829	5306.33
463.201	5413.22
463.574	5445.53
463.947	5577.73
464.32	5675.81
464.692	5720.33
465.065	5725.98
465.438	5835.58
465.81	5937.05
466.183	6029.02
466.555	6139.53
466.928	6152.18
467.3	6182.24
467.672	6353.99
468.045	6490.25
468.417	6487.99
468.789	6561.66
469.161	6612.28
469.534	6755.1
469.906	6852.05
470.278	6958.94
470.65	7021.76
471.022	7174.53
471.394	7288.2
471.766	7424.69
472.138	7540.85
472.51	7724.12
472.882	7759.82
473.253	7894.96
473.625	7933.15
473.997	8198
474.369	8291.56
474.74	8290.66
475.112	8464.44
475.484	8680.03
475.855	8842.51
476.227	8854.94
476.598	9140.35
476.97	9299.9
477.341	9449.72
477.713	9510.29
478.084	9684.52
478.455	9914.34
478.827	10024.62
479.198	10254.9
479.569	10411.28
479.94	10632.74
480.311	10814.43
480.682	10940.08
481.053	11195.89
481.424	11395.21
481.795	11550.23
482.166	11681.75
482.537	11894.18
482.908	12202.65
483.279	12245.36
483.65	12522.86
484.021	12788.84
484.391	12969.18
484.762	13044.43
485.133	13182.96
485.503	13463.63
485.874	13756.73
486.244	13767.8
486.615	14073.78
486.985	14239.65
487.356	14583.6
487.726	14611.4
488.097	14892.52
488.467	14990.82
488.837	15329.79
489.207	15494.31
489.578	15777.69
489.948	15991.47
490.318	16175.42
490.688	16285.25
491.058	16547.16
491.428	16786.48
491.798	16908.51
492.168	17275.05
492.538	17291.55
492.908	17482.05
493.278	17804.76
493.648	17848.15
494.017	18033
494.387	18286.55
494.757	18370.17
495.126	18616.71
495.496	18654.9
495.866	18857.16
496.235	19070.04
496.605	19303.48
496.974	19365.62
497.344	19640.42
497.713	19763.12
498.082	19930.8
498.452	20071.82
498.821	20143.68
499.19	20315.2
499.559	20551.8
499.928	20694.63
500.298	20866.15
500.667	21028.4
501.036	21020.04
501.405	21283.99
501.774	21388.62
502.143	21581.83
502.512	21724.65
502.88	21962.39
503.249	22001.94
503.618	22207.81
503.987	22360.34
504.356	22559.89
504.724	22656.16
505.093	22788.13
505.462	22868.13
505.83	23049.37
506.199	23326.65
506.567	23606.41
506.936	23573.65
507.304	23845.05
507.672	23995.78
508.041	24203.23
508.409	24300.86
508.777	24541.08
509.145	24701.3
509.514	24832.14
509.882	25027.62
510.25	25058.35
510.618	25287.05
510.986	25447.27
511.354	25706.24
511.722	25865.11
512.09	26211.09
512.458	26170.87
512.826	26442.27
513.193	26614.24
513.561	26673.68
513.929	26997.74
514.297	27129.94
514.664	27396.14
515.032	27573.54
515.4	27689.24
515.767	27848.56
516.135	28109.57
516.502	27954.77
516.869	28537.81
517.237	28603.12
517.604	28632.72
517.972	29017.34
518.339	29234.06
518.706	29293.5
519.073	29488.74
519.44	29764.9
519.808	30039.92
520.175	30010.99
520.542	30420.92
520.909	30701.14
521.276	30672.67
521.643	31018.65
522.009	31222.71
522.376	31411.63
522.743	31530.27
523.11	31890.72
523.477	32258.39
523.843	32481.89
524.21	32786.06
524.577	32906.96
524.943	33172.94
525.31	33283.22
525.676	33523.67
526.043	33821.51
526.409	33940.38
526.776	34336.75
527.142	34392.34
527.508	34659.68
527.874	35035.27
528.241	35235.49
528.607	35360.23
528.973	35634.8
529.339	35606.78
529.705	35955.47
530.071	36249.47
530.437	36451.05
530.803	36715.45
531.169	36791.38
531.535	36838.16
531.901	37168.09
532.267	37284.02
532.632	37416.9
532.998	37721.07
533.364	37858.92
533.73	37977.11
534.095	38232.24
534.461	38477.21
534.826	38615.51
535.192	38747.94
535.557	39060.92
535.923	39110.64
536.288	39118.77
536.653	39425.43
537.019	39389.95
537.384	39560.8
537.749	39913.56
538.114	39762.6
538.479	39957.85
538.845	40297.5
539.21	40049.6
539.575	40450.72
539.94	40565.06
540.305	40762.8
540.67	40796.02
541.034	40913.98
541.399	41202.56
541.764	41319.39
542.129	41475.55
542.494	41650.91
542.858	41710.34
543.223	41869.21
543.587	42078.7
543.952	42126.6
544.316	42340.84
544.681	42287.05
545.045	42728.4
545.41	42969.75
545.774	42885.23
546.138	43160.7
546.503	43246.57
546.867	43229.85
547.231	43607.02
547.595	43724.3
547.959	43828.03
548.324	43823.51
548.688	44121.81
549.052	44353.21
549.416	44364.96
549.779	44449.03
550.143	44614.67
550.507	44900.99
550.871	44995.91
551.235	45077.26
551.599	45371.26
551.962	45556.34
552.326	45621.2
552.689	45828.88
553.053	45807.41
553.417	46057.35
553.78	46560.39
554.143	46419.37
554.507	46681.51
554.87	46697.33
555.234	47202.63
555.597	47046.93
555.96	47298.45
556.323	47539.57
556.686	47477.42
557.05	47817.53
557.413	47958.09
557.776	48142.49
558.139	48444.18
558.502	48455.25
558.865	48478.75
559.228	48804.39
559.59	48949.02
559.953	49037.38
560.316	49408.22
560.679	49494.09
561.041	49601.21
561.404	49796.23
561.767	50129.56
562.129	50085.49
562.492	50499.04
562.854	50414.97
563.217	50493.16
563.579	50624.46
563.941	50856.09
564.304	51044.34
564.666	51234.61
565.028	51402.29
565.39	51350.09
565.753	51645
566.115	51699.23
566.477	51812.45
566.839	51901.49
567.201	52127.92
567.563	52177.41
567.925	52371.53
568.287	52433.45
568.648	52518.87
569.01	52633.9
569.372	52926.32
569.734	52849.71
570.095	53040.22
570.457	53094.23
570.819	53203.83
571.18	53246.09
571.542	53369.7
571.903	53435.91
572.265	53573.53
572.626	53618.51
572.987	53725.4
573.349	53903.47
573.71	53982.34
574.071	54004.94
574.432	54098.49
574.794	54276.79
575.155	54286.28
575.516	54152.5
575.877	54319.5
576.238	54367.41
576.599	54479.73
576.96	54484.25
577.32	54501.42
577.681	54585.71
578.042	54695.99
578.403	54642.89
578.763	54678.59
579.124	54801.98
579.485	54898.7
579.845	54901.86
580.206	54825.48
580.566	54797.46
580.927	54916.78
581.287	55015.98
581.648	54936.89
582.008	55074.96
582.368	55001.29
582.728	55100.27
583.089	54997.23
583.449	54999.94
583.809	55165.36
584.169	55207.39
584.529	55096.88
584.889	55343.43
585.249	55140.5
585.609	55018.47
585.969	55232.25
586.329	55127.17
586.688	55211.01
587.048	55182.53
587.408	55204
587.768	55166.49
588.127	55216.66
588.487	55119.03
588.846	55342.3
589.206	55134.62
589.565	55205.13
589.925	55385.24
590.284	55366.93
590.643	55285.13
591.003	55383.43
591.362	55448.06
591.721	55380.27
592.08	55361.74
592.44	55383.66
592.799	55457.1
593.158	55316.09
593.517	55342.98
593.876	55406.48
594.235	55330.78
594.593	55414.16
594.952	55539.36
595.311	55423.2
595.67	55493.48
596.029	55578.45
596.387	55600.83
596.746	55558.79
597.104	55449.19
597.463	55450.55
597.822	55622.52
598.18	55521.73
598.538	55481.51
598.897	55757.66
599.255	55490.32
599.613	55909.74
599.972	55673.59
600.33	55744.33
600.688	55651.9
601.046	55740.94
601.404	55841.27
601.762	55784.32
602.12	55922.85
602.478	55880.82
602.836	55891.89
603.194	55743.87
603.552	55804.44
603.91	55775.96
604.268	55906.35
604.625	55880.37
604.983	56026.58
605.341	55871.33
605.698	56101.15
606.056	56034.94
606.413	56052.11
606.771	56182.96
607.128	56127.59
607.485	56019.57
607.843	56069.51
608.2	56239
608.557	56263.18
608.914	56250.75
609.272	56352.22
609.629	56364.2
609.986	56506.79
610.343	56373.91
610.7	56505.21
611.057	56510.63
611.414	56425.21
611.771	56516.73
612.127	56597.18
612.484	56653.45
612.841	56666.33
613.198	56599.44
613.554	56571.87
613.911	56697.97
614.267	56725.77
614.624	56698.65
614.98	56807.57
615.337	56814.81
615.693	56805.77
616.05	56801.47
616.406	56834.69
616.762	56868.59
617.118	56912.2
617.475	56826.78
617.831	56920.34
618.187	57005.54
618.543	56989.72
618.899	57168.02
619.255	57063.61
619.611	57085.76
619.967	57141.8
620.323	57187.68
620.678	57093.22
621.034	57010.96
621.39	57089.37
621.746	57037.62
622.101	57331.63
622.457	57139.99
622.812	57166.66
623.168	57272.65
623.523	57239.65
623.879	57327.11
624.234	57112.65
624.589	57249.6
624.945	57251.4
625.3	57275.13
625.655	57215.92
626.01	57230.39
626.365	57212.31
626.72	57238.3
627.075	57204.17
627.43	57174.8
627.785	57210.73
628.14	57176.6
628.495	57264.74
628.85	57144.97
629.205	57103.84
629.559	57263.16
629.914	57142.25
630.269	57165.08
630.623	57066.78
630.978	56988.59
631.332	57096.61
631.687	57154.23
632.041	57001.47
632.396	57114.91
632.75	57062.26
633.104	56943.84
633.459	56844.41
633.813	56877.85
634.167	56858.19
634.521	56803.28
634.875	56897.06
635.229	56789.5
635.583	56683.28
635.937	56760.57
636.291	56700.01
636.645	56741.36
636.999	56683.28
637.352	56738.2
637.706	56570.29
638.06	56722.83
638.413	56663.62
638.767	56540.46
639.121	56629.73
639.474	56385.66
639.828	56387.02
640.181	56465.21
640.534	56453.01
640.888	56397.42
641.241	56331.88
641.594	56387.25
641.947	56382.05
642.301	56285.55
642.654	56274.48
643.007	56289.62
643.36	56227.48
643.713	56184.77
644.066	56284.65
644.419	56050.31
644.771	55879.24
645.124	55723.08
645.477	55666.14
645.83	55420.72
646.182	55321.96
646.535	55257.78
646.888	55324.68
647.24	55152.48
647.593	55264.79
647.945	55224.79
648.298	55071.12
648.65	55012.37
649.002	54996.1
649.355	55052.82
649.707	55059.37
650.059	55098.92
650.411	55478.57
650.763	55501.62
651.115	55796.75
651.467	55588.85
651.819	55595.4
652.171	55530.32
652.523	55468.4
652.875	55494.84
653.227	55373.49
653.578	55531
653.93	55399.48
654.282	55296.88
654.633	55243.55
654.985	55229.76
655.337	55239.93
655.688	55225.69
656.039	55327.39
656.391	55188.41
656.742	55156.09
657.094	55259.82
657.445	55289.42
657.796	55225.92
658.147	55231.57
658.498	55148.63
658.849	55125.81
659.2	55186.83
659.551	55069.99
659.902	55171.23
660.253	55100.27
660.604	55099.37
660.955	54911.58
661.306	55085.81
661.656	54995.64
662.007	54968.3
662.358	54951.8
662.708	54960.62
663.059	54946.83
663.409	54818.25
663.76	54977.57
664.11	54920.17
664.461	55011.46
664.811	54958.36
665.161	54919.49
665.511	54821.86
665.862	54834.52
666.212	54870.68
666.562	54809.21
666.912	54802.66
667.262	54815.76
667.612	54834.52
667.962	54852.6
668.312	54814.86
668.662	54875.2
669.011	54746.16
669.361	54697.12
669.711	54739.15
670.06	54641.53
670.41	54582.77
670.76	54653.73
671.109	54653.73
671.459	54560.63
671.808	54561.76
672.157	54635.2
672.507	54380.29
672.856	54365.38
673.205	54423.68
673.554	54470.46
673.904	54448.31
674.253	54502.1
674.602	54418.71
674.951	53933.75
675.3	53810.14
675.649	54261.88
675.998	54246.29
676.346	54182.56
676.695	54355.44
677.044	54116.8
677.393	54126.51
677.741	54118.15
678.09	54102.11
678.438	54023.92
678.787	53938.5
679.135	53973.75
679.484	53873.64
679.832	53947.54
680.181	53728.33
680.529	53930.14
680.877	53821.89
681.225	53760.65
681.573	53931.04
681.922	53696.47
682.27	53591.61
682.618	53578.51
682.966	53580.09
683.314	53603.59
683.661	53362.01
684.009	53315.69
684.357	53202.7
684.705	53222.36
685.053	53271.4
685.4	53237.05
685.748	53005.87
686.095	53028.24
686.443	52843.16
686.79	52803.16
687.138	52872.08
687.485	52820.79
687.832	52677.06
688.18	52749.38
688.527	52497.63
688.874	52534.01
689.221	52437.97
689.568	52327.01
689.915	52285.66
690.262	52319.56
690.609	52195.04
690.956	52039.11
691.303	52055.61
691.65	51831.43
691.997	51839.57
692.344	51641.61
692.69	51730.65
693.037	51659.23
693.383	51345.12
693.73	51529.97
694.077	51244.56
694.423	51307.83
694.769	51072.81
695.116	50964.34
695.462	51102.41
695.808	50975.19
696.155	50873.27
696.501	50752.37
696.847	50721.41
697.193	50551.24
697.539	50640.73
697.885	50297.01
698.231	50266.73
698.577	50191.48
698.923	50140.63
699.269	50022.89
699.614	49899.06
699.96	49855.89
700.306	49766.86
700.651	49515.56
700.997	49489.8
701.342	49436.02
701.688	49356.7
702.033	49250.48
702.379	49158.74
702.724	49107.44
703.069	49180.88
703.415	48651.4
703.76	48812.08
704.105	48694.12
704.45	48609.6
704.795	48412.99
705.14	48374.35
705.485	48342.26
705.83	48238.99
706.175	48294.8
706.52	48109.5
706.865	47992.21
707.209	47934.14
707.554	47926.45
707.899	47870.18
708.243	47720.58
708.588	47569.85
708.932	47310.42
709.277	47322.85
709.621	47346.35
709.966	47055.74
710.31	47158.79
710.654	46793.83
710.998	46975.29
711.342	46919.7
711.687	46792.02
712.031	46549.54
712.375	46425.02
712.719	46646.26
713.063	46436.55
713.407	46523.55
713.75	46373.5
714.094	46193.16
714.438	45949.1
714.782	46130.79
715.125	45966.73
715.469	45949.1
715.812	45820.52
716.156	45538.27
716.499	45620.3
716.843	45637.25
717.186	45390.7
717.53	45477.48
717.873	45465.95
718.216	45345.95
718.559	45249.46
718.902	44916.81
719.246	45004.04
719.589	44868.45
719.932	44691.96
720.275	44675.24
720.617	44736.93
720.96	44704.39
721.303	44681.11
721.646	44592.53
721.989	44325.64
722.331	44408.8
722.674	44318.86
723.016	44279.54
723.359	44158.19
723.701	44443.15
724.044	43978.76
724.386	43828.71
724.729	44097.17
725.071	43888.14
725.413	43853.79
725.755	43762.04
726.097	43702.61
726.439	43494.03
726.782	43538.09
727.124	43579
727.465	43407.93
727.807	43349.62
728.149	43213.36
728.491	43064.88
728.833	43174.03
729.175	43089.29
729.516	42995.51
729.858	42957.77
730.199	43036.41
730.541	42730.2
730.882	42814.04
731.224	42875.74
731.565	42583.54
731.906	42677.32
732.248	42532.92
732.589	42269.43
732.93	42322.31
733.271	42137
733.612	42330.44
733.953	42160.28
734.294	41895.2
734.635	42039.83
734.976	41970.68
735.317	41713.28
735.658	41859.72
735.999	41778.82
736.339	41698.59
736.68	41717.58
737.021	41539.95
737.361	41502.89
737.702	41692.49
738.042	41449.33
738.383	41392.39
738.723	41419.73
739.063	41137.7
739.404	41346.96
739.744	41182.9
740.084	40963.92
740.424	41156.69
740.764	40834.66
741.104	41000.08
741.444	40787.88
741.784	40780.42
742.124	40660.65
742.464	40738.17
742.804	40588.11
743.143	40516.25
743.483	40603.93
743.823	40292.53
744.162	40197.16
744.502	40376.59
744.841	40140.44
745.181	40295.24
745.52	40107.22
745.86	40178.18
746.199	40004.63
746.538	40015.47
746.877	40008.69
747.216	39993.1
747.556	39836.95
747.895	39881.47
748.234	39563.06
748.573	39535.71
748.911	39459.33
749.25	39455.71
749.589	39376.62
749.928	39385.66
750.267	39429.73
750.605	39273.35
750.944	39074.71
751.283	39087.81
751.621	39065.22
751.96	38930.53
752.298	38947.93
752.636	38785.45
752.975	38567.15
753.313	38534.38
753.651	38660.25
753.989	38492.58
754.327	38352.47
754.666	38255.52
755.004	38314.05
755.342	38227.95
755.679	38096.43
756.017	37934.62
756.355	38057.78
756.693	37700.51
757.031	37714.74
757.368	37583.22
757.706	37651.69
758.044	37575.31
758.381	37467.97
758.719	37297.8
759.056	37392.72
759.394	37154.31
759.731	37014.87
760.068	36857.36
760.405	36752.51
760.743	36647.65
761.08	36792.73
761.417	36599.29
761.754	36522.68
762.091	36450.82
762.428	36339.41
762.765	36053.09
763.102	36056.48
763.438	35892.19
763.775	35729.03
764.112	35811.97
764.449	35697.85
764.785	35481.13
765.122	35370.85
765.458	35275.26
765.795	35235.71
766.131	35071.2
766.467	35089.73
766.804	34899
767.14	34811.32
767.476	34812.9
767.812	34560.48
768.148	34474.83
768.485	34268.96
768.821	34168.62
769.157	34125.01
769.492	34058.12
769.828	33961.62
770.164	33651.12
770.5	33641.4
770.836	33615.19
771.171	33303.56
771.507	33313.05
771.842	33029.67
772.178	33100.85
772.513	33012.95
772.849	32921.65
773.184	32687.53
773.519	32776.12
773.855	32538.16
774.19	32313.75
774.525	32276.24
774.86	32360.53
775.195	32189.92
775.53	31988.11
775.865	31840.77
776.2	31657.5
776.535	31534.11
776.87	31523.49
777.205	31391.75
777.539	31234.24
777.874	31255.7
778.209	30859.56
778.543	30895.94
778.878	30833.34
779.212	30741.59
779.547	30544.08
779.881	30539.34
780.215	30236.07
780.55	30486.23
780.884	30165.56
781.218	30240.36
781.552	30191.32
781.886	29923.31
782.22	29703.2
782.554	29686.93
782.888	29534.39
783.222	29362.42
783.556	29262.99
783.889	29113.61
784.223	28916.78
784.557	28888.31
784.89	28878.59
785.224	28812.15
785.557	28635.43
785.891	28577.58
786.224	28495.32
786.558	28520.41
786.891	28236.35
787.224	28200.64
787.557	27973.3
787.891	28088.33
788.224	27922.91
788.557	27835.45
788.89	27771.73
789.223	27753.87
789.556	27431.85
789.888	27475.92
790.221	27270.05
790.554	27205.64
790.887	27176.71
791.219	27030.73
791.552	26965.65
791.884	26896.04
792.217	26810.62
792.549	26678.42
792.882	26538.31
793.214	26452.67
793.546	26504.64
793.879	26330.86
794.211	26148.04
794.543	26213.12
794.875	26081.38
795.207	26195.27
795.539	25935.39
795.871	25890.87
796.203	25689.07
796.535	25608.85
796.867	25614.27
797.198	25409.76
797.53	25267.39
797.862	25278.69
798.193	25235.97
798.525	25058.58
798.856	25104
799.188	24850.9
799.519	24752.82
799.85	24734.97
800.182	24667.18
800.513	24634.86
800.844	24437.13
801.175	24593.73
801.506	24543.11
801.837	24359.61
802.168	24306.73
802.499	24223.8
802.83	24029
803.161	23951.71
803.491	24050.47
803.822	23942.68
804.153	23822.68
804.483	23665.39
804.814	23506.53
805.145	23553.08
805.475	23563.93
805.805	23451.62
806.136	23386.76
806.466	23370.26
806.796	23417.49
807.126	23168.91
807.457	23107.44
807.787	23131.62
808.117	23034
808.447	22928.46
808.777	22971.63
809.107	22808.24
809.436	22745.19
809.766	22731.86
810.096	22753.1
810.426	22535.71
810.755	22537.51
811.085	22477.18
811.414	22405.99
811.744	22311.76
812.073	22313.11
812.403	22238.31
812.732	22149.28
813.061	22152.44
813.39	21950.64
813.719	21815.27
814.049	22064.76
814.378	21951.99
814.707	21743.86
815.036	21890.75
815.365	21700.02
815.693	21547.94
816.022	21492.34
816.351	21549.52
816.68	21421.61
817.008	21495.73
817.337	21212.58
817.665	21276.53
817.994	21288.06
818.322	21141.39
818.651	21098.23
818.979	21013.94
819.307	21103.65
819.636	20929.2
819.964	20953.38
820.292	20999.48
820.62	20938.46
820.948	20794.51
821.276	20935.97
821.604	20868.18
821.932	20887.61
822.259	20932.36
822.587	20825.47
822.915	20779.37
823.243	20855.3
823.57	20754.74
823.898	20826.37
824.225	20658.24
824.553	20637.9
824.88	20689.65
825.207	20752.7
825.535	20749.54
825.862	20801.97
826.189	20689.43
826.516	20725.58
826.843	20840.16
827.17	20771.91
827.497	20723.78
827.824	20720.61
828.151	20781.63
828.478	20657.34
828.805	20869.76
829.131	20642.65
829.458	20728.07
829.785	20629.32
830.111	20722.87
830.438	20726.04
830.764	20688.07
831.09	20704.57
831.417	20637.68
831.743	20615.76
832.069	20542.54
832.395	20437.91
832.722	20563.1
833.048	20495.53
833.374	20539.6
833.7	20450.11
834.026	20514.07
834.351	20494.63
834.677	20505.25
835.003	20425.03
835.329	20437.23
835.654	20426.16
835.98	20300.51
836.306	20313.84
836.631	20229.78
836.956	20303.22
837.282	20256.44
837.607	20152.04
837.932	20166.73
838.258	19982.1
838.583	20112.27
838.908	20058.71
839.233	20006.51
839.558	19957.92
839.883	19919.28
840.208	19820.98
840.533	19845.83
840.858	19876.57
841.182	19853.52
841.507	19760.19
841.832	19689
842.156	19714.76
842.481	19624.82
842.805	19528.1
843.13	19649.91
843.454	19488.78
843.778	19394.09
844.103	19423.25
844.427	19367.65
844.751	19442.68
845.075	19327.88
845.399	19145.29
845.723	19123.14
846.047	19065.74
846.371	18915.69
846.695	18985.52
847.019	18824.62
847.343	18732.42
847.666	18651.29
847.99	18491.07
848.313	18533.33
848.637	18370.84
848.96	18300.11
849.284	18376.95
849.607	18219.44
849.931	18252.66
850.254	18082.94
850.577	18053.79
850.9	17821.25
851.223	17868.26
851.546	17773.57
851.869	17586.68
852.192	17774.93
852.515	17557.53
852.838	17458.55
853.161	17449.96
853.483	17416.97
853.806	17329.52
854.129	17385.11
854.451	17134.72
854.774	17148.28
855.096	17124.1
855.419	16995.97
855.741	17023.54
856.063	16916.87
856.385	16875.52
856.708	16710.1
857.03	16708.29
857.352	16854.5
857.674	16652.47
857.996	16622.19
858.318	16535.64
858.64	16476.43
858.961	16484.11
859.283	16515.98
859.605	16331.8
859.926	16307.62
860.248	16268.98
860.57	16169.09
860.891	16297.68
861.212	16119.15
861.534	16121.41
861.855	16057.91
862.176	16078.02
862.498	15988.31
862.819	16088.19
863.14	15929.78
863.461	15855.66
863.782	15868.76
864.103	15864.7
864.424	15882.77
864.745	15835.32
865.065	15735.89
865.386	15709.67
865.707	15636
866.027	15597.58
866.348	15563.69
866.668	15579.28
866.989	15615.66
867.309	15541.09
867.63	15483.91
867.95	15524.59
868.27	15414.09
868.59	15508.55
868.91	15440.75
869.23	15366.4
869.55	15351.26
869.87	15355.56
870.19	15309.91
870.51	15293.41
870.83	15305.61
871.15	15196.46
871.469	15140.87
871.789	15130.48
872.109	15056.81
872.428	15074.89
872.748	15098.39
873.067	15089.35
873.386	15053.64
873.706	15149.23
874.025	14977.26
874.344	14911.73
874.663	14921.22
874.982	14895.68
875.301	14980.43
875.62	14900.2
875.939	14753.31
876.258	14867.66
876.577	14829.47
876.896	14796.25
877.214	14662.24
877.533	14695.69
877.852	14718.06
878.17	14747.66
878.489	14802.12
878.807	14716.7
879.125	14615.69
879.444	14689.81
879.762	14605.29
880.08	14567.78
880.398	14567.78
880.716	14493.43
881.034	14443.04
881.352	14443.04
881.67	14306.32
881.988	14370.5
882.306	14292.08
882.624	14240.78
882.941	14294.34
883.259	14231.74
883.577	14137.28
883.894	14154.23
884.212	14189.26
884.529	14143.84
884.846	14125.31
885.164	14031.75
885.481	13983.62
885.798	14025.87
886.115	13948.14
886.432	13871.98
886.75	13829.04
887.067	13913.33
887.383	13732.1
887.7	13795.15
888.017	13686.9
888.334	13771.87
888.651	13595.6
888.967	13707.92
889.284	13652.1
889.6	13608.26
889.917	13421.82
890.233	13457.53
890.55	13370.07
890.866	13375.04
891.182	13331.66
891.498	13260.02
891.815	13181.6
892.131	13181.38
892.447	13198.1
892.763	13107.48
893.079	13112.9
893.395	13107.93
893.71	13035.39
894.026	12929.41
894.342	12981.61
894.657	12813.7
894.973	12908.16
895.289	12773.48
895.604	12860.48
895.92	12733.48
896.235	12636.08
896.55	12614.84
896.865	12554.27
897.181	12643.99
897.496	12583.2
897.811	12512.02
898.126	12488.97
898.441	12367.84
898.756	12413.71
899.071	12309.99
899.386	12358.12
899.7	12245.58
900.015	12225.47
900.33	12084.91
900.644	12100.28
900.959	12092.82
901.273	12105.25
901.588	12034.29
901.902	11877.68
902.216	11814.63
902.531	11895.99
902.845	11752.71
903.159	11686.5
903.473	11668.65
903.787	11646.95
904.101	11607.63
904.415	11594.3
904.729	11549.33
905.042	11460.52
905.356	11456.22
905.67	11369.9
905.984	11347.53
906.297	11305.72
906.611	11224.14
906.924	11303.23
907.237	11190.92
907.551	11142.11
907.864	11094.2
908.177	11023.92
908.491	10977.37
908.804	10959.29
909.117	10869.8
909.43	10820.08
909.743	10819.4
910.056	10735.34
910.368	10713.42
910.681	10666.41
910.994	10623.25
911.307	10610.6
911.619	10562.46
911.932	10546.42
912.244	10423.48
912.557	10446.76
912.869	10341.9
913.181	10356.82
913.494	10375.57
913.806	10190.04
914.118	10154.79
914.43	10112.53
914.742	10168.12
915.054	10079.99
915.366	10057.84
915.678	9953.89
915.99	9957.28
916.302	9894.46
916.613	9797.96
916.925	9783.5
917.236	9737.63
917.548	9717.96
917.859	9750.28
918.171	9652.88
918.482	9609.72
918.794	9578.99
919.105	9470.51
919.416	9475.03
919.727	9389.84
920.038	9392.1
920.349	9332.89
920.66	9321.37
920.971	9336.28
921.282	9260.35
921.593	9169.28
921.903	9154.82
922.214	9124.31
922.525	9116.62
922.835	9087.02
923.146	9007.93
923.456	8957.98
923.767	8896.74
924.077	8883.41
924.387	8859
924.697	8822.17
925.008	8832.11
925.318	8717.31
925.628	8727.03
925.938	8698.78
926.248	8593.7
926.558	8675.73
926.867	8609.29
927.177	8555.06
927.487	8452.46
927.796	8376.53
928.106	8362.07
928.416	8348.96
928.725	8328.62
929.034	8256.08
929.344	8247.27
929.653	8229.87
929.962	8150.55
930.271	8180.15
930.581	8117.33
930.89	8071.91
931.199	8033.26
931.508	8021.06
931.817	8014.05
932.125	7924.57
932.434	7927.28
932.743	7854.29
933.051	7860.39
933.36	7766.38
933.669	7723.22
933.977	7732.93
934.286	7692.03
934.594	7697
934.902	7579.94
935.21	7545.14
935.519	7547.4
935.827	7520.51
936.135	7463.33
936.443	7412.04
936.751	7391.25
937.059	7303.57
937.367	7317.8
937.674	7333.62
937.982	7316.9
938.29	7237.35
938.597	7322.32
938.905	7138.15
939.213	7153.06
939.52	7106.51
939.827	7114.42
940.135	7065.61
940.442	7031.26
940.749	7002.33
941.056	6979.51
941.363	6873.52
941.67	6843.92
941.977	6850.92
942.284	6870.81
942.591	6808.66
942.898	6769.57
943.205	6798.72
943.511	6724.37
943.818	6679.85
944.125	6655.45
944.431	6592.17
944.738	6572.28
945.044	6544.94
945.35	6498.84
945.657	6560.99
945.963	6453.87
946.269	6493.64
946.575	6423.59
946.881	6428.11
947.187	6344.95
947.493	6377.26
947.799	6310.6
948.105	6258.39
948.41	6227.44
948.716	6252.29
949.022	6192.41
949.327	6172.52
949.633	6029.7
949.938	6094.11
950.244	6095.46
950.549	5984.28
950.854	6058.17
951.16	5989.7
951.465	5978.63
951.77	5873.55
952.075	5913.77
952.38	5884.62
952.685	5888.46
952.99	5825.19
953.294	5808.69
953.599	5767.56
953.904	5810.04
954.209	5728.92
954.513	5708.35
954.818	5696.83
955.122	5685.08
955.426	5636.04
955.731	5599.88
956.035	5565.31
956.339	5591.52
956.643	5517.4
956.948	5492.09
957.252	5467.68
957.556	5487.57
957.86	5469.71
958.163	5468.59
958.467	5410.73
958.771	5361.7
959.075	5372.54
959.378	5292.09
959.682	5321.92
959.985	5280.79
960.289	5254.81
960.592	5183.85
960.896	5250.74
961.199	5170.06
961.502	5162.6
961.805	5165.99
962.108	5090.52
962.411	5111.53
962.714	5039.9
963.017	5071.31
963.32	5038.31
963.623	4984.76
963.926	4949.95
964.228	4963.51
964.531	4899.56
964.833	4901.14
965.136	4865.44
965.438	4884.42
965.741	4828.6
966.043	4793.8
966.345	4837.87
966.648	4813.01
966.95	4767.59
967.252	4724.65
967.554	4710.19
967.856	4674.48
968.158	4683.75
968.46	4664.54
968.761	4609.17
969.063	4620.92
969.365	4560.36
969.666	4539.34
969.968	4533.24
970.269	4501.6
970.571	4511.32
970.872	4498.22
971.174	4469.29
971.475	4437.88
971.776	4438.33
972.077	4415.51
972.378	4419.57
972.679	4337.32
972.98	4381.38
973.281	4330.08
973.582	4291.44
973.883	4274.49
974.183	4269.07
974.484	4225.91
974.785	4220.26
975.085	4217.32
975.386	4211.22
975.686	4164.44
975.986	4175.06
976.287	4147.04
976.587	4120.6
976.887	4112.91
977.187	4045.57
977.487	4042.18
977.787	4049.87
978.087	4036.76
978.387	4011.9
978.687	3999.92
978.987	3931.45
979.286	3961.73
979.586	3914.73
979.885	3936.2
980.185	3932.81
980.484	3847.84
980.784	3883.32
981.083	3828.18
981.382	3844.9
981.682	3797.67
981.981	3800.38
982.28	3776.43
982.579	3755.18
982.878	3755.86
983.177	3745.47
983.475	3687.84
983.774	3677.45
984.073	3639.48
984.372	3686.48
984.67	3631.35
984.969	3658.24
985.267	3644
985.566	3568.3
985.864	3561.52
986.162	3568.97
986.461	3560.84
986.759	3534.85
987.057	3490.56
987.355	3501.86
987.653	3456.43
987.951	3472.25
988.249	3443.78
988.547	3419.37
988.844	3403.1
989.142	3420.5
989.44	3412.14
989.737	3361.52
990.035	3384.35
990.332	3349.77
990.63	3283.33
990.927	3323.33
991.224	3278.13
991.521	3249.43
991.819	3244.69
992.116	3214.63
992.413	3227.06
992.71	3208.53
993.006	3197.91
993.303	3190
993.6	3139.15
993.897	3086.27
994.193	3127.86
994.49	3088.08
994.787	3074.98
995.083	3046.28
995.379	3044.92
995.676	3027.97
995.972	3023.23
996.268	3040.4
996.565	2959.95
996.861	2978.48
997.157	2960.4
997.453	2947.3
997.749	2902.32
998.044	2893.96
998.34	2890.8
998.636	2890.57
998.932	2836.79
999.227	2831.59
999.523	2838.37
999.818	2806.73
1000.114	2816.9
1000.409	2794.08
1000.704	2761.76
1001	2764.25
1001.295	2743.91
1001.59	2736.91
1001.885	2714.76
1002.18	2701.88
1002.475	2697.81
1002.77	2691.93
1003.065	2649.22
1003.359	2635.89
1003.654	2610.13
1003.949	2600.19
1004.243	2605.84
1004.538	2573.07
1004.832	2538.72
1005.127	2572.62
1005.421	2577.36
1005.715	2539.17
1006.009	2509.11
1006.304	2486.06
1006.598	2465.27
1006.892	2460.98
1007.186	2436.35
1007.48	2451.72
1007.773	2458.27
1008.067	2416.69
1008.361	2336.01
1008.655	2378.27
1008.948	2367.65
1009.242	2400.64
1009.535	2362.68
1009.829	2353.41
1010.122	2343.47
1010.415	2293.53
1010.708	2272.28
1011.001	2265.73
1011.295	2288.78
1011.588	2260.99
1011.881	2245.62
1012.173	2214.21
1012.466	2218.05
1012.759	2181.21
1013.052	2178.28
1013.344	2167.43
1013.637	2141.89
1013.93	2164.49
1014.222	2107.09
1014.514	2112.29
1014.807	2095.34
1015.099	2121.1
1015.391	2084.27
1015.683	2108.45
1015.976	2064.38
1016.268	2069.35
1016.56	2014.21
1016.851	2019.86
1017.143	1983.93
1017.435	1969.24
1017.727	1972.63
1018.018	1957.94
1018.31	1932.41
1018.602	1916.81
1018.893	1901
1019.185	1891.73
1019.476	1864.61
1019.767	1862.13
1020.058	1869.36
1020.35	1820.77
1020.641	1829.81
1020.932	1814.44
1021.223	1826.42
1021.514	1776.7
1021.804	1773.99
1022.095	1755.91
1022.386	1760.66
1022.677	1751.85
1022.967	1744.39
1023.258	1727.21
1023.548	1707.55
1023.839	1686.54
1024.129	1704.62
1024.419	1692.87
1024.709	1679.76
1025	1639.08
1025.29	1651.96
1025.58	1621.68
1025.87	1575.81
1026.16	1565.18
1026.449	1575.35
1026.739	1578.74
1027.029	1559.54
1027.319	1564.51
1027.608	1541.91
1027.898	1555.02
1028.187	1566.77
1028.477	1523.15
1028.766	1495.81
1029.055	1492.42
1029.344	1487.67
1029.634	1495.58
1029.923	1460.33
1030.212	1455.36
1030.501	1452.65
1030.79	1460.1
1031.078	1407.45
1031.367	1409.26
1031.656	1404.96
1031.945	1391.4
1032.233	1366.32
1032.522	1393.44
1032.81	1378.75
1033.099	1349.82
1033.387	1346.66
1033.675	1358.64
1033.963	1313.21
1034.251	1327.45
1034.54	1338.3
1034.828	1294.68
1035.116	1297.62
1035.403	1268.02
1035.691	1266.66
1035.979	1245.42
1036.267	1251.97
1036.554	1252.65
1036.842	1236.15
1037.129	1230.5
1037.417	1231.63
1037.704	1209.49
1037.992	1186.89
1038.279	1187.12
1038.566	1176.95
1038.853	1176.95
1039.14	1176.95
