Data from white_steel_sheet_FLMS001491_080.txt Node
Date: Tue Feb 07 10:58:27 GMT 2017
User: dcchb
Spectrometer: FLMS00149
Trigger mode: 0
Integration Time (sec): 2.000000E-2
Scans to average: 10
Electric dark correction enabled: true
Nonlinearity correction enabled: false
Boxcar width: 0
XAxis mode: Wavelengths
Number of Pixels in Spectrum: 2048
>>>>>Begin Spectral Data<<<<<
341.393	-25.88
341.776	-25.88
342.16	-25.88
342.543	-79.88
342.927	-51.19
343.31	-74.46
343.693	-84.63
344.077	-69.04
344.46	-47.8
344.843	-37.17
345.226	-37.85
345.61	-42.6
345.993	-3.5
346.376	-22.94
346.759	12.54
347.142	14.35
347.525	44.63
347.908	65.65
348.291	89.15
348.674	103.84
349.057	89.83
349.44	128.02
349.823	132.54
350.206	147.68
350.588	204.4
350.971	217.28
351.354	249.15
351.737	262.03
352.119	247.56
352.502	255.25
352.884	288.92
353.267	288.47
353.65	298.86
354.032	332.53
354.414	316.26
354.797	311.52
355.179	336.38
355.562	342.93
355.944	344.74
356.326	349.71
356.709	344.74
357.091	344.51
357.473	346.54
357.855	366.66
358.238	349.26
358.62	346.77
359.002	355.36
359.384	379.54
359.766	351.52
360.148	345.19
360.53	344.96
360.912	358.75
361.294	329.82
361.676	351.52
362.057	323.04
362.439	324.4
362.821	336.15
363.203	335.92
363.584	347
363.966	331.4
364.348	349.26
364.729	345.64
365.111	333.66
365.493	331.18
365.874	352.19
366.256	338.41
366.637	334.34
367.019	329.82
367.4	327.34
367.781	329.14
368.163	324.4
368.544	311.74
368.925	351.06
369.306	338.64
369.688	344.06
370.069	328.01
370.45	330.5
370.831	338.18
371.212	349.03
371.593	343.83
371.974	329.14
372.355	341.12
372.736	335.7
373.117	327.79
373.498	340.89
373.879	334.57
374.26	319.43
374.641	326.21
375.021	337.28
375.402	339.77
375.783	362.82
376.163	357.39
376.544	351.29
376.925	356.94
377.305	352.87
377.686	337.51
378.066	356.04
378.447	374.79
378.827	364.85
379.208	357.62
379.588	359.65
379.968	369.59
380.349	362.14
380.729	349.26
381.109	368.92
381.489	358.97
381.87	367.79
382.25	370.05
382.63	371.4
383.01	396.71
383.39	356.71
383.77	372.08
384.15	373.44
384.53	391.74
384.91	415.24
385.29	394.23
385.67	376.6
386.049	391.74
386.429	412.31
386.809	412.53
387.189	383.15
387.568	406.2
387.948	411.18
388.328	406.66
388.707	422.7
389.087	423.15
389.466	434.68
389.846	441.68
390.225	425.86
390.605	427.9
390.984	423.38
391.363	424.06
391.743	454.56
392.122	439.65
392.501	455.02
392.881	488.46
393.26	464.51
393.639	493.21
394.018	502.92
394.397	485.98
394.776	490.04
395.155	500.66
395.534	490.95
395.913	499.76
396.292	496.37
396.671	518.52
397.05	518.74
397.429	537.73
397.808	536.6
398.186	517.61
398.565	563.71
398.944	539.76
399.323	543.6
399.701	565.52
400.08	593.09
400.458	557.39
400.837	594.67
401.215	599.87
401.594	600.32
401.972	593.32
402.351	608.91
402.729	618.18
403.107	651.4
403.486	642.36
403.864	680.77
404.242	649.81
404.62	658.85
404.999	707.44
405.377	685.74
405.755	718.96
406.133	697.95
406.511	733.43
406.889	752.86
407.267	757.16
407.645	773.2
408.023	752.64
408.401	774.33
408.779	777.72
409.156	808
409.534	824.05
409.912	811.84
410.29	847.1
410.667	850.26
411.045	874.89
411.422	861.33
411.8	888.23
412.178	905.17
412.555	938.17
412.933	935.91
413.31	938.39
413.687	942.24
414.065	976.81
414.442	997.15
414.819	963.93
415.197	1005.74
415.574	1048.67
415.951	1027.88
416.328	1054.77
416.705	1050.93
417.082	1039.63
417.46	1079.63
417.837	1084.83
418.214	1090.93
418.591	1123.47
418.967	1103.36
419.344	1132.06
419.721	1160.99
420.098	1167.09
420.475	1142.68
420.852	1185.17
421.228	1179.97
421.605	1189.46
421.982	1212.28
422.358	1250.48
422.735	1245.28
423.111	1238.05
423.488	1275.56
423.864	1276.01
424.241	1328.67
424.617	1311.94
424.994	1302.23
425.37	1357.37
425.746	1350.13
426.123	1366.4
426.499	1375.22
426.875	1382.68
427.251	1403.47
427.627	1449.11
428.003	1464.48
428.379	1525.04
428.756	1483.69
429.132	1508.55
429.507	1516.23
429.883	1529.79
430.259	1587.87
430.635	1583.35
431.011	1616.57
431.387	1629
431.763	1668.09
432.138	1666.06
432.514	1680.29
432.89	1747.64
433.265	1770.91
433.641	1758.48
434.016	1761.65
434.392	1817.47
434.767	1868.31
435.143	1845.49
435.518	1889.33
435.894	1878.26
436.269	1916.9
436.644	1956.22
437.02	1953.73
437.395	2002.55
437.77	1962.32
438.145	2040.74
438.52	2063.11
438.895	2084.35
439.271	2084.58
439.646	2138.81
440.021	2191.47
440.395	2177.46
440.77	2147.18
441.145	2174.07
441.52	2200.73
441.895	2242.31
442.27	2256.32
442.645	2250
443.019	2271.69
443.394	2289.54
443.769	2358.47
444.143	2292.48
444.518	2367.96
444.892	2368.86
445.267	2382.42
445.641	2407.06
446.016	2419.26
446.39	2430.11
446.764	2442.53
447.139	2470.56
447.513	2485.92
447.887	2487.05
448.262	2537.9
448.636	2534.51
449.01	2594.17
449.384	2635.75
449.758	2567.5
450.132	2633.94
450.506	2645.02
450.88	2698.35
451.254	2706.93
451.628	2755.97
452.002	2771.57
452.376	2780.6
452.75	2812.02
453.123	2837.55
453.497	2865.12
453.871	2901.51
454.244	2990.54
454.618	2991.45
454.992	3053.37
455.365	3034.38
455.739	3136.53
456.112	3146.92
456.486	3135.4
456.859	3181.72
457.232	3259.69
457.606	3254.94
457.979	3283.64
458.352	3375.84
458.725	3431.21
459.099	3382.85
459.472	3510.3
459.845	3517.08
460.218	3548.95
460.591	3595.95
460.964	3642.5
461.337	3692.67
461.71	3731.99
462.083	3829.16
462.456	3790.52
462.829	3848.83
463.201	3911.87
463.574	3890.18
463.947	4008.14
464.32	4064.19
464.692	4087.92
465.065	4136.95
465.438	4202.26
465.81	4256.05
466.183	4242.04
466.555	4397.74
466.928	4369.72
467.3	4403.84
467.672	4485.19
468.045	4584.85
468.417	4573.78
468.789	4612.65
469.161	4726.99
469.534	4745.75
469.906	4858.29
470.278	4913.88
470.65	4945.75
471.022	5104.84
471.394	5133.54
471.766	5214.67
472.138	5238.62
472.51	5350.48
472.882	5443.81
473.253	5512.74
473.625	5564.94
473.997	5707.08
474.369	5751.6
474.74	5837.02
475.112	5940.52
475.484	6018.03
475.855	6097.35
476.227	6159.95
476.598	6312.26
476.97	6394.07
477.341	6526.27
477.713	6655.08
478.084	6670.45
478.455	6870.67
478.827	6910.89
479.198	7131.45
479.569	7179.59
479.94	7330.09
480.311	7429.97
480.682	7603.08
481.053	7764.43
481.424	7879
481.795	7985.21
482.166	8092.33
482.537	8206.68
482.908	8409.84
483.279	8458.87
483.65	8552.88
484.021	8789.49
484.391	8875.59
484.762	8952.19
485.133	8985.87
485.503	9148.12
485.874	9361
486.244	9507.43
486.615	9680.76
486.985	9830.36
487.356	9923.47
487.726	10055.67
488.097	10217.92
488.467	10274.87
488.837	10555.32
489.207	10564.35
489.578	10789.66
489.948	10941.07
490.318	11038.69
490.688	11067.84
491.058	11216.32
491.428	11353.03
491.798	11574.5
492.168	11796.86
492.538	11803.64
492.908	11931.78
493.278	12108.95
493.648	12174.71
494.017	12295.16
494.387	12431.42
494.757	12571.31
495.126	12692.43
495.496	12682.94
495.866	12812.66
496.235	13007.45
496.605	13101.46
496.974	13174.23
497.344	13345.52
497.713	13439.76
498.082	13451.74
498.452	13660.09
498.821	13777.6
499.19	13757.04
499.559	13927.66
499.928	14085.17
500.298	14150.02
500.667	14263.24
501.036	14344.37
501.405	14504.82
501.774	14451.71
502.143	14671.82
502.512	14700.07
502.88	14844.24
503.249	14846.73
503.618	15012.83
503.987	15106.16
504.356	15237.68
504.724	15338.01
505.093	15415.3
505.462	15450.55
505.83	15585.47
506.199	15795.4
506.567	16020.93
506.936	16012.12
507.304	16158.11
507.672	16237.43
508.041	16359.23
508.409	16578.43
508.777	16570.75
509.145	16732.1
509.514	16815.94
509.882	17055.03
510.25	17052.09
510.618	17161.24
510.986	17233.78
511.354	17386.77
511.722	17542.25
512.09	17779.76
512.458	17720.33
512.826	17930.26
513.193	18046.19
513.561	18101.78
513.929	18253.87
514.297	18379.74
514.664	18613.41
515.032	18645.95
515.4	18900.63
515.767	19040.52
516.135	18981.76
516.502	18987.64
516.869	19430.79
517.237	19453.61
517.604	19522.54
517.972	19745.36
518.339	19909.19
518.706	19905.58
519.073	20154.39
519.44	20205.01
519.808	20372.46
520.175	20439.8
520.542	20781.49
520.909	20773.58
521.276	20791.66
521.643	21154.81
522.009	21327.46
522.376	21446.33
522.743	21703.05
523.11	21808.13
523.477	22014.22
523.843	22049.25
524.21	22438.85
524.577	22511.84
524.943	22700.76
525.31	22860.98
525.676	23150.01
526.043	23254.64
526.409	23425.94
526.776	23591.58
527.142	23642.43
527.508	23795.87
527.874	24089.42
528.241	24077.9
528.607	24270.44
528.973	24519.92
529.339	24493.71
529.705	24739.35
530.071	24963.3
530.437	25074.93
530.803	25290.3
531.169	25475.38
531.535	25349.73
531.901	25525.77
532.267	25738.87
532.632	25830.39
532.998	26008.69
533.364	26290.5
533.73	26266.09
534.095	26508.57
534.461	26501.11
534.826	26642.12
535.192	26860.88
535.557	26966.86
535.923	27019.29
536.288	27145.39
536.653	27224.26
537.019	27229.45
537.384	27459.73
537.749	27533.17
538.114	27669.89
538.479	27658.14
538.845	27972.26
539.21	27827.18
539.575	27970
539.94	28138.13
540.305	28397.56
540.67	28286.15
541.034	28433.49
541.399	28482.3
541.764	28591.9
542.129	28773.14
542.494	28934.04
542.858	28937.66
543.223	29007.49
543.587	29215.39
543.952	29180.59
544.316	29372.67
544.681	29332.45
545.045	29437.98
545.41	29614.02
545.774	29737.86
546.138	29720.24
546.503	29790.52
546.867	29888.82
547.231	30177.85
547.595	30186.44
547.959	30259.66
548.324	30299.43
548.688	30465.98
549.052	30646.31
549.416	30627.78
549.779	30905.29
550.143	30855.57
550.507	31126.75
550.871	31080.88
551.235	31132.63
551.599	31326.07
551.962	31427.31
552.326	31567.19
552.689	31702.33
553.053	31650.58
553.417	31796.34
553.78	32087.4
554.143	32022.55
554.507	32144.58
554.87	32308.42
555.234	32684.23
555.597	32420.96
555.96	32623.21
556.323	32900.49
556.686	32916.08
557.05	33092.8
557.413	33237.88
557.776	33234.49
558.139	33422.06
558.502	33597.87
558.865	33584.99
559.228	33813.46
559.59	33961.71
559.953	33999.9
560.316	34342.49
560.679	34224.98
561.041	34607.56
561.404	34690.27
561.767	34978.18
562.129	34908.12
562.492	35275.8
562.854	35287.32
563.217	35446.41
563.579	35555.56
563.941	35758.49
564.304	35790.13
564.666	35997.13
565.028	35879.85
565.39	36284.58
565.753	36506.05
566.115	36500.62
566.477	36742.88
566.839	36749.2
567.201	36992.59
567.563	37157.1
567.925	37359.58
568.287	37238.68
568.648	37229.64
569.01	37532.46
569.372	37740.82
569.734	37683.87
570.095	38029.85
570.457	38271.42
570.819	38287.92
571.18	38230.97
571.542	38427.13
571.903	38486.11
572.265	38633
572.626	38751.18
572.987	38903.72
573.349	38824.4
573.71	39044.06
574.071	39245.41
574.432	39213.55
574.794	39604.95
575.155	39411.28
575.516	39353.88
575.877	39551.84
576.238	39575.34
576.599	39753.42
576.96	39902.11
577.32	39707.54
577.681	39877.48
578.042	40050.36
578.403	40032.96
578.763	40040.87
579.124	40051.49
579.485	40065.73
579.845	40336
580.206	40237.93
580.566	40283.35
580.927	40315.44
581.287	40439.5
581.648	40295.55
582.008	40442.44
582.368	40442.44
582.728	40460.07
583.089	40554.53
583.449	40568.31
583.809	40518.6
584.169	40611.47
584.529	40618.71
584.889	40847.4
585.249	40533.51
585.609	40416.9
585.969	40809.44
586.329	40501.65
586.688	40673.17
587.048	40649.21
587.408	40624.36
587.768	40556.79
588.127	40545.26
588.487	40636.56
588.846	40792.94
589.206	40606.05
589.565	40528.31
589.925	40775.09
590.284	40629.33
590.643	40705.94
591.003	40780.51
591.362	40822.32
591.721	40763.11
592.08	40759.72
592.44	40811.92
592.799	40753.17
593.158	40785.26
593.517	40735.09
593.876	40667.97
594.235	40773.96
594.593	40767.85
594.952	41048.75
595.311	40683.56
595.67	40815.99
596.029	40943.22
596.387	40954.06
596.746	41080.84
597.104	40910
597.463	41029.77
597.822	40958.36
598.18	40883.78
598.538	40769.21
598.897	41153.83
599.255	40762.43
599.613	41267.5
599.972	41033.16
600.33	41060.73
600.688	40912.48
601.046	41041.07
601.404	41132.59
601.762	41099.82
602.12	41328.74
602.478	41240.38
602.836	41320.83
603.194	41006.04
603.552	41148.18
603.91	41004.01
604.268	41267.5
604.625	41085.13
604.983	41278.35
605.341	41033.38
605.698	41265.47
606.056	41381.17
606.413	41282.87
606.771	41461.85
607.128	41418.91
607.485	41315.86
607.843	41367.16
608.2	41503.65
608.557	41718.56
608.914	41629.07
609.272	41702.97
609.629	41967.15
609.986	41914.72
610.343	41652.58
610.7	42068.16
611.057	41916.75
611.414	41914.94
611.771	41953.81
612.127	41946.35
612.484	42142.51
612.841	42090.76
613.198	42066.8
613.554	42087.14
613.911	42296.18
614.267	42333.01
614.624	42302.5
614.98	42426.34
615.337	42673.79
615.693	42440.35
616.05	42450.75
616.406	42683.74
616.762	42503.18
617.118	42620.01
617.475	42566.23
617.831	42627.69
618.187	42665.43
618.543	42747.24
618.899	42952.43
619.255	42877.86
619.611	42801.25
619.967	42984.07
620.323	43040.11
620.678	42929.15
621.034	42811.42
621.39	42917.63
621.746	42749.95
622.101	43167.34
622.457	42890.51
622.812	42982.94
623.168	43148.36
623.523	43092.31
623.879	43203.04
624.234	42898.87
624.589	43142.48
624.945	43135.02
625.3	43206.21
625.655	43227.68
626.01	43065.87
626.365	43169.37
626.72	43114.23
627.075	43071.07
627.43	43016.61
627.785	42894.35
628.14	42976.61
628.495	43064.29
628.85	42958.08
629.205	42944.52
629.559	43151.75
629.914	42882.83
630.269	43002.82
630.623	42777.52
630.978	42751.08
631.332	42802.83
631.687	42937.29
632.041	42703.17
632.396	42940.9
632.75	42589.05
633.104	42750.18
633.459	42470.63
633.813	42568.94
634.167	42649.16
634.521	42617.75
634.875	42414.14
635.229	42486.68
635.583	42228.38
635.937	42362.84
636.291	42148.84
636.645	42167.59
636.999	42142.73
637.352	42322.84
637.706	41996.52
638.06	42238.1
638.413	41988.61
638.767	41775.06
639.121	41941.38
639.474	41709.52
639.828	41692.12
640.181	41851.44
640.534	41662.97
640.888	41713.82
641.241	41380.04
641.594	41537.78
641.947	41585.69
642.301	41481.73
642.654	41436.54
643.007	41339.37
643.36	41348.86
643.713	41145.92
644.066	41402.64
644.419	41214.17
644.771	40927.4
645.124	40564.47
645.477	40472.95
645.83	40212.39
646.182	39954.09
646.535	40032.05
646.888	40030.92
647.24	39812.17
647.593	40109.11
647.945	39998.61
648.298	39768.11
648.65	39689.92
649.002	39646.98
649.355	39681.33
649.707	39569.02
650.059	39687.66
650.411	40211.49
650.763	40296.91
651.115	40773.73
651.467	40424.36
651.819	40468.65
652.171	40328.09
652.523	40176.91
652.875	40248.32
653.227	40084.48
653.578	40229.56
653.93	40158.83
654.282	40066.63
654.633	40035.9
654.985	40008.55
655.337	39952.28
655.688	39963.58
656.039	40081.09
656.391	39796.35
656.742	39845.39
657.094	39745.96
657.445	39995.67
657.796	39767.65
658.147	39719.75
658.498	39619.64
658.849	39796.13
659.2	39611.73
659.551	39623.48
659.902	39808.78
660.253	39450.15
660.604	39630.03
660.955	39386.2
661.306	39365.63
661.656	39485.63
662.007	39449.7
662.358	39242.7
662.708	39296.93
663.059	39401.11
663.409	38856.94
663.76	39122.02
664.11	39131.29
664.461	39146.43
664.811	39145.07
665.161	38925.19
665.511	38787.34
665.862	38788.7
666.212	38836.15
666.562	38883.61
666.912	38648.14
667.262	38619.44
667.612	38525.65
667.962	38484.75
668.312	38349.61
668.662	38380.12
669.011	38283.4
669.361	38276.85
669.711	38021.03
670.06	37981.49
670.41	37774.71
670.76	37794.15
671.109	37835.73
671.459	37833.69
671.808	37636.64
672.157	37644.55
672.507	37300.83
672.856	37315.29
673.205	37295.18
673.554	37203.43
673.904	37162.53
674.253	37360.94
674.602	37158.46
674.951	36667.85
675.3	36351.25
675.649	36915.53
675.998	36933.83
676.346	36913.49
676.695	37068.74
677.044	36768.86
677.393	36779.48
677.741	36970.44
678.09	36746.27
678.438	36600.73
678.787	36751.01
679.135	36702.2
679.484	36567.51
679.832	36742.65
680.181	36546.5
680.529	36596.66
680.877	36432.15
681.225	36466.27
681.573	36601.64
681.922	36534.97
682.27	36246.17
682.618	36434.64
682.966	36545.14
683.314	36496.55
683.661	36469.89
684.009	36344.92
684.357	36406.39
684.705	36283.9
685.053	36269.22
685.4	36285.49
685.748	36159.16
686.095	36217.24
686.443	36045.49
686.79	36132.27
687.138	36144.02
687.485	36147.64
687.832	36237.13
688.18	36294.53
688.527	36006.4
688.874	36006.17
689.221	36117.13
689.568	36063.12
689.915	36045.72
690.262	35864.25
690.609	35888.66
690.956	35724.37
691.303	35800.3
691.65	35737.93
691.997	35793.3
692.344	35722.34
692.69	35639.18
693.037	35576.8
693.383	35526.41
693.73	35509.24
694.077	35341.1
694.423	35398.73
694.769	35393.53
695.116	35378.62
695.462	35423.36
695.808	35271.05
696.155	35224.72
696.501	35168
696.847	35046.65
697.193	34854.56
697.539	35001.9
697.885	34771.4
698.231	34675.81
698.577	34669.94
698.923	34676.04
699.269	34477.62
699.614	34264.3
699.96	34419.32
700.306	34392.2
700.651	34162.83
700.997	34046
701.342	34161.7
701.688	33984.53
702.033	33777.08
702.379	33955.38
702.724	33775.04
703.069	33870.63
703.415	33456.41
703.76	33465.22
704.105	33413.47
704.45	33413.7
704.795	33176.19
705.14	33032.69
705.485	32931.68
705.83	32922.41
706.175	32984.33
706.52	32783.43
706.865	32660.27
707.209	32706.82
707.554	32640.16
707.899	32708.86
708.243	32449.2
708.588	32456.21
708.932	32331.92
709.277	32268.42
709.621	32261.41
709.966	32209.21
710.31	32191.58
710.654	32043.56
710.998	31854.19
711.342	32109.78
711.687	31872.95
712.031	31713.86
712.375	31589.11
712.719	31745.04
713.063	31623.46
713.407	31739.62
713.75	31436.57
714.094	31545.5
714.438	31366.97
714.782	31362.9
715.125	31114.78
715.469	31185.06
715.812	31078.17
716.156	30909.58
716.499	30976.93
716.843	31024.83
717.186	30717.5
717.53	30960.88
717.873	30864.39
718.216	30882.92
718.559	30543.72
718.902	30528.12
719.246	30697.84
719.589	30409.03
719.932	30325.64
720.275	30472.08
720.617	30341.01
720.96	30307.56
721.303	30122.94
721.646	30127.91
721.989	30006.33
722.331	30248.81
722.674	29981.7
723.016	29937.63
723.359	29939.21
723.701	30021.47
724.044	29761.36
724.386	29671.2
724.729	29841.59
725.071	29648.82
725.413	29614.7
725.755	29581.71
726.097	29590.3
726.439	29413.58
726.782	29337.42
727.124	29587.58
727.465	29395.95
727.807	29394.37
728.149	29185.56
728.491	29064.66
728.833	29230.3
729.175	28992.12
729.516	29020.14
729.858	28887.26
730.199	29006.13
730.541	28870.31
730.882	28848.17
731.224	28937.21
731.565	28647.04
731.906	28680.49
732.248	28676.87
732.589	28529.98
732.93	28468.97
733.271	28524.56
733.612	28522.07
733.953	28439.14
734.294	28307.39
734.635	28218.58
734.976	28365.47
735.317	28122.31
735.658	28271.23
735.999	28254.74
736.339	28202.76
736.68	28223.1
737.021	28028.53
737.361	27894.52
737.702	28044.12
738.042	27936.78
738.383	27837.8
738.723	28014.97
739.063	27709.67
739.404	27797.35
739.744	27677.58
740.084	27628.31
740.424	27647.75
740.764	27701.98
741.104	27690.01
741.444	27504.02
741.784	27473.51
742.124	27415.21
742.464	27351.71
742.804	27320.3
743.143	27343.35
743.483	27410.47
743.823	27221.54
744.162	27183.81
744.502	27262.45
744.841	26990.59
745.181	27174.99
745.52	27058.38
745.86	27135.9
746.199	26949.23
746.538	26935.68
746.877	27012.51
747.216	26862.46
747.556	26837.83
747.895	26770.03
748.234	26604.61
748.573	26689.81
748.911	26650.26
749.25	26648.23
749.589	26421.11
749.928	26573.88
750.267	26498.4
750.605	26375.01
750.944	26390.38
751.283	26227.9
751.621	26300.44
751.96	26127.11
752.298	26033.78
752.636	26130.73
752.975	25995.14
753.313	25981.12
753.651	26050.28
753.989	25811.64
754.327	25716.95
754.666	25738.19
755.004	25694.58
755.342	25630.4
755.679	25535.49
756.017	25337.98
756.355	25450.29
756.693	25299.56
757.031	25320.35
757.368	25160.13
757.706	25201.03
758.044	25022.73
758.381	25151.99
758.719	24996.29
759.056	25084.65
759.394	24877.88
759.731	24655.51
760.068	24726.92
760.405	24735.28
760.743	24545.23
761.08	24619.13
761.417	24514.27
761.754	24289.87
762.091	24281.28
762.428	24218.69
762.765	24107.28
763.102	24099.59
763.438	24001.74
763.775	23761.07
764.112	23881.52
764.449	23868.86
764.785	23640.62
765.122	23525.82
765.458	23437.01
765.795	23445.37
766.131	23424.58
766.467	23281.76
766.804	23220.97
767.14	23009.23
767.476	23138.26
767.812	23030.24
768.148	23011.03
768.485	22859.4
768.821	22705.96
769.157	22749.8
769.492	22561.55
769.828	22606.98
770.164	22429.81
770.5	22395.46
770.836	22348
771.171	22314.55
771.507	22251.05
771.842	22034.79
772.178	22041.79
772.513	21889.25
772.849	21867.79
773.184	21830.05
773.519	21862.14
773.855	21681.12
774.19	21569.04
774.525	21497.85
774.86	21400.45
775.195	21362.72
775.53	21163.85
775.865	21146.68
776.2	21092.67
776.535	20993.91
776.87	20971.31
777.205	20819.45
777.539	20756.18
777.874	20865.33
778.209	20622.4
778.543	20552.34
778.878	20405.23
779.212	20416.3
779.547	20268.28
779.881	20346.47
780.215	20101.05
780.55	20220.37
780.884	20069.64
781.218	20066.93
781.552	19956.42
781.886	19912.36
782.22	19801.17
782.554	19646.83
782.888	19635.75
783.222	19549.66
783.556	19339.49
783.889	19330.23
784.223	19244.35
784.557	19147.41
784.89	19163.45
785.224	19076.45
785.557	18967.3
785.891	18947.86
786.224	18950.12
786.558	18857.02
786.891	18709
787.224	18634.2
787.557	18602.34
787.891	18608.44
788.224	18510.13
788.557	18498.84
788.89	18451.61
789.223	18400.53
789.556	18271.72
789.888	18145.17
790.221	18137.94
790.554	18013.42
790.887	18039.41
791.219	17930.94
791.552	17894.56
791.884	17821.11
792.217	17784.96
792.549	17735.92
792.882	17466.55
793.214	17418.41
793.546	17557.39
793.879	17381.35
794.211	17353.56
794.543	17312.2
794.875	17228.36
795.207	17315.59
795.539	17150.62
795.871	17144.52
796.203	17036.5
796.535	16875.38
796.867	16984.3
797.198	16819.56
797.53	16771.2
797.862	16741.59
798.193	16722.84
798.525	16627.02
798.856	16588.6
799.188	16372.11
799.519	16394.71
799.85	16280.81
800.182	16307.25
800.513	16284.43
800.844	16090.54
801.175	16276.52
801.506	16196.98
801.837	16069.52
802.168	16117.88
802.499	15993.36
802.83	15917.66
803.161	15868.4
803.491	15881.05
803.822	15828.4
804.153	15787.49
804.483	15661.17
804.814	15585.01
805.145	15556.31
805.475	15635.86
805.805	15452.81
806.136	15535.3
806.466	15472.7
806.796	15456.88
807.126	15340.73
807.457	15339.6
807.787	15343.44
808.117	15204.23
808.447	15167.17
808.777	15097.34
809.107	15147.51
809.436	15069.55
809.766	15032.26
810.096	15005.82
810.426	14872.49
810.755	14927.4
811.085	14941.42
811.414	14818.71
811.744	14734.87
812.073	14729.9
812.403	14724.02
812.732	14644.25
813.061	14612.84
813.39	14535.1
813.719	14517.7
814.049	14515.89
814.378	14432.95
814.707	14464.14
815.036	14387.98
815.365	14368.1
815.693	14117.03
816.022	14289.68
816.351	14155.9
816.68	14039.52
817.008	14168.33
817.337	14008.56
817.665	14008.33
817.994	14041.33
818.322	14021.21
818.651	13936.02
818.979	13842.46
819.307	14021.44
819.636	13881.1
819.964	13790.26
820.292	13832.97
820.62	13828.45
820.948	13816.25
821.276	13793.42
821.604	13718.62
821.932	13799.75
822.259	13818.96
822.587	13751.39
822.915	13708.23
823.243	13747.32
823.57	13693.99
823.898	13732.41
824.225	13671.84
824.553	13654.9
824.88	13743.48
825.207	13766.53
825.535	13673.43
825.862	13672.07
826.189	13742.12
826.516	13756.81
826.843	13701.67
827.17	13673.2
827.497	13717.72
827.824	13655.12
828.151	13761.79
828.478	13677.72
828.805	13750.71
829.131	13674.1
829.458	13583.26
829.785	13590.49
830.111	13651.96
830.438	13708.91
830.764	13663.48
831.09	13661.45
831.417	13559.08
831.743	13671.39
832.069	13663.71
832.395	13561.11
832.722	13585.29
833.048	13616.48
833.374	13560.43
833.7	13514.56
834.026	13435.47
834.351	13515.46
834.677	13505.52
835.003	13460.55
835.329	13432.98
835.654	13449.48
835.98	13326.09
836.306	13381
836.631	13307.33
836.956	13326.54
837.282	13402.25
837.607	13328.58
837.932	13325.19
838.258	13365.19
838.583	13220.33
838.908	13106.89
839.233	13196.6
839.558	13234.79
839.883	13104.63
840.208	13082.03
840.533	13132.2
840.858	13052.2
841.182	13078.41
841.507	13128.58
841.832	12993.22
842.156	12970.39
842.481	13032.76
842.805	12899.21
843.13	12892.2
843.454	12880.23
843.778	12842.94
844.103	12757.74
844.427	12665.54
844.751	12732.89
845.075	12709.38
845.399	12629.39
845.723	12571.76
846.047	12635.71
846.371	12509.16
846.695	12502.84
847.019	12436.4
847.343	12425.32
847.666	12358.66
847.99	12281.82
848.313	12190.07
848.637	12132.22
848.96	12153.24
849.284	12118.66
849.607	12055.39
849.931	11944.66
850.254	11979.46
850.577	11881.61
850.9	11820.14
851.223	11768.17
851.546	11678.45
851.869	11636.64
852.192	11770.2
852.515	11546.93
852.838	11473.94
853.161	11538.79
853.483	11483.65
853.806	11398.01
854.129	11432.58
854.451	11382.64
854.774	11316.88
855.096	11244.11
855.419	11215.41
855.741	11217.9
856.063	11215.86
856.385	11120.72
856.708	11085.47
857.03	11077.56
857.352	11069.65
857.674	10992.14
857.996	10986.26
858.318	10876.44
858.64	10927.06
858.961	10871.24
859.283	10834.86
859.605	10787.63
859.926	10868.98
860.248	10714.86
860.57	10706.27
860.891	10774.97
861.212	10677.8
861.534	10643.67
861.855	10649.1
862.176	10607.29
862.498	10685.48
862.819	10606.84
863.14	10564.58
863.461	10526.62
863.782	10528.65
864.103	10532.72
864.424	10464.02
864.745	10494.07
865.065	10381.31
865.386	10364.81
865.707	10413.4
866.027	10436.22
866.348	10299.05
866.668	10330.01
866.989	10353.74
867.309	10205.72
867.63	10258.83
867.95	10302.67
868.27	10243.01
868.59	10188.09
868.91	10207.53
869.23	10174.31
869.55	10131.15
869.87	10213.86
870.19	10199.84
870.51	10140.64
870.83	10114.65
871.15	10085.05
871.469	10104.93
871.789	10076.91
872.109	10049.57
872.428	10022.22
872.748	10068.77
873.067	9992.39
873.386	9991.04
873.706	9979.74
874.025	9896.12
874.344	9858.16
874.663	9902.45
874.982	9895.9
875.301	9867.65
875.62	9872.62
875.939	9820.65
876.258	9822.68
876.577	9850.25
876.896	9798.27
877.214	9802.57
877.533	9784.71
877.852	9746.52
878.17	9808.67
878.489	9737.71
878.807	9729.8
879.125	9692.29
879.444	9705.17
879.762	9600.76
880.08	9658.84
880.398	9615.23
880.716	9598.05
881.034	9576.81
881.352	9498.17
881.67	9490.03
881.988	9520.54
882.306	9499.98
882.624	9486.87
882.941	9368.23
883.259	9390.83
883.577	9399.41
883.894	9397.61
884.212	9401.22
884.529	9396.48
884.846	9368.23
885.164	9313.54
885.481	9261.34
885.798	9248.68
886.115	9253.43
886.432	9129.36
886.75	9141.79
887.067	9178.18
887.383	9117.16
887.7	9127.1
888.017	9070.83
888.334	9060.67
888.651	9110.38
888.967	9003.49
889.284	8957.17
889.6	8966.2
889.917	8921.91
890.233	8930.27
890.55	8885.98
890.866	8932.76
891.182	8817.06
891.498	8872.87
891.815	8743.39
892.131	8700
892.447	8737.51
892.763	8729.15
893.079	8627.68
893.395	8712.65
893.71	8620.23
894.026	8591.3
894.342	8591.07
894.657	8572.77
894.973	8518.53
895.289	8555.82
895.604	8486.67
895.92	8476.73
896.235	8394.92
896.55	8395.37
896.865	8387.92
897.181	8322.83
897.496	8370.74
897.811	8258.43
898.126	8263.17
898.441	8165.77
898.756	8156.28
899.071	8140.92
899.386	8095.49
899.7	8123.52
900.015	8091.2
900.33	7997.19
900.644	8002.61
900.959	8052.56
901.273	7987.25
901.588	7974.14
901.902	7920.81
902.216	7900.47
902.531	7898.44
902.845	7834.71
903.159	7802.85
903.473	7746.35
903.787	7727.14
904.101	7662.96
904.415	7701.83
904.729	7692.34
905.042	7585.9
905.356	7593.81
905.67	7561.5
905.984	7541.38
906.297	7472.23
906.611	7471.78
906.924	7442.18
907.237	7399.01
907.551	7421.16
907.864	7426.13
908.177	7267.72
908.491	7277.21
908.804	7268.4
909.117	7196.31
909.43	7228.17
909.743	7180.26
910.056	7145.24
910.368	7085.8
910.681	7011.45
910.994	7032.92
911.307	7044.67
911.619	7046.26
911.932	7011.68
912.244	6960.38
912.557	6920.83
912.869	6898.69
913.181	6856.43
913.494	6850.78
913.806	6826.83
914.118	6842.87
914.43	6785.02
914.742	6776.66
915.054	6677.23
915.366	6712.03
915.678	6648.98
915.99	6653.95
916.302	6588.64
916.613	6579.83
916.925	6569.88
917.236	6553.16
917.548	6479.26
917.859	6509.09
918.171	6449.21
918.482	6445.59
918.794	6430.23
919.105	6387.97
919.416	6317.91
919.727	6341.19
920.038	6295.09
920.349	6257.12
920.66	6208.31
920.971	6257.58
921.282	6192.27
921.593	6122.89
921.903	6139.84
922.214	6129.44
922.525	6043.12
922.835	6021.42
923.146	6022.55
923.456	6029.78
923.767	5957.02
924.077	5957.24
924.387	5932.84
924.697	5877.7
925.008	5882.44
925.318	5877.7
925.628	5893.97
925.938	5856
926.248	5774.2
926.558	5795.21
926.867	5744.82
927.177	5688.78
927.487	5685.84
927.796	5590.93
928.106	5627.76
928.416	5627.54
928.725	5568.1
929.034	5542.11
929.344	5526.07
929.653	5546.18
929.962	5462.79
930.271	5462.34
930.581	5503.47
930.89	5400.42
931.199	5373.31
931.508	5340.76
931.817	5354.32
932.125	5312.52
932.434	5318.84
932.743	5238.62
933.051	5280.88
933.36	5240.88
933.669	5205.4
933.977	5173.76
934.286	5153.42
934.594	5162.69
934.902	5093.76
935.21	5129.47
935.519	5074.56
935.827	5042.01
936.135	5010.38
936.443	5006.31
936.751	5014.44
937.059	4971.28
937.367	4933.54
937.674	4932.86
937.982	4919.76
938.29	4918.4
938.597	4920.66
938.905	4854.45
939.213	4854
939.52	4814
939.827	4804.51
940.135	4762.25
940.442	4755.92
940.749	4712.76
941.056	4723.38
941.363	4669.14
941.67	4662.14
941.977	4642.7
942.284	4617.39
942.591	4644.74
942.898	4596.83
943.205	4579.88
943.511	4508.92
943.818	4461.24
944.125	4456.49
944.431	4462.59
944.738	4489.94
945.044	4493.78
945.35	4412.2
945.657	4404.74
945.963	4411.97
946.269	4371.52
946.575	4347.34
946.881	4334.01
947.187	4310.28
947.493	4310.06
947.799	4307.34
948.105	4240
948.41	4216.05
948.716	4228.48
949.022	4211.75
949.327	4203.17
949.633	4181.47
949.938	4149.16
950.244	4152.09
950.549	4113.45
950.854	4122.04
951.16	4054.92
951.465	4044.98
951.77	4061.25
952.075	4055.83
952.38	4041.36
952.685	3997.75
952.99	3959.33
953.294	4005.43
953.599	3965.43
953.904	3900.35
954.209	3874.14
954.513	3919.11
954.818	3858.32
955.122	3855.38
955.426	3870.97
955.731	3768.38
956.035	3807.7
956.339	3788.49
956.643	3776.51
956.948	3765.44
957.252	3717.76
957.556	3709.39
957.86	3686.34
958.163	3677.53
958.467	3662.16
958.771	3646.12
959.075	3626.23
959.378	3650.41
959.682	3605.22
959.985	3551.88
960.289	3590.75
960.592	3548.72
960.896	3542.39
961.199	3543.3
961.502	3513.69
961.805	3499.46
962.108	3503.52
962.411	3476.63
962.714	3424.43
963.017	3445.22
963.32	3425.11
963.623	3411.77
963.926	3404.54
964.228	3370.65
964.531	3317.54
964.833	3359.12
965.136	3382.4
965.438	3344.21
965.741	3292
966.043	3311.66
966.345	3259.01
966.648	3248.62
966.95	3288.16
967.252	3241.61
967.554	3234.38
967.856	3230.31
968.158	3194.38
968.46	3208.16
968.761	3144.44
969.063	3174.72
969.365	3160.71
969.666	3174.27
969.968	3110.09
970.269	3078.9
970.571	3071.67
970.872	3078.68
971.174	3085.91
971.475	3059.69
971.776	3039.58
972.077	3011.56
972.378	2993.25
972.679	3016.76
972.98	2987.38
973.281	2972.24
973.582	2965.91
973.883	2949.41
974.183	2941.28
974.484	2871.9
974.785	2862.18
975.085	2881.39
975.386	2941.5
975.686	2873.48
975.986	2861.51
976.287	2855.63
976.587	2834.84
976.887	2811.34
977.187	2813.15
977.487	2815.18
977.787	2766.37
978.087	2772.24
978.387	2734.28
978.687	2758.68
978.987	2722.3
979.286	2708.97
979.586	2712.13
979.885	2705.35
980.185	2702.64
980.484	2659.03
980.784	2683.21
981.083	2653.6
981.382	2641.85
981.682	2636.65
981.981	2635.52
982.28	2596.65
982.579	2567.28
982.878	2618.8
983.177	2543.55
983.475	2551.46
983.774	2537
984.073	2517.33
984.372	2513.27
984.67	2527.73
984.969	2488.18
985.267	2452.93
985.566	2461.29
985.864	2488.18
986.162	2447.96
986.461	2442.76
986.759	2435.3
987.057	2408.86
987.355	2413.16
987.653	2406.6
987.951	2396.43
988.249	2372.48
988.547	2348.98
988.844	2372.48
989.142	2332.03
989.44	2376.1
989.737	2348.75
990.035	2297
990.332	2342.2
990.63	2278.92
990.927	2291.8
991.224	2278.7
991.521	2259.26
991.819	2246.16
992.116	2221.07
992.413	2219.72
992.71	2235.53
993.006	2221.98
993.303	2185.37
993.6	2190.56
993.897	2169.77
994.193	2154.41
994.49	2136.33
994.787	2130.23
995.083	2122.32
995.379	2108.08
995.676	2106.05
995.972	2108.08
996.268	2125.93
996.565	2059.49
996.861	2091.36
997.157	2068.99
997.453	2070.79
997.749	2056.78
998.044	2034.18
998.34	2039.38
998.636	2009.78
998.932	1988.99
999.227	2012.94
999.523	1968.42
999.818	1988.31
1000.114	1981.3
1000.409	1950.57
1000.704	1919.38
1001	1925.49
1001.295	1925.26
1001.59	1919.61
1001.885	1916.67
1002.18	1894.98
1002.475	1865.6
1002.77	1893.17
1003.065	1883
1003.359	1870.8
1003.654	1879.84
1003.949	1842.32
1004.243	1798.71
1004.538	1826.05
1004.832	1833.51
1005.127	1796.22
1005.421	1786.73
1005.715	1778.37
1006.009	1762.1
1006.304	1781.08
1006.598	1767.3
1006.892	1749.9
1007.186	1725.04
1007.48	1736.79
1007.773	1725.72
1008.067	1690.69
1008.361	1704.7
1008.655	1668.32
1008.948	1695.21
1009.242	1669.67
1009.535	1651.82
1009.829	1644.14
1010.122	1646.85
1010.415	1651.14
1010.708	1617.02
1011.001	1620.41
1011.295	1582.22
1011.588	1589.9
1011.881	1572.05
1012.173	1567.08
1012.466	1565.5
1012.759	1569.11
1013.052	1569.11
1013.344	1550.35
1013.637	1533.18
1013.93	1518.04
1014.222	1513.97
1014.514	1509.68
1014.807	1507.42
1015.099	1473.52
1015.391	1487.98
1015.683	1451.6
1015.976	1462
1016.268	1465.84
1016.56	1448.89
1016.851	1415.89
1017.143	1442.33
1017.435	1424.48
1017.727	1401.43
1018.018	1371.83
1018.31	1385.84
1018.602	1395.1
1018.893	1371.38
1019.185	1367.53
1019.476	1351.72
1019.767	1361.66
1020.058	1385.61
1020.35	1333.86
1020.641	1319.63
1020.932	1318.04
1021.223	1293.41
1021.514	1303.36
1021.804	1291.38
1022.095	1281.21
1022.386	1278.5
1022.677	1291.83
1022.967	1244.83
1023.258	1247.99
1023.548	1259.74
1023.839	1216.8
1024.129	1203.7
1024.419	1217.26
1024.709	1222
1025	1192.4
1025.29	1216.8
1025.58	1158.27
1025.87	1179.74
1026.16	1175.9
1026.449	1164.83
1026.739	1162.34
1027.029	1158.95
1027.319	1127.54
1027.608	1144.26
1027.898	1144.49
1028.187	1125.51
1028.477	1110.59
1028.766	1124.15
1029.055	1111.04
1029.344	1099.07
1029.634	1091.38
1029.923	1103.36
1030.212	1050.03
1030.501	1061.33
1030.79	1015.23
1031.078	1064.72
1031.367	1045.51
1031.656	1039.63
1031.945	1033.76
1032.233	1041.44
1032.522	994.66
1032.81	1014.1
1033.099	1006.41
1033.387	1022.23
1033.675	980.2
1033.963	970.03
1034.251	965.06
1034.54	980.65
1034.828	965.74
1035.116	951.05
1035.403	952.86
1035.691	921.44
1035.979	958.05
1036.267	948.79
1036.554	941.78
1036.842	924.61
1037.129	955.12
1037.417	883.93
1037.704	886.87
1037.992	911.28
1038.279	898.85
1038.566	883.71
1038.853	883.71
1039.14	883.71
