Data from whiteboard_FLMS001491_00004.txt Node
Date: Wed Feb 08 11:24:55 GMT 2017
User: dcchb
Spectrometer: FLMS00149
Trigger mode: 0
Integration Time (sec): 2.000000E-2
Scans to average: 10
Electric dark correction enabled: true
Nonlinearity correction enabled: false
Boxcar width: 0
XAxis mode: Wavelengths
Number of Pixels in Spectrum: 2048
>>>>>Begin Spectral Data<<<<<
341.393	1.48
341.776	1.48
342.16	1.48
342.543	-69.93
342.927	-60.21
343.31	-64.05
343.693	-55.69
344.077	-61.11
344.46	-63.37
344.843	-39.19
345.226	-46.88
345.61	-17.5
345.993	-19.53
346.376	-8.46
346.759	-7.56
347.142	28.83
347.525	25.89
347.908	54.36
348.291	75.61
348.674	87.81
349.057	110.86
349.44	133
349.823	138.43
350.206	179.56
350.588	212.1
350.971	249.39
351.354	264.3
351.737	275.6
352.119	294.36
352.502	304.98
352.884	319.67
353.267	330.51
353.65	328.71
354.032	323.73
354.414	345.88
354.797	347.46
355.179	351.98
355.562	378.2
355.944	369.16
356.326	375.48
356.709	365.77
357.091	394.47
357.473	371.87
357.855	403.05
358.238	370.51
358.62	388.14
359.002	392.66
359.384	382.94
359.766	369.83
360.148	407.35
360.53	377.52
360.912	383.62
361.294	363.96
361.676	376.39
362.057	379.33
362.439	388.14
362.821	362.38
363.203	372.09
363.584	360.8
363.966	378.42
364.348	380.46
364.729	386.33
365.111	373.45
365.493	371.42
365.874	372.32
366.256	373
366.637	376.84
367.019	382.26
367.4	381.36
367.781	394.69
368.163	385.65
368.544	387.01
368.925	380.46
369.306	395.14
369.688	368.7
370.069	399.21
370.45	387.01
370.831	410.06
371.212	386.78
371.593	386.33
371.974	382.04
372.355	387.01
372.736	400.57
373.117	392.89
373.498	389.95
373.879	408.93
374.26	399.89
374.641	389.95
375.021	398.99
375.402	398.53
375.783	393.34
376.163	427.23
376.544	423.17
376.925	416.84
377.305	435.82
377.686	414.81
378.066	441.7
378.447	436.27
378.827	446.44
379.208	443.96
379.588	456.61
379.968	442.6
380.349	454.13
380.729	437.18
381.109	454.35
381.489	429.72
381.87	455.71
382.25	447.12
382.63	461.58
383.01	455.03
383.39	472.21
383.77	475.82
384.15	483.28
384.53	484.63
384.91	476.05
385.29	507.46
385.67	481.24
386.049	535.71
386.429	531.41
386.809	518.31
387.189	513.79
387.568	537.74
387.948	509.27
388.328	545.2
388.707	550.17
389.087	565.31
389.466	560.79
389.846	560.79
390.225	595.59
390.605	575.71
390.984	591.3
391.363	585.42
391.743	594.01
392.122	613.9
392.501	600.34
392.881	606.21
393.26	615.25
393.639	647.34
394.018	629.26
394.397	649.38
394.776	635.36
395.155	673.78
395.534	652.77
395.913	648.92
396.292	672.88
396.671	690.28
397.05	689.83
397.429	682.82
397.808	707.91
398.186	731.41
398.565	720.33
398.944	742.48
399.323	740.45
399.701	773.44
400.08	764.85
400.458	780.45
400.837	782.71
401.215	814.34
401.594	822.48
401.972	837.39
402.351	836.94
402.729	870.61
403.107	852.99
403.486	895.47
403.864	875.58
404.242	908.8
404.62	921.01
404.999	923.27
405.377	963.27
405.755	963.94
406.133	977.5
406.511	1005.07
406.889	1010.95
407.267	1028.35
407.645	1049.82
408.023	1084.84
408.401	1107.44
408.779	1110.15
409.156	1143.15
409.534	1155.35
409.912	1152.87
410.29	1201.68
410.667	1202.58
411.045	1230.83
411.422	1240.32
411.8	1251.62
412.178	1290.71
412.555	1341.11
412.933	1321.22
413.31	1380.43
413.687	1383.59
414.065	1392.41
414.442	1448.45
414.819	1455
415.197	1458.39
415.574	1526.87
415.951	1513.99
416.328	1535
416.705	1527.54
417.082	1536.36
417.46	1603.47
417.837	1617.49
418.214	1642.57
418.591	1610.03
418.967	1676.92
419.344	1685.51
419.721	1685.51
420.098	1714.43
420.475	1769.12
420.852	1725.96
421.228	1777.03
421.605	1779.97
421.982	1857.93
422.358	1818.38
422.735	1890.7
423.111	1887.76
423.488	1904.94
423.864	1930.47
424.241	1951.26
424.617	2004.59
424.994	1994.65
425.37	2003.24
425.746	2020.41
426.123	2058.6
426.499	2065.84
426.875	2110.81
427.251	2134.31
427.627	2207.75
428.003	2199.17
428.379	2269.22
428.756	2286.85
429.132	2337.69
429.507	2376.11
429.883	2346.96
430.259	2418.82
430.635	2432.15
431.011	2494.75
431.387	2528.2
431.763	2588.08
432.138	2593.73
432.514	2605.71
432.89	2658.14
433.265	2690
433.641	2736.1
434.016	2811.13
434.392	2792.37
434.767	2850.67
435.143	2897.9
435.518	2914.85
435.894	2981.07
436.269	3007.51
436.644	3031.46
437.02	3086.37
437.395	3076.66
437.77	3130.89
438.145	3184
438.52	3194.17
438.895	3278.46
439.271	3287.05
439.646	3355.29
440.021	3373.37
440.395	3395.52
440.77	3361.39
441.145	3391.9
441.52	3456.99
441.895	3518.23
442.27	3540.37
442.645	3538.57
443.019	3604.1
443.394	3600.26
443.769	3668.96
444.143	3634.83
444.518	3721.61
444.892	3728.62
445.267	3758.45
445.641	3772.46
446.016	3807.26
446.39	3848.39
446.764	3858.78
447.139	3885.67
447.513	3914.37
447.887	3943.53
448.262	3995.73
448.636	3983.53
449.01	4057.87
449.384	4082.96
449.758	4161.6
450.132	4218.1
450.506	4198.43
450.88	4235.5
451.254	4265.1
451.628	4315.49
452.002	4327.24
452.376	4441.82
452.75	4470.07
453.123	4496.05
453.497	4552.32
453.871	4606.56
454.244	4735.6
454.618	4770.85
454.992	4833.67
455.365	4832.09
455.739	4998.19
456.112	5000.22
456.486	5043.61
456.859	5112.99
457.232	5244.96
457.606	5212.42
457.979	5296.03
458.352	5385.75
458.725	5443.6
459.099	5508.23
459.472	5612.41
459.845	5626.87
460.218	5765.63
460.591	5772.86
460.964	5828
461.337	5952.96
461.71	6066.86
462.083	6125.84
462.456	6152.51
462.829	6193.41
463.201	6317.7
463.574	6397.7
463.947	6449
464.32	6608.77
464.692	6642.89
465.065	6713.85
465.438	6761.53
465.81	6919.27
466.183	6943
466.555	7154.29
466.928	7176.44
467.3	7194.06
467.672	7302.99
468.045	7531.68
468.417	7548.4
468.789	7551.34
469.161	7683.31
469.534	7859.36
469.906	7985.45
470.278	8062.51
470.65	8174.83
471.022	8419.11
471.394	8503.41
471.766	8550.41
472.138	8686.9
472.51	8905.88
472.882	9076.5
473.253	9159.89
473.625	9229.49
473.997	9442.59
474.369	9539.99
474.74	9637.61
475.112	9856.37
475.484	10022.01
475.855	10220.2
476.227	10200.76
476.598	10578.61
476.97	10686.4
477.341	10897.02
477.713	11047.75
478.084	11124.35
478.455	11407.06
478.827	11557.56
479.198	11927.05
479.569	11913.03
479.94	12302.85
480.311	12421.95
480.682	12755.05
481.053	13007.02
481.424	13183.51
481.795	13264.19
482.166	13461.24
482.537	13657.85
482.908	14037.5
483.279	14085.18
483.65	14396.58
484.021	14618.73
484.391	14872.28
484.762	14991.37
485.133	15197.92
485.503	15331.25
485.874	15652.37
486.244	15961.97
486.615	16043.1
486.985	16326.7
487.356	16660.71
487.726	16747.71
488.097	17119.45
488.467	17292.1
488.837	17576.84
489.207	17783.39
489.578	18078.07
489.948	18245.52
490.318	18558.06
490.688	18623.37
491.058	19057.93
491.428	19089.34
491.798	19403.01
492.168	19779.72
492.538	19960.73
492.908	20055.87
493.278	20360.27
493.648	20419.03
494.017	20656.31
494.387	20903.08
494.757	21125.22
495.126	21396.85
495.496	21367.93
495.866	21544.19
496.235	21888.59
496.605	22026.44
496.974	22195.7
497.344	22455.81
497.713	22617.61
498.082	22762.01
498.452	22964.27
498.821	23089.24
499.19	23114.1
499.559	23383.47
499.928	23502.11
500.298	23646.29
500.667	23950.46
501.036	23881.53
501.405	24216.89
501.774	24213.5
502.143	24458.69
502.512	24585.47
502.88	24898.91
503.249	24862.3
503.618	24982.07
503.987	25103.87
504.356	25375.96
504.724	25500.25
505.093	25553.35
505.462	25762.84
505.83	25912.89
506.199	26175.94
506.567	26574.57
506.936	26461.35
507.304	26917.61
507.672	26949.93
508.041	27213.87
508.409	27367.54
508.777	27655.45
509.145	27808.21
509.514	27859.73
509.882	28157.35
510.25	28183.57
510.618	28562.54
510.986	28528.64
511.354	28922.98
511.722	29128.4
512.09	29495.4
512.458	29490.43
512.826	29649.97
513.193	30029.62
513.561	29971.09
513.929	30258.54
514.297	30589.61
514.664	30797.74
515.032	30855.36
515.4	31203.15
515.767	31356.59
516.135	31611.27
516.502	31470.03
516.869	32001.77
517.237	32249.45
517.604	32192.95
517.972	32493.28
518.339	32809.66
518.706	32795.42
519.073	33123.78
519.44	33371.68
519.808	33562.41
520.175	33729.64
520.542	34060.7
520.909	34121.49
521.276	34287.36
521.643	34659.55
522.009	34799.66
522.376	35053.89
522.743	35271.74
523.11	35699.53
523.477	35967.54
523.843	36058.39
524.21	36529.79
524.577	36730.46
524.943	36873.28
525.31	37132.94
525.676	37536.77
526.043	37574.28
526.409	37877.1
526.776	38274.6
527.142	38367.71
527.508	38610.64
527.874	38976.05
528.241	39090.62
528.607	39225.31
528.973	39639.54
529.339	39711.85
529.705	40236.58
530.071	40484.03
530.437	40569.68
530.803	40806.29
531.169	41157.24
531.535	40989.78
531.901	41269.1
532.267	41563.1
532.632	41863.21
532.998	41974.39
533.364	42230.88
533.73	42369.86
534.095	42714.71
534.461	42899.34
534.826	43054.36
535.192	43189.05
535.557	43507.91
535.923	43520.11
536.288	43739.09
536.653	43974.79
537.019	43826.55
537.384	44149.93
537.749	44340.2
538.114	44469.92
538.479	44521.22
538.845	44854.09
539.21	44740.19
539.575	44852.73
539.94	45076.23
540.305	45335.66
540.67	45250.91
541.034	45536.56
541.399	45542.88
541.764	45764.57
542.129	45831.92
542.494	46055.19
542.858	46081.63
543.223	46156.65
543.587	46375.86
543.952	46286.82
544.316	46572.24
544.681	46502.63
545.045	46720.93
545.41	46940.59
545.774	47066.91
546.138	47012.68
546.503	47092.22
546.867	47191.88
547.231	47366.34
547.595	47441.59
547.959	47605.2
548.324	47727.23
548.688	47740.57
549.052	47875.03
549.416	48075.7
549.779	48152.99
550.143	48217.62
550.507	48526.31
550.871	48647.89
551.235	48553.88
551.599	48952.96
551.962	48948.67
552.326	49056.01
552.689	49370.58
553.053	49085.84
553.417	49257.81
553.78	49792.72
554.143	49624.59
554.507	49808.53
554.87	50062.09
555.234	50287.17
555.597	50219.6
555.96	50378.46
556.323	50574.62
556.686	50689.42
557.05	50968.5
557.413	51080.14
557.776	51165.79
558.139	51416.4
558.502	51401.04
558.865	51595.83
559.228	51759.9
559.59	51938.42
559.953	52073.33
560.316	52417.96
560.679	52370.05
561.041	52580.44
561.404	52691.17
561.767	52935.01
562.129	52747.89
562.492	53168.45
562.854	53199.86
563.217	53209.35
563.579	53298.16
563.941	53579.96
564.304	53660.41
564.666	53769.11
565.028	53803.01
565.39	53935.88
565.753	54078.03
566.115	54107.4
566.477	54228.08
566.839	54295.65
567.201	54539.48
567.563	54464.46
567.925	54637.33
568.287	54696.32
568.648	54686.82
569.01	54867.61
569.372	55009.75
569.734	54892.92
570.095	55114.61
570.457	55191.67
570.819	55222.4
571.18	55194.38
571.542	55359.8
571.903	55470.08
572.265	55585.33
572.626	55577.2
572.987	55611.32
573.349	55757.31
573.71	55842.73
574.071	55940.8
574.432	56013.12
574.794	56030.74
575.155	56191.87
575.516	56108.26
575.877	56133.57
576.238	56310.28
576.599	56317.06
576.96	56400.9
577.32	56347.12
577.681	56508.25
578.042	56672.54
578.403	56601.12
578.763	56691.29
579.124	56704.17
579.485	56834.56
579.845	56892.87
580.206	56902.81
580.566	56922.7
580.927	56930.16
581.287	57015.58
581.648	56942.81
582.008	57052.86
582.368	57108.46
582.728	57146.87
583.089	57201.79
583.449	57244.27
583.809	57208.11
584.169	57249.92
584.529	57219.64
584.889	57416.92
585.249	57262.35
585.609	57192.52
585.969	57402.23
586.329	57310.48
586.688	57369.69
587.048	57336.25
587.408	57280.88
587.768	57286.98
588.127	57351.39
588.487	57299.19
588.846	57479.29
589.206	57240.66
589.565	57340.09
589.925	57443.14
590.284	57321.11
590.643	57364.95
591.003	57453.53
591.362	57458.96
591.721	57341.9
592.08	57419.63
592.44	57468.9
592.799	57442.01
593.158	57345.96
593.517	57345.74
593.876	57414.21
594.235	57321.56
594.593	57432.52
594.952	57405.85
595.311	57394.78
595.67	57420.31
596.029	57620.31
596.387	57521.33
596.746	57515.45
597.104	57398.62
597.463	57401.56
597.822	57531.5
598.18	57393.65
598.538	57392.29
598.897	57641.32
599.255	57481.33
599.613	57742.11
599.972	57612.4
600.33	57606.07
600.688	57572.4
601.046	57682.9
601.404	57676.35
601.762	57696.69
602.12	57856.91
602.478	57841.09
602.836	57844.03
603.194	57655.79
603.552	57779.17
603.91	57636.13
604.268	57827.08
604.625	57736.91
604.983	57886.06
605.341	57666.63
605.698	57878.38
606.056	57936
606.413	57841.77
606.771	57964.48
607.128	58079.73
607.485	57914.76
607.843	57988.43
608.2	58091.03
608.557	58164.02
608.914	58121.76
609.272	58258.93
609.629	58270.01
609.986	58349.1
610.343	58224.13
610.7	58403.34
611.057	58367.63
611.414	58348.65
611.771	58334.64
612.127	58431.36
612.484	58431.13
612.841	58448.53
613.198	58392.94
613.554	58428.65
613.911	58582.09
614.267	58558.59
614.624	58517.46
614.98	58567.4
615.337	58666.61
615.693	58572.82
616.05	58571.47
616.406	58753.38
616.762	58558.36
617.118	58635.87
617.475	58628.64
617.831	58756.77
618.187	58774.4
618.543	58747.28
618.899	58809.2
619.255	58753.84
619.611	58796.55
619.967	58834.96
620.323	58833.38
620.678	58781.18
621.034	58808.3
621.39	58825.7
621.746	58794.97
622.101	59089.19
622.457	58806.72
622.812	58881.74
623.168	58947.96
623.523	58912.02
623.879	58992.25
624.234	58854.85
624.589	58945.7
624.945	58920.61
625.3	58985.47
625.655	58894.17
626.01	58942.31
626.365	58925.58
626.72	58847.17
627.075	58841.52
627.43	58869.77
627.785	58830.9
628.14	58897.34
628.495	58871.57
628.85	58872.93
629.205	58729.2
629.559	58945.47
629.914	58838.81
630.269	58794.29
630.623	58728.3
630.978	58620.05
631.332	58806.04
631.687	58800.39
632.041	58612.15
632.396	58662.54
632.75	58604.69
633.104	58612.6
633.459	58400.63
633.813	58453.96
634.167	58454.18
634.521	58469.78
634.875	58404.69
635.229	58329.44
635.583	58201.31
635.937	58232.72
636.291	58204.02
636.645	58158.37
636.999	58075.21
637.352	58088.54
637.706	57965.61
638.06	58130.35
638.413	58039.28
638.767	57896.68
639.121	57997.02
639.474	57842.67
639.828	57919.06
640.181	57877.02
640.534	57879.06
640.888	57768.78
641.241	57698.95
641.594	57734.65
641.947	57763.58
642.301	57631.83
642.654	57657.59
643.007	57656.24
643.36	57629.12
643.713	57497.82
644.066	57625.73
644.419	57485.85
644.771	57350.03
645.124	57106.42
645.477	57129.92
645.83	56983.26
646.182	56896.94
646.535	56766.54
646.888	56749.14
647.24	56634.34
647.593	56770.61
647.945	56718.18
648.298	56633.21
648.65	56600.67
649.002	56475.7
649.355	56653.55
649.707	56610.62
650.059	56753.44
650.411	57088.34
650.763	57140.77
651.115	57341.67
651.467	57242.92
651.819	57224.84
652.171	57155.01
652.523	57114.33
652.875	57177.61
653.227	57056.25
653.578	57260.54
653.93	57088.8
654.282	57080.43
654.633	56962.92
654.985	57107.55
655.337	57068.23
655.688	56969.93
656.039	57138.06
656.391	56894.68
656.742	56953.66
657.094	56889.7
657.445	57016.71
657.796	56847.45
658.147	56851.74
658.498	56783.94
658.849	56782.81
659.2	56775.81
659.551	56715.25
659.902	56703.04
660.253	56687.9
660.604	56671.63
660.955	56573.55
661.306	56638.19
661.656	56505.76
662.007	56542.37
662.358	56437.51
662.708	56503.05
663.059	56389.83
663.409	56226.9
663.76	56410.4
664.11	56355.93
664.461	56381.24
664.811	56327.69
665.161	56291.75
665.511	56187.35
665.862	56186.9
666.212	56245.2
666.562	56210.4
666.912	56165.2
667.262	56110.97
667.612	56100.35
667.962	56116.17
668.312	56099.44
668.662	56088.14
669.011	56129.95
669.361	56027.35
669.711	55993.46
670.06	56011.99
670.41	55941.93
670.76	55877.53
671.109	56053.12
671.459	55967.7
671.808	55856.51
672.157	55957.53
672.507	55735.84
672.856	55782.84
673.205	55781.94
673.554	55946.68
673.904	55793.69
674.253	55865.55
674.602	55814.03
674.951	55373.36
675.3	55271.89
675.649	55692.22
675.998	55692.67
676.346	55662.17
676.695	55773.12
677.044	55460.82
677.393	55683.63
677.741	55774.25
678.09	55724.09
678.438	55604.09
678.787	55690.64
679.135	55589.4
679.484	55435.51
679.832	55529.51
680.181	55415.85
680.529	55412.23
680.877	55324.32
681.225	55324.32
681.573	55481.38
681.922	55306.02
682.27	55245.23
682.618	55184.44
682.966	55181.5
683.314	55161.16
683.661	55081.16
684.009	54887.27
684.357	54917.33
684.705	54842.3
685.053	54768.86
685.4	54704.68
685.748	54626.49
686.095	54663.77
686.443	54545.36
686.79	54560.27
687.138	54613.61
687.485	54461.07
687.832	54433.27
688.18	54425.81
688.527	54172.49
688.874	54149.66
689.221	54204.58
689.568	53994.19
689.915	53903.12
690.262	53948.77
690.609	53909.22
690.956	53650.47
691.303	53638.94
691.65	53444.82
691.997	53504.71
692.344	53309.46
692.69	53179.52
693.037	53219.97
693.383	53020.2
693.73	53120.54
694.077	52942.46
694.423	52858.4
694.769	52726.65
695.116	52666.76
695.462	52646.65
695.808	52564.62
696.155	52595.35
696.501	52339.09
696.847	52346.32
697.193	52142.94
697.539	52247.34
697.885	51953.34
698.231	51875.6
698.577	51908.59
698.923	51846
699.269	51631.31
699.614	51582.95
699.96	51466.57
700.306	51562.84
700.651	51265.45
700.997	51232.45
701.342	51130.53
701.688	51088.73
702.033	50981.16
702.379	51098.9
702.724	50827.04
703.069	50998.11
703.415	50627.5
703.76	50652.13
704.105	50534.84
704.45	50450.55
704.795	50314.96
705.14	50233.16
705.485	50128.07
705.83	50058.47
706.175	50082.43
706.52	49784.58
706.865	49790.46
707.209	49626.39
707.554	49675.21
707.899	49734.41
708.243	49506.17
708.588	49442.67
708.932	49170.81
709.277	49278.61
709.621	49292.62
709.966	48951.83
710.31	49101.89
710.654	48729.24
710.998	48851.95
711.342	48919.74
711.687	48682.01
712.031	48497.83
712.375	48366.09
712.719	48457.16
713.063	48299.87
713.407	48374
713.75	48130.39
714.094	48161.8
714.438	47910.96
714.782	47977.4
715.125	47721.58
715.469	47836.38
715.812	47637.97
716.156	47503.51
716.499	47557.52
716.843	47435.72
717.186	47001.6
717.53	47208.83
717.873	47141.26
718.216	46983.3
718.559	46908.05
718.902	46646.36
719.246	46762.29
719.589	46621.27
719.932	46384.22
720.275	46403.88
720.617	46255.41
720.96	46192.36
721.303	46194.84
721.646	46078.46
721.989	45941.07
722.331	46085.24
722.674	45890.22
723.016	45838.24
723.359	45845.02
723.701	45748.53
724.044	45500.63
724.386	45325.04
724.729	45571.36
725.071	45243.68
725.413	45360.74
725.755	45134.76
726.097	45066.51
726.439	44979.51
726.782	44937.02
727.124	45109.9
727.465	44777.03
727.807	44882.34
728.149	44781.32
728.491	44580.2
728.833	44560.76
729.175	44553.98
729.516	44472.4
729.858	44280.09
730.199	44353.76
730.541	44306.31
730.882	44243.94
731.224	44207.78
731.565	44041.68
731.906	44056.82
732.248	43922.36
732.589	43708.81
732.93	43586.1
733.271	43585.65
733.612	43667.91
733.953	43640.56
734.294	43566.44
734.635	43409.83
734.976	43613.67
735.317	43302.72
735.658	43451.41
735.999	43207.13
736.339	43344.98
736.68	43276.96
737.021	43251.42
737.361	43014.36
737.702	43166.68
738.042	43078.32
738.383	42927.13
738.723	42988.15
739.063	42860.02
739.404	42823.18
739.744	42803.07
740.084	42561.72
740.424	42664.32
740.764	42594.49
741.104	42732.56
741.444	42482.17
741.784	42201.05
742.124	42411.89
742.464	42272.46
742.804	42156.31
743.143	42192.69
743.483	42028.4
743.823	41848.07
744.162	41812.59
744.502	41889.42
744.841	41741.4
745.181	41804.45
745.52	41638.13
745.86	41756.54
746.199	41517.45
746.538	41548.64
746.877	41565.81
747.216	41466.16
747.556	41424.35
747.895	41330.57
748.234	41210.34
748.573	40986.39
748.911	40980.07
749.25	40778.26
749.589	40578.5
749.928	40708.44
750.267	40762.67
750.605	40678.15
750.944	40527.2
751.283	40384.83
751.621	40499.18
751.96	40154.1
752.298	40140.77
752.636	40098.28
752.975	39924.28
753.313	39817.84
753.651	39879.98
753.989	39734
754.327	39628.24
754.666	39343.73
755.004	39352.09
755.342	39269.15
755.679	39160
756.017	38970.63
756.355	38995.26
756.693	38807.92
757.031	38835.72
757.368	38525.89
757.706	38460.13
758.044	38290.65
758.381	38302.17
758.719	38214.49
759.056	38084.32
759.394	38053.36
759.731	37871.9
760.068	37708.29
760.405	37613.6
760.743	37495.64
761.08	37601.62
761.417	37204.8
761.754	37150.34
762.091	37038.7
762.428	37027.63
762.765	36824.92
763.102	36813.17
763.438	36569.79
763.775	36380.41
764.112	36368.66
764.449	36475.55
764.785	36295.67
765.122	36052.06
765.458	36011.16
765.795	35979.52
766.131	35923.25
766.467	35862.69
766.804	35563.94
767.14	35345.41
767.476	35393.77
767.812	35161.01
768.148	35210.5
768.485	35036.27
768.821	34740.46
769.157	34849.15
769.492	34560.12
769.828	34705.88
770.164	34426.11
770.5	34293.24
770.836	34474.02
771.171	34024.54
771.507	34156.07
771.842	33882.17
772.178	34024.09
772.513	33732.57
772.849	33591.56
773.184	33587.49
773.519	33500.94
773.855	33327.16
774.19	33166.26
774.525	33069.54
774.86	33008.52
775.195	32926.27
775.53	32823.67
775.865	32673.84
776.2	32376.22
776.535	32236.12
776.87	32418.26
777.205	32273.63
777.539	32032.05
777.874	32219.84
778.209	31766.3
778.543	31798.61
778.878	31640.88
779.212	31616.92
779.547	31397.49
779.881	31427.32
780.215	31246.99
780.55	31257.38
780.884	31166.77
781.218	31017.39
781.552	30977.62
781.886	30682.26
782.22	30639.1
782.554	30409.95
782.888	30212.89
783.222	30073.91
783.556	29998.21
783.889	29881.6
784.223	29678.44
784.557	29703.53
784.89	29737.65
785.224	29484.78
785.557	29361.61
785.891	29237.78
786.224	29191
786.558	29232.8
786.891	29008.63
787.224	28835.53
787.557	28809.31
787.891	28599.83
788.224	28636.66
788.557	28559.15
788.89	28324.58
789.223	28396.89
789.556	28176.79
789.888	28059.28
790.221	27979.05
790.554	27744.93
790.887	27826.06
791.219	27760.08
791.552	27574.32
791.884	27369.12
792.217	27326.41
792.549	27146.53
792.882	26968.46
793.214	26824.51
793.546	26980.43
793.879	26831.29
794.211	26553.33
794.543	26657.51
794.875	26623.38
795.207	26609.6
795.539	26481.01
795.871	26344.75
796.203	26093.23
796.535	25846.68
796.867	25868.15
797.198	25720.81
797.53	25613.92
797.862	25610.75
798.193	25621.83
798.525	25434.94
798.856	25423.19
799.188	25132.8
799.519	25072.46
799.85	24945.01
800.182	24926.48
800.513	24857.78
800.844	24615.98
801.175	24744.34
801.506	24669.53
801.837	24546.83
802.168	24458.02
802.499	24529.65
802.83	24326.27
803.161	24352.03
803.491	24319.04
803.822	24218.7
804.153	24028.42
804.483	23863.68
804.814	23839.73
805.145	23705.27
805.475	23785.49
805.805	23696
806.136	23616.46
806.466	23612.39
806.796	23473.63
807.126	23430.25
807.457	23383.92
807.787	23424.82
808.117	23376.91
808.447	23234.54
808.777	23386.18
809.107	23147.32
809.436	23065.74
809.766	23068.9
810.096	22934.44
810.426	22984.38
810.755	22858.51
811.085	22815.57
811.414	22903.71
811.744	22568.12
812.073	22710.49
812.403	22666.42
812.732	22603.15
813.061	22534
813.39	22580.78
813.719	22470.72
814.049	22424.62
814.378	22400.22
814.707	22257.17
815.036	22365.41
815.365	22157.51
815.693	21913.22
816.022	21886.56
816.351	21979.44
816.68	21756.84
817.008	21892.66
817.337	21730.4
817.665	21705.09
817.994	21811.08
818.322	21715.49
818.651	21569.73
818.979	21533.57
819.307	21515.49
819.636	21492.22
819.964	21423.74
820.292	21444.54
820.62	21374.03
820.948	21362.96
821.276	21405.44
821.604	21339.68
821.932	21456.74
822.259	21455.61
822.587	21382.84
822.915	21307.36
823.243	21464.42
823.57	21212
823.898	21399.56
824.225	21271.88
824.553	21360.7
824.88	21353.24
825.207	21316.63
825.535	21305.1
825.862	21393.91
826.189	21351.2
826.516	21394.37
826.843	21381.26
827.17	21381.49
827.497	21436.17
827.824	21346.01
828.151	21407.02
828.478	21358.21
828.805	21317.31
829.131	21246.57
829.458	21212.9
829.785	21199.12
830.111	21224.88
830.438	21346.01
830.764	21170.42
831.09	21187.14
831.417	21027.6
831.743	21223.75
832.069	21311.21
832.395	20991.89
832.722	20995.51
833.048	20967.49
833.374	21050.42
833.7	20887.71
834.026	20874.38
834.351	20843.65
834.677	20810.43
835.003	20791.67
835.329	20645.91
835.654	20763.87
835.98	20563.65
836.306	20732.01
836.631	20526.14
836.956	20673.48
837.282	20536.31
837.607	20486.37
837.932	20349.42
838.258	20518.91
838.583	20424
838.908	20205.02
839.233	20240.5
839.558	20237.56
839.883	20094.74
840.208	20035.76
840.533	20030.33
840.858	20063.78
841.182	20043.22
841.507	19930.45
841.832	19794.18
842.156	19780.62
842.481	19759.16
842.805	19567.3
843.13	19605.49
843.454	19675.09
843.778	19395.1
844.103	19537.92
844.427	19457.02
844.751	19372.5
845.075	19333.18
845.399	19290.02
845.723	19211.6
846.047	19150.36
846.371	19055.67
846.695	19086.18
847.019	18957.14
847.343	18848.67
847.666	18754.89
847.99	18701.1
848.313	18540.66
848.637	18426.99
848.96	18466.99
849.284	18368.23
849.607	18236.26
849.931	18227.22
850.254	18186.32
850.577	18134.57
850.9	17961.46
851.223	17926.44
851.546	17919.2
851.869	17690.74
852.192	17891.41
852.515	17676.5
852.838	17665.43
853.161	17544.07
853.483	17470.85
853.806	17435.6
854.129	17427.47
854.451	17381.14
854.774	17241.93
855.096	17091.66
855.419	17279.22
855.741	17097.53
856.063	17047.59
856.385	17038.78
856.708	16986.57
857.03	16994.48
857.352	16951.55
857.674	16804.88
857.996	16866.8
858.318	16743.87
858.64	16781.61
858.961	16690.08
859.283	16697.09
859.605	16556.75
859.926	16597.43
860.248	16596.3
860.57	16493.93
860.891	16477.89
861.212	16478.11
861.534	16430.43
861.855	16378.45
862.176	16385.91
862.498	16382.07
862.819	16339.58
863.14	16322.41
863.461	16205.58
863.782	16245.58
864.103	16201.74
864.424	16085.35
864.745	16220.04
865.065	16093.72
865.386	16066.15
865.707	16078.8
866.027	16005.36
866.348	15999.71
866.668	15996.99
866.989	15988.18
867.309	15771.69
867.63	15902.31
867.95	15878.13
868.27	15807.62
868.59	15914.28
868.91	15912.7
869.23	15839.94
869.55	15731.46
869.87	15746.83
870.19	15789.99
870.51	15766.49
870.83	15820.05
871.15	15731.46
871.469	15710.22
871.789	15691.92
872.109	15618.47
872.428	15533.28
872.748	15641.3
873.067	15585.71
873.386	15552.49
873.706	15520.4
874.025	15543.9
874.344	15460.96
874.663	15494.86
874.982	15406.73
875.301	15452.38
875.62	15298.71
875.939	15212.38
876.258	15363.79
876.577	15273.85
876.896	15169.22
877.214	15179.39
877.533	15181.65
877.852	15169.22
878.17	14995.89
878.489	15088.09
878.807	15069.56
879.125	15039.96
879.444	14972.39
879.762	14955.89
880.08	14871.6
880.398	14834.54
880.716	14808.78
881.034	14712.96
881.352	14782.11
881.67	14661.89
881.988	14684.03
882.306	14714.09
882.624	14631.83
882.941	14486.75
883.259	14465.96
883.577	14438.39
883.894	14417.83
884.212	14432.06
884.529	14328.11
884.846	14276.59
885.164	14228.68
885.481	14151.39
885.798	14171.96
886.115	14066.2
886.432	14053.32
886.75	13892.64
887.067	13979.42
887.383	13896.94
887.7	13897.16
888.017	13841.8
888.334	13886.54
888.651	13785.3
888.967	13756.38
889.284	13734.91
889.6	13680.67
889.917	13507.57
890.233	13664.17
890.55	13496.5
890.866	13580.79
891.182	13423.73
891.498	13445.42
891.815	13358.42
892.131	13297.18
892.447	13225.32
892.763	13223.73
893.079	13178.99
893.395	13100.12
893.71	13071.65
894.026	13143.51
894.342	13036.39
894.657	12904.87
894.973	12936.74
895.289	12976.28
895.604	12910.97
895.92	12826.23
896.235	12737.42
896.55	12762.73
896.865	12768.6
897.181	12696.29
897.496	12608.61
897.811	12586.69
898.126	12587.59
898.441	12542.85
898.756	12466.92
899.071	12379.24
899.386	12435.73
899.7	12414.04
900.015	12340.14
900.33	12176.76
900.644	12203.2
900.959	12221.73
901.273	12080.04
901.588	12102.63
901.902	12016.08
902.216	12015.4
902.531	11939.25
902.845	11863.32
903.159	11820.38
903.473	11765.47
903.787	11758.46
904.101	11718.01
904.415	11715.75
904.729	11691.12
905.042	11623.32
905.356	11638.24
905.67	11576.09
905.984	11632.59
906.297	11598.24
906.611	11390.34
906.924	11421.75
907.237	11353.27
907.551	11316.44
907.864	11312.15
908.177	11197.8
908.491	11173.62
908.804	11132.72
909.117	11087.52
909.43	11017.69
909.743	10974.98
910.056	10931.82
910.368	10885.26
910.681	10866.06
910.994	10813.4
911.307	10777.92
911.619	10758.49
911.932	10748.77
912.244	10604.14
912.557	10601.43
912.869	10585.61
913.181	10575.22
913.494	10541.54
913.806	10481.21
914.118	10458.84
914.43	10358.72
914.742	10433.3
915.054	10289.8
915.366	10312.4
915.678	10248.22
915.99	10218.39
916.302	10115.79
916.613	10132.52
916.925	9992.18
917.236	10063.82
917.548	10018.62
917.859	9983.82
918.171	9884.61
918.482	9925.97
918.794	9844.16
919.105	9875.57
919.416	9766.2
919.727	9732.07
920.038	9704.5
920.349	9696.6
920.66	9644.85
920.971	9581.8
921.282	9557.84
921.593	9485.3
921.903	9437.39
922.214	9406.89
922.525	9367.56
922.835	9348.81
923.146	9267
923.456	9272.88
923.767	9302.03
924.077	9209.15
924.387	9241.24
924.697	9151.52
925.008	9110.4
925.318	9104.75
925.628	8988.59
925.938	8957.41
926.248	8929.61
926.558	8888.71
926.867	8790.4
927.177	8788.37
927.487	8790.63
927.796	8640.35
928.106	8678.99
928.416	8584.53
928.725	8648.49
929.034	8524.42
929.344	8500.24
929.653	8429.06
929.962	8411.66
930.271	8396.29
930.581	8382.73
930.89	8334.15
931.199	8240.14
931.508	8247.82
931.817	8200.14
932.125	8105.9
932.434	8058.22
932.743	8026.58
933.051	7942.52
933.36	7935.06
933.669	7845.34
933.977	7916.3
934.286	7847.83
934.594	7856.87
934.902	7706.37
935.21	7704.11
935.519	7717.21
935.827	7596.09
936.135	7585.01
936.443	7552.92
936.751	7491
937.059	7469.99
937.367	7444.9
937.674	7399.71
937.982	7380.27
938.29	7330.1
938.597	7337.79
938.905	7247.17
939.213	7260.05
939.52	7192.48
939.827	7223.44
940.135	7106.38
940.442	7086.27
940.749	7038.36
941.056	7131.01
941.363	6961.75
941.67	7032.26
941.977	6936.22
942.284	6906.39
942.591	6853.05
942.898	6902.09
943.205	6889.89
943.511	6821.19
943.818	6807.18
944.125	6738.26
944.431	6684.47
944.738	6683.34
945.044	6660.06
945.35	6569.22
945.657	6542.78
945.963	6552.05
946.269	6505.72
946.575	6540.52
946.881	6469.79
947.187	6503.68
947.493	6480.86
947.799	6442.9
948.105	6347.08
948.41	6343.46
948.716	6353.18
949.022	6327.19
949.327	6295.1
949.633	6274.76
949.938	6276.57
950.244	6280.64
950.549	6207.2
950.854	6141.43
951.16	6191.6
951.465	6084.71
951.77	6044.04
952.075	6040.42
952.38	6047.2
952.685	6033.19
952.99	5957.03
953.294	5958.16
953.599	5946.41
953.904	5896.02
954.209	5869.58
954.513	5880.65
954.818	5795.23
955.122	5792.29
955.426	5768.11
955.731	5784.16
956.035	5691.95
956.339	5711.16
956.643	5670.71
956.948	5660.32
957.252	5582.81
957.556	5589.81
957.86	5554.56
958.163	5585.29
958.467	5489.25
958.771	5560.21
959.075	5511.62
959.378	5435.69
959.682	5473.43
959.985	5415.8
960.289	5412.19
960.592	5381.91
960.896	5348.91
961.199	5305.3
961.502	5299.65
961.805	5299.65
962.108	5225.53
962.411	5251.51
962.714	5171.74
963.017	5158.64
963.32	5178.52
963.623	5174.45
963.926	5122.48
964.228	5047
964.531	5122.93
964.833	5041.35
965.136	5000.22
965.438	4988.02
965.741	4989.6
966.043	4978.98
966.345	4969.26
966.648	4953.44
966.95	4939.88
967.252	4893.56
967.554	4894.24
967.856	4865.08
968.158	4777.63
968.46	4813.33
968.761	4748.93
969.063	4770.17
969.365	4753.67
969.666	4736.95
969.968	4677.52
970.269	4672.32
970.571	4709.38
970.872	4645.2
971.174	4626.67
971.475	4636.84
971.776	4558.65
972.077	4571.76
972.378	4572.21
972.679	4551.65
972.98	4539.22
973.281	4541.25
973.582	4551.87
973.883	4521.14
974.183	4479.33
974.484	4462.83
974.785	4381.03
975.085	4398.88
975.386	4429.62
975.686	4347.58
975.986	4334.7
976.287	4381.93
976.587	4312.1
976.887	4339.22
977.187	4373.12
977.487	4298.32
977.787	4245.67
978.087	4258.09
978.387	4243.63
978.687	4206.57
978.987	4190.53
979.286	4223.29
979.586	4189.62
979.885	4149.62
980.185	4076.4
980.484	4100.58
980.784	4047.25
981.083	4065.33
981.382	4028.27
981.682	4016.97
981.981	3987.37
982.28	3921.61
982.579	3896.75
982.878	3944.88
983.177	3940.36
983.475	3871.44
983.774	3847.71
984.073	3819.69
984.372	3804.09
984.67	3805.22
984.969	3780.14
985.267	3743.31
985.566	3754.15
985.864	3685.68
986.162	3699.01
986.461	3622.18
986.759	3654.49
987.057	3615.63
987.355	3591.45
987.653	3549.41
987.951	3605.68
988.249	3541.05
988.547	3514.61
988.844	3481.39
989.142	3474.16
989.44	3473.26
989.737	3463.99
990.035	3404.56
990.332	3365.69
990.63	3360.26
990.927	3356.65
991.224	3336.31
991.521	3321.17
991.819	3306.25
992.116	3330.44
992.413	3219.25
992.71	3198.46
993.006	3225.58
993.303	3191.68
993.6	3178.35
993.897	3156.43
994.193	3123.66
994.49	3128.86
994.787	3133.15
995.083	3081.4
995.379	3106.26
995.676	3099.93
995.972	3073.04
996.268	3062.19
996.565	3005.02
996.861	2982.87
997.157	2998.01
997.453	2949.43
997.749	2978.35
998.044	2965.92
998.34	2869.66
998.636	2883.44
998.932	2868.3
999.227	2867.85
999.523	2830.56
999.818	2837.79
1000.114	2811.8
1000.409	2803.44
1000.704	2805.48
1001	2767.06
1001.295	2778.36
1001.59	2730.45
1001.885	2748.76
1002.18	2735.87
1002.475	2716.44
1002.77	2719.6
1003.065	2674.63
1003.359	2677.12
1003.654	2688.64
1003.949	2654.29
1004.243	2619.49
1004.538	2625.37
1004.832	2610.68
1005.127	2606.39
1005.421	2613.62
1005.715	2577.46
1006.009	2508.76
1006.304	2554.64
1006.598	2495.65
1006.892	2521.42
1007.186	2481.87
1007.48	2473.06
1007.773	2462.44
1008.067	2438.26
1008.361	2451.14
1008.655	2408.43
1008.948	2413.85
1009.242	2381.53
1009.535	2392.83
1009.829	2341.99
1010.122	2347.18
1010.415	2321.65
1010.708	2303.8
1011.001	2309.9
1011.295	2264.93
1011.588	2273.74
1011.881	2305.83
1012.173	2267.64
1012.466	2261.08
1012.759	2214.76
1013.052	2212.72
1013.344	2221.76
1013.637	2236.23
1013.93	2183.8
1014.222	2178.15
1014.514	2146.96
1014.807	2173.18
1015.099	2148.77
1015.391	2115.1
1015.683	2130.92
1015.976	2093.63
1016.268	2053.18
1016.56	2098.38
1016.851	2045.27
1017.143	2030.81
1017.435	2023.58
1017.727	2016.8
1018.018	2025.84
1018.31	2005.27
1018.602	1958.27
1018.893	1961.43
1019.185	1933.64
1019.476	1966.63
1019.767	1972.28
1020.058	1924.6
1020.35	1932.96
1020.641	1880.3
1020.932	1866.74
1021.223	1868.1
1021.514	1846.18
1021.804	1826.97
1022.095	1808.89
1022.386	1787.42
1022.677	1810.47
1022.967	1789.23
1023.258	1775.22
1023.548	1733.87
1023.839	1753.3
1024.129	1742.68
1024.419	1720.53
1024.709	1713.53
1025	1718.5
1025.29	1686.86
1025.58	1704.94
1025.87	1634.43
1026.16	1667.2
1026.449	1639.18
1026.739	1625.4
1027.029	1623.59
1027.319	1618.84
1027.608	1610.93
1027.898	1625.4
1028.187	1601.67
1028.477	1581.33
1028.766	1579.97
1029.055	1557.6
1029.344	1549.01
1029.634	1538.84
1029.923	1519.18
1030.212	1517.83
1030.501	1509.92
1030.79	1492.07
1031.078	1524.83
1031.367	1480.77
1031.656	1474.44
1031.945	1464.72
1032.233	1476.02
1032.522	1471.73
1032.81	1434.21
1033.099	1446.19
1033.387	1416.59
1033.675	1413.2
1033.963	1411.39
1034.251	1386.08
1034.54	1392.86
1034.828	1360.54
1035.116	1390.37
1035.403	1375.91
1035.691	1340.2
1035.979	1358.51
1036.267	1311.51
1036.554	1305.63
1036.842	1316.02
1037.129	1300.66
1037.417	1310.38
1037.704	1298.62
1037.992	1287.1
1038.279	1278.51
1038.566	1264.27
1038.853	1264.27
1039.14	1264.27
