Data from White_paper_FLMS001491_012.txt Node
Date: Tue Feb 07 10:34:43 GMT 2017
User: dcchb
Spectrometer: FLMS00149
Trigger mode: 0
Integration Time (sec): 2.000000E-2
Scans to average: 10
Electric dark correction enabled: true
Nonlinearity correction enabled: false
Boxcar width: 0
XAxis mode: Wavelengths
Number of Pixels in Spectrum: 2048
>>>>>Begin Spectral Data<<<<<
341.393	4.28
341.776	4.28
342.16	4.28
342.543	-50.41
342.927	-64.19
343.31	-68.71
343.693	-67.58
344.077	-71.65
344.46	-56.51
344.843	-44.53
345.226	-57.19
345.61	-20.58
345.993	-19.22
346.376	-14.48
346.759	5.64
347.142	31.4
347.525	49.7
347.908	56.03
348.291	82.92
348.674	76.14
349.057	118.63
349.44	145.07
349.823	137.16
350.206	175.8
350.588	234.33
350.971	228.23
351.354	246.99
351.737	256.93
352.119	276.59
352.502	297.15
352.884	315.01
353.267	304.16
353.65	318.62
354.032	338.73
354.414	351.16
354.797	328.34
355.179	351.62
355.562	344.84
355.944	360.65
356.326	368.11
356.709	380.99
357.091	357.72
357.473	368.56
357.855	370.37
358.238	363.82
358.62	370.37
359.002	372.63
359.384	380.31
359.766	361.78
360.148	368.34
360.53	376.47
360.912	366.08
361.294	376.25
361.676	325.85
362.057	368.56
362.439	359.52
362.821	357.04
363.203	347.77
363.584	375.8
363.966	357.94
364.348	371.28
364.729	355.46
365.111	355.23
365.493	360.43
365.874	359.3
366.256	347.77
366.637	348.23
367.019	365.63
367.4	362.91
367.781	357.26
368.163	371.95
368.544	374.44
368.925	377.15
369.306	367.21
369.688	363.14
370.069	362.01
370.45	364.5
370.831	362.46
371.212	367.89
371.593	347.1
371.974	357.49
372.355	362.01
372.736	365.63
373.117	364.27
373.498	352.52
373.879	363.37
374.26	364.95
374.641	371.28
375.021	389.58
375.402	368.79
375.783	359.52
376.163	404.04
376.544	380.09
376.925	400.2
377.305	395.91
377.686	378.06
378.066	383.25
378.447	381.67
378.827	365.63
379.208	410.6
379.588	412.63
379.968	398.85
380.349	417.15
380.729	393.65
381.109	406.75
381.489	390.03
381.87	398.62
382.25	426.64
382.63	416.92
383.01	413.31
383.39	426.19
383.77	426.42
384.15	429.81
384.53	437.04
384.91	433.42
385.29	433.42
385.67	443.36
386.049	436.36
386.429	454.44
386.809	447.21
387.189	465.28
387.568	456.7
387.948	464.38
388.328	461.67
388.707	473.87
389.087	465.06
389.466	474.32
389.846	480.43
390.225	490.82
390.605	498.05
390.984	493.31
391.363	492.85
391.743	532.4
392.122	523.81
392.501	507.32
392.881	515.23
393.26	521.78
393.639	535.11
394.018	514.77
394.397	548.45
394.776	533.08
395.155	557.49
395.534	545.51
395.913	547.32
396.292	561.78
396.671	565.85
397.05	562.68
397.429	577.82
397.808	544.6
398.186	595.9
398.565	590.7
398.944	594.09
399.323	600.42
399.701	599.97
400.08	612.85
400.458	608.11
400.837	634.55
401.215	644.04
401.594	651.04
401.972	662.34
402.351	643.13
402.729	691.04
403.107	670.93
403.486	697.59
403.864	708.44
404.242	737.82
404.62	732.4
404.999	732.17
405.377	765.16
405.755	754.54
406.133	773.3
406.511	784.82
406.889	800.19
407.267	829.57
407.645	842.9
408.023	867.99
408.401	907.31
408.779	919.28
409.156	943.92
409.534	945.5
409.912	967.64
410.29	1009.45
410.667	1026.85
411.045	1045.16
411.422	1078.38
411.8	1108.88
412.178	1101.2
412.555	1158.37
412.933	1186.4
413.31	1224.13
413.687	1236.79
414.065	1253.29
414.442	1267.75
414.819	1319.95
415.197	1308.43
415.574	1384.58
415.951	1391.81
416.328	1415.54
416.705	1476.56
417.082	1478.37
417.46	1491.02
417.837	1548.65
418.214	1571.92
418.591	1590.9
418.967	1617.12
419.344	1631.36
419.721	1681.52
420.098	1716.32
420.475	1739.15
420.852	1748.19
421.228	1775.53
421.605	1788.87
421.982	1804.91
422.358	1851.69
422.735	1864.57
423.111	1888.75
423.488	1957.9
423.864	1923.78
424.241	2004.45
424.617	1974.62
424.994	2026.37
425.37	2029.09
425.746	2080.84
426.123	2108.63
426.499	2141.4
426.875	2145.47
427.251	2218.91
427.627	2223.43
428.003	2246.93
428.379	2322.41
428.756	2314.28
429.132	2324.67
429.507	2450.54
429.883	2448.28
430.259	2484.21
430.635	2495.51
431.011	2526.25
431.387	2598.11
431.763	2652.12
432.138	2680.14
432.514	2722.17
432.89	2724.43
433.265	2787.71
433.641	2835.84
434.016	2868.16
434.392	2934.6
434.767	2966.46
435.143	2898.44
435.518	3029.51
435.894	3035.61
436.269	3104.76
436.644	3154.71
437.02	3178.66
437.395	3206.68
437.77	3253.46
438.145	3286.45
438.52	3305.21
438.895	3348.37
439.271	3404.42
439.646	3412.78
440.021	3441.93
440.395	3508.37
440.77	3438.77
441.145	3515.83
441.52	3573.23
441.895	3545.43
442.27	3613.45
442.645	3582.26
443.019	3613.9
443.394	3665.43
443.769	3715.59
444.143	3708.36
444.518	3758.31
444.892	3762.6
445.267	3788.59
445.641	3826.55
446.016	3865.42
446.39	3837.85
446.764	3881.01
447.139	3847.57
447.513	3938.41
447.887	3983.61
448.262	3941.58
448.636	3970.95
449.01	4067
449.384	4092.31
449.758	4129.82
450.132	4180.21
450.506	4174.79
450.88	4186.99
451.254	4206.65
451.628	4285.97
452.002	4348.8
452.376	4380.89
452.75	4418.63
453.123	4400.32
453.497	4463.82
453.871	4492.98
454.244	4624.27
454.618	4604.61
454.992	4698.85
455.365	4749.47
455.739	4793.31
456.112	4847.77
456.486	4867.65
456.859	4923.7
457.232	5037.82
457.606	4995.79
457.979	5065.84
458.352	5187.87
458.725	5260.64
459.099	5321.2
459.472	5425.61
459.845	5432.61
460.218	5541.54
460.591	5482.1
460.964	5581.99
461.337	5656.33
461.71	5784.01
462.083	5914.63
462.456	5857.23
462.829	5918.25
463.201	5984.69
463.574	6027.85
463.947	6146.94
464.32	6236.43
464.692	6305.58
465.065	6380.16
465.438	6470.55
465.81	6553.71
466.183	6640.94
466.555	6826.02
466.928	6800.71
467.3	6784.44
467.672	6927.71
468.045	7082.96
468.417	7098.33
468.789	7174.03
469.161	7289.06
469.534	7458.32
469.906	7604.31
470.278	7642.27
470.65	7666.9
471.022	7924.3
471.394	7977.63
471.766	8039.77
472.138	8160.22
472.51	8327.45
472.882	8423.04
473.253	8552.53
473.625	8696.71
473.997	8866.19
474.369	8888.34
474.74	9005.62
475.112	9210.37
475.484	9398.38
475.855	9489.91
476.227	9594.08
476.598	9791.59
476.97	9907.07
477.341	10143.45
477.713	10311.81
478.084	10279.94
478.455	10580.27
478.827	10702.3
479.198	10989.08
479.569	11041.5
479.94	11271.55
480.311	11451.44
480.682	11686.01
481.053	11980.24
481.424	12039.9
481.795	12197.63
482.166	12420.22
482.537	12513.1
482.908	12888.46
483.279	12901.57
483.65	13218.85
484.021	13424.94
484.391	13582.91
484.762	13650.25
485.133	13767.31
485.503	14028.77
485.874	14313.28
486.244	14424.92
486.615	14647.96
486.985	14835.3
487.356	15131.34
487.726	15264.44
488.097	15512.57
488.467	15636.18
488.837	15928.15
489.207	16085.44
489.578	16302.83
489.948	16485.43
490.318	16710.73
490.688	16737.62
491.058	17005.41
491.428	17242.02
491.798	17371.51
492.168	17657.37
492.538	17729.92
492.908	18039.51
493.278	18207.19
493.648	18260.07
494.017	18411.71
494.387	18548.65
494.757	18829.77
495.126	19098.24
495.496	19009.66
495.866	19259.14
496.235	19367.39
496.605	19542.52
496.974	19630.88
497.344	19904.32
497.713	20018.89
498.082	20095.28
498.452	20326.01
498.821	20446
499.19	20540.69
499.559	20726.9
499.928	20838.08
500.298	20936.16
500.667	21074.46
501.036	21073.78
501.405	21422.47
501.774	21309.26
502.143	21626.76
502.512	21611.85
502.88	21884.83
503.249	21952.4
503.618	22080.76
503.987	22119.18
504.356	22388.32
504.724	22452.73
505.093	22597.58
505.462	22685.04
505.83	22951.7
506.199	23097.46
506.567	23355.76
506.936	23321.86
507.304	23668.29
507.672	23687.95
508.041	23788.06
508.409	23967.72
508.777	24160.71
509.145	24193.93
509.514	24294.49
509.882	24586.23
510.25	24585.33
510.618	24740.58
510.986	24819.45
511.354	25043.62
511.722	25398.87
512.09	25525.42
512.458	25501.91
512.826	25786.43
513.193	25894.67
513.561	25934.45
513.929	26255.11
514.297	26438.61
514.664	26615.78
515.032	26659.62
515.4	26941.2
515.767	26982.78
516.135	27199.5
516.502	27050.8
516.869	27596.55
517.237	27588.41
517.604	27543.67
517.972	27920.38
518.339	28186.82
518.706	28213.48
519.073	28331.44
519.44	28539.35
519.808	28904.31
520.175	28940.24
520.542	29100.69
520.909	29410.51
521.276	29518.76
521.643	29583.84
522.009	29935.47
522.376	30084.84
522.743	30175.24
523.11	30578.16
523.477	30845.28
523.843	30962.34
524.21	31301.08
524.577	31502.66
524.943	31679.15
525.31	31887.28
525.676	32087.5
526.043	32203.66
526.409	32562.29
526.776	32691.1
527.142	32799.8
527.508	33059.46
527.874	33356.62
528.241	33397.98
528.607	33581.48
528.973	33971.97
529.339	33879.32
529.705	34172.19
530.071	34444.05
530.437	34577.83
530.803	34797.94
531.169	34965.85
531.535	35065.5
531.901	35148.67
532.267	35324.48
532.632	35573.51
532.998	35666.84
533.364	35938.02
533.73	36007.17
534.095	36259.6
534.461	36265.47
534.826	36487.39
535.192	36768.74
535.557	36954.04
535.923	37000.37
536.288	37014.83
536.653	37351.32
537.019	37238.55
537.384	37527.59
537.749	37724.64
538.114	37585.66
538.479	37640.8
538.845	38005.99
539.21	38015.94
539.575	38310.84
539.94	38301.35
540.305	38551.97
540.67	38539.09
541.034	38730.94
541.399	38735.46
541.764	39045.51
542.129	39262.46
542.494	39281.44
542.858	39500.19
543.223	39614.09
543.587	39825.61
543.952	39847.98
544.316	39857.69
544.681	39927.52
545.045	40270.57
545.41	40325.93
545.774	40494.29
546.138	40492.48
546.503	40567.73
546.867	40668.52
547.231	41072.35
547.595	41126.81
547.959	41277.32
548.324	41283.42
548.688	41346.7
549.052	41427.82
549.416	41704.2
549.779	41681.38
550.143	41830.3
550.507	42199.1
550.871	42317.07
551.235	42258.31
551.599	42608.13
551.962	42645.87
552.326	42733.78
552.689	42955.47
553.053	42818.3
553.417	43071.4
553.78	43479.97
554.143	43329.92
554.507	43464.15
554.87	43680.87
555.234	44157.47
555.597	43709.57
555.96	43972.61
556.323	44247.41
556.686	44400.85
557.05	44585.93
557.413	44774.85
557.776	44803.1
558.139	45011.01
558.502	45051.91
558.865	45220.27
559.228	45399.47
559.59	45673.36
559.953	45611.22
560.316	46110.41
560.679	46027.02
561.041	46318.54
561.404	46320.58
561.767	46590.17
562.129	46656.84
562.492	47071.29
562.854	46992.42
563.217	47082.59
563.579	47217.73
563.941	47448.46
564.304	47625.85
564.666	47880.99
565.028	47824.27
565.39	48134.31
565.753	48210.7
566.115	48395.78
566.477	48557.35
566.839	48627.86
567.201	48872.15
567.563	48986.72
567.925	49193.72
568.287	49208.64
568.648	49358.01
569.01	49528.18
569.372	49712.13
569.734	49582.86
570.095	49919.35
570.457	50014.49
570.819	50122.96
571.18	50149.18
571.542	50418.55
571.903	50399.11
572.265	50642.72
572.626	50715.71
572.987	50703.96
573.349	50840.23
573.71	51088.59
574.071	51130.62
574.432	51256.94
574.794	51529.48
575.155	51355.92
575.516	51480.21
575.877	51601.34
576.238	51657.16
576.599	51669.36
576.96	51837.27
577.32	51900.54
577.681	51935.12
578.042	52126.75
578.403	52157.26
578.763	52100.31
579.124	52251.95
579.485	52292.85
579.845	52392.28
580.206	52422.11
580.566	52361.77
580.927	52483.35
581.287	52631.82
581.648	52544.14
582.008	52759.28
582.368	52648.55
582.728	52680.86
583.089	52641.99
583.449	52693.74
583.809	52791.82
584.169	52924.47
584.529	52814.64
584.889	53066.61
585.249	52833.17
585.609	52835.21
585.969	52999.04
586.329	52893.51
586.688	53012.6
587.048	53046.27
587.408	53059.83
587.768	53062.55
588.127	53073.17
588.487	53101.19
588.846	53223.67
589.206	52986.16
589.565	53033.39
589.925	53198.81
590.284	53070.23
590.643	53146.84
591.003	53277.46
591.362	53359.49
591.721	53229.55
592.08	53329.21
592.44	53373.27
592.799	53314.29
593.158	53273.16
593.517	53361.07
593.876	53444.68
594.235	53411.24
594.593	53422.99
594.952	53470.44
595.311	53382.99
595.67	53516.54
596.029	53511.12
596.387	53692.81
596.746	53679.7
597.104	53565.36
597.463	53607.16
597.822	53639.25
598.18	53597.67
598.538	53654.62
598.897	53806.48
599.255	53584.11
599.613	53953.37
599.972	53817.55
600.33	53783.66
600.688	53814.84
601.046	53903.65
601.404	54052.8
601.762	53911.11
602.12	54128.05
602.478	54162.18
602.836	54106.59
603.194	53912.01
603.552	53997.66
603.91	53905.46
604.268	54145.68
604.625	54028.4
604.983	54160.82
605.341	54033.14
605.698	54211.22
606.056	54246.92
606.413	54091.22
606.771	54228.16
607.128	54380.48
607.485	54211.44
607.843	54274.94
608.2	54439.46
608.557	54373.92
608.914	54346.81
609.272	54552.9
609.629	54587.48
609.986	54669.51
610.343	54488.04
610.7	54751.31
611.057	54572.56
611.414	54615.95
611.771	54696.85
612.127	54751.99
612.484	54732.56
612.841	54860.01
613.198	54773.23
613.554	54686.68
613.911	54893.23
614.267	54790.64
614.624	54868.83
614.98	54874.25
615.337	54994.7
615.693	54949.73
616.05	54871.09
616.406	55046.45
616.762	54867.7
617.118	54963.06
617.475	54953.8
617.831	55089.16
618.187	55108.37
618.543	55082.15
618.899	55239.44
619.255	55241.02
619.611	55188.82
619.967	55257.29
620.323	55270.85
620.678	55165.54
621.034	55208.93
621.39	55216.84
621.746	55112.89
622.101	55390.85
622.457	55183.17
622.812	55270.85
623.168	55289.15
623.523	55335.03
623.879	55367.57
624.234	55187.01
624.589	55391.75
624.945	55356.95
625.3	55348.14
625.655	55338.64
626.01	55365.54
626.365	55341.81
626.72	55304.07
627.075	55256.16
627.43	55339.1
627.785	55243.05
628.14	55359.89
628.495	55335.71
628.85	55287.57
629.205	55225.43
629.559	55399.43
629.914	55323.05
630.269	55264.75
630.623	55254.35
630.978	55208.93
631.332	55373.45
631.687	55408.25
632.041	55178.65
632.396	55259.32
632.75	55162.6
633.104	55224.52
633.459	55130.51
633.813	55064.75
634.167	55073.79
634.521	55120.57
634.875	55163.28
635.229	55104.53
635.583	54995.6
635.937	54996.73
636.291	54998.99
636.645	55048.71
636.999	54959.67
637.352	54985.66
637.706	54910.86
638.06	55058.43
638.413	54878.99
638.767	54839.9
639.121	54926.68
639.474	54777.53
639.828	54875.38
640.181	54877.86
640.534	54802.39
640.888	54800.58
641.241	54645.33
641.594	54750.41
641.947	54837.19
642.301	54640.81
642.654	54792.22
643.007	54710.86
643.36	54704.31
643.713	54671.77
644.066	54770.3
644.419	54552.9
644.771	54377.77
645.124	54103.65
645.477	54024.33
645.83	53990.2
646.182	53836.31
646.535	53710.66
646.888	53809.87
647.24	53634.51
647.593	53794.96
647.945	53725.58
648.298	53662.76
648.65	53628.63
649.002	53531.91
649.355	53690.33
649.707	53654.62
650.059	53701.62
650.411	54116.3
650.763	54118.11
651.115	54490.53
651.467	54199.92
651.819	54400.14
652.171	54154.04
652.523	54167.38
652.875	54229.52
653.227	54129.41
653.578	54286.69
653.93	54203.08
654.282	54136.42
654.633	54004.89
654.985	54120.37
655.337	54132.57
655.688	54120.37
656.039	54204.44
656.391	53995.4
656.742	53916.99
657.094	53984.56
657.445	54064.78
657.796	54014.16
658.147	53984.78
658.498	53965.8
658.849	54020.03
659.2	53886.48
659.551	53824.56
659.902	54005.57
660.253	53990.43
660.604	54011.45
660.955	53907.49
661.306	53922.18
661.656	53846.48
662.007	53933.26
662.358	53817.55
662.708	53858.91
663.059	53852.36
663.409	53581.18
663.76	53940.26
664.11	53810.32
664.461	53800.61
664.811	53823.43
665.161	53762.41
665.511	53685.81
665.862	53729.42
666.212	53822.75
666.562	53837.67
666.912	53692.81
667.262	53588.86
667.612	53661.4
667.962	53656.88
668.312	53562.19
668.662	53729.19
669.011	53700.27
669.361	53586.37
669.711	53567.39
670.06	53535.53
670.41	53478.13
670.76	53422.31
671.109	53572.36
671.459	53472.48
671.808	53328.75
672.157	53543.21
672.507	53207.85
672.856	53314.74
673.205	53224.8
673.554	53372.59
673.904	53192.94
674.253	53438.58
674.602	53332.37
674.951	52842.21
675.3	52665.72
675.649	53152.26
675.998	53073.39
676.346	53165.59
676.695	53171.92
677.044	52915.43
677.393	53098.25
677.741	53048.31
678.09	52962.44
678.438	52811.7
678.787	52910.91
679.135	52930.35
679.484	52653.52
679.832	52685.38
680.181	52597.7
680.529	52690.13
680.877	52587.76
681.225	52623.46
681.573	52671.82
681.922	52452.84
682.27	52388.66
682.618	52511.6
682.966	52376.46
683.314	52344.15
683.661	52379.85
684.009	52068.22
684.357	52047.2
684.705	51921.11
685.053	52007.66
685.4	51931.5
685.748	51814.67
686.095	51810.15
686.443	51645.18
686.79	51654.22
687.138	51599.08
687.485	51519.99
687.832	51478.86
688.18	51477.05
688.527	51296.72
688.874	51292.65
689.221	51170.39
689.568	51122.48
689.915	50969.27
690.262	50936.73
690.609	50851.08
690.956	50784.41
691.303	50685.43
691.65	50621.93
691.997	50503.97
692.344	50337.19
692.69	50304.65
693.037	50333.58
693.383	50006.58
693.73	50115.73
694.077	49892.23
694.423	49981.95
694.769	49788.51
695.116	49662.86
695.462	49683.65
695.808	49510.55
696.155	49559.81
696.501	49271.91
696.847	49221.97
697.193	48976.55
697.539	49162.31
697.885	48784.69
698.231	48784.92
698.577	48835.31
698.923	48628.76
699.269	48539.73
699.614	48312.61
699.96	48278.72
700.306	48366.62
700.651	48086.86
700.997	47939.74
701.342	47848.22
701.688	47886.86
702.033	47774.32
702.379	47652.97
702.724	47635.12
703.069	47673.31
703.415	47125.53
703.76	47295.92
704.105	47235.35
704.45	47146.09
704.795	46922.37
705.14	46837.4
705.485	46663.84
705.83	46632.88
706.175	46811.64
706.52	46593.56
706.865	46457.75
707.209	46379.56
707.554	46157.19
707.899	46186.34
708.243	46139.56
708.588	46079.23
708.932	45886.24
709.277	45799.23
709.621	45775.05
709.966	45547.71
710.31	45550.43
710.654	45289.87
710.998	45382.3
711.342	45347.27
711.687	45175.75
712.031	45004.68
712.375	45007.84
712.719	44958.13
713.063	44936.66
713.407	45147.95
713.75	44758.13
714.094	44803.55
714.438	44535.99
714.782	44629.32
715.125	44244.47
715.469	44335.77
715.812	44272.27
716.156	44017.59
716.499	44070.24
716.843	44171.93
717.186	43877.7
717.53	43992.95
717.873	44042.44
718.216	43802.45
718.559	43765.16
718.902	43306.19
719.246	43481.55
719.589	43374.89
719.932	43292.41
720.275	43262.35
720.617	43191.84
720.96	43093.09
721.303	42977.16
721.646	43131.28
721.989	42824.17
722.331	43028.46
722.674	43034.33
723.016	42814.68
723.359	42674.57
723.701	42890.61
724.044	42447.91
724.386	42335.6
724.729	42591.63
725.071	42400.68
725.413	42350.28
725.755	42279.78
726.097	42276.39
726.439	42017.86
726.782	41938.32
727.124	42162.72
727.465	42070.52
727.807	41848.83
728.149	41732.67
728.491	41753.01
728.833	41730.87
729.175	41635.95
729.516	41646.8
729.858	41529.52
730.199	41486.13
730.541	41351.21
730.882	41436.64
731.224	41453.36
731.565	41250.65
731.906	41307.37
732.248	41297.21
732.589	41053.14
732.93	40944.67
733.271	40956.65
733.612	41072.35
733.953	41082.52
734.294	40838.46
734.635	40751.68
734.976	40819.48
735.317	40640.27
735.658	40576.32
735.999	40461.07
736.339	40359.6
736.68	40567.96
737.021	40349.21
737.361	40282.54
737.702	40402.77
738.042	40355.53
738.383	40144.24
738.723	40212.49
739.063	39988.76
739.404	40096.56
739.744	40077.35
740.084	39805.04
740.424	39938.14
740.764	39769.56
741.104	39850.46
741.444	39673.52
741.784	39647.53
742.124	39618.61
742.464	39774.76
742.804	39460.87
743.143	39438.5
743.483	39566.4
743.823	39196.7
744.162	39279.18
744.502	39375.9
744.841	39103.82
745.181	39243.93
745.52	39064.27
745.86	39155.11
746.199	39145.62
746.538	38932.97
746.877	39152.63
747.216	38861.79
747.556	38736.82
747.895	38721
748.234	38702.25
748.573	38572.3
748.911	38548.35
749.25	38535.92
749.589	38360.56
749.928	38441.91
750.267	38464.51
750.605	38368.02
750.944	38172.09
751.283	38102.71
751.621	38062.49
751.96	38027.23
752.298	37894.36
752.636	37937.52
752.975	37846.9
753.313	37604.19
753.651	37721.71
753.989	37525.55
754.327	37517.42
754.666	37260.02
755.004	37359.46
755.342	37358.55
755.679	37219.35
756.017	37114.04
756.355	37159.23
756.693	37010.54
757.031	37059.58
757.368	36858
757.706	36777.78
758.044	36560.15
758.381	36693.26
758.719	36392.02
759.056	36562.64
759.394	36349.54
759.731	36248.52
760.068	36192.71
760.405	35933.96
760.743	35778.03
761.08	35889.89
761.417	35767.18
761.754	35640.18
762.091	35677.92
762.428	35558.6
762.765	35212.39
763.102	35462.1
763.438	35075.67
763.775	34936.02
764.112	34997.48
764.449	35073.64
764.785	34759.52
765.122	34638.62
765.458	34497.61
765.795	34400.21
766.131	34443.6
766.467	34313.43
766.804	34209.93
767.14	34017.85
767.476	33857.85
767.812	33812.2
768.148	33925.42
768.485	33589.61
768.821	33537.64
769.157	33453.57
769.492	33414.7
769.828	33244.08
770.164	33079.57
770.5	33019
770.836	33019.91
771.171	32698.11
771.507	32771.1
771.842	32551.67
772.178	32463.54
772.513	32340.38
772.849	32266.93
773.184	32160.04
773.519	32019.26
773.855	31972.7
774.19	31822.88
774.525	31703.11
774.86	31762.77
775.195	31609.55
775.53	31391.02
775.865	31237.36
776.2	31001.88
776.535	30818.16
776.87	30905.84
777.205	30713.98
777.539	30715.79
777.874	30711.72
778.209	30436.7
778.543	30414.55
778.878	30214.11
779.212	30269.92
779.547	29991.06
779.881	30031.74
780.215	29845.98
780.55	29859.77
780.884	29722.37
781.218	29645.76
781.552	29669.71
781.886	29313.79
782.22	29266.79
782.554	29023.4
782.888	28851.43
783.222	28805.78
783.556	28699.12
783.889	28722.62
784.223	28510.65
784.557	28404.21
784.89	28449.18
785.224	28320.37
785.557	28177.1
785.891	28062.3
786.224	27991.11
786.558	27958.57
786.891	27781.4
787.224	27645.59
787.557	27621.41
787.891	27582.76
788.224	27491.01
788.557	27487.62
788.89	27263.22
789.223	27268.87
789.556	27037.69
789.888	27012.61
790.221	26935.32
790.554	26772.62
790.887	26710.02
791.219	26576.01
791.552	26461.21
791.884	26466.41
792.217	26320.2
792.549	26189.58
792.882	25990.04
793.214	26061.22
793.546	26011.28
793.879	25776.26
794.211	25716.6
794.543	25829.14
794.875	25560.9
795.207	25766.77
795.539	25559.09
795.871	25446.55
796.203	25290.62
796.535	25131.3
796.867	25119.55
797.198	25090.63
797.53	24958.88
797.862	24873.23
798.193	24867.81
798.525	24703.97
798.856	24786.68
799.188	24530.87
799.519	24504.65
799.85	24304.43
800.182	24317.99
800.513	24333.81
800.844	24038
801.175	24231.67
801.506	24236.86
801.837	23971.33
802.168	23996.42
802.499	23891.79
802.83	23709.42
803.161	23595.75
803.491	23606.37
803.822	23638.01
804.153	23507.39
804.483	23298.58
804.814	23317.11
805.145	23255.42
805.475	23099.49
805.805	23090.45
806.136	23151.24
806.466	23148.53
806.796	23045.71
807.126	22915.09
807.457	22749.22
807.787	22800.74
808.117	22689.78
808.447	22666.96
808.777	22737.69
809.107	22545.16
809.436	22408.66
809.766	22458.38
810.096	22394.2
810.426	22281.21
810.755	22246.41
811.085	22165.73
811.414	22123.47
811.744	21905.4
812.073	21889.58
812.403	21958.05
812.732	21880.31
813.061	21856.36
813.39	21645.74
813.719	21635.8
814.049	21682.58
814.378	21631.73
814.707	21518.29
815.036	21517.61
815.365	21411.63
815.693	21201.69
816.022	21302.7
816.351	21184.97
816.68	20988.59
817.008	21097.74
817.337	20883.5
817.665	20826.56
817.994	20932.32
818.322	20885.99
818.651	20789.04
818.979	20607.13
819.307	20888.02
819.636	20616.84
819.964	20622.49
820.292	20700.68
820.62	20622.72
820.948	20479.9
821.276	20631.08
821.604	20555.83
821.932	20618.2
822.259	20631.31
822.587	20446.45
822.915	20405.55
823.243	20532.1
823.57	20533.46
823.898	20541.14
824.225	20384.31
824.553	20389.51
824.88	20309.28
825.207	20526.9
825.535	20406
825.862	20440.58
826.189	20376.63
826.516	20480.13
826.843	20558.09
827.17	20429.73
827.497	20445.78
827.824	20516.51
828.151	20546.11
828.478	20517.86
828.805	20482.61
829.131	20450.52
829.458	20330.07
829.785	20263.86
830.111	20252.33
830.438	20384.76
830.764	20392.9
831.09	20327.14
831.417	20272
831.743	20263.18
832.069	20275.16
832.395	20238.32
832.722	20354.93
833.048	20262.73
833.374	20251.43
833.7	20153.13
834.026	20187.03
834.351	20235.61
834.677	20168.04
835.003	20290.07
835.329	20184.09
835.654	19984.32
835.98	19885.56
836.306	20002.85
836.631	19868.62
836.956	20027.93
837.282	19967.14
837.607	19923.98
837.932	19937.31
838.258	19908.84
838.583	19913.36
838.908	19764.44
839.233	19662.29
839.558	19610.54
839.883	19678.11
840.208	19622.29
840.533	19586.36
840.858	19698.22
841.182	19577.55
841.507	19480.15
841.832	19337.78
842.156	19403.32
842.481	19442.64
842.805	19325.81
843.13	19311.57
843.454	19260.04
843.778	19138.92
844.103	19180.05
844.427	19153.38
844.751	19101.18
845.075	18994.06
845.399	18917.91
845.723	18800.17
846.047	18899.6
846.371	18758.14
846.695	18736.67
847.019	18532.83
847.343	18433.63
847.666	18427.75
847.99	18394.3
848.313	18237.7
848.637	18122.9
848.96	18081.09
849.284	18137.59
849.607	18018.5
849.931	18014.65
850.254	17811.49
850.577	17657.83
850.9	17606.53
851.223	17572.41
851.546	17547.55
851.869	17367.44
852.192	17543.25
852.515	17279.98
852.838	17242.02
853.161	17158.86
853.483	17175.81
853.806	17143.72
854.129	17039.76
854.451	16949.14
854.774	16916.83
855.096	16865.31
855.419	16821.01
855.741	16812.88
856.063	16701.02
856.385	16626.67
856.708	16507.12
857.03	16565.88
857.352	16501.47
857.674	16365.21
857.996	16376.05
858.318	16253.12
858.64	16309.61
858.961	16297.86
859.283	16262.38
859.605	16150.97
859.926	16183.74
860.248	16065.33
860.57	16014.25
860.891	15949.17
861.212	15835.28
861.534	15963.63
861.855	15907.36
862.176	15906.46
862.498	15885.9
862.819	15842.73
863.14	15801.83
863.461	15717.54
863.782	15655.85
864.103	15582.85
864.424	15625.34
864.745	15698.1
865.065	15520.48
865.386	15511.22
865.707	15495.17
866.027	15484.32
866.348	15359.36
866.668	15416.53
866.989	15354.84
867.309	15272.8
867.63	15343.09
867.95	15371.79
868.27	15210.43
868.59	15290.43
868.91	15170.89
869.23	15161.85
869.55	15025.58
869.87	15189.64
870.19	15119.36
870.51	15117.55
870.83	15054.28
871.15	14974.28
871.469	14998.46
871.789	15010.44
872.109	14937.9
872.428	14872.14
872.748	14906.71
873.067	14912.14
873.386	14923.89
873.706	14910.78
874.025	14690
874.344	14815.19
874.663	14752.37
874.982	14675.53
875.301	14752.59
875.62	14763.67
875.939	14605.03
876.258	14663.33
876.577	14620.17
876.896	14585.14
877.214	14583.11
877.533	14574.29
877.852	14569.32
878.17	14561.41
878.489	14547.63
878.807	14509.89
879.125	14409.78
879.444	14399.38
879.762	14398.93
880.08	14338.59
880.398	14352.38
880.716	14288.88
881.034	14211.36
881.352	14272.83
881.67	14170.23
881.988	14212.49
882.306	14138.15
882.624	14181.31
882.941	14068.32
883.259	13985.38
883.577	13959.62
883.894	13872.62
884.212	13981.31
884.529	13926.63
884.846	13863.58
885.164	13847.76
885.481	13783.13
885.798	13744.94
886.115	13636.01
886.432	13751.04
886.75	13707.42
887.067	13613.87
887.383	13619.06
887.7	13565.96
888.017	13569.12
888.334	13534.55
888.651	13424.04
888.967	13476.02
889.284	13372.29
889.6	13377.49
889.917	13326.19
890.233	13279.64
890.55	13184.5
890.866	13188.34
891.182	13106.99
891.498	13103.82
891.815	13128.68
892.131	13061.56
892.447	12991.06
892.763	12942.24
893.079	12899.76
893.395	12863.38
893.71	12762.14
894.026	12768.46
894.342	12846.65
894.657	12661.8
894.973	12656.38
895.289	12725.98
895.604	12698.86
895.92	12603.04
896.235	12494.57
896.55	12517.62
896.865	12497.06
897.181	12426.33
897.496	12392.43
897.811	12352.66
898.126	12225.65
898.441	12240.79
898.756	12238.76
899.071	12078.54
899.386	12190.63
899.7	11996.73
900.015	11968.48
900.33	11843.97
900.644	11856.17
900.959	11795.61
901.273	11797.64
901.588	11728.04
901.902	11708.6
902.216	11710.86
902.531	11587.48
902.845	11644.88
903.159	11510.64
903.473	11481.72
903.787	11468.84
904.101	11368.73
904.415	11347.03
904.729	11303.87
905.042	11234.49
905.356	11238.79
905.67	11229.97
905.984	11213.93
906.297	11128.73
906.611	11012.35
906.924	11043.54
907.237	11006.25
907.551	10886.93
907.864	10897.1
908.177	10858.68
908.491	10785.92
908.804	10789.98
909.117	10740.04
909.43	10708.4
909.743	10613.94
910.056	10631.57
910.368	10533.04
910.681	10467.73
910.994	10405.59
911.307	10379.83
911.619	10358.13
911.932	10361.3
912.244	10264.8
912.557	10203.33
912.869	10175.31
913.181	10161.75
913.494	10169.89
913.806	10056.67
914.118	10024.58
914.43	9923.11
914.742	9992.94
915.054	9884.7
915.366	9811.48
915.678	9806.73
915.99	9811.48
916.302	9730.58
916.613	9662.33
916.925	9741.65
917.236	9668.88
917.548	9603.58
917.859	9594.76
918.171	9473.64
918.482	9514.09
918.794	9413.98
919.105	9347.76
919.416	9422.34
919.727	9323.36
920.038	9288.78
920.349	9174.43
920.66	9163.81
920.971	9149.35
921.282	9064.15
921.593	9079.97
921.903	9005.62
922.214	8983.25
922.525	8975.12
922.835	8877.04
923.146	8835.46
923.456	8815.8
923.767	8786.42
924.077	8757.5
924.387	8689.02
924.697	8671.85
925.008	8646.09
925.318	8602.25
925.628	8547.56
925.938	8621.91
926.248	8464.4
926.558	8452.42
926.867	8387.79
927.177	8391.4
927.487	8335.59
927.796	8275.7
928.106	8306.66
928.416	8211.52
928.725	8179.21
929.034	8172.88
929.344	8155.25
929.653	8190.73
929.962	8061.24
930.271	8014.46
930.581	7983.73
930.89	7879.33
931.199	7893.79
931.508	7898.76
931.817	7880.68
932.125	7846.11
932.434	7802.72
932.743	7651.08
933.051	7715.49
933.36	7609.05
933.669	7595.27
933.977	7631.2
934.286	7571.99
934.594	7576.74
934.902	7453.58
935.21	7423.75
935.519	7430.98
935.827	7401.37
936.135	7379
936.443	7266.91
936.751	7294.71
937.059	7257.42
937.367	7215.62
937.674	7177.88
937.982	7192.57
938.29	7145.56
938.597	7126.13
938.905	7003.87
939.213	7035.96
939.52	6974.27
939.827	6948.5
940.135	6941.95
940.442	6908.96
940.749	6921.61
941.056	6910.99
941.363	6794.38
941.67	6797.55
941.977	6709.87
942.284	6676.19
942.591	6722.29
942.898	6698.57
943.205	6639.36
943.511	6623.54
943.818	6596.87
944.125	6562.3
944.431	6459.25
944.738	6484.11
945.044	6471.68
945.35	6423.09
945.657	6375.64
945.963	6344.45
946.269	6349.65
946.575	6293.38
946.881	6347.84
947.187	6249.09
947.493	6227.84
947.799	6182.2
948.105	6117.11
948.41	6128.41
948.716	6159.37
949.022	6071.01
949.327	6026.72
949.633	5990.34
949.938	5985.59
950.244	5963.44
950.549	5946.95
950.854	5915.54
951.16	5936.33
951.465	5836.89
951.77	5826.5
952.075	5817.23
952.38	5804.13
952.685	5806.61
952.99	5732.94
953.294	5721.87
953.599	5709.89
953.904	5628.99
954.209	5630.57
954.513	5598.26
954.818	5577.69
955.122	5607.97
955.426	5565.72
955.731	5511.71
956.035	5495.89
956.339	5492.27
956.643	5413.18
956.948	5411.37
957.252	5391.93
957.556	5351.26
957.86	5349
958.163	5334.76
958.467	5278.49
958.771	5285.95
959.075	5222.67
959.378	5212.05
959.682	5206.85
959.985	5186.29
960.289	5154.2
960.592	5142.9
960.896	5123.02
961.199	5101.32
961.502	5035.56
961.805	5033.07
962.108	5029.01
962.411	4963.92
962.714	4965.28
963.017	4938.39
963.32	4979.29
963.623	4878.5
963.926	4876.69
964.228	4851.38
964.531	4796.24
964.833	4829.01
965.136	4770.48
965.438	4797.37
965.741	4758.73
966.043	4676.47
966.345	4697.72
966.648	4680.31
966.95	4621.33
967.252	4584.05
967.554	4615.46
967.856	4614.1
968.158	4593.09
968.46	4611.84
968.761	4494.33
969.063	4525.29
969.365	4500.21
969.666	4468.79
969.968	4412.98
970.269	4445.07
970.571	4441.23
970.872	4379.98
971.174	4318.97
971.475	4353.54
971.776	4334.79
972.077	4299.31
972.378	4294.79
972.679	4293.21
972.98	4245.98
973.281	4212.53
973.582	4214.11
973.883	4164.17
974.183	4226.54
974.484	4176.15
974.785	4110.16
975.085	4137.73
975.386	4107.9
975.686	4105.19
975.986	4072.2
976.287	4015.02
976.587	4017.73
976.887	4020.67
977.187	3981.8
977.487	3990.39
977.787	3953.33
978.087	3943.84
978.387	3960.56
978.687	3852.31
978.987	3867.91
979.286	3860.68
979.586	3860.22
979.885	3837.17
980.185	3824.97
980.484	3760.79
980.784	3782.03
981.083	3738.64
981.382	3718.08
981.682	3662.49
981.981	3677.18
982.28	3654.58
982.579	3634.69
982.878	3650.74
983.177	3640.79
983.475	3623.85
983.774	3590.17
984.073	3582.49
984.372	3505.43
984.67	3535.26
984.969	3550.18
985.267	3509.27
985.566	3508.14
985.864	3508.59
986.162	3459.56
986.461	3448.93
986.759	3416.39
987.057	3406.9
987.355	3375.26
987.653	3396.96
987.951	3369.16
988.249	3385.43
988.547	3377.52
988.844	3347.02
989.142	3315.38
989.44	3330.29
989.737	3329.84
990.035	3250.97
990.332	3258.21
990.63	3189.05
990.927	3227.47
991.224	3182.05
991.521	3167.59
991.819	3177.98
992.116	3174.59
992.413	3122.62
992.71	3112.67
993.006	3115.38
993.303	3081.94
993.6	3092.56
993.897	3050.75
994.193	3040.81
994.49	3041.49
994.787	3019.34
995.083	2971.66
995.379	2965.33
995.676	2958.1
995.972	2960.13
996.268	2934.6
996.565	2887.37
996.861	2895.05
997.157	2859.8
997.453	2895.28
997.749	2818.67
998.044	2798.78
998.34	2822.28
998.636	2791.55
998.932	2792.91
999.227	2769.86
999.523	2775.96
999.818	2761.04
1000.114	2733.25
1000.409	2715.85
1000.704	2700.03
1001	2695.51
1001.295	2674.04
1001.59	2676.98
1001.885	2650.09
1002.18	2639.69
1002.475	2624.32
1002.77	2603.31
1003.065	2589.52
1003.359	2587.49
1003.654	2542.07
1003.949	2505.91
1004.243	2532.8
1004.538	2486.25
1004.832	2507.26
1005.127	2506.13
1005.421	2438.79
1005.715	2491.67
1006.009	2472.01
1006.304	2403.31
1006.598	2418.45
1006.892	2420.71
1007.186	2351.56
1007.48	2354.05
1007.773	2353.6
1008.067	2345.69
1008.361	2337.78
1008.655	2331.68
1008.948	2308.85
1009.242	2284.45
1009.535	2291.45
1009.829	2260.94
1010.122	2264.11
1010.415	2253.49
1010.708	2222.75
1011.001	2175.07
1011.295	2192.92
1011.588	2164.45
1011.881	2155.86
1012.173	2130.78
1012.466	2144.34
1012.759	2128.52
1013.052	2113.83
1013.344	2112.7
1013.637	2092.81
1013.93	2030.89
1014.222	2042.64
1014.514	2067.28
1014.807	2046.94
1015.099	1992.02
1015.391	2007.84
1015.683	1977.79
1015.976	2010.33
1016.268	1975.08
1016.56	1964.68
1016.851	1936.66
1017.143	1937.79
1017.435	1945.25
1017.727	1909.54
1018.018	1874.74
1018.31	1878.58
1018.602	1865.02
1018.893	1869.99
1019.185	1830.67
1019.476	1839.71
1019.767	1827.73
1020.058	1815.98
1020.35	1790
1020.641	1797
1020.932	1760.62
1021.223	1760.17
1021.514	1717.45
1021.804	1734.4
1022.095	1712.94
1022.386	1725.36
1022.677	1674.29
1022.967	1674.07
1023.258	1669.55
1023.548	1630.9
1023.839	1646.95
1024.129	1649.66
1024.419	1615.54
1024.709	1613.28
1025	1636.33
1025.29	1577.12
1025.58	1590.45
1025.87	1571.02
1026.16	1567.18
1026.449	1545.48
1026.739	1538.02
1027.029	1552.94
1027.319	1528.31
1027.608	1508.19
1027.898	1506.84
1028.187	1480.17
1028.477	1485.37
1028.766	1460.06
1029.055	1459.38
1029.344	1461.64
1029.634	1443.79
1029.923	1450.34
1030.212	1427.74
1030.501	1419.16
1030.79	1419.61
1031.078	1398.59
1031.367	1374.64
1031.656	1370.35
1031.945	1351.59
1032.233	1342.55
1032.522	1333.74
1032.81	1345.26
1033.099	1337.35
1033.387	1318.14
1033.675	1298.03
1033.963	1319.27
1034.251	1269.56
1034.54	1275.21
1034.828	1269.78
1035.116	1232.72
1035.403	1246.51
1035.691	1254.87
1035.979	1237.92
1036.267	1215.77
1036.554	1213.51
1036.842	1206.51
1037.129	1191.37
1037.417	1176.23
1037.704	1187.07
1037.992	1158.83
1038.279	1167.86
1038.566	1176.9
1038.853	1176.9
1039.14	1176.9
