Data from White_reflection_standard_FLMS001491_057.txt Node
Date: Tue Feb 07 10:32:06 GMT 2017
User: dcchb
Spectrometer: FLMS00149
Trigger mode: 0
Integration Time (sec): 2.000000E-2
Scans to average: 10
Electric dark correction enabled: true
Nonlinearity correction enabled: false
Boxcar width: 0
XAxis mode: Wavelengths
Number of Pixels in Spectrum: 2048
>>>>>Begin Spectral Data<<<<<
341.393	-1.78
341.776	-1.78
342.16	-1.78
342.543	-61.67
342.927	-70.7
343.31	-66.41
343.693	-69.12
344.077	-78.84
344.46	-53.53
344.843	-79.07
345.226	-31.61
345.61	-27.77
345.993	-19.18
346.376	-0.88
346.759	20.14
347.142	28.5
347.525	26.92
347.908	60.37
348.291	73.47
348.674	85.68
349.057	131.32
349.44	128.39
349.823	165.22
350.206	190.53
350.588	224.66
350.971	259.68
351.354	265.56
351.737	273.02
352.119	295.39
352.502	329.06
352.884	321.15
353.267	312.34
353.65	352.34
354.032	339.45
354.414	353.24
354.797	383.3
355.179	384.65
355.562	390.75
355.944	392.11
356.326	358.44
356.709	402.96
357.091	390.07
357.473	379.23
357.855	403.86
358.238	384.2
358.62	398.66
359.002	416.29
359.384	402.28
359.766	408.15
360.148	416.74
360.53	419.9
360.912	406.12
361.294	385.78
361.676	410.19
362.057	403.41
362.439	402.05
362.821	418.32
363.203	397.08
363.584	409.06
363.966	407.7
364.348	415.61
364.729	390.53
365.111	409.06
365.493	384.88
365.874	403.63
366.256	400.47
366.637	433.46
367.019	415.84
367.4	417.87
367.781	433.46
368.163	418.55
368.544	431.2
368.925	404.54
369.306	444.08
369.688	443.18
370.069	449.06
370.45	433.46
370.831	443.41
371.212	445.67
371.593	446.57
371.974	440.92
372.355	429.62
372.736	444.31
373.117	443.86
373.498	452.9
373.879	443.41
374.26	445.67
374.641	429.4
375.021	443.18
375.402	459.23
375.783	480.24
376.163	522.95
376.544	481.37
376.925	505.55
377.305	500.35
377.686	472.11
378.066	511.88
378.447	507.36
378.827	512.78
379.208	517.75
379.588	507.81
379.968	530.64
380.349	522.27
380.729	524.08
381.109	536.96
381.489	541.26
381.87	528.15
382.25	546
382.63	560.47
383.01	555.04
383.39	554.82
383.77	557.3
384.15	578.77
384.53	601.37
384.91	582.61
385.29	592.56
385.67	593.91
386.049	612.67
386.429	614.7
386.809	614.02
387.189	637.75
387.568	642.72
387.948	650.86
388.328	618.54
388.707	678.88
389.087	656.73
389.466	668.94
389.846	669.84
390.225	686.11
390.605	698.31
390.984	702.61
391.363	712.1
391.743	713.46
392.122	734.02
392.501	718.88
392.881	739.9
393.26	731.76
393.639	761.82
394.018	739.67
394.397	788.48
394.776	771.53
395.155	795.71
395.534	780.35
395.913	791.87
396.292	802.94
396.671	833.68
397.05	818.99
397.429	851.98
397.808	824.19
398.186	830.29
398.565	856.95
398.944	866.9
399.323	889.72
399.701	887.01
400.08	892.43
400.458	926.78
400.837	929.27
401.215	920.46
401.594	943.73
401.972	939.66
402.351	928.14
402.729	960.68
403.107	950.74
403.486	980.79
403.864	982.6
404.242	1008.82
404.62	1002.94
404.999	1025.99
405.377	1028.7
405.755	1027.57
406.133	1067.12
406.511	1068.02
406.889	1083.39
407.267	1118.42
407.645	1096.27
408.023	1141.02
408.401	1127.91
408.779	1158.42
409.156	1164.07
409.534	1191.86
409.912	1219.21
410.29	1272.76
410.667	1226.21
411.045	1256.27
411.422	1325.87
411.8	1309.15
412.178	1310.05
412.555	1344.4
412.933	1357.28
413.31	1396.15
413.687	1358.64
414.065	1410.84
414.442	1427.79
414.819	1449.93
415.197	1421.23
415.574	1469.14
415.951	1515.24
416.328	1509.37
416.705	1566.99
417.082	1547.78
417.46	1557.5
417.837	1586.2
418.214	1584.39
418.591	1590.72
418.967	1618.97
419.344	1653.32
419.721	1646.76
420.098	1641.34
420.475	1705.75
420.852	1695.35
421.228	1732.19
421.605	1743.03
421.982	1761.56
422.358	1776.03
422.735	1800.66
423.111	1793.43
423.488	1878.85
423.864	1850.15
424.241	1894.89
424.617	1931.28
424.994	1926.98
425.37	1929.47
425.746	1950.49
426.123	2015.12
426.499	1999.07
426.875	2044.95
427.251	2062.12
427.627	2134.44
428.003	2136.02
428.379	2185.51
428.756	2137.83
429.132	2204.04
429.507	2237.26
429.883	2256.01
430.259	2298.95
430.635	2296.92
431.011	2350.93
431.387	2426.41
431.763	2460.75
432.138	2477.03
432.514	2540.3
432.89	2512.5
433.265	2561.32
433.641	2577.36
434.016	2623.91
434.392	2698.71
434.767	2749.79
435.143	2741.65
435.518	2774.19
435.894	2793.4
436.269	2845.83
436.644	2884.92
437.02	2890.57
437.395	2870.24
437.77	2974.19
438.145	3022.55
438.52	3031.81
438.895	3067.52
439.271	3067.97
439.646	3121.3
440.021	3169.44
440.395	3150.68
440.77	3149.78
441.145	3191.13
441.52	3247.63
441.895	3253.28
442.27	3327.62
442.645	3287.63
443.019	3352.03
443.394	3386.38
443.769	3407.4
444.143	3384.57
444.518	3467.28
444.892	3451.69
445.267	3485.59
445.641	3491.46
446.016	3535.08
446.39	3600.39
446.764	3592.48
447.139	3595.64
447.513	3622.31
447.887	3668.18
448.262	3715.41
448.636	3731.46
449.01	3787.05
449.384	3828.63
449.758	3858.23
450.132	3912.69
450.506	3936.65
450.88	3927.83
451.254	3940.94
451.628	4029.3
452.002	4111.56
452.376	4089.41
452.75	4126.02
453.123	4160.82
453.497	4276.75
453.871	4304.77
454.244	4383.87
454.618	4433.36
454.992	4494.15
455.365	4464.09
455.739	4651.88
456.112	4670.87
456.486	4654.37
456.859	4735.04
457.232	4828.38
457.606	4821.82
457.979	4882.84
458.352	5020.91
458.725	5088.26
459.099	5041.25
459.472	5148.59
459.845	5221.59
460.218	5218.65
460.591	5321.7
460.964	5341.81
461.337	5511.3
461.71	5616.38
462.083	5623.16
462.456	5676.04
462.829	5616.83
463.201	5801.91
463.574	5841
463.947	5939.53
464.32	6099.75
464.692	6121
465.065	6179.3
465.438	6221.56
465.81	6298.39
466.183	6390.37
466.555	6586.97
466.928	6565.96
467.3	6601.21
467.672	6651.38
468.045	6855.44
468.417	6872.84
468.789	6923.24
469.161	7013.18
469.534	7123.23
469.906	7356.67
470.278	7375.88
470.65	7393.96
471.022	7644.57
471.394	7795.76
471.766	7809.99
472.138	7980.38
472.51	8077.1
472.882	8198
473.253	8365.23
473.625	8470.54
473.997	8645.9
474.369	8642.51
474.74	8809.06
475.112	8950.3
475.484	9094.7
475.855	9209.5
476.227	9335.15
476.598	9614.69
476.97	9692.65
477.341	9949.6
477.713	10026.43
478.084	10096.94
478.455	10399.98
478.827	10519.07
479.198	10790.25
479.569	10882.45
479.94	11194.08
480.311	11195.21
480.682	11480.18
481.053	11729.66
481.424	11912.71
481.795	12115.19
482.166	12273.6
482.537	12348.4
482.908	12634.27
483.279	12813.93
483.65	13079.23
484.021	13292.33
484.391	13473.35
484.762	13551.54
485.133	13689.61
485.503	13997.63
485.874	14188.13
486.244	14354.68
486.615	14628.57
486.985	14797.38
487.356	15133.64
487.726	15139.29
488.097	15480.98
488.467	15539.51
488.837	15945.6
489.207	16041.19
489.578	16302.2
489.948	16538.8
490.318	16722.98
490.688	16809.53
491.058	17087.26
491.428	17262.63
491.798	17460.36
492.168	17801.59
492.538	17874.36
492.908	18051.08
493.278	18286.1
493.648	18414.91
494.017	18628.92
494.387	18778.97
494.757	18837.05
495.126	19115.46
495.496	19146.87
495.866	19389.35
496.235	19588.44
496.605	19747.76
496.974	19835.89
497.344	20059.39
497.713	20206.73
498.082	20378.02
498.452	20593.61
498.821	20656.43
499.19	20780.27
499.559	20990.66
499.928	21145.69
500.298	21173.48
500.667	21377.77
501.036	21517.65
501.405	21690.31
501.774	21771.66
502.143	22057.98
502.512	22072.89
502.88	22217.75
503.249	22339.55
503.618	22518.31
503.987	22608.7
504.356	22751.75
504.724	23070.38
505.093	23064.28
505.462	23186.31
505.83	23480.77
506.199	23610.03
506.567	23942
506.936	23838.95
507.304	24201.88
507.672	24240.52
508.041	24391.93
508.409	24533.17
508.777	24842.54
509.145	24908.3
509.514	25003.44
509.882	25336.54
510.25	25310.32
510.618	25571.56
510.986	25670.31
511.354	25967.26
511.722	26230.98
512.09	26328.38
512.458	26366.34
512.826	26678.42
513.193	26865.76
513.561	26912.99
513.929	27192.53
514.297	27401.57
514.664	27612.86
515.032	27839.07
515.4	27971.04
515.767	28068.67
516.135	28310.47
516.502	28260.98
516.869	28667.3
517.237	28827.97
517.604	28823.9
517.972	29206.04
518.339	29318.35
518.706	29513.38
519.073	29708.85
519.44	29975.06
519.808	30194.04
520.175	30227.48
520.542	30629.28
520.909	30868.37
521.276	30908.14
521.643	31294.8
522.009	31383.38
522.376	31640.55
522.743	31919.87
523.11	32192.4
523.477	32419.51
523.843	32788.09
524.21	33023.79
524.577	33325.93
524.943	33434.4
525.31	33683.66
525.676	34001.17
526.043	34216.53
526.409	34291.56
526.776	34730.64
527.142	34900.58
527.508	35132.21
527.874	35374.01
528.241	35515.7
528.607	35709.15
528.973	35891.97
529.339	36066.42
529.705	36274.55
530.071	36679.06
530.437	36799.29
530.803	37058.49
531.169	37239.73
531.535	37193.85
531.901	37470.23
532.267	37489.44
532.632	37913.83
532.998	38120.61
533.364	38392.69
533.73	38356.08
534.095	38612.57
534.461	38602.4
534.826	38957.2
535.192	39042.39
535.557	39374.81
535.923	39432.44
536.288	39606.22
536.653	39670.17
537.019	39617.07
537.384	39873.1
537.749	40155.81
538.114	40252.76
538.479	40302.92
538.845	40612.07
539.21	40512.18
539.575	40838.73
539.94	40769.13
540.305	41120.98
540.67	41147.42
541.034	41233.75
541.399	41330.24
541.764	41552.16
542.129	41821.08
542.494	41786.95
542.858	42099.26
543.223	42123.67
543.587	42247.5
543.952	42328.63
544.316	42455.64
544.681	42643.65
545.045	42764.78
545.41	42927.04
545.774	43184.2
546.138	43140.81
546.503	43377.87
546.867	43209.97
547.231	43749.84
547.595	43805.66
547.959	43952.54
548.324	43983.5
548.688	44102.37
549.052	44147.12
549.416	44376.26
549.779	44363.83
550.143	44583.94
550.507	44908.45
550.871	45089.69
551.235	44971.28
551.599	45330.36
551.962	45407.42
552.326	45479.74
552.689	45750.01
553.053	45569
553.417	45841.99
553.78	46326.49
554.143	46199.49
554.507	46356.55
554.87	46598.58
555.234	47012.8
555.597	46633.6
555.96	46881.06
556.323	47082.63
556.686	47166.92
557.05	47599.91
557.413	47512.45
557.776	47697.53
558.139	47963.29
558.502	47975.94
558.865	48129.84
559.228	48465.19
559.59	48579.32
559.953	48664.06
560.316	49082.13
560.679	49005.52
561.041	49277.6
561.404	49305.62
561.767	49613.86
562.129	49499.74
562.492	50018.37
562.854	49991.48
563.217	49947.42
563.579	50174.98
563.941	50367.52
564.304	50517.34
564.666	50831.69
565.028	50822.42
565.39	51035.97
565.753	51154.84
566.115	51257.44
566.477	51373.82
566.839	51499.47
567.201	51650.42
567.563	51692.23
567.925	51960.7
568.287	51957.08
568.648	52035.27
569.01	52270.97
569.372	52421.02
569.734	52352.55
570.095	52565.65
570.457	52701.92
570.819	52854.91
571.18	52872.08
571.542	53010.39
571.903	53081.57
572.265	53144.85
572.626	53156.6
572.987	53330.83
573.349	53449.24
573.71	53491.5
574.071	53595.68
574.432	53694.66
574.794	53911.61
575.155	53771.95
575.516	53790.03
575.877	53954.54
576.238	54045.84
576.599	54067.76
576.96	54147.08
577.32	54105.5
577.681	54285.61
578.042	54291.03
578.403	54271.82
578.763	54322.89
579.124	54423.46
579.485	54486.51
579.845	54608.08
580.206	54468.43
580.566	54500.97
580.927	54538.48
581.287	54699.83
581.648	54596.56
582.008	54763.79
582.368	54696.9
582.728	54790.68
583.089	54801.75
583.449	54675.2
583.809	54750.68
584.169	54844.24
584.529	54724.69
584.889	54953.61
585.249	54702.77
585.609	54700.06
585.969	54934.4
586.329	54752.49
586.688	54797.91
587.048	54820.73
587.408	54752.03
587.768	54770.11
588.127	54795.2
588.487	54729.89
588.846	54952.71
589.206	54780.96
589.565	54833.61
589.925	54864.8
590.284	54778.47
590.643	54801.53
591.003	54928.3
591.362	55035.42
591.721	54973.27
592.08	54933.27
592.44	54957.45
592.799	55065.25
593.158	54906.61
593.517	54957.45
593.876	54975.53
594.235	54869.55
594.593	54917.23
594.952	55081.74
595.311	54888.53
595.67	55010.79
596.029	55176.66
596.387	55157.45
596.746	55228.86
597.104	55097.56
597.463	55114.74
597.822	55253.49
598.18	55065.92
598.538	55121.29
598.897	55277.9
599.255	55001.75
599.613	55386.59
599.972	55282.64
600.33	55374.17
600.688	55259.37
601.046	55320.16
601.404	55486.03
601.762	55370.55
602.12	55398.8
602.478	55474.28
602.836	55414.62
603.194	55489.19
603.552	55492.35
603.91	55383.43
604.268	55536.2
604.625	55462.3
604.983	55576.42
605.341	55374.62
605.698	55587.04
606.056	55681.73
606.413	55601.5
606.771	55683.99
607.128	55808.28
607.485	55564.67
607.843	55667.94
608.2	55782.97
608.557	55900.25
608.914	55726.02
609.272	55967.14
609.629	55961.95
609.986	56027.48
610.343	55923.98
610.7	56133.92
611.057	56032
611.414	56086.24
611.771	56058.67
612.127	56191.55
612.484	56155.61
612.841	56269.74
613.198	56114.48
613.554	56234.03
613.911	56332.11
614.267	56247.14
614.624	56187.7
614.98	56267.93
615.337	56403.29
615.693	56342.28
616.05	56331.2
616.406	56518.09
616.762	56377.98
617.118	56332.33
617.475	56431.76
617.831	56422.5
618.187	56460.69
618.543	56528.03
618.899	56634.47
619.255	56612.33
619.611	56575.49
619.967	56659.33
620.323	56658.2
620.678	56607.35
621.034	56514.02
621.39	56587.24
621.746	56487.58
622.101	56800.57
622.457	56538.88
622.812	56606.9
623.168	56635.6
623.523	56633.57
623.879	56740.23
624.234	56519.67
624.589	56564.42
624.945	56598.54
625.3	56657.97
625.655	56639.67
626.01	56593.79
626.365	56661.14
626.72	56586.56
627.075	56561.48
627.43	56650.74
627.785	56530.97
628.14	56646.45
628.495	56574.13
628.85	56566.45
629.205	56463.63
629.559	56577.52
629.914	56445.55
630.269	56573.91
630.623	56427.02
630.978	56378.21
631.332	56437.19
631.687	56491.65
632.041	56353.12
632.396	56464.98
632.75	56293.01
633.104	56288.72
633.459	56166.91
633.813	56231.09
634.167	56191.09
634.521	56168.27
634.875	56219.34
635.229	56080.36
635.583	56007.6
635.937	55916.3
636.291	55982.96
636.645	55976.18
636.999	55938.67
637.352	55985.67
637.706	55774.15
638.06	55923.53
638.413	55817.77
638.767	55716.08
639.121	55829.75
639.474	55642.86
639.828	55670.2
640.181	55715.4
640.534	55634.5
640.888	55568.06
641.241	55486.7
641.594	55485.57
641.947	55554.27
642.301	55447.16
642.654	55477.44
643.007	55424.11
643.36	55384.56
643.713	55290.1
644.066	55373.71
644.419	55231.34
644.771	55058.69
645.124	54708.65
645.477	54740.74
645.83	54447.64
646.182	54403.8
646.535	54247.87
646.888	54315.66
647.24	54177.13
647.593	54307.53
647.945	54298.26
648.298	54222.56
648.65	54048.32
649.002	54008.1
649.355	54140.75
649.707	54014.2
650.059	54124.48
650.411	54537.8
650.763	54581.19
651.115	54812.37
651.467	54686.73
651.819	54639.72
652.171	54512.04
652.523	54503.91
652.875	54505.94
653.227	54316.11
653.578	54544.13
653.93	54409.67
654.282	54268.21
654.633	54204.7
654.985	54259.62
655.337	54258.94
655.688	54265.95
656.039	54358.15
656.391	54070.24
656.742	54181.2
657.094	54156.34
657.445	54258.26
657.796	54110.92
658.147	54019.62
658.498	54061.66
658.849	54100.75
659.2	53992.51
659.551	54005.61
659.902	54127.64
660.253	54030.02
660.604	54032.51
660.955	53846.97
661.306	53929.91
661.656	53868.89
662.007	54034.77
662.358	53870.7
662.708	53847.2
663.059	53843.36
663.409	53619.64
663.76	53821.44
664.11	53838.84
664.461	53803.13
664.811	53721.78
665.161	53792.06
665.511	53757.48
665.862	53657.15
666.212	53788.9
666.562	53755.68
666.912	53636.13
667.262	53589.13
667.612	53660.76
667.962	53634.32
668.312	53503.48
668.662	53755.9
669.011	53516.14
669.361	53607.21
669.711	53465.52
670.06	53459.41
670.41	53353.65
670.76	53379.19
671.109	53488.57
671.459	53359.53
671.808	53258.74
672.157	53385.74
672.507	53168.57
672.856	53146.43
673.205	53298.06
673.554	53291.28
673.904	53223.94
674.253	53263.71
674.602	53254.9
674.951	52831.63
675.3	52729.04
675.649	53160.21
675.998	53043.83
676.346	53025.3
676.695	53153.66
677.044	52837.28
677.393	52904.63
677.741	53041.57
678.09	52957.28
678.438	52830.73
678.787	52995.47
679.135	52874.57
679.484	52591.41
679.832	52786.21
680.181	52618.08
680.529	52703.5
680.877	52626.44
681.225	52560.68
681.573	52697.17
681.922	52410.85
682.27	52357.75
682.618	52429.38
682.966	52200.24
683.314	52357.3
683.661	52253.8
684.009	52110.97
684.357	52056.29
684.705	51915.5
685.053	51938.1
685.4	51854.48
685.748	51753.92
686.095	51719.57
686.443	51680.48
686.79	51590.08
687.138	51578.56
687.485	51669.18
687.832	51423.53
688.18	51453.14
688.527	51315.06
688.874	51337.44
689.221	51239.81
689.568	51093.37
689.915	50908.07
690.262	50951.23
690.609	50751.24
690.956	50774.29
691.303	50717.56
691.65	50530.45
691.997	50481.86
692.344	50243
692.69	50344.24
693.037	50160.74
693.383	49990.35
693.73	50124.59
694.077	49864.48
694.423	49916.68
694.769	49795.33
695.116	49682.34
695.462	49641.43
695.808	49513.08
696.155	49443.47
696.501	49236.47
696.847	49211.84
697.193	49050.26
697.539	49010.72
697.885	48811.63
698.231	48628.81
698.577	48765.3
698.923	48633.78
699.269	48425.2
699.614	48180.91
699.96	48205.77
700.306	48216.61
700.651	47996.28
700.997	47755.61
701.342	47884.42
701.688	47669.06
702.033	47678.32
702.379	47590.87
702.724	47454.6
703.069	47624.99
703.415	47063.42
703.76	47031.33
704.105	47107.04
704.45	46973.48
704.795	46745.01
705.14	46723.55
705.485	46649.42
705.83	46420.73
706.175	46503.21
706.52	46300.51
706.865	46157.23
707.209	46213.5
707.554	45953.17
707.899	46021.19
708.243	45754.08
708.588	45803.57
708.932	45446.97
709.277	45511.15
709.621	45548.21
709.966	45257.82
710.31	45328.78
710.654	44910.49
710.998	45086.75
711.342	45238.84
711.687	44942.58
712.031	44674.11
712.375	44658.52
712.719	44610.15
713.063	44626.65
713.407	44655.35
713.75	44421.23
714.094	44359.54
714.438	44254.68
714.782	44155.25
715.125	44032.54
715.469	44179.66
715.812	43836.84
716.156	43560.92
716.499	43689.05
716.843	43740.12
717.186	43379.23
717.53	43610.86
717.873	43592.33
718.216	43527.47
718.559	43277.76
718.902	42983.3
719.246	43028.05
719.589	42988.28
719.932	42791.67
720.275	42886.36
720.617	42781.73
720.96	42781.28
721.303	42681.84
721.646	42555.29
721.989	42350.78
722.331	42334.96
722.674	42344.45
723.016	42323.44
723.359	42274.85
723.701	42324.11
724.044	41941.3
724.386	41873.73
724.729	42115.53
725.071	41848.42
725.413	41656.79
725.755	41741.76
726.097	41601.19
726.439	41387.19
726.782	41440.75
727.124	41616.34
727.465	41280.3
727.807	41246.63
728.149	41215.22
728.491	40992.4
728.833	41120.08
729.175	40849.12
729.516	40802.8
729.858	40895
730.199	40866.98
730.541	40813.19
730.882	40782.23
731.224	40859.07
731.565	40537.95
731.906	40483.26
732.248	40521.67
732.589	40358.06
732.93	40218.18
733.271	40287.33
733.612	40092.53
733.953	40258.18
734.294	40015.7
734.635	39950.84
734.976	40114.45
735.317	39816.16
735.658	39721.24
735.999	39781.13
736.339	39631.53
736.68	39635.14
737.021	39566.67
737.361	39314.7
737.702	39596.95
738.042	39277.64
738.383	39307.24
738.723	39376.85
739.063	39112.22
739.404	39273.8
739.744	39135.04
740.084	38989.29
740.424	39033.8
740.764	38859.8
741.104	38906.8
741.444	38646.47
741.784	38760.14
742.124	38726.02
742.464	38542.29
742.804	38479.69
743.143	38408.06
743.483	38453.48
743.823	38205.35
744.162	38282.19
744.502	38170.1
744.841	38175.75
745.181	38206.71
745.52	37990.67
745.86	38189.53
746.199	37919.03
746.538	37778.02
746.877	37855.3
747.216	37845.81
747.556	37668.19
747.895	37667.29
748.234	37584.58
748.573	37552.71
748.911	37455.77
749.25	37394.98
749.589	37273.17
749.928	37256.22
750.267	37344.36
750.605	37115.21
750.944	37076.34
751.283	36888.1
751.621	36991.37
751.96	36780.98
752.298	36727.42
752.636	36606.07
752.975	36406.75
753.313	36301.22
753.651	36476.58
753.989	36254.67
754.327	36144.39
754.666	35998.18
755.004	36027.1
755.342	36137.84
755.679	35788.47
756.017	35719.99
756.355	35843.61
756.693	35633.67
757.031	35677.96
757.368	35418.08
757.706	35369.04
758.044	35240.46
758.381	35204.07
758.719	35034.81
759.056	35108.71
759.394	35070.52
759.731	34819.68
760.068	34643.86
760.405	34555.96
760.743	34460.14
761.08	34497.43
761.417	34220.37
761.754	34211.11
762.091	34074.84
762.428	34045.46
762.765	33862.87
763.102	33830.55
763.438	33747.62
763.775	33608.64
764.112	33571.8
764.449	33516.89
764.785	33394.63
765.122	33213.84
765.458	33175.65
765.795	33088.2
766.131	32989.22
766.467	32943.57
766.804	32683.24
767.14	32465.16
767.476	32621.77
767.812	32354.66
768.148	32350.59
768.485	32165.06
768.821	32081.22
769.157	32094.1
769.492	31881.68
769.828	31875.35
770.164	31481.91
770.5	31476.94
770.836	31508.35
771.171	31215.25
771.507	31113.11
771.842	30957.63
772.178	31013.22
772.513	30958.31
772.849	30695.27
773.184	30608.94
773.519	30509.06
773.855	30408.95
774.19	30375.73
774.525	30139.57
774.86	30198.1
775.195	30094.15
775.53	29940.26
775.865	29899.13
776.2	29682.41
776.535	29420.95
776.87	29448.75
777.205	29388.86
777.539	29093.73
777.874	29349.09
778.209	29036.1
778.543	28902.32
778.878	28754.98
779.212	28663.46
779.547	28538.49
779.881	28514.76
780.215	28364.25
780.55	28484.93
780.884	28217.14
781.218	28256.69
781.552	28137.59
781.886	27957.49
782.22	27750.49
782.554	27697.38
782.888	27432.08
783.222	27355.92
783.556	27311.4
783.889	27328.58
784.223	27093.33
784.557	26955.03
784.89	27069.6
785.224	26831.19
785.557	26796.84
785.891	26664.41
786.224	26647.24
786.558	26638.2
786.891	26393.46
787.224	26223.29
787.557	26186.01
787.891	26058.78
788.224	26053.81
788.557	26036.41
788.89	25912.34
789.223	25966.58
789.556	25625.57
789.888	25671.67
790.221	25566.14
790.554	25314.16
790.887	25425.35
791.219	25195.75
791.552	25090.44
791.884	24969.54
792.217	25043.44
792.549	24878.47
792.882	24753.73
793.214	24567.29
793.546	24647.97
793.879	24523.23
794.211	24361.65
794.543	24374.98
794.875	24287.07
795.207	24330.46
795.539	24142.22
795.871	24195.55
796.203	23798.27
796.535	23763.02
796.867	23716.01
797.198	23754.21
797.53	23712.85
797.862	23526.64
798.193	23585.85
798.525	23452.74
798.856	23503.59
799.188	23141.79
799.519	23126.2
799.85	23035.35
800.182	23024.28
800.513	23057.73
800.844	22761.01
801.175	22898.86
801.506	22904.28
801.837	22764.18
802.168	22628.36
802.499	22545.42
802.83	22487.57
803.161	22415.48
803.491	22428.14
803.822	22459.55
804.153	22177.07
804.483	22051.2
804.814	22051.88
805.145	21907.25
805.475	22034.93
805.805	21868.15
806.136	21987.7
806.466	21826.57
806.796	21741.15
807.126	21636.97
807.457	21556.07
807.787	21551.33
808.117	21475.17
808.447	21350.65
808.777	21345.23
809.107	21293.48
809.436	21262.52
809.766	21203.99
810.096	21088.29
810.426	21024.11
810.755	20891.91
811.085	20925.13
811.414	20898.69
811.744	20724.46
812.073	20669.32
812.403	20705.47
812.732	20585.25
813.061	20521.3
813.39	20419.38
813.719	20442.88
814.049	20408.98
814.378	20390
814.707	20249.21
815.036	20130.57
815.365	20168.09
815.693	20053.51
816.022	20042.89
816.351	19934.87
816.68	19857.59
817.008	19944.59
817.337	19795.21
817.665	19619.63
817.994	19799.06
818.322	19591.38
818.651	19588.44
818.979	19476.35
819.307	19591.83
819.636	19601.09
819.964	19417.82
820.292	19497.14
820.62	19441.32
820.948	19463.47
821.276	19471.83
821.604	19280.88
821.932	19429.35
822.259	19453.98
822.587	19263.25
822.915	19260.99
823.243	19459.86
823.57	19380.76
823.898	19404.49
824.225	19256.25
824.553	19237.49
824.88	19264.38
825.207	19354.1
825.535	19321.55
825.862	19399.29
826.189	19259.18
826.516	19330.59
826.843	19217.6
827.17	19292.85
827.497	19285.62
827.824	19357.94
828.151	19354.1
828.478	19316.13
828.805	19335.11
829.131	19203.37
829.458	19266.64
829.785	19157.94
830.111	19192.07
830.438	19256.47
830.764	19217.15
831.09	19132.86
831.417	19186.19
831.743	19161.11
832.069	19156.59
832.395	19068.68
832.722	19115.01
833.048	19047.44
833.374	19026.42
833.7	19069.36
834.026	19079.75
834.351	18973.77
834.677	18955.69
835.003	19028.91
835.329	18967.89
835.654	18910.49
835.98	18897.84
836.306	18890.15
836.631	18830.49
836.956	18854.67
837.282	18865.07
837.607	18704.4
837.932	18654.45
838.258	18686.09
838.583	18684.96
838.908	18511.63
839.233	18491.52
839.558	18630.05
839.883	18484.06
840.208	18381.24
840.533	18397.96
840.858	18439.32
841.182	18395.7
841.507	18341.01
841.832	18262.82
842.156	18235.25
842.481	18244.07
842.805	18167.69
843.13	18010.85
843.454	18134.24
843.778	18056.5
844.103	17982.61
844.427	17926.56
844.751	17973.34
845.075	17829.62
845.399	17826.9
845.723	17740.58
846.047	17735.16
846.371	17656.29
846.695	17593.46
847.019	17430.98
847.343	17336.97
847.666	17228.73
847.99	17232.12
848.313	17157.09
848.637	17073.93
848.96	17082.74
849.284	16951.9
849.607	16845.46
849.931	16821.51
850.254	16670.55
850.577	16657.67
850.9	16498.58
851.223	16585.13
851.546	16445.47
851.869	16333.61
852.192	16392.14
852.515	16221.75
852.838	16177.68
853.161	16177.68
853.483	16130
853.806	16073.05
854.129	15997.8
854.451	15936.11
854.774	15825.6
855.096	15835.54
855.419	15762.33
855.741	15719.61
856.063	15654.08
856.385	15594.65
856.708	15678.49
857.03	15468.1
857.352	15506.29
857.674	15386.52
857.996	15384.26
858.318	15311.26
858.64	15311.49
858.961	15242.11
859.283	15177.48
859.605	15161.21
859.926	15157.14
860.248	15074.66
860.57	14934.78
860.891	15085.96
861.212	14983.14
861.534	14921.22
861.855	14871.73
862.176	14926.19
862.498	14896.13
862.819	14845.06
863.14	14713.54
863.461	14718.74
863.782	14683.03
864.103	14670.15
864.424	14641.23
864.745	14626.54
865.065	14562.13
865.386	14597.84
865.707	14510.38
866.027	14585.18
866.348	14517.61
866.668	14538.63
866.989	14391.97
867.309	14309.93
867.63	14350.84
867.95	14369.14
868.27	14272.87
868.59	14285.3
868.91	14250.05
869.23	14236.49
869.55	14204.17
869.87	14187.68
870.19	14193.78
870.51	14123.72
870.83	14213.67
871.15	14101.8
871.469	14092.99
871.789	14133.89
872.109	14020
872.428	13993.33
872.748	13969.83
873.067	14037.63
873.386	14034.69
873.706	13982.71
874.025	13878.76
874.344	13791.53
874.663	13884.63
874.982	13843.96
875.301	13848.7
875.62	13848.7
875.939	13786.56
876.258	13778.42
876.577	13675.37
876.896	13668.82
877.214	13615.72
877.533	13682.83
877.852	13607.13
878.17	13577.75
878.489	13593.8
878.807	13506.79
879.125	13517.41
879.444	13493.23
879.762	13427.02
880.08	13474.48
880.398	13454.36
880.716	13375.72
881.034	13424.08
881.352	13351.54
881.67	13257.98
881.988	13341.6
882.306	13206.69
882.624	13274.48
882.941	13130.53
883.259	13125.78
883.577	13176.86
883.894	13104.99
884.212	12963.76
884.529	13018.67
884.846	13024.54
885.164	12980.93
885.481	12963.76
885.798	12955.17
886.115	12848.73
886.432	12799.47
886.75	12825.68
887.067	12784.78
887.383	12733.25
887.7	12760.14
888.017	12753.82
888.334	12676.98
888.651	12617.78
888.967	12596.08
889.284	12560.83
889.6	12470.89
889.917	12428.18
890.233	12514.95
890.55	12435.86
890.866	12434.73
891.182	12415.75
891.498	12323.77
891.815	12214.4
892.131	12228.86
892.447	12226.83
892.763	12151.8
893.079	12108.86
893.395	12092.59
893.71	11985.93
894.026	12002.65
894.342	11967.4
894.657	11865.48
894.973	11985.48
895.289	11824.12
895.604	11872.26
895.92	11855.08
896.235	11698.7
896.55	11748.87
896.865	11663.22
897.181	11672.72
897.496	11623
897.811	11524.02
898.126	11508.2
898.441	11482.66
898.756	11498.26
899.071	11373.97
899.386	11401.08
899.7	11228.43
900.015	11243.8
900.33	11198.38
900.644	11161.32
900.959	11160.86
901.273	11087.19
901.588	11003.35
901.902	10979.17
902.216	10901.89
902.531	10972.4
902.845	10918.84
903.159	10811.27
903.473	10815.56
903.787	10727.2
904.101	10754.77
904.415	10724.49
904.729	10632.07
905.042	10552.52
905.356	10639.97
905.67	10549.81
905.984	10549.36
906.297	10451.05
906.611	10385.29
906.924	10436.36
907.237	10318.18
907.551	10260.78
907.864	10297.38
908.177	10214.9
908.491	10151.4
908.804	10117.73
909.117	10141.68
909.43	10019.43
909.743	10028.01
910.056	9976.04
910.368	9955.02
910.681	9886.32
910.994	9822.14
911.307	9834.57
911.619	9665.08
911.932	9746.89
912.244	9635.03
912.557	9682.94
912.869	9598.42
913.181	9543.28
913.494	9542.38
913.806	9424.87
914.118	9441.14
914.43	9359.1
914.742	9330.18
915.054	9312.55
915.366	9249.05
915.678	9261.03
915.99	9228.26
916.302	9087.25
916.613	9072.56
916.925	9072.56
917.236	9106.46
917.548	8994.82
917.859	8942.39
918.171	8956.4
918.482	8839.34
918.794	8890.42
919.105	8836.63
919.416	8710.53
919.727	8748.05
920.038	8765.45
920.349	8626.69
920.66	8596.41
920.971	8629.86
921.282	8557.32
921.593	8500.82
921.903	8437.09
922.214	8419.47
922.525	8368.62
922.835	8370.2
923.146	8333.82
923.456	8286.36
923.767	8284.78
924.077	8243.2
924.387	8172.92
924.697	8187.38
925.008	8152.13
925.318	8118.23
925.628	8071.23
925.938	8007.05
926.248	7929.76
926.558	7926.6
926.867	7902.42
927.177	7909.65
927.487	7810.67
927.796	7760.73
928.106	7718.47
928.416	7720.73
928.725	7750.56
929.034	7720.05
929.344	7657
929.653	7692.03
929.962	7577.91
930.271	7540.17
930.581	7517.57
930.89	7453.17
931.199	7443
931.508	7423.79
931.817	7420.62
932.125	7299.27
932.434	7258.59
932.743	7209.78
933.051	7233.28
933.36	7213.85
933.669	7132.27
933.977	7191.48
934.286	7116
934.594	7065.38
934.902	6976.12
935.21	7044.36
935.519	7038.71
935.827	6956.46
936.135	6980.18
936.443	6859.28
936.751	6801.88
937.059	6790.58
937.367	6741.09
937.674	6692.73
937.982	6760.53
938.29	6721.43
938.597	6635.79
938.905	6627.2
939.213	6595.34
939.52	6550.59
939.827	6545.84
940.135	6524.6
940.442	6462.46
940.749	6474.21
941.056	6481.89
941.363	6403.48
941.67	6359.86
941.977	6383.82
942.284	6344.72
942.591	6377.94
942.898	6243.03
943.205	6273.31
943.511	6214.1
943.818	6196.25
944.125	6160.54
944.431	6132.97
944.738	6086.87
945.044	6097.72
945.35	6055.91
945.657	5989.93
945.963	5968.23
946.269	5948.57
946.575	5928.91
946.881	5885.3
947.187	5916.26
947.493	5875.35
947.799	5841.91
948.105	5866.31
948.41	5754.91
948.716	5773.44
949.022	5689.82
949.327	5661.35
949.633	5700.44
949.938	5683.49
950.244	5619.54
950.549	5617.73
950.854	5535.48
951.16	5545.87
951.465	5485.99
951.77	5508.13
952.075	5473.1
952.38	5443.27
952.685	5465.42
952.99	5386.78
953.294	5414.12
953.599	5357.85
953.904	5339.32
954.209	5310.85
954.513	5282.15
954.818	5289.15
955.122	5273.79
955.426	5177.97
955.731	5203.73
956.035	5151.98
956.339	5159.89
956.643	5145.66
956.948	5109.72
957.252	5088.71
957.556	5097.52
957.86	5048.48
958.163	5053.23
958.467	4976.85
958.771	4962.61
959.075	4972.33
959.378	4932.1
959.682	4888.04
959.985	4898.66
960.289	4849.62
960.592	4864.53
960.896	4828.6
961.199	4758.1
961.502	4783.18
961.805	4728.49
962.108	4694.37
962.411	4678.78
962.714	4679.45
963.017	4641.26
963.32	4656.85
963.623	4566.01
963.926	4621.15
964.228	4594.94
964.531	4546.12
964.833	4544.32
965.136	4537.76
965.438	4506.58
965.741	4479.46
966.043	4467.71
966.345	4433.36
966.648	4449.63
966.95	4430.42
967.252	4337.54
967.554	4367.37
967.856	4373.92
968.158	4317.2
968.46	4306.13
968.761	4310.88
969.063	4261.61
969.365	4203.53
969.666	4231.1
969.968	4220.26
970.269	4189.3
970.571	4153.37
970.872	4140.48
971.174	4100.71
971.475	4119.24
971.776	4073.37
972.077	4073.82
972.378	4061.16
972.679	4076.31
972.98	4030.66
973.281	4017.55
973.582	4008.74
973.883	3945.69
974.183	3916.31
974.484	3960.15
974.785	3916.76
975.085	3926.03
975.386	3862.75
975.686	3846.25
975.986	3847.61
976.287	3844.67
976.587	3791.79
976.887	3784.56
977.187	3821.4
977.487	3762.87
977.787	3699.37
978.087	3676.54
978.387	3733.94
978.687	3718.57
978.987	3677.9
979.286	3645.36
979.586	3646.71
979.885	3588.41
980.185	3589.31
980.484	3563.78
980.784	3528.98
981.083	3584.34
981.382	3546.6
981.682	3582.98
981.981	3483.1
982.28	3482.87
982.579	3491.24
982.878	3484.23
983.177	3422.99
983.475	3422.09
983.774	3388.19
984.073	3395.65
984.372	3376.89
984.67	3361.97
984.969	3345.48
985.267	3317.23
985.566	3328.75
985.864	3339.15
986.162	3292.6
986.461	3312.03
986.759	3260.96
987.057	3223.67
987.355	3204.24
987.653	3193.16
987.951	3193.62
988.249	3208.31
988.547	3181.41
988.844	3190.45
989.142	3138.48
989.44	3131.47
989.737	3072.26
990.035	3068.42
990.332	3098.03
990.63	3062.77
990.927	3071.59
991.224	3036.78
991.521	3025.49
991.819	3041.76
992.116	3000.4
992.413	2995.66
992.71	2999.05
993.006	2948.2
993.303	2948.2
993.6	2898.71
993.897	2906.39
994.193	2887.64
994.49	2872.5
994.787	2883.57
995.083	2849.22
995.379	2856.9
995.676	2832.72
995.972	2763.57
996.268	2792.05
996.565	2769.67
996.861	2729.45
997.157	2727.19
997.453	2753.4
997.749	2736
998.044	2717.47
998.34	2696.91
998.636	2688.55
998.932	2705.95
999.227	2646.96
999.523	2633.86
999.818	2597.47
1000.114	2576.68
1000.409	2585.5
1000.704	2558.61
1001	2573.07
1001.295	2523.58
1001.59	2511.6
1001.885	2514.54
1002.18	2478.38
1002.475	2486.97
1002.77	2472.05
1003.065	2464.82
1003.359	2458.49
1003.654	2421.89
1003.949	2401.32
1004.243	2392.51
1004.538	2360.42
1004.832	2380.98
1005.127	2358.84
1005.421	2345.05
1005.715	2323.81
1006.009	2360.64
1006.304	2317.26
1006.598	2278.16
1006.892	2254.43
1007.186	2275.67
1007.48	2253.98
1007.773	2258.5
1008.067	2233.19
1008.361	2162.91
1008.655	2214.21
1008.948	2163.81
1009.242	2172.63
1009.535	2157.26
1009.829	2138.73
1010.122	2159.07
1010.415	2140.76
1010.708	2097.15
1011.001	2110.26
1011.295	2089.92
1011.588	2063.93
1011.881	2070.93
1012.173	2054.44
1012.466	2015.79
1012.759	2040.88
1013.052	1997.26
1013.344	2016.7
1013.637	1990.03
1013.93	1973.99
1014.222	2005.4
1014.514	1966.08
1014.807	1970.37
1015.099	1932.18
1015.391	1906.64
1015.683	1889.47
1015.976	1882.46
1016.268	1875.91
1016.56	1853.09
1016.851	1866.42
1017.143	1850.83
1017.435	1812.41
1017.727	1823.03
1018.018	1799.53
1018.31	1795.69
1018.602	1777.38
1018.893	1766.08
1019.185	1780.55
1019.476	1754.33
1019.767	1750.94
1020.058	1707.78
1020.35	1706.88
1020.641	1699.87
1020.932	1652.87
1021.223	1665.07
1021.514	1654.22
1021.804	1654
1022.095	1654.22
1022.386	1614.45
1022.677	1633.88
1022.967	1616.03
1023.258	1610.61
1023.548	1596.6
1023.839	1583.72
1024.129	1604.96
1024.419	1555.92
1024.709	1571.06
1025	1547.56
1025.29	1539.42
1025.58	1520.67
1025.87	1510.95
1026.16	1494.9
1026.449	1477.05
1026.739	1462.59
1027.029	1485.19
1027.319	1451.52
1027.608	1432.98
1027.898	1419.2
1028.187	1416.71
1028.477	1432.76
1028.766	1400.67
1029.055	1369.26
1029.344	1403.61
1029.634	1381.46
1029.923	1352.08
1030.212	1377.85
1030.501	1321.35
1030.79	1350.5
1031.078	1341.01
1031.367	1311.18
1031.656	1320.45
1031.945	1315.02
1032.233	1262.82
1032.522	1265.76
1032.81	1272.54
1033.099	1252.42
1033.387	1250.84
1033.675	1274.8
1033.963	1246.32
1034.251	1226.21
1034.54	1218.53
1034.828	1212.43
1035.116	1209.94
1035.403	1171.52
1035.691	1184.4
1035.979	1193.9
1036.267	1148.02
1036.554	1162.03
1036.842	1156.61
1037.129	1157.74
1037.417	1139.66
1037.704	1120.22
1037.992	1128.36
1038.279	1110.28
1038.566	1112.77
1038.853	1112.77
1039.14	1112.77
