Data from whiteboard_FLMS001491_00016.txt Node
Date: Wed Feb 08 11:25:28 GMT 2017
User: dcchb
Spectrometer: FLMS00149
Trigger mode: 0
Integration Time (sec): 2.000000E-2
Scans to average: 10
Electric dark correction enabled: true
Nonlinearity correction enabled: false
Boxcar width: 0
XAxis mode: Wavelengths
Number of Pixels in Spectrum: 2048
>>>>>Begin Spectral Data<<<<<
341.393	2.97
341.776	2.97
342.16	2.97
342.543	-45.17
342.927	-60.54
343.31	-77.71
343.693	-65.05
344.077	-74.09
344.46	-61.67
344.843	-45.85
345.226	-42.46
345.61	-55.34
345.993	-31.61
346.376	-7.2
346.759	16.07
347.142	40.03
347.525	26.92
347.908	77.77
348.291	86.58
348.674	98.1
349.057	115.51
349.44	148.27
349.823	146.01
350.206	162.96
350.588	223.07
350.971	250.64
351.354	264.43
351.737	285.67
352.119	299.68
352.502	289.74
352.884	314.82
353.267	315.27
353.65	330.87
354.032	348.04
354.414	349.62
354.797	371.09
355.179	361.15
355.562	375.84
355.944	383.52
356.326	366.8
356.709	376.06
357.091	392.11
357.473	394.82
357.855	382.62
358.238	401.37
358.62	393.24
359.002	372.67
359.384	395.72
359.766	373.58
360.148	380.36
360.53	375.84
360.912	379.23
361.294	381.26
361.676	377.19
362.057	402.28
362.439	407.02
362.821	395.05
363.203	382.84
363.584	367.02
363.966	375.16
364.348	379.45
364.729	384.42
365.111	370.41
365.493	386.91
365.874	380.13
366.256	352.34
366.637	370.41
367.019	348.72
367.4	370.19
367.781	376.29
368.163	376.74
368.544	351.66
368.925	371.09
369.306	401.15
369.688	373.35
370.069	403.18
370.45	378.78
370.831	376.52
371.212	401.6
371.593	376.06
371.974	408.38
372.355	400.92
372.736	405.67
373.117	394.82
373.498	393.01
373.879	403.86
374.26	388.04
374.641	386.91
375.021	395.72
375.402	408.38
375.783	422.39
376.163	422.62
376.544	439.34
376.925	414.93
377.305	416.06
377.686	417.19
378.066	421.71
378.447	425.33
378.827	449.06
379.208	415.84
379.588	410.64
379.968	455.16
380.349	460.81
380.729	445.89
381.109	427.36
381.489	432.11
381.87	461.71
382.25	452.9
382.63	453.35
383.01	460.81
383.39	492.22
383.77	461.03
384.15	468.49
384.53	482.95
384.91	500.58
385.29	493.35
385.67	505.55
386.049	506.68
386.429	498.55
386.809	507.81
387.189	500.58
387.568	517.53
387.948	515.95
388.328	533.57
388.707	524.99
389.087	551.88
389.466	529.05
389.846	541.26
390.225	534.7
390.605	557.98
390.984	566.79
391.363	567.7
391.743	576.28
392.122	579
392.501	592.1
392.881	601.37
393.26	604.08
393.639	620.12
394.018	631.88
394.397	604.98
394.776	633.91
395.155	644.98
395.534	637.53
395.913	658.09
396.292	666.23
396.671	669.84
397.05	680.01
397.429	704.87
397.808	665.77
398.186	692.44
398.565	682.95
398.944	723.63
399.323	702.61
399.701	731.76
400.08	740.57
400.458	735.38
400.837	770.63
401.215	781.7
401.594	772.66
401.972	805.43
402.351	828.26
402.729	810.4
403.107	840.46
403.486	870.51
403.864	870.97
404.242	843.17
404.62	888.14
404.999	877.52
405.377	901.47
405.755	922.72
406.133	935.14
406.511	965.2
406.889	972.88
407.267	980.79
407.645	1013.56
408.023	1041.36
408.401	1035.71
408.779	1073.67
409.156	1090.62
409.534	1087.91
409.912	1098.08
410.29	1134.91
410.667	1161.13
411.045	1178.98
411.422	1203.84
411.8	1223.27
412.178	1256.04
412.555	1265.08
412.933	1285.87
413.31	1292.42
413.687	1324.74
414.065	1358.41
414.442	1381.46
414.819	1366.32
415.197	1413.78
415.574	1415.13
415.951	1437.28
416.328	1494.45
416.705	1497.16
417.082	1494.68
417.46	1500.1
417.837	1518.86
418.214	1528.58
418.591	1598.18
418.967	1601.79
419.344	1588.69
419.721	1635.01
420.098	1629.59
420.475	1649.93
420.852	1668.91
421.228	1730.83
421.605	1732.64
421.982	1751.39
422.358	1729.93
422.735	1777.16
423.111	1774.44
423.488	1816.7
423.864	1849.7
424.241	1879.3
424.617	1876.36
424.994	1923.82
425.37	1934.89
425.746	1940.54
426.123	1975.57
426.499	1968.79
426.875	2010.82
427.251	2036.81
427.627	2065.96
428.003	2137.6
428.379	2156.58
428.756	2157.03
429.132	2220.53
429.507	2247.65
429.883	2277.03
430.259	2343.7
430.635	2326.75
431.011	2335.56
431.387	2428.89
431.763	2444.71
432.138	2449.91
432.514	2476.8
432.89	2549.11
433.265	2555.44
433.641	2632.73
434.016	2634.08
434.392	2663.24
434.767	2740.75
435.143	2718.37
435.518	2742.33
435.894	2825.72
436.269	2847.19
436.644	2886.28
437.02	2947.97
437.395	2924.47
437.77	2994.07
438.145	3003.57
438.52	3071.81
438.895	3071.13
439.271	3094.86
439.646	3160.85
440.021	3183.22
440.395	3191.36
440.77	3196.78
441.145	3228.87
441.52	3248.08
441.895	3289.43
442.27	3337.34
442.645	3341.64
443.019	3394.74
443.394	3440.16
443.769	3450.78
444.143	3424.57
444.518	3464.34
444.892	3526.49
445.267	3520.61
445.641	3548.41
446.016	3574.85
446.39	3636.54
446.764	3629.76
447.139	3665.24
447.513	3730.1
447.887	3697.11
448.262	3761.74
448.636	3780.95
449.01	3811.23
449.384	3867.05
449.758	3928.74
450.132	3994.95
450.506	3971
450.88	4027.94
451.254	3972.35
451.628	4086.02
452.002	4127.6
452.376	4176.64
452.75	4161.95
453.123	4226.13
453.497	4328.28
453.871	4345.68
454.244	4430.65
454.618	4485.11
454.992	4533.24
455.365	4491.66
455.739	4690.53
456.112	4704.99
456.486	4761.26
456.859	4804.2
457.232	4914.02
457.606	4930.97
457.979	4980.24
458.352	5013.91
458.725	5147.92
459.099	5114.7
459.472	5263.17
459.845	5320.34
460.218	5384.52
460.591	5421.35
460.964	5438.08
461.337	5593.1
461.71	5625.42
462.083	5765.53
462.456	5754.23
462.829	5838.97
463.201	5886.88
463.574	5960.1
463.947	6055.69
464.32	6162.13
464.692	6193.09
465.065	6264.04
465.438	6356.25
465.81	6487.77
466.183	6517.15
466.555	6698.61
466.928	6761.43
467.3	6717.82
467.672	6831.71
468.045	6987.19
468.417	7019.96
468.789	7118.49
469.161	7224.02
469.534	7330.68
469.906	7434.64
470.278	7504.24
470.65	7619.94
471.022	7767.73
471.394	7969.31
471.766	8075.52
472.138	8132.92
472.51	8278.23
472.882	8357.55
473.253	8529.97
473.625	8702.4
473.997	8824.2
474.369	8861.72
474.74	8973.58
475.112	9152.1
475.484	9299.22
475.855	9508.7
476.227	9605.88
476.598	9826.44
476.97	9909.6
477.341	10166.09
477.713	10375.57
478.084	10449.25
478.455	10660.54
478.827	10834.55
479.198	11067.76
479.569	11143.24
479.94	11353.4
480.311	11495.32
480.682	11820.96
481.053	12061.63
481.424	12270.21
481.795	12384.56
482.166	12548.17
482.537	12736.42
482.908	13001.72
483.279	13172.34
483.65	13410.75
484.021	13605.55
484.391	13750.63
484.762	13988.14
485.133	14086.44
485.503	14323.95
485.874	14634.67
486.244	14856.13
486.615	15131.38
486.985	15197.59
487.356	15530.24
487.726	15687.75
488.097	16009.55
488.467	16076.44
488.837	16371.8
489.207	16618.35
489.578	16794.84
489.948	16894.5
490.318	17232.8
490.688	17426.69
491.058	17525.22
491.428	17749.62
491.798	17896.96
492.168	18301.92
492.538	18428.7
492.908	18647.45
493.278	18965.41
493.648	18962.02
494.017	19180.77
494.387	19410.59
494.757	19650.36
495.126	19799.06
495.496	19781.88
495.866	20082.66
496.235	20219.84
496.605	20527.17
496.974	20566.04
497.344	20827.05
497.713	20906.82
498.082	21122.41
498.452	21375.06
498.821	21329.18
499.19	21479.92
499.559	21792.68
499.928	21869.06
500.298	21982.95
500.667	22247.8
501.036	22192.21
501.405	22450.51
501.774	22568.93
502.143	22712.65
502.512	22803.5
502.88	23007.33
503.249	23114.9
503.618	23148.57
503.987	23387.21
504.356	23605.74
504.724	23620.65
505.093	23779.97
505.462	23887.99
505.83	24062.67
506.199	24313.06
506.567	24588.08
506.936	24552.83
507.304	24912.82
507.672	25009.09
508.041	25218.12
508.409	25449.75
508.777	25568.62
509.145	25867.37
509.514	25881.16
509.882	26141.04
510.25	26166.35
510.618	26389.84
510.986	26610.85
511.354	26789.83
511.722	27015.59
512.09	27371.29
512.458	27291.97
512.826	27570.6
513.193	27826.64
513.561	28004.94
513.929	28095.56
514.297	28371.03
514.664	28511.82
515.032	28639.95
515.4	28860.29
515.767	29247.39
516.135	29249.43
516.502	29125.59
516.869	29706.82
517.237	29735.52
517.604	29605.8
517.972	30117.43
518.339	30292.79
518.706	30304.09
519.073	30508.83
519.44	30687.36
519.808	31124.86
520.175	31016.84
520.542	31502.93
520.909	31701.34
521.276	31559.65
521.643	32100.2
522.009	32180.2
522.376	32524.14
522.743	32742.44
523.11	33022.21
523.477	33334.52
523.843	33607.96
524.21	33952.81
524.577	34221.5
524.943	34296.3
525.31	34655.61
525.676	34883.86
526.043	35268.48
526.409	35160.69
526.776	35712.54
527.142	35868.46
527.508	36090.38
527.874	36294.22
528.241	36557.71
528.607	36721.55
528.973	36937.14
529.339	37104.59
529.705	37445.6
530.071	37649.89
530.437	37767.17
530.803	37962.87
531.169	38156.77
531.535	38239.93
531.901	38354.73
532.267	38652.12
532.632	38829.06
532.998	38967.14
533.364	39164.65
533.73	39419.33
534.095	39652.77
534.461	39735.25
534.826	39974.34
535.192	40186.32
535.557	40379.53
535.923	40400.32
536.288	40553.99
536.653	40743.59
537.019	40731.84
537.384	40954.88
537.749	41135.67
538.114	41308.77
538.479	41304.25
538.845	41535.43
539.21	41544.02
539.575	41706.5
539.94	41886.84
540.305	42071.69
540.67	41922.77
541.034	42154.4
541.399	42498.8
541.764	42574.73
542.129	42741.5
542.494	42964.1
542.858	43122.51
543.223	43102.85
543.587	43287.25
543.952	43233.02
544.316	43342.39
544.681	43461.71
545.045	43717.52
545.41	43983.5
545.774	44011.75
546.138	44242.71
546.503	44379.43
546.867	44375.13
547.231	44855.12
547.595	44885.18
547.959	45077.04
548.324	44957.26
548.688	45126.75
549.052	45272.51
549.416	45496.69
549.779	45448.55
550.143	45535.55
550.507	45883.79
550.871	45949.1
551.235	46017.58
551.599	46238.81
551.962	46379.6
552.326	46542.53
552.689	46755.41
553.053	46652.36
553.417	46826.59
553.78	47210.99
554.143	47096.19
554.507	47314.94
554.87	47448.27
555.234	47788.6
555.597	47650.3
555.96	47910.18
556.323	48091.42
556.686	47987.24
557.05	48390.85
557.413	48350.17
557.776	48454.8
558.139	48845.75
558.502	48857.27
558.865	48962.13
559.228	49261.33
559.59	49213.88
559.953	49333.19
560.316	49738.61
560.679	49898.83
561.041	49993.97
561.404	50146.73
561.767	50343.11
562.129	50280.74
562.492	50683.67
562.854	50619.71
563.217	50534.74
563.579	50906.71
563.941	51104.67
564.304	51213.6
564.666	51356.19
565.028	51381.05
565.39	51630.54
565.753	51687.03
566.115	51945.1
566.477	52013.12
566.839	52103.74
567.201	52322.04
567.563	52269.84
567.925	52488.59
568.287	52616.95
568.648	52655.14
569.01	52791.41
569.372	53051.74
569.734	52959.09
570.095	53202.92
570.457	53295.35
570.819	53326.08
571.18	53389.36
571.542	53601.1
571.903	53686.75
572.265	53815.11
572.626	53839.74
572.987	53997.03
573.349	54023.69
573.71	54174.87
574.071	54213.29
574.432	54216.68
574.794	54620.06
575.155	54495.32
575.516	54466.39
575.877	54581.42
576.238	54656.9
576.599	54782.09
576.96	54713.17
577.32	54804.46
577.681	54883.33
578.042	55020.73
578.403	55012.82
578.763	54979.37
579.124	54987.73
579.485	55114.29
579.845	55212.59
580.206	55183.66
580.566	55225.69
580.927	55155.87
581.287	55309.08
581.648	55218.24
582.008	55342.53
582.368	55221.63
582.728	55385.24
583.089	55282.64
583.449	55246.26
583.809	55313.15
584.169	55282.87
584.529	55268.41
584.889	55483.99
585.249	55283.32
585.609	55234.73
585.969	55434.28
586.329	55254.62
586.688	55388.18
587.048	55294.39
587.408	55410.77
587.768	55406.93
588.127	55358.35
588.487	55345.24
588.846	55546.36
589.206	55248.07
589.565	55457.33
589.925	55519.47
590.284	55521.51
590.643	55506.14
591.003	55601.5
591.362	55729.41
591.721	55656.64
592.08	55676.53
592.44	55790.65
592.799	55771.67
593.158	55747.71
593.517	55752.46
593.876	55831.78
594.235	55761.5
594.593	55793.59
594.952	55917.43
595.311	55874.04
595.67	55853.7
596.029	56059.35
596.387	56043.75
596.746	56092.79
597.104	55981.38
597.463	56014.83
597.822	56129.85
598.18	56039.23
598.538	55994.94
598.897	56118.55
599.255	55857.54
599.613	56268.38
599.972	56017.99
600.33	56171.43
600.688	56036.75
601.046	56132.11
601.404	56156.52
601.762	56102.06
602.12	56233.8
602.478	56157.65
602.836	56156.07
603.194	55963.3
603.552	56021.15
603.91	55917.2
604.268	56128.95
604.625	56008.5
604.983	56079.68
605.341	55966.92
605.698	56161.26
606.056	56144.54
606.413	56068.61
606.771	56212.34
607.128	56290.07
607.485	56125.11
607.843	56130.76
608.2	56305.67
608.557	56432.22
608.914	56296.63
609.272	56429.73
609.629	56509.95
609.986	56550.86
610.343	56443.97
610.7	56631.08
611.057	56601.25
611.414	56613.68
611.771	56636.96
612.127	56742.72
612.484	56797.18
612.841	56819.55
613.198	56808.25
613.554	56786.33
613.911	56913.56
614.267	56936.38
614.624	56916.05
614.98	57022.71
615.337	57193.55
615.693	57089.37
616.05	57104.29
616.406	57209.15
616.762	57109.94
617.118	57165.76
617.475	57200.33
617.831	57330.27
618.187	57288.69
618.543	57396.49
618.899	57474.45
619.255	57355.58
619.611	57463.83
619.967	57529.82
620.323	57529.82
620.678	57407.33
621.034	57337.73
621.39	57369.82
621.746	57316.94
622.101	57572.53
622.457	57310.16
622.812	57414.34
623.168	57474.22
623.523	57476.26
623.879	57500.66
624.234	57314.91
624.589	57385.86
624.945	57419.54
625.3	57356.03
625.655	57356.03
626.01	57338.18
626.365	57340.44
626.72	57311.06
627.075	57283.04
627.43	57214.34
627.785	57182.48
628.14	57188.36
628.495	57200.78
628.85	57161.92
629.205	57149.26
629.559	57307.45
629.914	57093.89
630.269	57190.84
630.623	57008.47
630.978	56918.53
631.332	57134.57
631.687	57138.86
632.041	56987.23
632.396	57026.33
632.75	56971.86
633.104	57060.67
633.459	56879.89
633.813	56813.9
634.167	56904.97
634.521	56852.54
634.875	56908.36
635.229	56852.77
635.583	56689.84
635.937	56762.6
636.291	56745.2
636.645	56821.81
636.999	56680.35
637.352	56817.97
637.706	56576.39
638.06	56753.79
638.413	56619.33
638.767	56566.68
639.121	56640.57
639.474	56511.31
639.828	56499.79
640.181	56543.4
640.534	56535.26
640.888	56483.29
641.241	56372.33
641.594	56413.23
641.947	56499.11
642.301	56415.49
642.654	56365.55
643.007	56367.13
643.36	56295.05
643.713	56252.79
644.066	56271.09
644.419	56121.04
644.771	55992.23
645.124	55717.43
645.477	55622.07
645.83	55587.04
646.182	55481.28
646.535	55385.46
646.888	55330.78
647.24	55151.12
647.593	55295.75
647.945	55333.71
648.298	55058.47
648.65	55037
649.002	54980.96
649.355	55149.31
649.707	55086.94
650.059	55097.11
650.411	55486.25
650.763	55472.47
651.115	55767.38
651.467	55653.48
651.819	55620.03
652.171	55516.31
652.523	55479.93
652.875	55425.92
653.227	55318.35
653.578	55626.81
653.93	55423.88
654.282	55316.31
654.633	55279.03
654.985	55330.32
655.337	55302.3
655.688	55320.38
656.039	55345.92
656.391	55123.78
656.742	55206.94
657.094	55219.37
657.445	55271.12
657.796	55127.17
658.147	55004.01
658.498	55022.31
658.849	55175.07
659.2	55090.11
659.551	54919.04
659.902	55025.7
660.253	55053.04
660.604	55078.58
660.955	54943.22
661.306	54981.63
661.656	54910
662.007	54890.56
662.358	54957.45
662.708	54889.43
663.059	54850.11
663.409	54766.27
663.76	54830.9
664.11	54894.4
664.461	54907.06
664.811	54828.87
665.161	54869.09
665.511	54804.24
665.862	54859.38
666.212	54829.1
666.562	54916.1
666.912	54797.91
667.262	54754.97
667.612	54773.05
667.962	54790.45
668.312	54740.74
668.662	54798.36
669.011	54701.87
669.361	54672.04
669.711	54678.59
670.06	54642.89
670.41	54627.07
670.76	54533.06
671.109	54600.63
671.459	54582.32
671.808	54475.43
672.157	54584.58
672.507	54380.75
672.856	54415.32
673.205	54496.9
673.554	54619.38
673.904	54426.85
674.253	54573.28
674.602	54464.58
674.951	54005.84
675.3	53951.38
675.649	54354.53
675.998	54318.83
676.346	54325.83
676.695	54470.46
677.044	54185.72
677.393	54249.45
677.741	54281.31
678.09	54211.71
678.438	54088.55
678.787	54183.24
679.135	54053.3
679.484	53827.09
679.832	53943.69
680.181	53721.55
680.529	53736.47
680.877	53719.29
681.225	53737.82
681.573	53820.76
681.922	53581.44
682.27	53520.2
682.618	53490.37
682.966	53467.1
683.314	53478.17
683.661	53357.5
684.009	53296.93
684.357	53159.08
684.705	53146.88
685.053	53122.7
685.4	53072.76
685.748	52915.02
686.095	52858.75
686.443	52751.18
686.79	52660.11
687.138	52736.95
687.485	52685.65
687.832	52498.53
688.18	52519.1
688.527	52258.77
688.874	52410.85
689.221	52177.87
689.568	52217.41
689.915	51973.58
690.262	52018.1
690.609	51957.98
690.956	51709.4
691.303	51822.85
691.65	51579.01
691.997	51676.86
692.344	51470.31
692.69	51433.03
693.037	51391.22
693.383	51133.15
693.73	51267.83
694.077	51008.63
694.423	50980.38
694.769	50897
695.116	50884.57
695.462	50892.48
695.808	50857
696.155	50822.42
696.501	50610.67
696.847	50561.41
697.193	50257.01
697.539	50393.96
697.885	50183.79
698.231	50074.64
698.577	50187.41
698.923	49972.95
699.269	49877.36
699.614	49843.24
699.96	49791.71
700.306	49775.44
700.651	49551.72
700.997	49461.78
701.342	49335.45
701.688	49460.2
702.033	49332.52
702.379	49146.08
702.724	49193.99
703.069	49168.23
703.415	48685.53
703.76	48813.43
704.105	48849.14
704.45	48680.33
704.795	48561.92
705.14	48351.53
705.485	48330.28
705.83	48116.05
706.175	48250.06
706.52	48180.23
706.865	48010.29
707.209	48038.77
707.554	47971.2
707.899	47914.93
708.243	47598.78
708.588	47637.19
708.932	47286.69
709.277	47448.05
709.621	47363.75
709.966	47185.23
710.31	47207.83
710.654	46893.03
710.998	46994.5
711.342	46945.23
711.687	46853.03
712.031	46677.9
712.375	46465.47
712.719	46519.48
713.063	46510.67
713.407	46341.63
713.75	46200.17
714.094	46239.26
714.438	45848.77
714.782	46096.67
715.125	45821.87
715.469	45719.5
715.812	45579.17
716.156	45307.31
716.499	45268.89
716.843	45346.41
717.186	45123.36
717.53	45313.41
717.873	45115.45
718.216	45139.86
718.559	44884.27
718.902	44546.2
719.246	44642.24
719.589	44542.36
719.932	44329.94
720.275	44294.46
720.617	44101.02
720.96	44198.64
721.303	44037.97
721.646	44108.47
721.989	43812.89
722.331	43945.09
722.674	43834.58
723.016	43792.78
723.359	43548.26
723.701	43702.61
724.044	43435.27
724.386	43166.35
724.729	43318.21
725.071	43172.9
725.413	43271.66
725.755	43106.92
726.097	42940.14
726.439	42713.71
726.782	42646.59
727.124	42921.16
727.465	42727.72
727.807	42695.18
728.149	42479.14
728.491	42273.04
728.833	42322.31
729.175	42090.9
729.516	42221.06
729.858	42113.5
730.199	42132.25
730.541	42138.81
730.882	41941.98
731.224	42068.07
731.565	41604.81
731.906	41746.73
732.248	41715.32
732.589	41680.97
732.93	41598.48
733.271	41538.6
733.612	41593.51
733.953	41676.9
734.294	41393.97
734.635	41381.09
734.976	41629.22
735.317	41253.86
735.658	41278.94
735.999	41213.86
736.339	41149.23
736.68	41139.29
737.021	41153.3
737.361	40923.25
737.702	41040.08
738.042	40978.39
738.383	40793.76
738.723	40851.38
739.063	40667.21
739.404	40851.84
739.744	40611.62
740.084	40562.8
740.424	40695.46
740.764	40569.36
741.104	40481
741.444	40344.5
741.784	40246.2
742.124	40282.81
742.464	40358.06
742.804	40340.21
743.143	40114.23
743.483	40109.26
743.823	39833.33
744.162	39966.89
744.502	39929.37
744.841	39763.5
745.181	39813.9
745.52	39637.4
745.86	39814.35
746.199	39689.61
746.538	39488.03
746.877	39539.1
747.216	39500.23
747.556	39431.31
747.895	39379.78
748.234	39143.18
748.573	39108.6
748.911	39007.59
749.25	39076.97
749.589	38848.5
749.928	38785.45
750.267	38862.28
750.605	38596.98
750.944	38758.56
751.283	38529.41
751.621	38599.24
751.96	38211.45
752.298	38413.26
752.636	38298.91
752.975	38107.5
753.313	38018.24
753.651	38075.41
753.989	37939.6
754.327	37803.78
754.666	37556.1
755.004	37739.83
755.342	37653.95
755.679	37406.95
756.017	37224.36
756.355	37433.85
756.693	37192.95
757.031	37298.71
757.368	37066.85
757.706	36952.73
758.044	36901.43
758.381	37020.3
758.719	36709.8
759.056	36776.91
759.394	36571.5
759.731	36275.68
760.068	36224.84
760.405	36058.29
760.743	35932.19
761.08	35965.41
761.417	35858.29
761.754	35741.69
762.091	35590.05
762.428	35536.27
762.765	35392.77
763.102	35549.83
763.438	35153.23
763.775	35073.46
764.112	35044.3
764.449	34971.99
764.785	34799.57
765.122	34547.59
765.458	34531.55
765.795	34355.74
766.131	34277.32
766.467	34251.56
766.804	34023.54
767.14	33937.44
767.476	33815.86
767.812	33729.54
768.148	33793.04
768.485	33491.13
768.821	33320.06
769.157	33181.75
769.492	33286.16
769.828	33004.13
770.164	32861.54
770.5	32738.6
770.836	32652.5
771.171	32534.09
771.507	32450.02
771.842	32281.67
772.178	32192.63
772.513	32205.28
772.849	31998.06
773.184	31791.28
773.519	31740.21
773.855	31555.13
774.19	31408.02
774.525	31336.15
774.86	31376.83
775.195	31310.17
775.53	31097.29
775.865	30897.07
776.2	30748.6
776.535	30536.4
776.87	30413.01
777.205	30376.18
777.539	30156.75
777.874	30313.13
778.209	30079.24
778.543	29977.32
778.878	29758.57
779.212	29852.58
779.547	29702.07
779.881	29538.91
780.215	29471.57
780.55	29471.8
780.884	29207.85
781.218	29213.27
781.552	29122.88
781.886	28949.78
782.22	28748.42
782.554	28728.09
782.888	28409
783.222	28430.24
783.556	28252.17
783.889	28237.93
784.223	28019.18
784.557	28016.01
784.89	28070.25
785.224	27847.88
785.557	27672.97
785.891	27700.09
786.224	27526.08
786.558	27563.37
786.891	27298.75
787.224	27186.66
787.557	27158.18
787.891	27182.82
788.224	26978.53
788.557	27051.29
788.89	26967.45
789.223	26986.44
789.556	26785.54
789.888	26644.07
790.221	26499.44
790.554	26374.48
790.887	26430.52
791.219	26368.83
791.552	26155.5
791.884	26026.24
792.217	26009.29
792.549	26001.15
792.882	25871.44
793.214	25781.05
793.546	25799.58
793.879	25603.65
794.211	25520.71
794.543	25654.49
794.875	25378.57
795.207	25558
795.539	25401.17
795.871	25383.54
796.203	25057.67
796.535	25040.05
796.867	24982.42
797.198	24943.33
797.53	24924.34
797.862	24673.96
798.193	24852.03
798.525	24607.74
798.856	24578.59
799.188	24330.01
799.519	24160.52
799.85	24239.16
800.182	24129.34
800.513	24173.86
800.844	23884.15
801.175	24045.72
801.506	23945.61
801.837	23862
802.168	23814.09
802.499	23638.5
802.83	23560.31
803.161	23538.84
803.491	23433.08
803.822	23499.07
804.153	23395.35
804.483	23203.03
804.814	23126.65
805.145	23118.29
805.475	23076.48
805.805	23063.15
806.136	23003.72
806.466	22887.11
806.796	22817.73
807.126	22672.43
807.457	22600.11
807.787	22596.27
808.117	22521.7
808.447	22339.78
808.777	22508.36
809.107	22307.69
809.436	22216.17
809.766	22172.33
810.096	22008.26
810.426	21941.6
810.755	22170.52
811.085	21993.8
811.414	21926.91
811.744	21748.61
812.073	21642.4
812.403	21561.95
812.732	21546.13
813.061	21616.86
813.39	21361.05
813.719	21240.15
814.049	21335.06
814.378	21286.7
814.707	21226.59
815.036	21142.07
815.365	21077.67
815.693	20884.9
816.022	20946.6
816.351	20676.32
816.68	20576.44
817.008	20657.79
817.337	20571.46
817.665	20473.39
817.994	20466.83
818.322	20507.51
818.651	20393.39
818.979	20228.42
819.307	20288.53
819.636	20208.99
819.964	20115.66
820.292	20097.8
820.62	20063
820.948	20079.5
821.276	20008.77
821.604	20087.41
821.932	20064.59
822.259	20087.18
822.587	20088.77
822.915	19974.64
823.243	19972.61
823.57	19886.96
823.898	20019.16
824.225	20020.74
824.553	19990.92
824.88	20010.8
825.207	20033.17
825.535	19951.82
825.862	20088.99
826.189	19958.6
826.516	19966.73
826.843	20121.08
827.17	20072.04
827.497	20079.5
827.824	20023.91
828.151	20150.01
828.478	19977.81
828.805	20114.75
829.131	19952.05
829.458	19962.22
829.785	19897.81
830.111	20133.28
830.438	20181.87
830.764	20078.82
831.09	20172.83
831.417	19948.2
831.743	20057.81
832.069	20104.13
832.395	19954.98
832.722	20030.46
833.048	20032.5
833.374	20032.04
833.7	19974.64
834.026	19971.93
834.351	19946.17
834.677	20061.65
835.003	20125.15
835.329	19971.71
835.654	20048.31
835.98	19949.33
836.306	20032.5
836.631	19926.51
836.956	19974.19
837.282	19931.26
837.607	19851.26
837.932	19874.99
838.258	19834.76
838.583	19871.14
838.908	19691.04
839.233	19813.74
839.558	19727.42
839.883	19615.11
840.208	19484.04
840.533	19514.32
840.858	19624.15
841.182	19476.58
841.507	19581.43
841.832	19484.04
842.156	19384.38
842.481	19356.13
842.805	19289.24
843.13	19283.59
843.454	19291.95
843.778	19125.18
844.103	19104.16
844.427	19129.47
844.751	19091.28
845.075	18921.34
845.399	18844.05
845.723	18745.75
846.047	18799.08
846.371	18730.16
846.695	18659.42
847.019	18512.08
847.343	18483.84
847.666	18257.85
847.99	18293.33
848.313	18235.25
848.637	18117.29
848.96	18029.84
849.284	18073.23
849.607	17787.36
849.931	17826.45
850.254	17696.74
850.577	17556.18
850.9	17393.47
851.223	17385.33
851.546	17365.67
851.869	17204.1
852.192	17280.7
852.515	17135.62
852.838	17096.75
853.161	16898.34
853.483	16867.83
853.806	16833.03
854.129	16851.56
854.451	16758.01
854.774	16640.27
855.096	16533.83
855.419	16488.63
855.741	16446.6
856.063	16353.95
856.385	16291.35
856.708	16250
857.03	16114.86
857.352	16169.55
857.674	15998.93
857.996	16004.13
858.318	15937.24
858.64	15920.74
858.961	15904.24
859.283	15800.52
859.605	15762.78
859.926	15784.25
860.248	15667.41
860.57	15645.49
860.891	15556.46
861.212	15556
861.534	15473.52
861.855	15382.45
862.176	15414.31
862.498	15440.07
862.819	15320.98
863.14	15213.64
863.461	15207.09
863.782	15170.7
864.103	15206.41
864.424	15084.15
864.745	15102.23
865.065	15045.51
865.386	15051.38
865.707	15005.74
866.027	14980.88
866.348	14901.11
866.668	15028.56
866.989	14875.34
867.309	14788.57
867.63	14900.65
867.95	14812.75
868.27	14689.13
868.59	14802.12
868.91	14867.43
869.23	14798.06
869.55	14673.99
869.87	14780.2
870.19	14729.13
870.51	14771.39
870.83	14705.86
871.15	14688.46
871.469	14673.99
871.789	14647.1
872.109	14677.16
872.428	14599.64
872.748	14539.08
873.067	14584.05
873.386	14600.1
873.706	14572.53
874.025	14459.99
874.344	14357.16
874.663	14473.77
874.982	14492.98
875.301	14474.68
875.62	14476.48
875.939	14470.61
876.258	14445.3
876.577	14452.76
876.896	14398.29
877.214	14341.57
877.533	14406.2
877.852	14275.13
878.17	14357.16
878.489	14371.4
878.807	14246.89
879.125	14336.37
879.444	14387.22
879.762	14332.31
880.08	14258.64
880.398	14161.46
880.716	14171.86
881.034	14154.91
881.352	14140.45
881.67	14077.17
881.988	14191.75
882.306	14151.97
882.624	14052.99
882.941	14010.28
883.259	13959.44
883.577	14010.73
883.894	13920.11
884.212	13881.47
884.529	13960.34
884.846	13912.2
885.164	13877.4
885.481	13832.43
885.798	13904.07
886.115	13758.76
886.432	13772.32
886.75	13684.64
887.067	13694.58
887.383	13640.12
887.7	13669.27
888.017	13673.12
888.334	13639.22
888.651	13599.44
888.967	13618.88
889.284	13406.91
889.6	13504.98
889.917	13309.73
890.233	13358.77
890.55	13368.94
890.866	13355.38
891.182	13216.63
891.498	13237.87
891.815	13232
892.131	13164.88
892.447	13076.29
892.763	13059.57
893.079	13085.11
893.395	12949.29
893.71	12928.73
894.026	12961.04
894.342	12848.73
894.657	12818.22
894.973	12747.49
895.289	12756.3
895.604	12746.59
895.92	12618.91
896.235	12606.7
896.55	12586.36
896.865	12457.55
897.181	12530.55
897.496	12476.54
897.811	12359.48
898.126	12427.95
898.441	12284
898.756	12279.03
899.071	12216.43
899.386	12172.14
899.7	11957
900.015	11965.14
900.33	11874.97
900.644	11902.31
900.959	11881.98
901.273	11857.12
901.588	11661.87
901.902	11656.9
902.216	11685.82
902.531	11641.53
902.845	11496.9
903.159	11462.33
903.473	11494.64
903.787	11308.21
904.101	11322.44
904.415	11301.43
904.729	11260.3
905.042	11239.51
905.356	11128.32
905.67	11099.85
905.984	11130.13
906.297	11009.68
906.611	10949.12
906.924	11016.24
907.237	10876.8
907.551	10848.56
907.864	10728.79
908.177	10672.97
908.491	10646.08
908.804	10619.41
909.117	10503.25
909.43	10477.49
909.743	10440.88
910.056	10319.53
910.368	10334.67
910.681	10288.8
910.994	10303.71
911.307	10235.47
911.619	10175.58
911.932	10139.2
912.244	10093.77
912.557	10054
912.869	9958.64
913.181	9941.24
913.494	9917.28
913.806	9870.96
914.118	9892.65
914.43	9704.41
914.742	9793.22
915.054	9671.64
915.366	9681.13
915.678	9677.06
915.99	9575.14
916.302	9560.91
916.613	9515.71
916.925	9438.65
917.236	9465.99
917.548	9437.29
917.859	9463.28
918.171	9344.19
918.482	9331.08
918.794	9258.09
919.105	9209.05
919.416	9150.52
919.727	9148.49
920.038	9107.81
920.349	9077.98
920.66	9028.04
920.971	8954.14
921.282	8997.31
921.593	8873.92
921.903	8859.91
922.214	8842.51
922.525	8803.86
922.835	8783.3
923.146	8773.58
923.456	8749.63
923.767	8707.14
924.077	8636.19
924.387	8605.23
924.697	8522.97
925.008	8553.7
925.318	8513.7
925.628	8463.53
925.938	8475.29
926.248	8427.6
926.558	8339.02
926.867	8352.35
927.177	8287.04
927.487	8270.32
927.796	8252.01
928.106	8220.15
928.416	8134.96
928.725	8166.82
929.034	8057.9
929.344	8098.35
929.653	8045.69
929.962	7968.41
930.271	7940.16
930.581	7889.76
930.89	7915.75
931.199	7829.65
931.508	7831.91
931.817	7749.65
932.125	7760.5
932.434	7746.04
932.743	7650.67
933.051	7691.8
933.36	7619.49
933.669	7598.47
933.977	7538.81
934.286	7457.46
934.594	7490.9
934.902	7427.18
935.21	7384.01
935.519	7415.2
935.827	7396.9
936.135	7336.78
936.443	7267.63
936.751	7265.83
937.059	7297.92
937.367	7153.74
937.674	7204.58
937.982	7104.25
938.29	7127.07
938.597	7069.45
938.905	7050.24
939.213	7052.05
939.52	7027.19
939.827	7066.96
940.135	6998.26
940.442	6941.99
940.749	6906.29
941.056	6922.56
941.363	6825.61
941.67	6815.67
941.977	6776.12
942.284	6688.44
942.591	6698.61
942.898	6672.17
943.205	6714.65
943.511	6662.45
943.818	6650.7
944.125	6592.85
944.431	6549.69
944.738	6586.3
945.044	6473.08
945.35	6429.69
945.657	6415
945.963	6389.46
946.269	6386.08
946.575	6362.8
946.881	6392.63
947.187	6284.38
947.493	6310.14
947.799	6276.25
948.105	6262.69
948.41	6222.01
948.716	6198.74
949.022	6147.89
949.327	6180.2
949.633	6059.08
949.938	6143.14
950.244	6064.5
950.549	5975.69
950.854	5971.17
951.16	5972.07
951.465	5901.57
951.77	5860.67
952.075	5843.72
952.38	5848.01
952.685	5838.52
952.99	5792.64
953.294	5784.06
953.599	5753.55
953.904	5715.13
954.209	5650.73
954.513	5683.72
954.818	5608.92
955.122	5653.21
955.426	5546.78
955.731	5565.98
956.035	5491.64
956.339	5516.72
956.643	5455.03
956.948	5396.5
957.252	5399.89
957.556	5372.32
957.86	5394.01
958.163	5377.51
958.467	5345.65
958.771	5323.28
959.075	5276.05
959.378	5293.9
959.682	5303.39
959.985	5248.93
960.289	5214.81
960.592	5171.19
960.896	5151.08
961.199	5149.95
961.502	5094.58
961.805	5127.35
962.108	5060.23
962.411	5052.55
962.714	5024.75
963.017	5005.77
963.32	4937.53
963.623	4969.62
963.926	4935.72
964.228	4929.16
964.531	4920.8
964.833	4884.65
965.136	4842.84
965.438	4819.56
965.741	4811.88
966.043	4753.12
966.345	4776.4
966.648	4742.5
966.95	4742.5
967.252	4667.7
967.554	4662.28
967.856	4683.97
968.158	4615.27
968.46	4603.07
968.761	4588.16
969.063	4552.68
969.365	4587.93
969.666	4514.03
969.968	4508.16
970.269	4481.72
970.571	4485.79
970.872	4488.27
971.174	4413.02
971.475	4374.15
971.776	4427.03
972.077	4382.29
972.378	4322.63
972.679	4321.04
972.98	4371.66
973.281	4293.93
973.582	4274.04
973.883	4236.98
974.183	4219.8
974.484	4186.36
974.785	4202.86
975.085	4149.07
975.386	4231.33
975.686	4134.38
975.986	4132.57
976.287	4126.47
976.587	4039.02
976.887	4062.29
977.187	3985.23
977.487	4001.73
977.787	3992.24
978.087	3953.82
978.387	4002.86
978.687	3959.25
978.987	3868.4
979.286	3859.59
979.586	3876.76
979.885	3829.76
980.185	3842.64
980.484	3794.73
980.784	3800.61
981.083	3803.32
981.382	3723.55
981.682	3751.12
981.981	3731.23
982.28	3728.52
982.579	3663.89
982.878	3701.63
983.177	3627.5
983.475	3611.01
983.774	3625.92
984.073	3582.53
984.372	3550.22
984.67	3546.83
984.969	3529.2
985.267	3531.69
985.566	3484.68
985.864	3507.28
986.162	3441.52
986.461	3459.6
986.759	3426.6
987.057	3443.78
987.355	3387.28
987.653	3385.7
987.951	3380.05
988.249	3346.15
988.547	3384.57
988.844	3341.86
989.142	3302.09
989.44	3318.59
989.737	3272.48
990.035	3281.3
990.332	3249.89
990.63	3224.58
990.927	3209.21
991.224	3218.93
991.521	3197.23
991.819	3167.85
992.116	3167.18
992.413	3168.08
992.71	3148.65
993.006	3129.66
993.303	3112.04
993.6	3099.61
993.897	3074.75
994.193	3045.6
994.49	3098.7
994.787	3031.36
995.083	3029.33
995.379	3042.43
995.676	2994.98
995.972	2975.32
996.268	2946.62
996.565	2957.24
996.861	2915.66
997.157	2940.52
997.453	2892.38
997.749	2875.66
998.044	2847.64
998.34	2876.56
998.636	2850.8
998.932	2818.26
999.227	2814.19
999.523	2819.39
999.818	2819.84
1000.114	2788.88
1000.409	2783.91
1000.704	2757.92
1001	2742.56
1001.295	2727.64
1001.59	2676.12
1001.885	2657.36
1002.18	2682.67
1002.475	2661.88
1002.77	2663.01
1003.065	2602.22
1003.359	2629.11
1003.654	2595.44
1003.949	2604.93
1004.243	2594.99
1004.538	2538.49
1004.832	2544.59
1005.127	2524.26
1005.421	2563.12
1005.715	2502.56
1006.009	2481.09
1006.304	2474.31
1006.598	2449.23
1006.892	2468.44
1007.186	2422.11
1007.48	2406.97
1007.773	2406.07
1008.067	2416.24
1008.361	2377.14
1008.655	2317.48
1008.948	2359.06
1009.242	2365.39
1009.535	2310.48
1009.829	2364.03
1010.122	2268.22
1010.415	2264.38
1010.708	2269.12
1011.001	2248.56
1011.295	2250.14
1011.588	2254.66
1011.881	2231.61
1012.173	2213.76
1012.466	2199.07
1012.759	2203.13
1013.052	2196.13
1013.344	2145.96
1013.637	2143.93
1013.93	2131.72
1014.222	2171.72
1014.514	2131.5
1014.807	2088.11
1015.099	2099.41
1015.391	2089.24
1015.683	2075.45
1015.976	2048.56
1016.268	2052.86
1016.56	2018.05
1016.851	2009.47
1017.143	2002.24
1017.435	1996.13
1017.727	1953.65
1018.018	1945.74
1018.31	1917.94
1018.602	1934.67
1018.893	1890.15
1019.185	1901
1019.476	1913.2
1019.767	1864.61
1020.058	1891.96
1020.35	1894.89
1020.641	1835.91
1020.932	1814.44
1021.223	1831.17
1021.514	1812.41
1021.804	1790.49
1022.095	1779.42
1022.386	1789.13
1022.677	1751.17
1022.967	1725.18
1023.258	1733.99
1023.548	1730.15
1023.839	1701.45
1024.129	1702.81
1024.419	1682.7
1024.709	1678.63
1025	1665.52
1025.29	1678.18
1025.58	1614.68
1025.87	1629.14
1026.16	1623.26
1026.449	1649.7
1026.739	1600.66
1027.029	1611.51
1027.319	1586.65
1027.608	1548.01
1027.898	1559.76
1028.187	1551.63
1028.477	1479.99
1028.766	1525.19
1029.055	1478.86
1029.344	1478.86
1029.634	1509.59
1029.923	1461.01
1030.212	1458.29
1030.501	1466.66
1030.79	1420.1
1031.078	1452.87
1031.367	1413.55
1031.656	1427.34
1031.945	1396.38
1032.233	1391.86
1032.522	1408.58
1032.81	1367.45
1033.099	1359.54
1033.387	1333.78
1033.675	1337.62
1033.963	1315.47
1034.251	1358.41
1034.54	1319.09
1034.828	1332.2
1035.116	1321.35
1035.403	1300.33
1035.691	1299.66
1035.979	1291.07
1036.267	1264.85
1036.554	1268.47
1036.842	1266.44
1037.129	1243.61
1037.417	1228.02
1037.704	1248.58
1037.992	1226.66
1038.279	1207.23
1038.566	1206.78
1038.853	1206.78
1039.14	1206.78
