Data from White_paper_FLMS001491_030.txt Node
Date: Tue Feb 07 10:34:53 GMT 2017
User: dcchb
Spectrometer: FLMS00149
Trigger mode: 0
Integration Time (sec): 2.000000E-2
Scans to average: 10
Electric dark correction enabled: true
Nonlinearity correction enabled: false
Boxcar width: 0
XAxis mode: Wavelengths
Number of Pixels in Spectrum: 2048
>>>>>Begin Spectral Data<<<<<
341.393	-1.85
341.776	-1.85
342.16	-1.85
342.543	-59.25
342.927	-53.15
343.31	-44.79
343.693	-71.23
344.077	-59.02
344.46	-60.61
344.843	-64
345.226	-44.33
345.61	-31.23
345.993	-19.7
346.376	-4.79
346.759	15.32
347.142	25.04
347.525	55.55
347.908	53.52
348.291	57.13
348.674	77.7
349.057	115.43
349.44	135.77
349.823	146.17
350.206	155.21
350.588	226.84
350.971	234.98
351.354	265.26
351.737	265.94
352.119	279.95
352.502	292.38
352.884	308.65
353.267	293.74
353.65	344.13
354.032	338.03
354.414	347.97
354.797	359.5
355.179	359.27
355.562	365.15
355.944	350.91
356.326	368.08
356.709	361.53
357.091	398.59
357.473	372.83
357.855	374.64
358.238	383.9
358.62	382.32
359.002	381.19
359.384	377.57
359.766	368.08
360.148	379.83
360.53	371.25
360.912	392.26
361.294	381.19
361.676	377.12
362.057	390.68
362.439	376.9
362.821	363.79
363.203	365.15
363.584	384.58
363.966	368.31
364.348	351.59
364.729	372.6
365.111	375.99
365.493	361.76
365.874	370.8
366.256	356.11
366.637	359.95
367.019	362.43
367.4	373.06
367.781	357.01
368.163	350.46
368.544	355.2
368.925	362.43
369.306	371.7
369.688	371.93
370.069	370.12
370.45	372.15
370.831	370.8
371.212	372.6
371.593	364.02
371.974	373.28
372.355	365.6
372.736	373.73
373.117	374.86
373.498	381.42
373.879	363.56
374.26	361.53
374.641	375.54
375.021	378.25
375.402	393.85
375.783	364.47
376.163	387.52
376.544	395.65
376.925	395.2
377.305	384.13
377.686	399.95
378.066	385.03
378.447	423.45
378.827	404.01
379.208	404.24
379.588	404.69
379.968	394.52
380.349	421.42
380.729	401.98
381.109	416.44
381.489	427.29
381.87	420.29
382.25	416.9
382.63	413.73
383.01	408.53
383.39	418.7
383.77	436.78
384.15	433.17
384.53	464.8
384.91	458.25
385.29	479.49
385.67	462.54
386.049	437.69
386.429	460.28
386.809	441.53
387.189	448.76
387.568	468.42
387.948	465.71
388.328	475.88
388.707	486.27
389.087	478.14
389.466	467.06
389.846	522.43
390.225	491.92
390.605	499.83
390.984	484.01
391.363	511.13
391.743	520.17
392.122	527.85
392.501	540.73
392.881	543.67
393.26	524.92
393.639	528.98
394.018	535.08
394.397	535.31
394.776	563.78
395.155	560.62
395.534	552.49
395.913	558.59
396.292	576.44
396.671	576.67
397.05	574.18
397.429	580.51
397.808	586.83
398.186	591.58
398.565	610.79
398.944	608.98
399.323	602.43
399.701	627.51
400.08	634.52
400.458	641.3
400.837	641.07
401.215	641.75
401.594	683.56
401.972	673.84
402.351	692.82
402.729	695.98
403.107	732.14
403.486	706.15
403.864	710.45
404.242	739.6
404.62	747.96
404.999	773.5
405.377	781.63
405.755	795.87
406.133	793.84
406.511	814.63
406.889	818.92
407.267	849.2
407.645	862.76
408.023	874.51
408.401	895.98
408.779	912.48
409.156	971.23
409.534	970.33
409.912	1002.19
410.29	1017.11
410.667	1044.9
411.045	1070.44
411.422	1070.21
411.8	1102.08
412.178	1140.27
412.555	1192.47
412.933	1173.03
413.31	1217.78
413.687	1263.65
414.065	1265.91
414.442	1308.4
414.819	1347.27
415.197	1366.7
415.574	1385.01
415.951	1410.77
416.328	1418.23
416.705	1450.99
417.082	1464.33
417.46	1520.37
417.837	1539.58
418.214	1574.38
418.591	1592.46
418.967	1589.97
419.344	1613.47
419.721	1674.26
420.098	1699.12
420.475	1708.61
420.852	1724.43
421.228	1779.8
421.605	1802.17
421.982	1814.37
422.358	1847.82
422.735	1859.57
423.111	1883.3
423.488	1924.88
423.864	1954.93
424.241	1965.33
424.617	2014.82
424.994	2032.9
425.37	2036.74
425.746	2065.44
426.123	2102.95
426.499	2110.41
426.875	2158.32
427.251	2139.34
427.627	2200.35
428.003	2264.3
428.379	2288.03
428.756	2273.12
429.132	2369.16
429.507	2369.84
429.883	2419.33
430.259	2478.99
430.635	2490.51
431.011	2490.29
431.387	2610.28
431.763	2650.51
432.138	2640.79
432.514	2695.25
432.89	2726.21
433.265	2796.95
433.641	2810.73
434.016	2834.69
434.392	2889.83
434.767	2963.95
435.143	2978.18
435.518	2939.77
435.894	3021.8
436.269	3078.07
436.644	3073.32
437.02	3161.91
437.395	3161.46
437.77	3218.86
438.145	3239.87
438.52	3274.9
438.895	3315.58
439.271	3316.48
439.646	3414.78
440.021	3401.45
440.395	3433.54
440.77	3417.27
441.145	3463.14
441.52	3485.29
441.895	3528.68
442.27	3595.8
442.645	3569.36
443.019	3631.05
443.394	3664.27
443.769	3660.2
444.143	3650.94
444.518	3725.51
444.892	3725.74
445.267	3756.7
445.641	3828.33
446.016	3828.11
446.39	3836.92
446.764	3860.2
447.139	3835.79
447.513	3951.27
447.887	3924.6
448.262	3925.28
448.636	4003.47
449.01	4002.34
449.384	4031.26
449.758	4094.99
450.132	4140.64
450.506	4142
450.88	4170.24
451.254	4189.9
451.628	4207.53
452.002	4273.29
452.376	4313.06
452.75	4362.55
453.123	4401.65
453.497	4481.65
453.871	4465.6
454.244	4537.01
454.618	4593.06
454.992	4676.22
455.365	4667.86
455.739	4794.41
456.112	4810
456.486	4903.78
456.859	4894.97
457.232	4968.87
457.606	4980.84
457.979	5123.21
458.352	5125.7
458.725	5246.37
459.099	5239.37
459.472	5340.83
459.845	5326.82
460.218	5418.12
460.591	5542.64
460.964	5542.41
461.337	5663.54
461.71	5742.63
462.083	5845.23
462.456	5818.34
462.829	5818.34
463.201	5949.18
463.574	6038.44
463.947	6058.33
464.32	6196.86
464.692	6253.8
465.065	6297.87
465.438	6351.2
465.81	6510.75
466.183	6529.96
466.555	6723.85
466.928	6782.83
467.3	6777.18
467.672	6865.77
468.045	7018.53
468.417	7100.56
468.789	7073.44
469.161	7245.87
469.534	7320.9
469.906	7528.12
470.278	7498.07
470.65	7584.62
471.022	7799.3
471.394	7883.59
471.766	8014.21
472.138	8067.99
472.51	8234.32
472.882	8368.78
473.253	8425.05
473.625	8564.93
473.997	8784.13
474.369	8794.53
474.74	8962.21
475.112	9048.31
475.484	9254.4
475.855	9354.74
476.227	9563.32
476.598	9726.03
476.97	9779.81
477.341	10023.2
477.713	10168.96
478.084	10245.56
478.455	10534.37
478.827	10618.21
479.198	10822.27
479.569	10966.9
479.94	11179.55
480.311	11311.07
480.682	11584.74
481.053	11841.23
481.424	11995.12
481.795	12086.19
482.166	12327.32
482.537	12420.2
482.908	12723.69
483.279	12756.46
483.65	13002.78
484.021	13322.32
484.391	13459.72
484.762	13574.52
485.133	13660.39
485.503	13948.74
485.874	14206.14
486.244	14287.72
486.615	14618.78
486.985	14798.66
487.356	15074.82
487.726	15122.27
488.097	15515.03
488.467	15412.66
488.837	15822.82
489.207	15969.26
489.578	16236.59
489.948	16375.8
490.318	16548
490.688	16592.29
491.058	16880.19
491.428	17026.18
491.798	17182.78
492.168	17574.41
492.538	17618.03
492.908	17824.57
493.278	18065.47
493.648	18130.1
494.017	18321.06
494.387	18507.95
494.757	18712.91
495.126	18888.95
495.496	18876.07
495.866	19024.54
496.235	19306.12
496.605	19401.71
496.974	19576.84
497.344	19787.01
497.713	19754.47
498.082	19932.31
498.452	20149.71
498.821	20275.13
499.19	20210.95
499.559	20591.51
499.928	20636.93
500.298	20759.19
500.667	20915.34
501.036	21047.09
501.405	21143.13
501.774	21324.59
502.143	21459.96
502.512	21560.97
502.88	21561.2
503.249	21824.24
503.618	21935.43
503.987	22090.45
504.356	22204.12
504.724	22223.55
505.093	22374.06
505.462	22520.5
505.83	22729.08
506.199	22892.69
506.567	23173.36
506.936	23118.45
507.304	23401.15
507.672	23523.18
508.041	23586.46
508.409	23746.23
508.777	23939.44
509.145	24157.74
509.514	24111.19
509.882	24441.12
510.25	24427.56
510.618	24470.05
510.986	24587.56
511.354	24874.33
511.722	25056.25
512.09	25404.04
512.458	25330.14
512.826	25595.44
513.193	25632.05
513.561	25723.58
513.929	26040.63
514.297	26281.98
514.664	26411.24
515.032	26504.8
515.4	26774.85
515.767	26825.92
516.135	26976.2
516.502	26846.03
516.869	27268.85
517.237	27434.72
517.604	27366.24
517.972	27665.22
518.339	27902.5
518.706	28081.03
519.073	28227.46
519.44	28346.1
519.808	28584.52
520.175	28703.16
520.542	29027.22
520.909	29118.29
521.276	29172.75
521.643	29443.03
522.009	29732.96
522.376	29958.49
522.743	30095.21
523.11	30284.36
523.477	30524.13
523.843	30761.86
524.21	31008.41
524.577	31296.54
524.943	31529.07
525.31	31554.16
525.676	31931.32
526.043	32071.43
526.409	32166.8
526.776	32504.64
527.142	32654.01
527.508	32839.55
527.874	33052.65
528.241	33106.21
528.607	33278.63
528.973	33628.45
529.339	33581
529.705	34101.21
530.071	34304.59
530.437	34389.79
530.803	34554.53
531.169	34759.27
531.535	34685.37
531.901	35028.64
532.267	35126.27
532.632	35579.59
532.998	35490.78
533.364	35716.76
533.73	35734.39
534.095	36061.38
534.461	36133.92
534.826	36485.1
535.192	36530.52
535.557	36812.32
535.923	36715.15
536.288	36903.17
536.653	37132.77
537.019	37043.5
537.384	37197.4
537.749	37507.67
538.114	37450.72
538.479	37612.3
538.845	37815.01
539.21	37755.8
539.575	38058.17
539.94	38179.74
540.305	38310.36
540.67	38397.82
541.034	38557.36
541.399	38690.24
541.764	38811.37
542.129	38954.64
542.494	39102.21
542.858	39187.18
543.223	39175.42
543.587	39476.43
543.952	39498.58
544.316	39757.33
544.681	39785.58
545.045	39851.34
545.41	40176.53
545.774	40282.97
546.138	40269.63
546.503	40457.65
546.867	40428.73
547.231	40702.16
547.595	40746.68
547.959	41222.83
548.324	41015.38
548.688	41096.5
549.052	41327.46
549.416	41402.94
549.779	41609.26
550.143	41579.88
550.507	42007.67
550.871	42049.25
551.235	41966.54
551.599	42323.36
551.962	42377.15
552.326	42501.21
552.689	42759.51
553.053	42556.35
553.417	42748.44
553.78	43342.77
554.143	43135.32
554.507	43380.06
554.87	43430.91
555.234	43810.78
555.597	43707.06
555.96	43833.38
556.323	44026.37
556.686	44093.71
557.05	44335.74
557.413	44345.23
557.776	44492.57
558.139	44813.47
558.502	44930.3
558.865	44897.53
559.228	45276.73
559.59	45410.97
559.953	45485.99
560.316	45851.86
560.679	45879.43
561.041	46072.19
561.404	46277.61
561.767	46517.38
562.129	46327.33
562.492	46892.06
562.854	46808.67
563.217	46817.94
563.579	47029.46
563.941	47237.81
564.304	47351.93
564.666	47578.14
565.028	47626.5
565.39	47845.25
565.753	47993.05
566.115	48161.4
566.477	48403.43
566.839	48472.81
567.201	48735.4
567.563	48670.99
567.925	48939.24
568.287	49031.21
568.648	49102.17
569.01	49326.12
569.372	49495.61
569.734	49469.62
570.095	49754.36
570.457	49875.93
570.819	49980.79
571.18	49994.8
571.542	50133.78
571.903	50195.93
572.265	50344.62
572.626	50542.81
572.987	50613.77
573.349	50704.39
573.71	50876.36
574.071	50951.16
574.432	51041.78
574.794	51346.18
575.155	51190.48
575.516	51237.93
575.877	51331.49
576.238	51441.54
576.599	51627.98
576.96	51547.53
577.32	51652.16
577.681	51847.63
578.042	51918.37
578.403	51879.5
578.763	51953.85
579.124	51966.05
579.485	52141.64
579.845	52250.34
580.206	52228.64
580.566	52290.11
580.927	52296.21
581.287	52404.91
581.648	52338.02
582.008	52533.04
582.368	52386.15
582.728	52537.11
583.089	52485.13
583.449	52456.88
583.809	52568.74
584.169	52606.71
584.529	52615.52
584.889	52879.47
585.249	52629.53
585.609	52559.48
585.969	52820.04
586.329	52660.27
586.688	52845.12
587.048	52753.6
587.408	52680.61
587.768	52806.25
588.127	52859.13
588.487	52786.14
588.846	52970.99
589.206	52739.81
589.565	52853.71
589.925	52949.98
590.284	52946.14
590.643	52954.72
591.003	53041.27
591.362	53188.84
591.721	53059.35
592.08	53117.21
592.44	53158.79
592.799	53162.18
593.158	53125.57
593.517	53230.65
593.876	53299.12
594.235	53182.29
594.593	53234.72
594.952	53347.71
595.311	53277.2
595.67	53235.17
596.029	53427.03
596.387	53464.99
596.746	53492.11
597.104	53358.55
597.463	53454.6
597.822	53565.33
598.18	53505.22
598.538	53429.29
598.897	53572.33
599.255	53478.78
599.613	53827.92
599.972	53555.16
600.33	53749.73
600.688	53599.23
601.046	53733.91
601.404	53836.28
601.762	53764.42
602.12	53798.09
602.478	53838.09
602.836	53888.94
603.194	53716.06
603.552	53850.29
603.91	53689.62
604.268	53911.08
604.625	53780.01
604.983	53994.7
605.341	53896.85
605.698	53958.76
606.056	53979.33
606.413	54010.74
606.771	54089.61
607.128	54140.23
607.485	53997.18
607.843	54022.94
608.2	54293.9
608.557	54313.56
608.914	54130.74
609.272	54288.47
609.629	54363.5
609.986	54427.45
610.343	54241.7
610.7	54496.83
611.057	54429.94
611.414	54440.11
611.771	54513.78
612.127	54599.43
612.484	54532.08
612.841	54655.7
613.198	54572.31
613.554	54523.95
613.911	54624.51
614.267	54738.86
614.624	54675.36
614.98	54677.39
615.337	54817.05
615.693	54721.46
616.05	54711.74
616.406	54905.63
616.762	54793.77
617.118	54748.8
617.475	54767.11
617.831	54876.48
618.187	54864.73
618.543	54859.08
618.899	55025.18
619.255	54943.6
619.611	54958.29
619.967	55033.09
620.323	55124.16
620.678	54999.64
621.034	54903.37
621.39	54990.6
621.746	54909.25
622.101	55267.43
622.457	54956.7
622.812	55043.03
623.168	55132.07
623.523	55165.51
623.879	55239.64
624.234	55090.03
624.589	55080.54
624.945	55215.68
625.3	55146.76
625.655	55156.93
626.01	55166.64
626.365	55209.58
626.72	55167.32
627.075	55167.55
627.43	55154.44
627.785	55002.13
628.14	55159.86
628.495	55171.16
628.85	55127.55
629.205	54978.17
629.559	55182.69
629.914	55054.1
630.269	55029.02
630.623	55120.77
630.978	55016.59
631.332	55163.7
631.687	55240.54
632.041	55031.28
632.396	55174.55
632.75	55014.1
633.104	55049.13
633.459	54935.46
633.813	54930.26
634.167	54882.13
634.521	54841
634.875	54988.79
635.229	54858.18
635.583	54798.29
635.937	54810.27
636.291	54812.53
636.645	54805.97
636.999	54687.79
637.352	54840.78
637.706	54765.75
638.06	54812.3
638.413	54696.37
638.767	54702.7
639.121	54738.41
639.474	54555.36
639.828	54613.44
640.181	54718.52
640.534	54627.22
640.888	54585.42
641.241	54453.22
641.594	54489.6
641.947	54664.96
642.301	54559.43
642.654	54496.83
643.007	54566.21
643.36	54539.77
643.713	54391.3
644.066	54569.82
644.419	54411.18
644.771	54191.08
645.124	53858.2
645.477	53784.76
645.83	53731.65
646.182	53539.11
646.535	53506.57
646.888	53613.24
647.24	53436.29
647.593	53735.27
647.945	53581.83
648.298	53415.5
648.65	53498.21
649.002	53383.86
649.355	53392.68
649.707	53415.95
650.059	53525.33
650.411	53861.14
650.763	53928.71
651.115	54207.12
651.467	54076.05
651.819	54122.83
652.171	53954.92
652.523	53995.37
652.875	54018.65
653.227	53838.54
653.578	54064.3
653.93	54007.58
654.282	53875.83
654.633	53823.63
654.985	53897.07
655.337	53859.78
655.688	53829.73
656.039	53990.85
656.391	53693.69
656.742	53745.44
657.094	53780.01
657.445	53930.74
657.796	53804.64
658.147	53736.17
658.498	53704.08
658.849	53779.56
659.2	53741.14
659.551	53728.94
659.902	53798.77
660.253	53646.23
660.604	53782.27
660.955	53593.35
661.306	53663.41
661.656	53687.36
662.007	53629.51
662.358	53629.96
662.708	53601.94
663.059	53667.93
663.409	53433.35
663.76	53656.63
664.11	53628.15
664.461	53588.38
664.811	53671.99
665.161	53548.15
665.511	53519.91
665.862	53543.41
666.212	53593.8
666.562	53667.02
666.912	53541.6
667.262	53481.04
667.612	53473.58
667.962	53548.83
668.312	53453.92
668.662	53529.17
669.011	53421.38
669.361	53363.98
669.711	53324.66
670.06	53334.15
670.41	53290.31
670.76	53185
671.109	53359.01
671.459	53240.59
671.808	53262.29
672.157	53315.17
672.507	53027.26
672.856	53090.09
673.205	53128.28
673.554	53252.57
673.904	53024.55
674.253	53240.82
674.602	53068.39
674.951	52571.91
675.3	52466.37
675.649	52951.79
675.998	52991.56
676.346	52979.36
676.695	53017.77
677.044	52747.05
677.393	52888.74
677.741	52917.44
678.09	52830.66
678.438	52737.1
678.787	52813.94
679.135	52799.93
679.484	52520.61
679.832	52648.52
680.181	52460.05
680.529	52587.95
680.877	52373.5
681.225	52389.31
681.573	52454.62
681.922	52319.94
682.27	52245.14
682.618	52324.23
682.966	52170.56
683.314	52260.28
683.661	52002.88
684.009	51921.76
684.357	51866.16
684.705	51818.71
685.053	51778.26
685.4	51827.75
685.748	51614.87
686.095	51576.68
686.443	51465.27
686.79	51255.56
687.138	51431.37
687.485	51403.8
687.832	51162.45
688.18	51175.56
688.527	51018.05
688.874	51160.42
689.221	50900.77
689.568	50885.17
689.915	50770.15
690.262	50736.02
690.609	50572.41
690.956	50468.91
691.303	50437.5
691.65	50135.81
691.997	50265.75
692.344	50012.43
692.69	50138.07
693.037	50039.32
693.383	49775.82
693.73	49830.06
694.077	49634.81
694.423	49668.71
694.769	49493.57
695.116	49567.02
695.462	49420.13
695.808	49207.25
696.155	49246.8
696.501	48995.51
696.847	49108.72
697.193	48822.63
697.539	49072.79
697.885	48568.4
698.231	48489.08
698.577	48508.29
698.923	48543.99
699.269	48248.63
699.614	48006.6
699.96	48109.2
700.306	47969.32
700.651	47788.53
700.997	47763.9
701.342	47711.92
701.688	47718.02
702.033	47514.19
702.379	47474.64
702.724	47358.26
703.069	47368.66
703.415	46981.1
703.76	46963.47
704.105	46947.2
704.45	46926.63
704.795	46705.85
705.14	46452.07
705.485	46561.67
705.83	46354.9
706.175	46404.16
706.52	46216.6
706.865	46080.1
707.209	46173.66
707.554	45962.59
707.899	46071.06
708.243	45791.07
708.588	45652.99
708.932	45419.1
709.277	45542.71
709.621	45438.54
709.966	45214.59
710.31	45280.57
710.654	44841.26
710.998	45138.66
711.342	45114.93
711.687	44989.74
712.031	44702.29
712.375	44608.05
712.719	44705.45
713.063	44476.75
713.407	44686.47
713.75	44509.52
714.094	44596.53
714.438	44128.06
714.782	44252.81
715.125	44047.61
715.469	44207.61
715.812	43905.92
716.156	43838.35
716.499	43851.69
716.843	43852.14
717.186	43643.78
717.53	43795.19
717.873	43646.27
718.216	43558.36
718.559	43420.28
718.902	43105.04
719.246	43286.73
719.589	42978.94
719.932	42981.2
720.275	43087.19
720.617	43066.85
720.96	42972.61
721.303	42870.92
721.646	42818.72
721.989	42605.62
722.331	42651.49
722.674	42656.24
723.016	42727.42
723.359	42358.84
723.701	42515.9
724.044	42056.93
724.386	41955.46
724.729	42196.14
725.071	42202.24
725.413	42075.01
725.755	41948.69
726.097	41849.48
726.439	41740.1
726.782	41588.02
727.124	41944.84
727.465	41753.89
727.807	41496.95
728.149	41585.98
728.491	41512.99
728.833	41496.04
729.175	41360.23
729.516	41230.96
729.858	41175.6
730.199	41392.54
730.541	41170.63
730.882	40969.95
731.224	41155.26
731.565	40914.81
731.906	41017.41
732.248	40974.93
732.589	40744.87
732.93	40528.84
733.271	40688.38
733.612	40649.06
733.953	40670.53
734.294	40504.2
734.635	40277.77
734.976	40556.86
735.317	40248.16
735.658	40382.17
735.999	40343.3
736.339	40134.5
736.68	40169.07
737.021	40153.03
737.361	39962.3
737.702	40118
738.042	39930.43
738.383	39886.82
738.723	40018.79
739.063	39840.27
739.404	39887.72
739.744	39757.1
740.084	39567.73
740.424	39604.34
740.764	39524.79
741.104	39548.75
741.444	39353.73
741.784	39308.08
742.124	39302.65
742.464	39363.22
742.804	39113.73
743.143	39166.84
743.483	39233.95
743.823	38921.19
744.162	39062.66
744.502	39031.25
744.841	38826.96
745.181	38977.92
745.52	38785.6
745.86	38793.97
746.199	38697.47
746.538	38757.13
746.877	38708.09
747.216	38696.79
747.556	38629.9
747.895	38586.06
748.234	38426.52
748.573	38298.61
748.911	38255
749.25	38312.85
749.589	38164.15
749.928	38125.96
750.267	38238.5
750.605	38021.78
750.944	37981.78
751.283	37675.35
751.621	37944.04
751.96	37593.77
752.298	37528.69
752.636	37603.26
752.975	37347
753.313	37370.73
753.651	37456.83
753.989	37335.02
754.327	37331.86
754.666	37176.16
755.004	37045.09
755.342	37151.98
755.679	36958.08
756.017	36727.13
756.355	36806.9
756.693	36627.47
757.031	36526.68
757.368	36558.77
757.706	36372.56
758.044	36164.43
758.381	36378.66
758.719	36248.04
759.056	36195.62
759.394	36007.37
759.731	35799.47
760.068	35860.71
760.405	35552.47
760.743	35581.62
761.08	35627.95
761.417	35408.97
761.754	35280.39
762.091	35207.17
762.428	35168.98
762.765	35026.83
763.102	35157.23
763.438	34879.72
763.775	34747.74
764.112	34701.19
764.449	34681.76
764.785	34441.99
765.122	34349.34
765.458	34242
765.795	34244.25
766.131	34131.72
766.467	33916.81
766.804	33762.91
767.14	33709.58
767.476	33589.13
767.812	33503.94
768.148	33619.86
768.485	33298.07
768.821	33204.73
769.157	33085.87
769.492	33090.16
769.828	32950.96
770.164	32790.51
770.5	32633
770.836	32647.23
771.171	32372.21
771.507	32384.64
771.842	32129.73
772.178	32153.91
772.513	32082.5
772.849	31934.03
773.184	31762.06
773.519	31870.08
773.855	31685.68
774.19	31488.85
774.525	31401.17
774.86	31320.72
775.195	31295.41
775.53	31168.18
775.865	30918.47
776.2	30835.76
776.535	30565.71
776.87	30584.46
777.205	30437.8
777.539	30389.44
777.874	30412.04
778.209	30165.94
778.543	30145.83
778.878	29941.09
779.212	29909.68
779.547	29701.78
779.881	29819.96
780.215	29615.9
780.55	29743.36
780.884	29487.54
781.218	29437.6
781.552	29297.94
781.886	29129.81
782.22	28977.95
782.554	28989.93
782.888	28632.65
783.222	28532.54
783.556	28460.23
783.889	28331.42
784.223	28262.72
784.557	28210.52
784.89	28268.59
785.224	27947.47
785.557	27996.28
785.891	27810.3
786.224	27767.36
786.558	27689.63
786.891	27477.88
787.224	27432.46
787.557	27222.29
787.891	27255.74
788.224	27117.21
788.557	27112.24
788.89	27143.42
789.223	26904.33
789.556	26879.25
789.888	26682.42
790.221	26534.4
790.554	26439.26
790.887	26432.71
791.219	26376.44
791.552	26297.12
791.884	26150
792.217	26114.07
792.549	25932.16
792.882	25788.66
793.214	25771.94
793.546	25785.72
793.879	25564.71
794.211	25482.45
794.543	25613.75
794.875	25384.6
795.207	25506.86
795.539	25293.53
795.871	25248.79
796.203	25077.49
796.535	24940.32
796.867	24872.75
797.198	24939.41
797.53	24755.69
797.862	24574
798.193	24692.42
798.525	24542.82
798.856	24520.67
799.188	24325.87
799.519	24401.8
799.85	24100.79
800.182	24163.16
800.513	24082.04
800.844	23849.73
801.175	24048.36
801.506	23896.96
801.837	23851.31
802.168	23703.52
802.499	23772.44
802.83	23458.55
803.161	23517.76
803.491	23514.37
803.822	23397.08
804.153	23390.53
804.483	23167.94
804.814	23060.82
805.145	23069.18
805.475	22879.13
805.805	22945.34
806.136	22914.16
806.466	22933.14
806.796	22712.13
807.126	22699.02
807.457	22678.23
807.787	22635.52
808.117	22445.7
808.447	22445.02
808.777	22409.54
809.107	22278.47
809.436	22288.19
809.766	22239.6
810.096	22171.58
810.426	22064.91
810.755	22067.63
811.085	21972.71
811.414	21901.53
811.744	21780.4
812.073	21745.83
812.403	21749.44
812.732	21606.17
813.061	21619.5
813.39	21438.49
813.719	21439.62
814.049	21471.48
814.378	21302.45
814.707	21390.58
815.036	21295.44
815.365	21135
815.693	21055.22
816.022	21030.37
816.351	20952.63
816.68	20790.37
817.008	20954.43
817.337	20670.37
817.665	20735.23
817.994	20716.48
818.322	20764.16
818.651	20579.98
818.979	20585.41
819.307	20594.22
819.636	20498.63
819.964	20380.66
820.292	20488.68
820.62	20464.5
820.948	20389.25
821.276	20469.25
821.604	20371.4
821.932	20410.04
822.259	20454.79
822.587	20292.53
822.915	20295.47
823.243	20304.73
823.57	20208.47
823.898	20267.9
824.225	20384.51
824.553	20290.72
824.88	20240.33
825.207	20261.8
825.535	20220.67
825.862	20359.42
826.189	20209.14
826.516	20336.15
826.843	20265.64
827.17	20365.07
827.497	20354.45
827.824	20259.99
828.151	20279.65
828.478	20253.89
828.805	20252.53
829.131	20189.71
829.458	20158.07
829.785	20055.25
830.111	20203.04
830.438	20289.14
830.764	20248.01
831.09	20142.25
831.417	20102.25
831.743	20128.69
832.069	20093.44
832.395	20060.67
832.722	20091.18
833.048	20055.25
833.374	20000.11
833.7	19892.09
834.026	19965.76
834.351	19958.75
834.677	19970.28
835.003	20021.8
835.329	19900.45
835.654	19902.03
835.98	19852.32
836.306	19875.59
836.631	19808.7
836.956	19863.16
837.282	19786.33
837.607	19745.88
837.932	19641.25
838.258	19671.53
838.583	19615.04
838.908	19570.06
839.233	19519.44
839.558	19504.53
839.883	19435.38
840.208	19422.5
840.533	19430.41
840.858	19399.45
841.182	19388.83
841.507	19329.39
841.832	19249.17
842.156	19265.89
842.481	19216.63
842.805	19211.2
843.13	19064.77
843.454	19068.38
843.778	19054.15
844.103	19008.27
844.427	18938.44
844.751	18931.44
845.075	18937.31
845.399	18761.05
845.723	18617.1
846.047	18702.06
846.371	18453.03
846.695	18548.85
847.019	18402.64
847.343	18330.1
847.666	18201.96
847.99	18135.3
848.313	18095.98
848.637	18001.07
848.96	17898.47
849.284	17998.58
849.607	17732.15
849.931	17783.9
850.254	17639.72
850.577	17563.79
850.9	17473.17
851.223	17374.42
851.546	17402.21
851.869	17263.91
852.192	17324.25
852.515	17146.85
852.838	17095.78
853.161	17125.61
853.483	17056.01
853.806	16880.87
854.129	16911.38
854.451	16826.63
854.774	16762.23
855.096	16691.72
855.419	16554.55
855.741	16592.74
856.063	16499.41
856.385	16539.41
856.708	16475
857.03	16360.88
857.352	16378.28
857.674	16229.81
857.996	16271.39
858.318	16102.13
858.64	16152.98
858.961	16113.88
859.283	16084.51
859.605	15903.27
859.926	16051.51
860.248	15989.37
860.57	15835.47
860.891	15887.22
861.212	15703.05
861.534	15718.19
861.855	15701.47
862.176	15759.09
862.498	15714.35
862.819	15658.3
863.14	15616.5
863.461	15511.19
863.782	15482.26
864.103	15589.83
864.424	15451.98
864.745	15414.02
865.065	15440.91
865.386	15331.08
865.707	15362.27
866.027	15447.46
866.348	15341.02
866.668	15306.45
866.989	15275.94
867.309	15156.4
867.63	15130.86
867.95	15178.99
868.27	15099
868.59	15085.44
868.91	15046.34
869.23	15010.64
869.55	15059.67
869.87	14980.13
870.19	14996.4
870.51	14966.12
870.83	14920.47
871.15	14804.99
871.469	14833.92
871.789	14865.56
872.109	14814.71
872.428	14727.93
872.748	14808.83
873.067	14725.67
873.386	14781.94
873.706	14680.02
874.025	14585.11
874.344	14663.75
874.663	14634.83
874.982	14613.13
875.301	14613.36
875.62	14648.39
875.939	14402.06
876.258	14503.31
876.577	14434.83
876.896	14407.94
877.214	14313.93
877.533	14480.48
877.852	14412.23
878.17	14373.59
878.489	14461.27
878.807	14330.65
879.125	14337.43
879.444	14274.61
879.762	14207.27
880.08	14251.33
880.398	14193.26
880.716	14190.77
881.034	14037.55
881.352	14159.81
881.67	14007.72
881.988	13990.55
882.306	14026.93
882.624	14054.28
882.941	13943.55
883.259	13777
883.577	13792.82
883.894	13769.99
884.212	13752.82
884.529	13763.21
884.846	13720.5
885.164	13767.73
885.481	13624.68
885.798	13759.82
886.115	13604.12
886.432	13576.55
886.75	13529.09
887.067	13540.17
887.383	13440.96
887.7	13533.39
888.017	13360.51
888.334	13369.1
888.651	13431.92
888.967	13247.52
889.284	13188.76
889.6	13262.43
889.917	13075.32
890.233	13167.07
890.55	13088.65
890.866	13050.91
891.182	12991.03
891.498	12925.95
891.815	12847.76
892.131	13032.84
892.447	12901.99
892.763	12767.53
893.079	12773.86
893.395	12760.98
893.71	12665.61
894.026	12643.02
894.342	12629.68
894.657	12649.79
894.973	12538.16
895.289	12551.49
895.604	12545.39
895.92	12378.39
896.235	12382
896.55	12426.3
896.865	12373.87
897.181	12239.18
897.496	12292.29
897.811	12256.36
898.126	12162.58
898.441	11977.04
898.756	12026.53
899.071	12017.49
899.386	12029.02
899.7	11964.61
900.015	11778.63
900.33	11780.44
900.644	11703.83
900.959	11838.06
901.273	11721.46
901.588	11637.62
901.902	11583.38
902.216	11600.56
902.531	11560.33
902.845	11502.71
903.159	11471.29
903.473	11417.28
903.787	11349.26
904.101	11269.72
904.415	11333.67
904.729	11204.63
905.042	11217.52
905.356	11153.79
905.67	11160.57
905.984	11107.91
906.297	11091.19
906.611	11041.48
906.924	10912.89
907.237	10935.72
907.551	10824.08
907.864	10777.75
908.177	10834.25
908.491	10766.45
908.804	10619.57
909.117	10670.19
909.43	10570.98
909.743	10527.82
910.056	10470.19
910.368	10500.25
910.681	10416.63
910.994	10314.26
911.307	10317.88
911.619	10221.61
911.932	10332.12
912.244	10211.21
912.557	10219.58
912.869	10067.26
913.181	10102.97
913.494	10039.24
913.806	9938.91
914.118	9970.32
914.43	9898.91
914.742	9869.98
915.054	9867.04
915.366	9788.4
915.678	9740.72
915.99	9692.81
916.302	9602.64
916.613	9647.61
916.925	9605.35
917.236	9571.46
917.548	9479.03
917.859	9469.99
918.171	9363.1
918.482	9399.26
918.794	9335.98
919.105	9263.44
919.416	9237.45
919.727	9235.87
920.038	9253.27
920.349	9160.39
920.66	9121.53
920.971	9017.8
921.282	9029.55
921.593	8989.78
921.903	8920.18
922.214	8936.45
922.525	8851.25
922.835	8834.3
923.146	8720.18
923.456	8810.57
923.767	8722.21
924.077	8663.23
924.387	8604.03
924.697	8607.41
925.008	8568.32
925.318	8510.24
925.628	8517.02
925.938	8478.6
926.248	8374.43
926.558	8333.52
926.867	8350.25
927.177	8312.28
927.487	8232.51
927.796	8220.76
928.106	8151.38
928.416	8120.65
928.725	8093.76
929.034	8071.16
929.344	8086.75
929.653	8124.04
929.962	7969.69
930.271	7916.59
930.581	7854.21
930.89	7923.37
931.199	7810.37
931.508	7834.33
931.817	7787.32
932.125	7698.51
932.434	7713.2
932.743	7612.19
933.051	7607.67
933.36	7616.03
933.669	7543.26
933.977	7557.5
934.286	7464.39
934.594	7472.98
934.902	7437.5
935.21	7388.46
935.519	7304.17
935.827	7336.49
936.135	7272.08
936.443	7238.19
936.751	7214.01
937.059	7143.95
937.367	7171.29
937.674	7076.16
937.982	7080.9
938.29	7113.89
938.597	7036.16
938.905	6936.95
939.213	6972.88
939.52	6886.33
939.827	6975.59
940.135	6871.19
940.442	6836.61
940.749	6862.15
941.056	6813.56
941.363	6791.87
941.67	6697.86
941.977	6727.01
942.284	6654.02
942.591	6644.08
942.898	6595.72
943.205	6597.75
943.511	6581.03
943.818	6514.81
944.125	6472.56
944.431	6473.91
944.738	6406.79
945.044	6375.84
945.35	6383.74
945.657	6304.65
945.963	6302.62
946.269	6280.24
946.575	6280.7
946.881	6218.1
947.187	6186.01
947.493	6160.7
947.799	6160.47
948.105	6094.71
948.41	6076.86
948.716	6088.61
949.022	6068.5
949.327	6072.11
949.633	5980.14
949.938	5933.13
950.244	5939.01
950.549	5842.97
950.854	5850.2
951.16	5825.79
951.465	5822.18
951.77	5791.9
952.075	5775.85
952.38	5776.53
952.685	5778.79
952.99	5695.18
953.294	5672.58
953.599	5623.76
953.904	5624.89
954.209	5594.61
954.513	5585.12
954.818	5568.62
955.122	5494.28
955.426	5489.08
955.731	5440.27
956.035	5424.22
956.339	5401.4
956.643	5343.32
956.948	5318.91
957.252	5301.29
957.556	5320.72
957.86	5286.82
958.163	5291.57
958.467	5239.59
958.771	5212.7
959.075	5217
959.378	5122.08
959.682	5147.17
959.985	5167.73
960.289	5099.48
960.592	5100.61
960.896	5040.05
961.199	5058.13
961.502	5040.5
961.805	4974.29
962.108	4974.52
962.411	4937.23
962.714	4910.11
963.017	4876.21
963.32	4896.78
963.623	4839.6
963.926	4827.63
964.228	4825.14
964.531	4784.01
964.833	4802.77
965.136	4773.84
965.438	4719.83
965.741	4705.37
966.043	4673.73
966.345	4662.89
966.648	4676.9
966.95	4635.77
967.252	4575.2
967.554	4575.43
967.856	4587.63
968.158	4533.17
968.46	4545.15
968.761	4481.2
969.063	4491.36
969.365	4440.52
969.666	4442.1
969.968	4364.81
970.269	4381.76
970.571	4367.07
970.872	4378.83
971.174	4306.74
971.475	4335.66
971.776	4283.01
972.077	4306.29
972.378	4235.1
972.679	4219.28
972.98	4276
973.281	4187.87
973.582	4165.72
973.883	4208.21
974.183	4099.06
974.484	4131.15
974.785	4079.85
975.085	4101.09
975.386	4102.67
975.686	4066.07
975.986	4030.36
976.287	4001.43
976.587	3978.61
976.887	3931.61
977.187	3978.61
977.487	3939.74
977.787	3909.91
978.087	3863.13
978.387	3865.17
978.687	3847.54
978.987	3839.18
979.286	3790.59
979.586	3802.34
979.885	3806.19
980.185	3779.97
980.484	3764.38
980.784	3749.24
981.083	3717.6
981.382	3683.93
981.682	3655.23
981.981	3658.17
982.28	3664.27
982.579	3636.25
982.878	3622.01
983.177	3614.1
983.475	3597.38
983.774	3565.29
984.073	3565.97
984.372	3540.66
984.67	3540.43
984.969	3519.87
985.267	3521.22
985.566	3497.72
985.864	3483.71
986.162	3449.36
986.461	3412.3
986.759	3389.47
987.057	3372.98
987.355	3377.95
987.653	3350.83
987.951	3380.66
988.249	3341.34
988.547	3332.07
988.844	3289.59
989.142	3236.93
989.44	3282.58
989.737	3204.85
990.035	3252.3
990.332	3236.26
990.63	3186.54
990.927	3167.11
991.224	3177.73
991.521	3176.37
991.819	3148.8
992.116	3162.13
992.413	3104.51
992.71	3083.72
993.006	3076.49
993.303	3084.85
993.6	3078.29
993.897	3070.16
994.193	3022.48
994.49	3006.43
994.787	2977.05
995.083	2982.25
995.379	2957.39
995.676	2963.95
995.972	2939.77
996.268	2893.21
996.565	2925.53
996.861	2853.89
997.157	2922.14
997.453	2882.37
997.749	2853.44
998.044	2826.32
998.34	2800.56
998.636	2803.73
998.932	2776.83
999.227	2761.92
999.523	2799.66
999.818	2725.54
1000.114	2758.76
1000.409	2728.02
1000.704	2683.73
1001	2683.73
1001.295	2675.59
1001.59	2657.97
1001.885	2627.46
1002.18	2629.04
1002.475	2570.74
1002.77	2581.13
1003.065	2535.03
1003.359	2564.86
1003.654	2555.37
1003.949	2527.12
1004.243	2528.25
1004.538	2510.17
1004.832	2507.01
1005.127	2470.4
1005.421	2445.77
1005.715	2453.45
1006.009	2418.88
1006.304	2401.93
1006.598	2404.41
1006.892	2385.21
1007.186	2384.75
1007.48	2364.64
1007.773	2342.95
1008.067	2335.72
1008.361	2309.73
1008.655	2303.63
1008.948	2313.57
1009.242	2246.9
1009.535	2251.65
1009.829	2248.94
1010.122	2237.64
1010.415	2201.71
1010.708	2225.89
1011.001	2197.87
1011.295	2193.57
1011.588	2156.29
1011.881	2151.54
1012.173	2151.54
1012.466	2153.57
1012.759	2122.84
1013.052	2157.42
1013.344	2113.12
1013.637	2085.33
1013.93	2085.33
1014.222	2074.25
1014.514	2050.3
1014.807	2010.07
1015.099	1984.09
1015.391	2006.23
1015.683	1972.34
1015.976	2003.52
1016.268	1957.87
1016.56	1971.66
1016.851	1904.77
1017.143	1904.54
1017.435	1906.35
1017.727	1911.77
1018.018	1886.01
1018.31	1884.88
1018.602	1895.95
1018.893	1874.26
1019.185	1844.2
1019.476	1824.09
1019.767	1808.95
1020.058	1818.21
1020.35	1775.96
1020.641	1748.61
1020.932	1774.15
1021.223	1758.33
1021.514	1711.78
1021.804	1694.6
1022.095	1728.5
1022.386	1721.95
1022.677	1717.43
1022.967	1691.44
1023.258	1697.31
1023.548	1650.99
1023.839	1655.28
1024.129	1621.38
1024.419	1613.02
1024.709	1648.05
1025	1599.01
1025.29	1596.75
1025.58	1594.04
1025.87	1556.07
1026.16	1558.11
1026.449	1566.24
1026.739	1528.28
1027.029	1523.31
1027.319	1541.84
1027.608	1516.3
1027.898	1500.26
1028.187	1483.76
1028.477	1475.17
1028.766	1475.4
1029.055	1434.27
1029.344	1459.81
1029.634	1431.11
1029.923	1396.98
1030.212	1390.66
1030.501	1431.33
1030.79	1397.44
1031.078	1377.1
1031.367	1366.02
1031.656	1356.31
1031.945	1326.7
1032.233	1362.63
1032.522	1338.45
1032.81	1358.34
1033.099	1326.7
1033.387	1299.36
1033.675	1312.92
1033.963	1318.57
1034.251	1296.19
1034.54	1272.47
1034.828	1268.17
1035.116	1269.08
1035.403	1242.64
1035.691	1268.17
1035.979	1235.18
1036.267	1222.75
1036.554	1224.78
1036.842	1208.29
1037.129	1186.82
1037.417	1173.26
1037.704	1180.27
1037.992	1203.99
1038.279	1160.38
1038.566	1152.7
1038.853	1152.7
1039.14	1152.7
