Data from white_steel_sheet_FLMS001491_055.txt Node
Date: Tue Feb 07 10:58:05 GMT 2017
User: dcchb
Spectrometer: FLMS00149
Trigger mode: 0
Integration Time (sec): 2.000000E-2
Scans to average: 10
Electric dark correction enabled: true
Nonlinearity correction enabled: false
Boxcar width: 0
XAxis mode: Wavelengths
Number of Pixels in Spectrum: 2048
>>>>>Begin Spectral Data<<<<<
341.393	-6.38
341.776	-6.38
342.16	-6.38
342.543	-59.72
342.927	-49.77
343.31	-52.03
343.693	-62.65
344.077	-71.02
344.46	-47.74
344.843	-51.58
345.226	-45.48
345.61	-22.65
345.993	-11.58
346.376	-13.16
346.759	13.05
347.142	27.97
347.525	26.61
347.908	40.85
348.291	76.1
348.674	81.75
349.057	111.58
349.44	140.28
349.823	138.47
350.206	146.61
350.588	213.05
350.971	222.31
351.354	256.66
351.737	252.37
352.119	271.35
352.502	283.78
352.884	297.56
353.267	302.53
353.65	299.37
354.032	281.29
354.414	344.12
354.797	340.95
355.179	324
355.562	317.45
355.944	355.19
356.326	353.61
356.709	350.89
357.091	344.34
357.473	359.48
357.855	337.11
358.238	354.96
358.62	345.92
359.002	348.86
359.384	345.92
359.766	345.02
360.148	344.79
360.53	379.82
360.912	345.25
361.294	338.01
361.676	350.67
362.057	349.99
362.439	340.73
362.821	352.48
363.203	347.96
363.584	370.33
363.966	356.54
364.348	339.14
364.729	356.32
365.111	342.53
365.493	331.69
365.874	349.31
366.256	336.88
366.637	330.56
367.019	338.01
367.4	347.96
367.781	324
368.163	316.32
368.544	316.32
368.925	333.95
369.306	338.69
369.688	323.55
370.069	338.69
370.45	329.65
370.831	341.18
371.212	345.7
371.593	352.25
371.974	322.42
372.355	345.25
372.736	368.52
373.117	340.73
373.498	351.12
373.879	334.17
374.26	351.8
374.641	332.82
375.021	325.58
375.402	349.31
375.783	352.7
376.163	345.02
376.544	361.52
376.925	347.05
377.305	370.56
377.686	364.91
378.066	358.8
378.447	369.43
378.827	376.43
379.208	367.84
379.588	345.47
379.968	347.05
380.349	354.06
380.729	357.45
381.109	365.13
381.489	377.11
381.87	382.31
382.25	382.31
382.63	371.69
383.01	382.53
383.39	393.61
383.77	381.18
384.15	384.57
384.53	399.93
384.91	376.43
385.29	392.48
385.67	399.71
386.049	406.49
386.429	393.15
386.809	409.2
387.189	406.49
387.568	407.62
387.948	399.93
388.328	428.41
388.707	418.24
389.087	424.11
389.466	416.66
389.846	440.16
390.225	435.19
390.605	435.64
390.984	437.9
391.363	447.16
391.743	428.41
392.122	448.75
392.501	451.23
392.881	478.57
393.26	463.43
393.639	495.98
394.018	481.96
394.397	480.16
394.776	491.46
395.155	498.91
395.534	509.31
395.913	490.78
396.292	498.69
396.671	513.6
397.05	527.16
397.429	523.55
397.808	531.91
398.186	562.41
398.565	531.23
398.944	540.49
399.323	543.21
399.701	587.72
400.08	560.38
400.458	568.52
400.837	591.11
401.215	566.71
401.594	574.17
401.972	608.29
402.351	631.11
402.729	617.78
403.107	626.37
403.486	642.86
403.864	650.1
404.242	654.16
404.62	679.93
404.999	666.37
405.377	670.43
405.755	686.03
406.133	698.46
406.511	704.56
406.889	719.92
407.267	759.25
407.645	744.56
408.023	766.03
408.401	767.38
408.779	788.62
409.156	795.63
409.534	816.65
409.912	806.48
410.29	833.37
410.667	852.12
411.045	867.04
411.422	884.89
411.8	884.44
412.178	930.31
412.555	907.72
412.933	884.89
413.31	941.84
413.687	932.8
414.065	944.33
414.442	997.88
414.819	1011.22
415.197	998.79
415.574	990.43
415.951	1052.35
416.328	1020.48
416.705	1052.57
417.082	1073.14
417.46	1079.46
417.837	1081.95
418.214	1081.72
418.591	1077.66
418.967	1106.58
419.344	1118.11
419.721	1138.9
420.098	1160.36
420.475	1183.19
420.852	1170.31
421.228	1187.71
421.605	1200.14
421.982	1203.3
422.358	1201.49
422.735	1212.12
423.111	1252.57
423.488	1257.99
423.864	1267.48
424.241	1262.74
424.617	1293.92
424.994	1307.25
425.37	1354.94
425.746	1327.59
426.123	1381.6
426.499	1359.91
426.875	1387.03
427.251	1385.44
427.627	1416.63
428.003	1474.48
428.379	1464.76
428.756	1495.95
429.132	1499.79
429.507	1491.66
429.883	1523.29
430.259	1538.89
430.635	1561.26
431.011	1568.94
431.387	1614.36
431.763	1640.13
432.138	1649.39
432.514	1669.28
432.89	1680.58
433.265	1691.65
433.641	1789.27
434.016	1772.33
434.392	1787.69
434.767	1793.34
435.143	1799.9
435.518	1877.18
435.894	1860.01
436.269	1907.92
436.644	1916.05
437.02	1959.44
437.395	1952.89
437.77	1978.87
438.145	2006.44
438.52	2011.42
438.895	2046.9
439.271	2064.07
439.646	2102.49
440.021	2102.71
440.395	2142.71
440.77	2100.91
441.145	2146.1
441.52	2200.79
441.895	2174.12
442.27	2197.85
442.645	2240.56
443.019	2229.04
443.394	2256.16
443.769	2304.52
444.143	2278.53
444.518	2290.96
444.892	2338.41
445.267	2335.25
445.641	2403.27
446.016	2378.19
446.39	2398.52
446.764	2415.47
447.139	2403.72
447.513	2454.79
447.887	2434.46
448.262	2488.69
448.636	2478.07
449.01	2523.04
449.384	2544.96
449.758	2566.43
450.132	2602.36
450.506	2610.72
450.88	2633.55
451.254	2658.63
451.628	2742.92
452.002	2732.3
452.376	2734.56
452.75	2752.41
453.123	2781.79
453.497	2826.76
453.871	2847.55
454.244	2904.27
454.618	2932.75
454.992	2979.75
455.365	2980.43
455.739	3043.71
456.112	3086.87
456.486	3085.06
456.859	3143.59
457.232	3217.49
457.606	3190.14
457.979	3206.86
458.352	3295
458.725	3329.35
459.099	3303.13
459.472	3423.81
459.845	3429.68
460.218	3464.49
460.591	3499.51
460.964	3543.35
461.337	3587.42
461.71	3676.68
462.083	3747.87
462.456	3693.86
462.829	3750.58
463.201	3810.24
463.574	3852.72
463.947	3927.75
464.32	3945.15
464.692	4024.02
465.065	4016.11
465.438	4077.12
465.81	4124.81
466.183	4200.06
466.555	4253.62
466.928	4323.9
467.3	4315.76
467.672	4382.2
468.045	4466.27
468.417	4495.19
468.789	4519.37
469.161	4573.16
469.534	4668.3
469.906	4787.16
470.278	4780.16
470.65	4831.68
471.022	4958.23
471.394	5038.46
471.766	5078.91
472.138	5157.32
472.51	5235.29
472.882	5291.1
473.253	5379.01
473.625	5406.81
473.997	5572.68
474.369	5614.71
474.74	5612.23
475.112	5800.69
475.484	5865.1
475.855	5962.95
476.227	6037.75
476.598	6161.14
476.97	6226.45
477.341	6402.26
477.713	6499.66
478.084	6499.89
478.455	6689.94
478.827	6756.6
479.198	6912.08
479.569	6931.06
479.94	7184.39
480.311	7205.86
480.682	7339.64
481.053	7499.63
481.424	7570.14
481.795	7693.07
482.166	7888.1
482.537	7948.44
482.908	8104.36
483.279	8209.67
483.65	8353.17
484.021	8473.84
484.391	8613.73
484.762	8670.45
485.133	8769.88
485.503	8926.94
485.874	9116.09
486.244	9194.73
486.615	9310.66
486.985	9473.37
487.356	9677.88
487.726	9721.04
488.097	9943.41
488.467	9961.26
488.837	10130.75
489.207	10264.31
489.578	10393.79
489.948	10474.24
490.318	10653.45
490.688	10721.02
491.058	10932.99
491.428	11070.61
491.798	11123.94
492.168	11317.39
492.538	11500.66
492.908	11527.32
493.278	11730.71
493.648	11767.77
494.017	11925.51
494.387	12014.09
494.757	12059.74
495.126	12269.23
495.496	12289.79
495.866	12453.85
496.235	12533.4
496.605	12663.11
496.974	12768.2
497.344	12909.89
497.713	13044.12
498.082	13115.98
498.452	13183.78
498.821	13232.59
499.19	13387.61
499.559	13510.55
499.928	13610.66
500.298	13677.1
500.667	13774.27
501.036	13835.29
501.405	13935.62
501.774	14063.75
502.143	14198.44
502.512	14259.46
502.88	14421.71
503.249	14373.58
503.618	14499
503.987	14601.14
504.356	14640.69
504.724	14797.29
505.093	14841.36
505.462	14884.52
505.83	15115.48
506.199	15253.1
506.567	15381.69
506.936	15372.19
507.304	15606.76
507.672	15637.95
508.041	15881.33
508.409	15945.96
508.777	16111.84
509.145	16253.98
509.514	16270.25
509.882	16325.16
510.25	16349.12
510.618	16514.99
510.986	16617.36
511.354	16847.64
511.722	17070.68
512.09	17095.09
512.458	17134.86
512.826	17317
513.193	17450.56
513.561	17580.72
513.929	17631.12
514.297	17839.02
514.664	17923.99
515.032	18061.39
515.4	18151.56
515.767	18318.56
516.135	18431.78
516.502	18392
516.869	18825.89
517.237	18762.61
517.604	18726
517.972	19075.6
518.339	19131.87
518.706	19261.58
519.073	19394.91
519.44	19434.46
519.808	19725.3
520.175	19683.04
520.542	19925.07
520.909	20133.2
521.276	20161.9
521.643	20398.73
522.009	20500.2
522.376	20686.18
522.743	20852.5
523.11	21053.85
523.477	21250.68
523.843	21420.85
524.21	21642.99
524.577	21758.02
524.943	21840.05
525.31	22006.6
525.676	22208.63
526.043	22309.19
526.409	22440.94
526.776	22760.93
527.142	22775.62
527.508	22995.72
527.874	23165.44
528.241	23251.99
528.607	23330.18
528.973	23640.68
529.339	23568.82
529.705	23960.9
530.071	24079.31
530.437	24079.31
530.803	24348.23
531.169	24375.8
531.535	24385.29
531.901	24647.66
532.267	24836.13
532.632	24977.14
532.998	25160.64
533.364	25190.92
533.73	25293.74
534.095	25501.65
534.461	25480.86
534.826	25698.7
535.192	25732.15
535.557	26072.25
535.923	26019.6
536.288	26157
536.653	26304.34
537.019	26318.12
537.384	26411.45
537.749	26485.8
538.114	26718.11
538.479	26680.6
538.845	26697.09
539.21	26818.67
539.575	27014.37
539.94	27117.65
540.305	27258.66
540.67	27189.06
541.034	27301.37
541.399	27629.05
541.764	27562.83
542.129	27789.72
542.494	27670.85
542.858	27865.43
543.223	27932.77
543.587	28131.86
543.952	28196.26
544.316	28303.83
544.681	28251.18
545.045	28458.63
545.41	28458.4
545.774	28631.73
546.138	28683.48
546.503	28838.73
546.867	28758.28
547.231	29026.75
547.595	29136.58
547.959	29264.94
548.324	29320.53
548.688	29287.08
549.052	29521.65
549.416	29579.96
549.779	29556.23
550.143	29654.53
550.507	29845.71
550.871	29972.71
551.235	29938.37
551.599	30217
551.962	30242.76
552.326	30341.74
552.689	30540.61
553.053	30517.79
553.417	30607.05
553.78	30990.32
554.143	30904.67
554.507	31064.66
554.87	31144.89
555.234	31381.94
555.597	31351.44
555.96	31532.67
556.323	31647.92
556.686	31617.64
557.05	31850.86
557.413	32069.16
557.776	31960.46
558.139	32364.74
558.502	32329.94
558.865	32358.64
559.228	32654.9
559.59	32819.65
559.953	32809.25
560.316	33093.99
560.679	33148
561.041	33265.74
561.404	33525.39
561.767	33772.61
562.129	33683.58
562.492	34038.6
562.854	33972.38
563.217	34110.69
563.579	34130.8
563.941	34404.91
564.304	34564.68
564.666	34699.14
565.028	34924.22
565.39	34878.57
565.753	35131.45
566.115	35160.15
566.477	35416.87
566.839	35575.05
567.201	35734.6
567.563	35737.53
567.925	35918.1
568.287	35995.16
568.648	35986.57
569.01	36306.33
569.372	36504.52
569.734	36368.25
570.095	36616.61
570.457	36819.54
570.819	36837.84
571.18	36910.61
571.542	37257.27
571.903	37178.63
572.265	37243.48
572.626	37411.16
572.987	37583.14
573.349	37527.32
573.71	37628.56
574.071	37772.51
574.432	37879.63
574.794	37994.2
575.155	38078.94
575.516	37924.14
575.877	38114.2
576.238	38227.41
576.599	38352.83
576.96	38310.35
577.32	38448.2
577.681	38501.3
578.042	38715.54
578.403	38533.17
578.763	38591.02
579.124	38659.49
579.485	38918.92
579.845	38995.53
580.206	38975.42
580.566	38818.58
580.927	38930.9
581.287	39035.3
581.648	38993.72
582.008	39139.25
582.368	39000.73
582.728	39029.88
583.089	39021.29
583.449	39073.94
583.809	39143.55
584.169	39186.48
584.529	39123.21
584.889	39474.16
585.249	39125.02
585.609	38993.49
585.969	39242.98
586.329	39051.12
586.688	39344.67
587.048	39144.22
587.408	39153.49
587.768	39105.81
588.127	39179.48
588.487	39042.53
588.846	39347.16
589.206	39084.34
589.565	39113.72
589.925	39399.13
590.284	39207.73
590.643	39188.97
591.003	39243.21
591.362	39324.11
591.721	39308.51
592.08	39262.87
592.44	39390.55
592.799	39343.32
593.158	39223.77
593.517	39309.19
593.876	39213.6
594.235	39318.46
594.593	39328.17
594.952	39377.67
595.311	39359.59
595.67	39478.45
596.029	39559.58
596.387	39558.9
596.746	39555.51
597.104	39473.48
597.463	39423.77
597.822	39713.7
598.18	39395.97
598.538	39342.86
598.897	39608.85
599.255	39332.02
599.613	39851.33
599.972	39528.62
600.33	39510.77
600.688	39383.31
601.046	39682.74
601.404	39734.49
601.762	39768.39
602.12	39846.35
602.478	39838.44
602.836	39739.01
603.194	39621.95
603.552	39709.41
603.91	39645.23
604.268	39888.16
604.625	39635.74
604.983	39746.92
605.341	39654.04
605.698	39790.99
606.056	39842.74
606.413	39717.32
606.771	39995.28
607.128	40002.73
607.485	39836.18
607.843	39990.98
608.2	40152.33
608.557	40160.92
608.914	40034.15
609.272	40208.6
609.629	40252.44
609.986	40345.55
610.343	40191.88
610.7	40594.58
611.057	40542.83
611.414	40484.98
611.771	40536.05
612.127	40625.32
612.484	40635.26
612.841	40722.49
613.198	40734.69
613.554	40634.58
613.911	40812.43
614.267	40949.38
614.624	40775.37
614.98	40846.33
615.337	41127.9
615.693	41026.89
616.05	41015.36
616.406	41267.78
616.762	40995.25
617.118	41116.38
617.475	40987.11
617.831	41257.62
618.187	41176.71
618.543	41269.37
618.899	41444.05
619.255	41396.6
619.611	41440.44
619.967	41483.37
620.323	41496.93
620.678	41405.18
621.034	41271.17
621.39	41312.98
621.746	41330.83
622.101	41843.82
622.457	41502.36
622.812	41427.55
623.168	41507.1
623.523	41601.34
623.879	41653.09
624.234	41486.08
624.589	41411.28
624.945	41469.81
625.3	41760.65
625.655	41702.58
626.01	41654.67
626.365	41655.57
626.72	41548.91
627.075	41562.92
627.43	41613.09
627.785	41448.35
628.14	41619.19
628.495	41534.67
628.85	41519.08
629.205	41387.78
629.559	41620.32
629.914	41371.06
630.269	41305.07
630.623	41213.32
630.978	41234.11
631.332	41431.17
631.687	41349.36
632.041	41157.51
632.396	41369.48
632.75	41155.25
633.104	41051.29
633.459	41014.68
633.813	41090.84
634.167	40971.75
634.521	40951.18
634.875	40918.64
635.229	40892.43
635.583	40700.12
635.937	40761.13
636.291	40667.12
636.645	40690.17
636.999	40534.47
637.352	40723.62
637.706	40423.97
638.06	40554.81
638.413	40517.07
638.767	40298.54
639.121	40378.09
639.474	40139.45
639.828	40240.47
640.181	40046.57
640.534	40108.49
640.888	40015.16
641.241	39906.24
641.594	39923.19
641.947	40070.3
642.301	39947.14
642.654	39953.24
643.007	39889.29
643.36	39832.79
643.713	39717.09
644.066	39840.93
644.419	39560.03
644.771	39278.68
645.124	38879.37
645.477	38943.55
645.83	38661.98
646.182	38488.87
646.535	38504.92
646.888	38487.97
647.24	38255.89
647.593	38593.51
647.945	38384.7
648.298	38121.2
648.65	38167.75
649.002	38085.04
649.355	38283.23
649.707	38100.64
650.059	38273.51
650.411	38599.38
650.763	38713.73
651.115	39146.03
651.467	38894.51
651.819	38831.92
652.171	38795.53
652.523	38782.2
652.875	38857.9
653.227	38608.19
653.578	38762.99
653.93	38605.93
654.282	38425.83
654.633	38460.85
654.985	38560.51
655.337	38580.17
655.688	38430.35
656.039	38631.24
656.391	38338.82
656.742	38445.94
657.094	38315.09
657.445	38490.46
657.796	38383.57
658.147	38261.31
658.498	38234.64
658.849	38276.23
659.2	38340.63
659.551	38181.76
659.902	38155.1
660.253	38164.14
660.604	38267.64
660.955	37863.13
661.306	38027.19
661.656	37798.5
662.007	37856.8
662.358	37789.01
662.708	37916.01
663.059	37705.39
663.409	37418.39
663.76	37750.14
664.11	37655.9
664.461	37629.91
664.811	37647.99
665.161	37487.55
665.511	37353.54
665.862	37361.22
666.212	37424.95
666.562	37372.29
666.912	37254.78
667.262	37097.27
667.612	37156.93
667.962	36922.14
668.312	36801.69
668.662	36935.02
669.011	36854.12
669.361	36595.14
669.711	36465.43
670.06	36402.15
670.41	36363.28
670.76	36377.29
671.109	36425.2
671.459	36304.53
671.808	36153.34
672.157	36199.22
672.507	35994.93
672.856	35864.09
673.205	35994.25
673.554	35890.3
673.904	35645.79
674.253	35793.13
674.602	35723.98
674.951	35170.54
675.3	34956.54
675.649	35532.57
675.998	35509.52
676.346	35518.11
676.695	35629.52
677.044	35391.56
677.393	35418.22
677.741	35420.48
678.09	35244.21
678.438	35245.12
678.787	35365.34
679.135	35341.39
679.484	35020.72
679.832	35269.52
680.181	34949.98
680.529	35245.57
680.877	34991.79
681.225	35085.35
681.573	35355.85
681.922	35021.4
682.27	34955.41
682.618	35055.97
682.966	35043.54
683.314	35072.24
683.661	34991.11
684.009	34863.89
684.357	34753.15
684.705	34931
685.053	34835.19
685.4	35034.73
685.748	34719.03
686.095	34712.25
686.443	34672.93
686.79	34645.81
687.138	34784.79
687.485	34836.99
687.832	34693.27
688.18	34917.67
688.527	34660.05
688.874	34856.65
689.221	34762.87
689.568	34717.9
689.915	34657.34
690.262	34561.97
690.609	34525.14
690.956	34430.45
691.303	34465.25
691.65	34317.46
691.997	34345.71
692.344	34149.1
692.69	34288.08
693.037	34336.22
693.383	34053.29
693.73	34147.29
694.077	33991.14
694.423	34004.02
694.769	33898.94
695.116	33957.02
695.462	33979.62
695.808	33872.05
696.155	33946.4
696.501	33715.89
696.847	33698.27
697.193	33436.8
697.539	33649.68
697.885	33442.45
698.231	33326.75
698.577	33300.76
698.923	33237.94
699.269	33137.83
699.614	33019.87
699.96	32925.86
700.306	32996.14
700.651	32688.35
700.997	32726.77
701.342	32575.13
701.688	32680.89
702.033	32499.88
702.379	32427.79
702.724	32461.69
703.069	32499.88
703.415	32240.23
703.76	32195.48
704.105	32218.53
704.45	32019.67
704.795	31839.33
705.14	31833
705.485	31776.28
705.83	31671.2
706.175	31698.55
706.52	31595.72
706.865	31660.13
707.209	31506.69
707.554	31445.67
707.899	31465.1
708.243	31243.19
708.588	31196.64
708.932	31036.64
709.277	31054.27
709.621	31100.14
709.966	30860.6
710.31	30908.96
710.654	30692.92
710.998	30779.25
711.342	30767.5
711.687	30621.29
712.031	30525.69
712.375	30450.22
712.719	30470.55
713.063	30371.8
713.407	30450.22
713.75	30223.56
714.094	30177
714.438	30064.01
714.782	30109.21
715.125	30057.91
715.469	30042.32
715.812	29926.84
716.156	29836.9
716.499	29652.5
716.843	29714.42
717.186	29575.44
717.53	29716.9
717.873	29610.69
718.216	29591.93
718.559	29398.94
718.902	29261.55
719.246	29266.29
719.589	29129.12
719.932	29180.65
720.275	29230.14
720.617	29108.1
720.96	29105.17
721.303	29145.17
721.646	28998.5
721.989	28820.65
722.331	29009.35
722.674	28735.23
723.016	28699.3
723.359	28712.63
723.701	28631.06
724.044	28576.59
724.386	28381.12
724.729	28521
725.071	28440.1
725.413	28522.36
725.755	28461.34
726.097	28310.84
726.439	28276.49
726.782	28300.44
727.124	28404.62
727.465	28156.04
727.807	28159.66
728.149	27982.71
728.491	28037.62
728.833	27962.6
729.175	27893.22
729.516	28011.64
729.858	27754.92
730.199	27867.46
730.541	27789.27
730.882	27815.48
731.224	27736.84
731.565	27561.03
731.906	27570.52
732.248	27566.9
732.589	27517.41
732.93	27236.06
733.271	27335.72
733.612	27413.46
733.953	27390.86
734.294	27286.91
734.635	27149.29
734.976	27247.36
735.317	27089.63
735.658	27030.87
735.999	27026.58
736.339	27029.74
736.68	27013.47
737.021	26902.06
737.361	26876.3
737.702	26946.13
738.042	26757.21
738.383	26790.2
738.723	26854.83
739.063	26681.73
739.404	26848.5
739.744	26679.92
740.084	26569.41
740.424	26557.44
740.764	26523.31
741.104	26492.81
741.444	26366.03
741.784	26366.26
742.124	26453.26
742.464	26392.7
742.804	26308.18
743.143	26196.32
743.483	26115.19
743.823	26130.56
744.162	26120.61
744.502	26187.5
744.841	25945.25
745.181	26078.81
745.52	25948.41
745.86	26064.57
746.199	25939.6
746.538	25926.49
746.877	25797.23
747.216	25712.71
747.556	25771.7
747.895	25694.64
748.234	25576.9
748.573	25723.79
748.911	25606.73
749.25	25516.79
749.589	25443.57
749.928	25453.29
750.267	25373.06
750.605	25351.82
750.944	25366.96
751.283	25122.45
751.621	25255.55
751.96	24966.07
752.298	25068.66
752.636	25044.48
752.975	24949.34
753.313	24738.73
753.651	24935.33
753.989	24722.23
754.327	24675.68
754.666	24676.36
755.004	24653.53
755.342	24615.34
755.679	24623.25
756.017	24412.86
756.355	24319.08
756.693	24197.27
757.031	24389.81
757.368	24203.83
757.706	24069.82
758.044	24071.17
758.381	24058.52
758.719	23950.27
759.056	23956.38
759.394	23937.85
759.731	23647.23
760.068	23695.14
760.405	23603.39
760.743	23557.74
761.08	23627.57
761.417	23445.43
761.754	23339.22
762.091	23381.02
762.428	23146.91
762.765	23065.78
763.102	23172.89
763.438	22971.32
763.775	22933.35
764.112	22936.06
764.449	22925.89
764.785	22671.44
765.122	22577.88
765.458	22519.13
765.795	22628.28
766.131	22494.49
766.467	22440.03
766.804	22216.31
767.14	22211.11
767.476	22160.72
767.812	21988.97
768.148	22075.3
768.485	21946.71
768.821	21878.01
769.157	21867.62
769.492	21765.02
769.828	21680.5
770.164	21488.19
770.5	21408.87
770.836	21453.16
771.171	21310.12
771.507	21231.93
771.842	21063.12
772.178	21122.78
772.513	21095.21
772.849	21080.97
773.184	20835.33
773.519	20871.94
773.855	20782.22
774.19	20698.38
774.525	20619.06
774.86	20639.85
775.195	20474.89
775.53	20334.1
775.865	20398.28
776.2	20142.01
776.535	20020.89
776.87	20090.71
777.205	20031.51
777.539	19996.03
777.874	20031.51
778.209	19749.48
778.543	19779.76
778.878	19636.26
779.212	19580.45
779.547	19384.97
779.881	19417.51
780.215	19234.92
780.55	19405.99
780.884	19239.66
781.218	19150.63
781.552	19143.39
781.886	19116.95
782.22	18981.59
782.554	18958.77
782.888	18756.29
783.222	18676.74
783.556	18624.31
783.889	18574.82
784.223	18389.74
784.557	18429.06
784.89	18370.99
785.224	18231.33
785.557	18279.69
785.891	18257.77
786.224	18143.87
786.558	18062.29
786.891	17953.14
787.224	17913.14
787.557	17813.49
787.891	17891.68
788.224	17721.74
788.557	17715.86
788.89	17662.76
789.223	17685.58
789.556	17499.6
789.888	17476.77
790.221	17417.79
790.554	17320.39
790.887	17329.21
791.219	17122.43
791.552	17189.55
791.884	17093.28
792.217	17031.36
792.549	16903.68
792.882	16837.69
793.214	16795.66
793.546	16762.67
793.879	16624.59
794.211	16589.79
794.543	16666.85
794.875	16512.73
795.207	16627.3
795.539	16491.94
795.871	16526.51
796.203	16337.82
796.535	16267.09
796.867	16300.76
797.198	16190.93
797.53	16151.61
797.862	16138.05
798.193	16047.66
798.525	15955
798.856	15970.37
799.188	15787.1
799.519	15744.39
799.85	15666.2
800.182	15724.5
800.513	15669.36
800.844	15518.63
801.175	15615.58
801.506	15638.63
801.837	15502.81
802.168	15437.5
802.499	15367.68
802.83	15322.03
803.161	15306.89
803.491	15327.22
803.822	15192.09
804.153	15150.51
804.483	14990.28
804.814	14914.58
805.145	14924.3
805.475	14894.92
805.805	14904.86
806.136	14917.07
806.466	14833.23
806.796	14871.87
807.126	14704.19
807.457	14702.61
807.787	14650.86
808.117	14572.44
808.447	14536.96
808.777	14458.77
809.107	14500.35
809.436	14398.66
809.766	14418.77
810.096	14334.03
810.426	14231.43
810.755	14258.78
811.085	14291.32
811.414	14174.94
811.744	14088.39
812.073	14132.91
812.403	14028.28
812.732	14134.26
813.061	13992.57
813.39	14033.92
813.719	13933.36
814.049	13989.18
814.378	13950.31
814.707	13820.15
815.036	13767.27
815.365	13753.03
815.693	13678.91
816.022	13686.82
816.351	13686.59
816.68	13467.16
817.008	13562.75
817.337	13436.88
817.665	13388.97
817.994	13516.42
818.322	13489.98
818.651	13355.07
818.979	13300.84
819.307	13364.34
819.636	13380.61
819.964	13204.79
820.292	13337.22
820.62	13166.38
820.948	13287.5
821.276	13313.27
821.604	13248.41
821.932	13208.86
822.259	13262.87
822.587	13202.53
822.915	13129.32
823.243	13130.45
823.57	13139.94
823.898	13175.87
824.225	13124.34
824.553	13151.46
824.88	13176.09
825.207	13174.06
825.535	13125.25
825.862	13121.86
826.189	13048.64
826.516	13126.38
826.843	13213.38
827.17	13188.98
827.497	13129.09
827.824	13181.07
828.151	13148.98
828.478	13104.68
828.805	13155.08
829.131	13031.92
829.458	13109.43
829.785	13019.49
830.111	13016.55
830.438	13120.95
830.764	13038.02
831.09	13084.8
831.417	13036.66
831.743	13010
832.069	13039.37
832.395	12923.9
832.722	12996.21
833.048	12992.6
833.374	12979.26
833.7	12888.87
834.026	12924.12
834.351	12931.35
834.677	12866.95
835.003	12942.65
835.329	12868.98
835.654	12898.59
835.98	12843.22
836.306	12830.34
836.631	12817.46
836.956	12796.44
837.282	12667.18
837.607	12735.2
837.932	12686.62
838.258	12737.24
838.583	12645.71
838.908	12625.6
839.233	12639.84
839.558	12655.2
839.883	12624.02
840.208	12545.83
840.533	12611.82
840.858	12642.55
841.182	12539.05
841.507	12506.73
841.832	12413.4
842.156	12475.55
842.481	12447.98
842.805	12409.56
843.13	12367.08
843.454	12344.7
843.778	12284.14
844.103	12293.18
844.427	12277.59
844.751	12222.45
845.075	12158.27
845.399	12245.5
845.723	12082.79
846.047	12142
846.371	12024.71
846.695	12033.53
847.019	11932.96
847.343	11873.98
847.666	11747.88
847.99	11700.43
848.313	11799.86
848.637	11676.25
848.96	11680.99
849.284	11641.9
849.607	11531.39
849.931	11539.3
850.254	11475.35
850.577	11377.95
850.9	11241
851.223	11250.04
851.546	11303.83
851.869	11136.15
852.192	11264.96
852.515	11113.78
852.838	11077.17
853.161	11073.55
853.483	11013.21
853.806	10966.43
854.129	10889.83
854.451	10899.32
854.774	10789.26
855.096	10780.9
855.419	10833.56
855.741	10751.98
856.063	10697.97
856.385	10671.08
856.708	10627.69
857.03	10583.39
857.352	10578.42
857.674	10625.88
857.996	10531.64
858.318	10474.92
858.64	10504.53
858.961	10391.99
859.283	10436.28
859.605	10361.03
859.926	10449.61
860.248	10366.45
860.57	10285.55
860.891	10316.96
861.212	10241.71
861.534	10294.36
861.855	10168.72
862.176	10243.29
862.498	10206
862.819	10187.02
863.14	10172.11
863.461	10066.8
863.782	10100.02
864.103	10111.54
864.424	10049.4
864.745	10015.05
865.065	9982.28
865.386	9929.17
865.707	10045.56
866.027	10005.1
866.348	10018.44
866.668	9926.24
866.989	9859.8
867.309	9816.86
867.63	9830.19
867.95	9825.45
868.27	9752
868.59	9807.82
868.91	9758.78
869.23	9755.39
869.55	9711.55
869.87	9685.34
870.19	9721.95
870.51	9738.44
870.83	9771.66
871.15	9569.86
871.469	9674.49
871.789	9674.27
872.109	9617.77
872.428	9609.18
872.748	9619.8
873.067	9638.33
873.386	9567.38
873.706	9615.51
874.025	9511.78
874.344	9424.78
874.663	9464.33
874.982	9406.7
875.301	9492.35
875.62	9401.96
875.939	9351.34
876.258	9402.86
876.577	9345.69
876.896	9350.43
877.214	9342.07
877.533	9320.6
877.852	9281.51
878.17	9329.19
878.489	9328.74
878.807	9310.21
879.125	9239.93
879.444	9265.46
879.762	9272.24
880.08	9277.21
880.398	9166.48
880.716	9158.35
881.034	9180.27
881.352	9104.11
881.67	9051.68
881.988	9107.73
882.306	9075.19
882.624	9087.16
882.941	9030.89
883.259	9042.42
883.577	8968.97
883.894	9022.53
884.212	9016.88
884.529	8996.09
884.846	8934.62
885.164	8955.87
885.481	8851.69
885.798	8927.39
886.115	8851.91
886.432	8829.54
886.75	8753.16
887.067	8805.81
887.383	8769.88
887.7	8777.11
888.017	8615.08
888.334	8636.1
888.651	8635.65
888.967	8603.79
889.284	8639.72
889.6	8594.29
889.917	8527.63
890.233	8515.65
890.55	8516.56
890.866	8523.79
891.182	8487.18
891.498	8502.32
891.815	8427.52
892.131	8353.62
892.447	8394.07
892.763	8343.23
893.079	8313.4
893.395	8208.99
893.71	8230.46
894.026	8227.52
894.342	8248.77
894.657	8162.89
894.973	8127.64
895.289	8158.83
895.604	8086.51
895.92	8081.99
896.235	8064.36
896.55	8006.74
896.865	8047.42
897.181	7975.55
897.496	7964.48
897.811	7942.56
898.126	7925.16
898.441	7863.47
898.756	7863.24
899.071	7815.56
899.386	7814.65
899.7	7736.01
900.015	7733.53
900.33	7670.02
900.644	7639.29
900.959	7700.98
901.273	7649.91
901.588	7587.31
901.902	7600.65
902.216	7579.86
902.531	7503.02
902.845	7484.94
903.159	7464.15
903.473	7376.25
903.787	7430.03
904.101	7293.09
904.415	7260.09
904.729	7277.49
905.042	7257.83
905.356	7264.61
905.67	7228
905.984	7187.33
906.297	7244.95
906.611	7176.48
906.924	7149.36
907.237	7089.47
907.551	7051.51
907.864	7042.47
908.177	7009.7
908.491	6991.85
908.804	6991.4
909.117	6982.36
909.43	6911.17
909.743	6837.28
910.056	6847.22
910.368	6792.76
910.681	6787.79
910.994	6733.55
911.307	6759.99
911.619	6719.09
911.932	6743.27
912.244	6632.99
912.557	6631.86
912.869	6584.18
913.181	6582.6
913.494	6567
913.806	6536.27
914.118	6498.3
914.43	6500.34
914.742	6486.78
915.054	6388.25
915.366	6411.07
915.678	6377.18
915.99	6372.88
916.302	6274.35
916.613	6307.12
916.925	6291.3
917.236	6211.31
917.548	6215.6
917.859	6177.18
918.171	6216.05
918.482	6114.13
918.794	6113.91
919.105	6069.84
919.416	6061.25
919.727	6032.33
920.038	6014.02
920.349	5973.8
920.66	5937.87
920.971	5907.81
921.282	5923.18
921.593	5841.82
921.903	5823.75
922.214	5797.98
922.525	5828.26
922.835	5768.38
923.146	5746.46
923.456	5754.82
923.767	5689.51
924.077	5726.12
924.387	5673.24
924.697	5621.26
925.008	5603.19
925.318	5555.28
925.628	5612.45
925.938	5561.15
926.248	5548.72
926.558	5486.58
926.867	5470.31
927.177	5414.72
927.487	5426.24
927.796	5388.28
928.106	5365.23
928.416	5363.64
928.725	5328.62
929.034	5330.42
929.344	5286.13
929.653	5253.82
929.962	5223.31
930.271	5213.14
930.581	5217.66
930.89	5165.46
931.199	5148.06
931.508	5127.49
931.817	5141.96
932.125	5118.45
932.434	5128.62
932.743	5026.25
933.051	4986.25
933.36	4972.24
933.669	4963.43
933.977	4975.41
934.286	4950.1
934.594	4955.97
934.902	4919.36
935.21	4859.25
935.519	4895.63
935.827	4836.88
936.135	4773.38
936.443	4805.01
936.751	4802.53
937.059	4775.19
937.367	4718.92
937.674	4707.16
937.982	4689.99
938.29	4687.5
938.597	4676.88
938.905	4600.73
939.213	4603.89
939.52	4589.65
939.827	4585.36
940.135	4574.29
940.442	4548.52
940.749	4476.21
941.056	4499.71
941.363	4511.24
941.67	4431.47
941.977	4428.3
942.284	4403.67
942.591	4386.95
942.898	4379.94
943.205	4390.56
943.511	4281.41
943.818	4265.14
944.125	4289.77
944.431	4257.91
944.738	4277.57
945.044	4226.95
945.35	4232.6
945.657	4226.05
945.963	4231.7
946.269	4166.16
946.575	4182.88
946.881	4117.58
947.187	4091.59
947.493	4118.03
947.799	4110.57
948.105	4059.72
948.41	4030.57
948.716	4035.09
949.022	3991.7
949.327	4044.36
949.633	3966.39
949.938	3987.64
950.244	3925.94
950.549	3979.05
950.854	3942.44
951.16	3914.42
951.465	3901.54
951.77	3835.77
952.075	3822.22
952.38	3824.93
952.685	3875.32
952.99	3772.5
953.294	3776.34
953.599	3742.44
953.904	3748.09
954.209	3722.56
954.513	3676.01
954.818	3708.09
955.122	3699.51
955.426	3626.06
955.731	3662.45
956.035	3647.98
956.339	3617.93
956.643	3612.5
956.948	3589
957.252	3562.79
957.556	3560.08
957.86	3532.28
958.163	3539.06
958.467	3492.73
958.771	3485.05
959.075	3503.35
959.378	3440.08
959.682	3449.34
959.985	3446.86
960.289	3404.6
960.592	3383.36
960.896	3425.84
961.199	3390.14
961.502	3358.27
961.805	3361.21
962.108	3356.01
962.411	3320.99
962.714	3310.59
963.017	3273.08
963.32	3318.5
963.623	3258.39
963.926	3270.82
964.228	3228.33
964.531	3246.64
964.833	3257.48
965.136	3184.94
965.438	3200.54
965.741	3176.81
966.043	3180.2
966.345	3165.51
966.648	3144.72
966.95	3125.51
967.252	3123.03
967.554	3073.54
967.856	3066.08
968.158	3065.85
968.46	3021.33
968.761	3043.25
969.063	3005.74
969.365	2998.28
969.666	3000.77
969.968	2952.41
970.269	2973.2
970.571	2953.99
970.872	2965.97
971.174	2920.54
971.475	2908.12
971.776	2917.83
972.077	2901.11
972.378	2914.44
972.679	2865.18
972.98	2868.79
973.281	2836.48
973.582	2843.71
973.883	2826.08
974.183	2795.58
974.484	2786.08
974.785	2789.7
975.085	2793.32
975.386	2744.05
975.686	2732.08
975.986	2759.64
976.287	2739.76
976.587	2696.37
976.887	2686.2
977.187	2720.1
977.487	2670.16
977.787	2663.15
978.087	2627.45
978.387	2635.13
978.687	2628.12
978.987	2605.52
979.286	2587.22
979.586	2584.51
979.885	2590.38
980.185	2568.69
980.484	2561.01
980.784	2531.63
981.083	2530.72
981.382	2519.43
981.682	2483.95
981.981	2492.99
982.28	2486.88
982.579	2469.71
982.878	2459.31
983.177	2469.48
983.475	2449.82
983.774	2419.99
984.073	2394.91
984.372	2413.44
984.67	2381.8
984.969	2386.1
985.267	2349.49
985.566	2390.16
985.864	2362.37
986.162	2367.11
986.461	2381.12
986.759	2307.68
987.057	2278.75
987.355	2303.16
987.653	2267.45
987.951	2278.75
988.249	2242.37
988.547	2250.51
988.844	2237.17
989.142	2244.63
989.44	2269.49
989.737	2247.34
990.035	2183.84
990.332	2170.28
990.63	2199.21
990.927	2171.86
991.224	2211.64
991.521	2210.73
991.819	2167.34
992.116	2180
992.413	2136.16
992.71	2156.72
993.006	2126.44
993.303	2130.06
993.6	2112.66
993.897	2074.69
994.193	2065.88
994.49	2072.66
994.787	2057.97
995.083	2026.33
995.379	2033.79
995.676	2058.19
995.972	2009.38
996.268	2035.37
996.565	1998.31
996.861	1994.69
997.157	2033.11
997.453	1953.56
997.749	1940.46
998.044	1921.93
998.34	1955.6
998.636	1925.77
998.932	1909.95
999.227	1915.6
999.523	1904.75
999.818	1900.23
1000.114	1890.74
1000.409	1865.88
1000.704	1860.69
1001	1850.06
1001.295	1827.24
1001.59	1836.51
1001.885	1846.22
1002.18	1826.11
1002.475	1836.51
1002.77	1792.66
1003.065	1788.15
1003.359	1783.63
1003.654	1778.88
1003.949	1763.06
1004.243	1726
1004.538	1702.95
1004.832	1727.58
1005.127	1728.94
1005.421	1701.37
1005.715	1697.3
1006.009	1697.3
1006.304	1697.75
1006.598	1678.54
1006.892	1634.25
1007.186	1624.53
1007.48	1639.67
1007.773	1623.18
1008.067	1638.09
1008.361	1633.12
1008.655	1601.48
1008.948	1575.5
1009.242	1582.95
1009.535	1617.98
1009.829	1572.33
1010.122	1542.28
1010.415	1576.63
1010.708	1562.16
1011.001	1528.94
1011.295	1525.1
1011.588	1522.39
1011.881	1509.28
1012.173	1514.93
1012.466	1514.48
1012.759	1479.68
1013.052	1452.33
1013.344	1481.71
1013.637	1472.45
1013.93	1467.48
1014.222	1453.24
1014.514	1424.09
1014.807	1441.94
1015.099	1422.73
1015.391	1431.09
1015.683	1397.87
1015.976	1396.74
1016.268	1365.78
1016.56	1375.73
1016.851	1360.13
1017.143	1389.96
1017.435	1347.48
1017.727	1328.72
1018.018	1359.46
1018.31	1339.34
1018.602	1347.93
1018.893	1313.58
1019.185	1306.8
1019.476	1314.49
1019.767	1273.81
1020.058	1280.36
1020.35	1278.78
1020.641	1297.99
1020.932	1269.51
1021.223	1281.49
1021.514	1248.95
1021.804	1232.68
1022.095	1244.43
1022.386	1221.83
1022.677	1208.73
1022.967	1219.8
1023.258	1204.88
1023.548	1215.05
1023.839	1192.45
1024.129	1182.51
1024.419	1154.94
1024.709	1159.69
1025	1142.74
1025.29	1135.96
1025.58	1168.73
1025.87	1146.58
1026.16	1137.54
1026.449	1116.98
1026.739	1134.38
1027.029	1096.64
1027.319	1102.29
1027.608	1092.34
1027.898	1104.32
1028.187	1066.36
1028.477	1095.06
1028.766	1052.57
1029.055	1038.56
1029.344	1036.07
1029.634	1051.44
1029.923	1038.56
1030.212	1005.79
1030.501	1026.58
1030.79	1024.1
1031.078	1012.57
1031.367	989.3
1031.656	1002.85
1031.945	981.16
1032.233	1009.41
1032.522	991.33
1032.81	973.7
1033.099	939.58
1033.387	940.26
1033.675	963.76
1033.963	930.09
1034.251	953.59
1034.54	930.31
1034.828	949.07
1035.116	942.07
1035.403	913.14
1035.691	921.73
1035.979	911.33
1036.267	902.52
1036.554	909.3
1036.842	891.67
1037.129	873.59
1037.417	881.73
1037.704	867.04
1037.992	869.07
1038.279	869.3
1038.566	869.3
1038.853	869.3
1039.14	869.3
