Data from white_wall_FLMS001491_081.txt Node
Date: Tue Feb 07 11:06:01 GMT 2017
User: dcchb
Spectrometer: FLMS00149
Trigger mode: 0
Integration Time (sec): 2.000000E-2
Scans to average: 10
Electric dark correction enabled: true
Nonlinearity correction enabled: false
Boxcar width: 0
XAxis mode: Wavelengths
Number of Pixels in Spectrum: 2048
>>>>>Begin Spectral Data<<<<<
341.393	-12.01
341.776	-12.01
342.16	-12.01
342.543	-44.09
342.927	-71.89
343.31	-84.32
343.693	-63.08
344.077	-45
344.46	-65.34
344.843	-38.67
345.226	-49.97
345.61	-26.02
345.993	-10.2
346.376	-7.49
346.759	9.24
347.142	27.54
347.525	27.77
347.908	56.24
348.291	67.99
348.674	105.96
349.057	95.34
349.44	122.68
349.823	151.83
350.206	158.39
350.588	212.4
350.971	231.6
351.354	253.75
351.737	267.54
352.119	268.21
352.502	285.16
352.884	272.28
353.267	293.07
353.65	320.64
354.032	334.65
354.414	336.01
354.797	337.82
355.179	350.92
355.562	340.75
355.944	359.06
356.326	341.88
356.709	373.75
357.091	379.85
357.473	358.38
357.855	377.59
358.238	354.31
358.62	389.57
359.002	357.02
359.384	365.16
359.766	375.33
360.148	356.8
360.53	362.67
360.912	362
361.294	362.45
361.676	345.05
362.057	359.28
362.439	358.61
362.821	376.69
363.203	349.57
363.584	349.57
363.966	368.78
364.348	356.8
364.729	346.4
365.111	346.4
365.493	357.7
365.874	357.93
366.256	347.99
366.637	339.85
367.019	324.26
367.4	356.57
367.781	365.84
368.163	332.17
368.544	330.81
368.925	333.97
369.306	352.5
369.688	341.66
370.069	344.6
370.45	357.7
370.831	330.36
371.212	348.21
371.593	340.75
371.974	363.13
372.355	369.68
372.736	365.84
373.117	350.47
373.498	343.01
373.879	375.33
374.26	345.27
374.641	358.38
375.021	350.25
375.402	345.73
375.783	357.7
376.163	367.87
376.544	367.42
376.925	370.36
377.305	365.61
377.686	370.81
378.066	366.74
378.447	350.25
378.827	394.09
379.208	364.03
379.588	358.61
379.968	367.87
380.349	374.2
380.729	380.53
381.109	394.54
381.489	394.31
381.87	405.16
382.25	383.01
382.63	386.85
383.01	394.76
383.39	394.09
383.77	394.76
384.15	411.26
384.53	400.64
384.91	434.08
385.29	428.66
385.67	451.71
386.049	438.38
386.429	435.89
386.809	442.22
387.189	431.15
387.568	437.25
387.948	458.26
388.328	444.03
388.707	435.67
389.087	451.03
389.466	473.41
389.846	457.36
390.225	455.55
390.605	452.84
390.984	478.6
391.363	477.47
391.743	478.15
392.122	490.81
392.501	517.02
392.881	506.63
393.26	512.73
393.639	503.91
394.018	526.29
394.397	522.9
394.776	555.66
395.155	550.24
395.534	559.73
395.913	559.28
396.292	574.42
396.671	576.23
397.05	600.63
397.429	594.08
397.808	618.03
398.186	644.7
398.565	623.91
398.944	635.89
399.323	647.41
399.701	649.9
400.08	674.08
400.458	693.51
400.837	702.78
401.215	723.79
401.594	705.94
401.972	726.96
402.351	762.44
402.729	758.82
403.107	761.99
403.486	773.96
403.864	800.85
404.242	778.48
404.62	808.99
404.999	859.16
405.377	868.65
405.755	899.84
406.133	901.64
406.511	901.64
406.889	943.45
407.267	938.25
407.645	945.26
408.023	986.16
408.401	999.72
408.779	996.33
409.156	1019.38
409.534	1058.7
409.912	1057.57
410.29	1094.18
410.667	1100.51
411.045	1093.05
411.422	1142.54
411.8	1158.36
412.178	1177.57
412.555	1193.16
412.933	1205.36
413.31	1239.94
413.687	1252.37
414.065	1258.47
414.442	1298.24
414.819	1279.26
415.197	1338.69
415.574	1337.11
415.951	1360.84
416.328	1365.36
416.705	1396.77
417.082	1396.32
417.46	1417.34
417.837	1447.62
418.214	1458.01
418.591	1474.28
418.967	1485.58
419.344	1501.4
419.721	1526.49
420.098	1528.75
420.475	1549.99
420.852	1548.18
421.228	1582.98
421.605	1626.37
421.982	1623.66
422.358	1631.57
422.735	1667.5
423.111	1696.2
423.488	1691.23
423.864	1716.31
424.241	1734.16
424.617	1729.87
424.994	1756.99
425.37	1775.29
425.746	1823.88
426.123	1823.2
426.499	1834.5
426.875	1884.44
427.251	1896.65
427.627	1926.93
428.003	1983.65
428.379	1952.91
428.756	2006.7
429.132	2025.91
429.507	2072.01
429.883	2086.02
430.259	2101.84
430.635	2120.59
431.011	2194.04
431.387	2200.59
431.763	2245.11
432.138	2296.18
432.514	2303.87
432.89	2321.27
433.265	2344.99
433.641	2401.04
434.016	2434.48
434.392	2446.91
434.767	2497.76
435.143	2473.35
435.518	2519.23
435.894	2569.4
436.269	2596.97
436.644	2662.5
437.02	2689.62
437.395	2709.51
437.77	2685.55
438.145	2766.45
438.52	2739.11
438.895	2832.44
439.271	2849.84
439.646	2887.58
440.021	2897.52
440.395	2923.96
440.77	2896.17
441.145	2977.97
441.52	3031.98
441.895	3005.77
442.27	3053
442.645	3026.78
443.019	3116.5
443.394	3116.95
443.769	3139.1
444.143	3150.62
444.518	3245.08
444.892	3196.5
445.267	3249.38
445.641	3252.54
446.016	3301.35
446.39	3315.36
446.764	3355.82
447.139	3297.29
447.513	3369.37
447.887	3428.58
448.262	3427.45
448.636	3429.26
449.01	3522.37
449.384	3507
449.758	3589.71
450.132	3588.13
450.506	3660.21
450.88	3632.87
451.254	3677.39
451.628	3738.18
452.002	3736.37
452.376	3782.47
452.75	3865.18
453.123	3881.68
453.497	3965.97
453.871	3963.71
454.244	4043.48
454.618	4077.38
454.992	4156.25
455.365	4104.5
455.739	4308.11
456.112	4274.44
456.486	4338.61
456.859	4427.43
457.232	4501.1
457.606	4457.48
457.979	4599.4
458.352	4626.29
458.725	4666.74
459.099	4686.4
459.472	4860.41
459.845	4906.06
460.218	4934.76
460.591	5005.94
460.964	5042.78
461.337	5130.68
461.71	5219.95
462.083	5247.97
462.456	5278.25
462.829	5330.91
463.201	5469.43
463.574	5468.08
463.947	5547.85
464.32	5720.95
464.692	5699.48
465.065	5757.79
465.438	5793.72
465.81	5908.74
466.183	5993.49
466.555	6144.67
466.928	6155.52
467.3	6187.83
467.672	6283.42
468.045	6498.33
468.417	6487.94
468.789	6531.1
469.161	6601.83
469.534	6742.39
469.906	6872.56
470.278	6948.26
470.65	7064.64
471.022	7204.75
471.394	7309.38
471.766	7368.59
472.138	7531.3
472.51	7680.22
472.882	7825.08
473.253	7869.6
473.625	7992.76
473.997	8156.37
474.369	8256.03
474.74	8330.15
475.112	8496.7
475.484	8625.51
475.855	8775.56
476.227	8835.45
476.598	9109.11
476.97	9215.77
477.341	9450.34
477.713	9581.87
478.084	9593.84
478.455	9952.25
478.827	9997.67
479.198	10325.8
479.569	10339.36
479.94	10636.53
480.311	10669.52
480.682	10967.82
481.053	11253.69
481.424	11354.7
481.795	11501.59
482.166	11693.45
482.537	11802.83
482.908	12165.53
483.279	12257.05
483.65	12473.32
484.021	12735.91
484.391	12904.49
484.762	13052.51
485.133	13103.13
485.503	13364.14
485.874	13652.72
486.244	13839.16
486.615	14013.61
486.985	14267.85
487.356	14588.97
487.726	14621.06
488.097	14955.96
488.467	14981.27
488.837	15325.67
489.207	15602.73
489.578	15750.74
489.948	15908.93
490.318	16114.58
490.688	16188.02
491.058	16599.08
491.428	16784.84
491.798	16870.49
492.168	17351.15
492.538	17373.53
492.908	17546.63
493.278	17811.48
493.648	17776.91
494.017	18132.6
494.387	18240.4
494.757	18319.26
495.126	18563.78
495.496	18665.47
495.866	18847.61
496.235	19136.19
496.605	19286.02
496.974	19414.38
497.344	19657.08
497.713	19779.34
498.082	19903.63
498.452	20096.62
498.821	20153.57
499.19	20304.3
499.559	20418.19
499.928	20612.54
500.298	20781.12
500.667	21100.43
501.036	21091.17
501.405	21316.02
501.774	21330.48
502.143	21664.94
502.512	21716.69
502.88	21958.94
503.249	21995.55
503.618	22138.15
503.987	22369.33
504.356	22440.51
504.724	22649.09
505.093	22760.28
505.462	22903.32
505.83	22922.76
506.199	23268.06
506.567	23563.65
506.936	23501.05
507.304	23911.66
507.672	24005.22
508.041	24069.85
508.409	24282.5
508.777	24523.62
509.145	24710.51
509.514	24735.59
509.882	24991.63
510.25	25165.41
510.618	25420.32
510.986	25531.96
511.354	25814.89
511.722	25942.34
512.09	26311.37
512.458	26105.5
512.826	26418.71
513.193	26590.23
513.561	26710.46
513.929	27010.79
514.297	27262.53
514.664	27387.05
515.032	27565.8
515.4	27745
515.767	27904.1
516.135	28024.55
516.502	28067.93
516.869	28574.81
517.237	28690.29
517.604	28553.35
517.972	29015.25
518.339	29318.07
518.706	29281.69
519.073	29511.06
519.44	29690.72
519.808	29999.86
520.175	29944.95
520.542	30536.34
520.909	30549.9
521.276	30677.81
521.643	30990.34
522.009	31279.38
522.376	31552.14
522.743	31657.22
523.11	32012.46
523.477	32216.98
523.843	32388.05
524.21	32765.44
524.577	32927.02
524.943	33086.33
525.31	33275.26
525.676	33668.47
526.043	33673.66
526.409	33945.52
526.776	34285.62
527.142	34448.56
527.508	34597.48
527.874	35018.03
528.241	35227.75
528.607	35298.7
528.973	35594.29
529.339	35726.94
529.705	35874.28
530.071	36336.87
530.437	36415.74
530.803	36751.1
531.169	36833.13
531.535	36808.72
531.901	37108.83
532.267	37256.17
532.632	37551.75
532.998	37612.32
533.364	37935.02
533.73	37880.56
534.095	38249.81
534.461	38493.65
534.826	38569.35
535.192	38739.29
535.557	38943.13
535.923	38955.33
536.288	39114.65
536.653	39423.57
537.019	39175.66
537.384	39512.15
537.749	39818.59
538.114	39935.87
538.479	39808.42
538.845	40190.78
539.21	40178.12
539.575	40394.39
539.94	40481.62
540.305	40815.4
540.67	40746.25
541.034	40961.38
541.399	41191.88
541.764	41389.17
542.129	41473.68
542.494	41576.51
542.858	41768.59
543.223	41964.29
543.587	42188.69
543.952	42106.66
544.316	42310.27
544.681	42350.27
545.045	42531.28
545.41	42907.32
545.774	42926.07
546.138	43128.1
546.503	43186.18
546.867	43164.94
547.231	43549.79
547.595	43573.97
547.959	43907.97
548.324	43837.69
548.688	44035.42
549.052	44241.07
549.416	44305.47
549.779	44471.57
550.143	44621.17
550.507	44946.81
550.871	45044.21
551.235	45031.56
551.599	45336.18
551.962	45508.15
552.326	45576.17
552.689	45904.3
553.053	45699.11
553.417	45980.91
553.78	46371.41
554.143	46217.51
554.507	46490.73
554.87	46735.47
555.234	47160.09
555.597	46917.83
555.96	47269.46
556.323	47494.09
556.686	47545.61
557.05	47909.45
557.413	47915.77
557.776	48021.08
558.139	48380.85
558.502	48553.5
558.865	48576.1
559.228	48887.95
559.59	48880.04
559.953	49064.9
560.316	49536.52
560.679	49506.24
561.041	49645.67
561.404	49829.17
561.767	50114.36
562.129	50049.5
562.492	50468.93
562.854	50333.56
563.217	50466.89
563.579	50557.06
563.941	50929.25
564.304	50946.65
564.666	51153.65
565.028	51296.93
565.39	51360.2
565.753	51591.16
566.115	51628.67
566.477	51873.18
566.839	51933.75
567.201	52180.52
567.563	52178.03
567.925	52364.7
568.287	52428.65
568.648	52484.92
569.01	52738.7
569.372	52882.65
569.734	52865.02
570.095	53016.43
570.457	53210.78
570.819	53230.89
571.18	53251
571.542	53337.1
571.903	53393.14
572.265	53566.47
572.626	53673.36
572.987	53646.92
573.349	53848.27
573.71	53953.13
574.071	53999.68
574.432	54134.82
574.794	54351.31
575.155	54284.87
575.516	54190.64
575.877	54331.2
576.238	54350.41
576.599	54487.8
576.96	54422.95
577.32	54546.33
577.681	54556.96
578.042	54676.05
578.403	54643.73
578.763	54667.91
579.124	54711.08
579.485	54826.55
579.845	54944.74
580.206	54848.02
580.566	54826.78
580.927	54861.35
581.287	55011.86
581.648	54941.13
582.008	55054.34
582.368	55049.15
582.728	55098.86
583.089	55015.25
583.449	55037.62
583.809	55088.69
584.169	55177.96
584.529	55052.54
584.889	55307.22
585.249	55167.33
585.609	55038.3
585.969	55292.76
586.329	55118.52
586.688	55245.52
587.048	55224.28
587.408	55125.3
587.768	55176.83
588.127	55243.04
588.487	55132.53
588.846	55326.43
589.206	55179.54
589.565	55231.74
589.925	55316.71
590.284	55304.73
590.643	55262.47
591.003	55402.81
591.362	55397.39
591.721	55323.71
592.08	55310.38
592.44	55388.12
592.799	55358.52
593.158	55359.87
593.517	55311.06
593.876	55466.76
594.235	55356.48
594.593	55376.14
594.952	55423.6
595.311	55418.85
595.67	55422.47
596.029	55662.69
596.387	55626.76
596.746	55617.27
597.104	55440.77
597.463	55448.01
597.822	55646.42
598.18	55537.27
598.538	55506.99
598.897	55655.01
599.255	55456.37
599.613	55861.1
599.972	55673.99
600.33	55774.32
600.688	55716.25
601.046	55768.45
601.404	55800.54
601.762	55769.8
602.12	55856.13
602.478	55928.22
602.836	55898.61
603.194	55766.42
603.552	55852.97
603.91	55759.64
604.268	55921.89
604.625	55831.5
604.983	55986.52
605.341	55890.93
605.698	56078.5
606.056	56032.85
606.413	56023.36
606.771	56128.44
607.128	56101.77
607.485	56011.61
607.843	56094.99
608.2	56230.81
608.557	56329.79
608.914	56253.18
609.272	56310.58
609.629	56370.92
609.986	56438.49
610.343	56381.31
610.7	56537.02
611.057	56518.71
611.414	56469.45
611.771	56422.44
612.127	56636.45
612.484	56556.68
612.841	56684.36
613.198	56542.21
613.554	56599.61
613.911	56827.86
614.267	56740.4
614.624	56723
614.98	56732.49
615.337	56882.77
615.693	56816.78
616.05	56693.17
616.406	56881.87
616.762	56815.43
617.118	56898.81
617.475	56874.18
617.831	56951.02
618.187	56958.47
618.543	56965.71
618.899	57095.87
619.255	57043.22
619.611	57082.31
619.967	57133.38
620.323	57225.36
620.678	57091.8
621.034	57032.14
621.39	57107.4
621.746	57059.26
622.101	57284.79
622.457	57112.82
622.812	57148.07
623.168	57239.82
623.523	57225.13
623.879	57258.81
624.234	57185.59
624.589	57240.27
624.945	57233.04
625.3	57342.87
625.655	57100.17
626.01	57242.99
626.365	57214.29
626.72	57170.45
627.075	57235.98
627.43	57237.11
627.785	57195.08
628.14	57242.53
628.495	57258.35
628.85	57212.7
629.205	57069.43
629.559	57295.87
629.914	57107.85
630.269	57176.55
630.623	57081.86
630.978	57028.98
631.332	57101.3
631.687	57194.63
632.041	57042.77
632.396	57036.66
632.75	56951.02
633.104	56978.59
633.459	56856.56
633.813	56933.84
634.167	56852.26
634.521	56832.38
634.875	56924.58
635.229	56785.82
635.583	56733.4
635.937	56700.85
636.291	56671.25
636.645	56693.85
636.999	56669.89
637.352	56673.06
637.706	56572.27
638.06	56677.13
638.413	56558.48
638.767	56539.5
639.121	56511.48
639.474	56437.81
639.828	56410.24
640.181	56496.79
640.534	56441.2
640.888	56421.77
641.241	56302.67
641.594	56318.26
641.947	56398.49
642.301	56245.27
642.654	56281.43
643.007	56293.41
643.36	56272.16
643.713	56241.88
644.066	56309.9
644.419	56079.4
644.771	55952.85
645.124	55633.99
645.477	55630.83
645.83	55529.13
646.182	55353.54
646.535	55240.1
646.888	55295.69
647.24	55137.73
647.593	55294.11
647.945	55179.99
648.298	55057.06
648.65	55022.71
649.002	54923.73
649.355	55127.79
649.707	55035.36
650.059	55152.19
650.411	55462.47
650.763	55485.07
651.115	55685.29
651.467	55614.33
651.819	55622.46
652.171	55585.4
652.523	55415.01
652.875	55483.71
653.227	55400.55
653.578	55521.22
653.93	55442.13
654.282	55350.38
654.633	55293.89
654.985	55316.94
655.337	55321
655.688	55348.8
656.039	55416.82
656.391	55118.97
656.742	55270.61
657.094	55246.43
657.445	55361
657.796	55229.71
658.147	55133.44
658.498	55075.36
658.849	55210.27
659.2	55119.2
659.551	55041.46
659.902	55125.08
660.253	55168.46
660.604	55129.14
660.955	54984.06
661.306	55077.17
661.656	54927.57
662.007	54991.75
662.358	54949.26
662.708	54939.32
663.059	54942.48
663.409	54758.31
663.76	54982.25
664.11	54915.82
664.461	54988.58
664.811	54973.67
665.161	54919.66
665.511	54769.61
665.862	54865.2
666.212	55005.76
666.562	54875.59
666.912	54864.97
667.262	54775.25
667.612	54810.28
667.962	54798.76
668.312	54807.8
668.662	54914.46
669.011	54751.3
669.361	54708.36
669.711	54623.85
670.06	54677.18
670.41	54650.96
670.76	54555.6
671.109	54671.53
671.459	54630.63
671.808	54486.45
672.157	54614.58
672.507	54345.44
672.856	54393.57
673.205	54372.78
673.554	54434.02
673.904	54313.57
674.253	54460.91
674.602	54370.52
674.951	53958.55
675.3	53798.78
675.649	54246.68
675.998	54199.45
676.346	54241.26
676.695	54324.65
677.044	54090.53
677.393	54215.72
677.741	54220.69
678.09	54068.38
678.438	53985.22
678.787	54003.98
679.135	54067.02
679.484	53767.37
679.832	53974.37
680.181	53808.05
680.529	53880.59
680.877	53816.64
681.225	53854.6
681.573	53988.38
681.922	53658
682.27	53592.69
682.618	53545.23
682.966	53554.5
683.314	53605.12
683.661	53441.05
684.009	53300.04
684.357	53248.74
684.705	53173.94
685.053	53317.89
685.4	53195.64
685.748	53004.45
686.095	53110.21
686.443	52918.81
686.79	52852.59
687.138	52842.2
687.485	52815.31
687.832	52680.85
688.18	52704.57
688.527	52594.52
688.874	52472.04
689.221	52392.72
689.568	52392.49
689.915	52280.18
690.262	52331.25
690.609	52183.23
690.956	52091.26
691.303	51982.79
691.65	51874.99
691.997	51863.47
692.344	51588.45
692.69	51637.94
693.037	51682.23
693.383	51366.53
693.73	51477.94
694.077	51241.56
694.423	51215.12
694.769	51085.86
695.116	51062.81
695.462	51011.29
695.808	50899.88
696.155	51058.52
696.501	50640.67
696.847	50783.5
697.193	50534.01
697.539	50637.74
697.885	50340.12
698.231	50241.14
698.577	50196.39
698.923	50167.47
699.269	50026.9
699.614	49857.87
699.96	49703.98
700.306	49694.48
700.651	49474.15
700.997	49569.97
701.342	49456.52
701.688	49372.91
702.033	49277.55
702.379	49205.01
702.724	48952.36
703.069	49152.8
703.415	48732.25
703.76	48684.34
704.105	48786.71
704.45	48579.94
704.795	48327.29
705.14	48344.46
705.485	48337.01
705.83	48106.05
706.175	48315.09
706.52	48026.96
706.865	47945.15
707.209	47811.82
707.554	47698.15
707.899	47877.58
708.243	47697.02
708.588	47636.69
708.932	47310.82
709.277	47330.03
709.621	47364.83
709.966	47107.89
710.31	47079.86
710.654	46765.07
710.998	46947.21
711.342	46901.11
711.687	46781.34
712.031	46589.71
712.375	46517.39
712.719	46695.24
713.063	46506.77
713.407	46600.33
713.75	46389.03
714.094	46271.98
714.438	46081.7
714.782	46145.65
715.125	45870.4
715.469	45987.01
715.812	45726
716.156	45655.49
716.499	45630.64
716.843	45526.23
717.186	45369.63
717.53	45540.24
717.873	45466.8
718.216	45289.85
718.559	45096.19
718.902	44999.47
719.246	44924.67
719.589	44869.98
719.932	44718.57
720.275	44691.23
720.617	44529.42
720.96	44660.04
721.303	44605.35
721.646	44556.99
721.989	44397.45
722.331	44486.94
722.674	44349.99
723.016	44423.66
723.359	44254.63
723.701	44281.29
724.044	43997.46
724.386	43872.04
724.729	43974.86
725.071	43806.05
725.413	43807.63
725.755	43743.91
726.097	43479.05
726.439	43419.62
726.782	43469.79
727.124	43635.43
727.465	43391.37
727.807	43378.72
728.149	43157.26
728.491	43188.89
728.833	43194.09
729.175	42955.45
729.516	42949.12
729.858	42884.04
730.199	43045.39
730.541	42818.05
730.882	42639.98
731.224	42816.25
731.565	42567.67
731.906	42532.64
732.248	42487.67
732.589	42399.76
732.93	42218.97
733.271	42159.09
733.612	42296.26
733.953	42104.63
734.294	41988.02
734.635	42025.31
734.976	41941.47
735.317	41832.09
735.658	41837.74
735.999	41696.28
736.339	41800.91
736.68	41633.68
737.021	41522.04
737.361	41415.15
737.702	41668.71
738.042	41401.6
738.383	41373.12
738.723	41403.4
739.063	41232.11
739.404	41150.08
739.744	41136.74
740.084	41046.12
740.424	41145.78
740.764	41022.4
741.104	40998.44
741.444	40827.6
741.784	40710.31
742.124	40759.58
742.464	40767.04
742.804	40546.93
743.143	40575.85
743.483	40467.61
743.823	40318.69
744.162	40153.04
744.502	40271.46
744.841	40147.16
745.181	40260.16
745.52	40069.88
745.86	40236.88
746.199	40049.77
746.538	39940.39
746.877	40053.16
747.216	39947.17
747.556	39768.42
747.895	39830.34
748.234	39520.97
748.573	39592.6
748.911	39421.53
749.25	39513.06
749.589	39476.45
749.928	39291.82
750.267	39384.25
750.605	39363.91
750.944	39043.92
751.283	39020.19
751.621	39068.32
751.96	38875.11
752.298	38791.27
752.636	38844.83
752.975	38693.87
753.313	38561.22
753.651	38675.11
753.989	38468.56
754.327	38391.28
754.666	38266.31
755.004	38241.68
755.342	38142.02
755.679	38141.12
756.017	37931.86
756.355	38034.68
756.693	37744.06
757.031	37925.08
757.368	37525.54
757.706	37649.83
758.044	37539.55
758.381	37490.06
758.719	37429.04
759.056	37287.8
759.394	37190.41
759.731	37034.48
760.068	36822.05
760.405	36726.01
760.743	36550.65
761.08	36653.02
761.417	36572.12
761.754	36432.23
762.091	36325.8
762.428	36200.38
762.765	35992.7
763.102	36081.96
763.438	35821.85
763.775	35735.08
764.112	35766.71
764.449	35789.09
764.785	35563.33
765.122	35227.97
765.458	35343.45
765.795	35148.88
766.131	35224.36
766.467	35079.05
766.804	34887.42
767.14	34703.92
767.476	34575.79
767.812	34531.04
768.148	34566.75
768.485	34324.27
768.821	34123.37
769.157	34157.94
769.492	33996.14
769.828	33966.08
770.164	33551.18
770.5	33661.46
770.836	33607.68
771.171	33404.52
771.507	33360
771.842	32975.83
772.178	33079.55
772.513	33038.88
772.849	33007.24
773.184	32765.89
773.519	32651.54
773.855	32476.63
774.19	32352.57
774.525	32201.16
774.86	32195.28
775.195	32237.77
775.53	32145.57
775.865	31949.87
776.2	31660.83
776.535	31448.64
776.87	31577.67
777.205	31382.42
777.539	31142.66
777.874	31242.99
778.209	30921.87
778.543	30964.58
778.878	30725.72
779.212	30688.2
779.547	30594.65
779.881	30568.66
780.215	30367.53
780.55	30463.13
780.884	30114.66
781.218	30106.52
781.552	30066.53
781.886	29888.45
782.22	29665.63
782.554	29635.12
782.888	29424.51
783.222	29354
783.556	29291.86
783.889	29092.31
784.223	28961.02
784.557	28986.1
784.89	28896.16
785.224	28703.85
785.557	28623.63
785.891	28517.41
786.224	28459.34
786.558	28512.89
786.891	28102.28
787.224	28071.55
787.557	28047.6
787.891	27932.12
788.224	27809.41
788.557	27866.81
788.89	27817.55
789.223	27759.24
789.556	27578
789.888	27397.22
790.221	27287.84
790.554	27183.44
790.887	27117.45
791.219	27048.98
791.552	26877.91
791.884	26864.8
792.217	26740.29
792.549	26658.48
792.882	26538.26
793.214	26434.3
793.546	26427.98
793.879	26247.64
794.211	26108.66
794.543	26143.69
794.875	26059.85
795.207	26117.7
795.539	26049.23
795.871	25991.83
796.203	25633.65
796.535	25640.65
796.867	25498.28
797.198	25566.53
797.53	25450.83
797.862	25185.52
798.193	25292.19
798.525	25121.57
798.856	25065.75
799.188	24947.34
799.519	24698.31
799.85	24596.39
800.182	24665.99
800.513	24597.52
800.844	24384.64
801.175	24564.52
801.506	24437.3
801.837	24287.47
802.168	24181.48
802.499	24125.67
802.83	24067.36
803.161	23953.24
803.491	23952.11
803.822	23981.94
804.153	23782.62
804.483	23623.76
804.814	23580.14
805.145	23625.79
805.475	23534.04
805.805	23483.65
806.136	23423.76
806.466	23387.15
806.796	23407.72
807.126	23088.63
807.457	23120.27
807.787	23130.89
808.117	23046.6
808.447	22925.47
808.777	22994.62
809.107	22827.62
809.436	22798.47
809.766	22738.81
810.096	22685.25
810.426	22576.78
810.755	22583.11
811.085	22507.63
811.414	22388.54
811.744	22301.76
812.073	22183.12
812.403	22328.65
812.732	22066.74
813.061	22137.69
813.39	21962.56
813.719	21960.3
814.049	22009.56
814.378	21946.51
814.707	21752.17
815.036	21752.17
815.365	21705.84
815.693	21454.55
816.022	21625.62
816.351	21558.73
816.68	21365.96
817.008	21460.42
817.337	21168.45
817.665	21260.43
817.994	21288.9
818.322	21223.59
818.651	21150.6
818.979	20976.14
819.307	21058.63
819.636	21035.35
819.964	20893.21
820.292	20973.43
820.62	21018.4
820.948	20786.77
821.276	20975.24
821.604	20860.89
821.932	20894.34
822.259	20934.11
822.587	20835.13
822.915	20762.82
823.243	20818.18
823.57	20728.92
823.898	20772.53
824.225	20676.49
824.553	20728.47
824.88	20706.32
825.207	20760.1
825.535	20727.34
825.862	20829.48
826.189	20734.57
826.516	20735.47
826.843	20809.14
827.17	20666.55
827.497	20854.11
827.824	20725.3
828.151	20847.33
828.478	20713.33
828.805	20700.9
829.131	20697.96
829.458	20627.45
829.785	20555.14
830.111	20597.62
830.438	20751.06
830.764	20620.22
831.09	20663.38
831.417	20556.72
831.743	20630.16
832.069	20540
832.395	20549.71
832.722	20606.89
833.048	20469.49
833.374	20482.15
833.7	20455.71
834.026	20476.95
834.351	20615.93
834.677	20477.63
835.003	20507
835.329	20421.36
835.654	20409.38
835.98	20350.4
836.306	20340.68
836.631	20215.26
836.956	20330.74
837.282	20276.73
837.607	20208.71
837.932	20098.65
838.258	20067.69
838.583	20097.75
838.908	19928.71
839.233	20062.95
839.558	20031.08
839.883	19885.55
840.208	19935.94
840.533	19898.21
840.858	19830.86
841.182	19820.02
841.507	19812.56
841.832	19605.33
842.156	19652.34
842.481	19569.17
842.805	19496.18
843.13	19560.14
843.454	19606.24
843.778	19496.86
844.103	19438.1
844.427	19363.08
844.751	19382.51
845.075	19214.83
845.399	19191.78
845.723	19185.91
846.047	19132.8
846.371	18882.64
846.695	18901.62
847.019	18837.89
847.343	18763.55
847.666	18620.73
847.99	18640.61
848.313	18531.01
848.637	18291.02
848.96	18379.38
849.284	18323.78
849.607	18184.35
849.931	18215.99
850.254	18100.51
850.577	17949.56
850.9	17812.38
851.223	17846.96
851.546	17707.3
851.869	17558.61
852.192	17795.89
852.515	17484.94
852.838	17490.36
853.161	17480.64
853.483	17407.2
853.806	17331.27
854.129	17303.02
854.451	17119.97
854.774	17048.56
855.096	16981.67
855.419	17002.46
855.741	17045.85
856.063	16998.17
856.385	16939.64
856.708	16859.87
857.03	16761.56
857.352	16804.73
857.674	16651.74
857.996	16559.76
858.318	16558.86
858.64	16575.58
858.961	16473.66
859.283	16463.95
859.605	16340.11
859.926	16386.66
860.248	16240
860.57	16245.19
860.891	16275.93
861.212	16057.63
861.534	16143.73
861.855	16112.09
862.176	16182.37
862.498	15949.61
862.819	16068.93
863.14	15985.09
863.461	15927.46
863.782	15884.3
864.103	15915.49
864.424	15808.82
864.745	15875.71
865.065	15741.93
865.386	15591.2
865.707	15699.45
866.027	15647.47
866.348	15568.15
866.668	15576.29
866.989	15498.32
867.309	15468.94
867.63	15538.32
867.95	15475.5
868.27	15414.71
868.59	15487.02
868.91	15412.45
869.23	15307.82
869.55	15319.34
869.87	15360.92
870.19	15356.4
870.51	15290.19
870.83	15278.67
871.15	15241.83
871.469	15200.93
871.789	15211.55
872.109	15045.23
872.428	15040.93
872.748	15059.24
873.067	15103.98
873.386	15037.99
873.706	15048.62
874.025	15023.98
874.344	14911.22
874.663	14942.63
874.982	14939.24
875.301	14898.34
875.62	14935.62
875.939	14850.65
876.258	14896.3
876.577	14777.21
876.896	14754.16
877.214	14715.52
877.533	14767.49
877.852	14722.07
878.17	14683.43
878.489	14657.67
878.807	14686.59
879.125	14696.76
879.444	14619.02
879.762	14531.34
880.08	14543.54
880.398	14465.58
880.716	14513.94
881.034	14328.86
881.352	14444.79
881.67	14347.62
881.988	14400.95
882.306	14301.06
882.624	14299.71
882.941	14335.64
883.259	14151.92
883.577	14234.17
883.894	14170.45
884.212	14059.04
884.529	14136.1
884.846	14092.93
885.164	13984.01
885.481	13988.98
885.798	14102.65
886.115	13880.28
886.432	13922.77
886.75	13896.1
887.067	13833.96
887.383	13756.9
887.7	13716.67
888.017	13726.84
888.334	13769.78
888.651	13590.35
888.967	13683.68
889.284	13577.69
889.6	13532.5
889.917	13431.48
890.233	13415.89
890.55	13451.14
890.866	13387.64
891.182	13376.34
891.498	13306.06
891.815	13196.91
892.131	13148.33
892.447	13103.36
892.763	13074.43
893.079	13015.67
893.395	13040.53
893.71	13022.68
894.026	12971.83
894.342	12953.08
894.657	12874.89
894.973	12835.57
895.289	12872.4
895.604	12838.05
895.92	12761.67
896.235	12695.46
896.55	12610.04
896.865	12586.53
897.181	12600.09
897.496	12613.2
897.811	12545.4
898.126	12465.18
898.441	12436.48
898.756	12410.27
899.071	12254.11
899.386	12354.45
899.7	12229.03
900.015	12142.48
900.33	12138.18
900.644	12124.4
900.959	12113.78
901.273	12135.7
901.588	12017.51
901.902	11958.53
902.216	11791.3
902.531	11849.15
902.845	11830.17
903.159	11736.61
903.473	11748.82
903.787	11635.82
904.101	11614.81
904.415	11600.8
904.729	11509.05
905.042	11471.31
905.356	11433.57
905.67	11346.34
905.984	11398.77
906.297	11275.61
906.611	11233.35
906.924	11272.67
907.237	11252.56
907.551	11142.73
907.864	11076.74
908.177	11097.08
908.491	11091.21
908.804	10915.39
909.117	10914.71
909.43	10794.26
909.743	10726.24
910.056	10709.52
910.368	10702.74
910.681	10694.61
910.994	10605.79
911.307	10625.68
911.619	10500.03
911.932	10518.57
912.244	10478.57
912.557	10489.41
912.869	10309.76
913.181	10368.06
913.494	10344.78
913.806	10246.26
914.118	10218.23
914.43	10105.02
914.742	10067.5
915.054	10022.53
915.366	10034.74
915.678	9963.78
915.99	9973.49
916.302	9874.74
916.613	9780.51
916.925	9818.24
917.236	9807.62
917.548	9667.74
917.859	9697.34
918.171	9622.32
918.482	9580.74
918.794	9538.93
919.105	9512.04
919.416	9438.37
919.727	9429.55
920.038	9421.64
920.349	9343.68
920.66	9307.3
920.971	9273.85
921.282	9232.27
921.593	9206.06
921.903	9111.82
922.214	9100.75
922.525	9085.83
922.835	9082.22
923.146	8931.49
923.456	8951.6
923.767	8916.35
924.077	8891.04
924.387	8826.41
924.697	8784.83
925.008	8740.76
925.318	8741.44
925.628	8692.17
925.938	8696.92
926.248	8638.16
926.558	8637.71
926.867	8489.47
927.177	8564.27
927.487	8493.76
927.796	8399.52
928.106	8416.47
928.416	8406.3
928.725	8348.23
929.034	8251.28
929.344	8304.16
929.653	8189.59
929.962	8187.78
930.271	8115.69
930.581	8068.23
930.89	8036.82
931.199	8031.62
931.508	8036.6
931.817	8025.07
932.125	7967.45
932.434	7886.54
932.743	7797.51
933.051	7839.77
933.36	7749.82
933.669	7703.5
933.977	7736.27
934.286	7685.65
934.594	7657.85
934.902	7568.36
935.21	7585.76
935.519	7557.29
935.827	7572.2
936.135	7536.27
936.443	7377.18
936.751	7339.89
937.059	7371.3
937.367	7315.03
937.674	7330.63
937.982	7259.22
938.29	7252.89
938.597	7259.67
938.905	7123.63
939.213	7138.99
939.52	7095.83
939.827	7132.44
940.135	7066.45
940.442	7005.21
940.749	7000.24
941.056	6977.64
941.363	6927.02
941.67	6896.97
941.977	6866.46
942.284	6827.36
942.591	6752.34
942.898	6815.16
943.205	6688.61
943.511	6743.07
943.818	6702.85
944.125	6635.28
944.431	6613.58
944.738	6588.05
945.044	6592.34
945.35	6569.52
945.657	6496.3
945.963	6496.75
946.269	6472.57
946.575	6450.42
946.881	6377.21
947.187	6358.67
947.493	6327.04
947.799	6354.15
948.105	6278
948.41	6251.11
948.716	6276.64
949.022	6185.12
949.327	6189.41
949.633	6073.94
949.938	6038.46
950.244	6089.3
950.549	6022.86
950.854	6023.99
951.16	5982.64
951.465	5949.42
951.77	5930.89
952.075	5903.55
952.38	5884.79
952.685	5885.01
952.99	5798.24
953.294	5773.83
953.599	5776.09
953.904	5732.93
954.209	5713.95
954.513	5647.96
954.818	5726.83
955.122	5698.13
955.426	5668.52
955.731	5614.29
956.035	5579.94
956.339	5593.95
956.643	5562.76
956.948	5474.63
957.252	5483.9
957.556	5479.38
957.86	5464.91
958.163	5415.87
958.467	5415.65
958.771	5398.93
959.075	5366.84
959.378	5315.09
959.682	5275.54
959.985	5245.03
960.289	5278.7
960.592	5193.06
960.896	5247.29
961.199	5191.7
961.502	5153.73
961.805	5110.12
962.108	5116.67
962.411	5072.61
962.714	5067.86
963.017	5058.14
963.32	5041.87
963.623	4985.83
963.926	4968.43
964.228	4974.76
964.531	4936.34
964.833	4876.68
965.136	4856.12
965.438	4856.57
965.741	4854.53
966.043	4821.09
966.345	4784.7
966.648	4779.51
966.95	4779.06
967.252	4727.98
967.554	4715.1
967.856	4705.84
968.158	4652.73
968.46	4653.86
968.761	4621.09
969.063	4638.49
969.365	4639.85
969.666	4564.37
969.968	4572.28
970.269	4502.45
970.571	4526.41
970.872	4463.13
971.174	4460.87
971.475	4415
971.776	4419.74
972.077	4414.32
972.378	4405.96
972.679	4408.44
972.98	4349.91
973.281	4320.99
973.582	4293.87
973.883	4303.14
974.183	4223.59
974.484	4248.67
974.785	4227.21
975.085	4191.95
975.386	4210.93
975.686	4160.31
975.986	4137.49
976.287	4179.75
976.587	4119.19
976.887	4041.67
977.187	4095.91
977.487	4079.41
977.787	4036.7
978.087	3976.36
978.387	4033.54
978.687	3978.4
978.987	3949.92
979.286	3936.37
979.586	3923.48
979.885	3892.07
980.185	3914.9
980.484	3845.29
980.784	3860.66
981.083	3882.13
981.382	3811.62
981.682	3789.02
981.981	3789.7
982.28	3805.75
982.579	3732.3
982.878	3793.54
983.177	3703.6
983.475	3728.01
983.774	3669.93
984.073	3685.52
984.372	3667.9
984.67	3617.96
984.969	3638.75
985.267	3656.6
985.566	3595.36
985.864	3579.76
986.162	3612.08
986.461	3582.48
986.759	3544.29
987.057	3461.35
987.355	3475.13
987.653	3474.68
987.951	3467.45
988.249	3402.82
988.547	3420.9
988.844	3405.31
989.142	3378.41
989.44	3335.48
989.737	3351.07
990.035	3374.35
990.332	3331.41
990.63	3318.53
990.927	3325.31
991.224	3295.93
991.521	3276.72
991.819	3279.66
992.116	3232.66
992.413	3255.48
992.71	3185.88
993.006	3192.66
993.303	3180
993.6	3140.23
993.897	3153.34
994.193	3122.38
994.49	3133
994.787	3126.44
995.083	3038.31
995.379	3077.86
995.676	3055.94
995.972	3040.57
996.268	3024.75
996.565	2986.79
996.861	2978.65
997.157	2966
997.453	2925.09
997.749	2907.47
998.044	2872.66
998.34	2885.09
998.636	2877.86
998.932	2891.42
999.227	2859.56
999.523	2837.86
999.818	2808.71
1000.114	2828.6
1000.409	2774.36
1000.704	2813.46
1001	2750.41
1001.295	2708.15
1001.59	2716.96
1001.885	2738.66
1002.18	2715.15
1002.475	2692.1
1002.77	2668.38
1003.065	2683.52
1003.359	2630.64
1003.654	2601.26
1003.949	2609.17
1004.243	2606
1004.538	2576.18
1004.832	2565.78
1005.127	2573.92
1005.421	2528.27
1005.715	2521.04
1006.009	2505.22
1006.304	2475.16
1006.598	2466.35
1006.892	2435.16
1007.186	2414.37
1007.48	2477.42
1007.773	2435.16
1008.067	2394.94
1008.361	2390.19
1008.655	2386.35
1008.948	2410.98
1009.242	2387.25
1009.535	2314.26
1009.829	2332.79
1010.122	2296.41
1010.415	2279.23
1010.708	2279.69
1011.001	2297.31
1011.295	2297.99
1011.588	2255.05
1011.881	2237.88
1012.173	2199.01
1012.466	2227.94
1012.759	2181.61
1013.052	2193.59
1013.344	2185.9
1013.637	2176.19
1013.93	2144.55
1014.222	2133.93
1014.514	2145.23
1014.807	2120.37
1015.099	2080.14
1015.391	2088.96
1015.683	2050.99
1015.976	2043.31
1016.268	2045.34
1016.56	2020.48
1016.851	1988.62
1017.143	2009.41
1017.435	1994.27
1017.727	1983.65
1018.018	1965.12
1018.31	1970.54
1018.602	1932.8
1018.893	1906.14
1019.185	1892.8
1019.476	1901.16
1019.767	1860.04
1020.058	1875.85
1020.35	1861.62
1020.641	1836.53
1020.932	1824.56
1021.223	1808.29
1021.514	1799.02
1021.804	1771.22
1022.095	1746.37
1022.386	1733.71
1022.677	1748.63
1022.967	1751.79
1023.258	1728.06
1023.548	1718.34
1023.839	1686.03
1024.129	1694.62
1024.419	1694.62
1024.709	1685.8
1025	1659.14
1025.29	1638.8
1025.58	1634.51
1025.87	1578.91
1026.16	1621.85
1026.449	1583.66
1026.739	1602.19
1027.029	1560.83
1027.319	1558.8
1027.608	1581.63
1027.898	1528.75
1028.187	1515.19
1028.477	1541.85
1028.766	1529.88
1029.055	1475.87
1029.344	1487.62
1029.634	1489.2
1029.923	1487.16
1030.212	1470.22
1030.501	1441.52
1030.79	1439.03
1031.078	1434.96
1031.367	1408.3
1031.656	1441.74
1031.945	1392.93
1032.233	1406.04
1032.522	1401.97
1032.81	1343.67
1033.099	1348.18
1033.387	1355.19
1033.675	1360.61
1033.963	1294.4
1034.251	1318.58
1034.54	1323.78
1034.828	1295.08
1035.116	1309.77
1035.403	1272.93
1035.691	1257.57
1035.979	1273.84
1036.267	1257.57
1036.554	1246.04
1036.842	1255.08
1037.129	1229.32
1037.417	1215.08
1037.704	1194.97
1037.992	1192.48
1038.279	1192.03
1038.566	1199.71
1038.853	1199.71
1039.14	1199.71
