Data from white_poster_card_FLMS001491_00068.txt Node
Date: Wed Feb 08 11:51:51 GMT 2017
User: dcchb
Spectrometer: FLMS00149
Trigger mode: 0
Integration Time (sec): 2.000000E-2
Scans to average: 10
Electric dark correction enabled: true
Nonlinearity correction enabled: false
Boxcar width: 0
XAxis mode: Wavelengths
Number of Pixels in Spectrum: 2048
>>>>>Begin Spectral Data<<<<<
341.393	-9.42
341.776	-9.42
342.16	-9.42
342.543	-67.05
342.927	-72.24
343.31	-66.14
343.693	-83.09
344.077	-70.89
344.46	-59.59
344.843	-49.87
345.226	-45.58
345.61	-25.69
345.993	-24.56
346.376	-16.65
346.759	24.02
347.142	27.64
347.525	61.09
347.908	55.66
348.291	66.51
348.674	93.4
349.057	113.74
349.44	122.55
349.823	122.78
350.206	171.59
350.588	205.26
350.971	212.27
351.354	221.08
351.737	233.28
352.119	255.21
352.502	261.31
352.884	257.01
353.267	279.16
353.65	270.8
354.032	307.86
354.414	307.41
354.797	325.03
355.179	304.7
355.562	304.47
355.944	338.14
356.326	315.54
356.709	342.66
357.091	342.43
357.473	343.34
357.855	344.92
358.238	357.12
358.62	339.04
359.002	331.81
359.384	354.86
359.766	336.11
360.148	346.73
360.53	346.28
360.912	325.03
361.294	323
361.676	340.85
362.057	334.53
362.439	335.66
362.821	332.94
363.203	337.69
363.584	332.27
363.966	329.78
364.348	348.99
364.729	296.11
365.111	326.16
365.493	314.86
365.874	322.1
366.256	325.49
366.637	320.74
367.019	327.52
367.4	312.83
367.781	324.58
368.163	328.42
368.544	308.31
368.925	313.73
369.306	316.67
369.688	311.25
370.069	318.25
370.45	310.57
370.831	322.77
371.212	328.88
371.593	319.16
371.974	322.55
372.355	342.66
372.736	328.2
373.117	316.45
373.498	335.88
373.879	313.06
374.26	332.94
374.641	322.1
375.021	334.07
375.402	314.64
375.783	321.42
376.163	337.01
376.544	353.06
376.925	345.82
377.305	330.46
377.686	329.55
378.066	327.97
378.447	339.04
378.827	342.43
379.208	326.62
379.588	325.26
379.968	354.41
380.349	339.27
380.729	357.35
381.109	338.59
381.489	333.85
381.87	344.47
382.25	349.67
382.63	354.64
383.01	356.9
383.39	355.99
383.77	352.83
384.15	341.98
384.53	357.8
384.91	386.95
385.29	361.19
385.67	359.16
386.049	366.61
386.429	367.29
386.809	366.16
387.189	397.12
387.568	377.91
387.948	391.25
388.328	388.99
388.707	375.65
389.087	369.33
389.466	372.49
389.846	374.3
390.225	385.82
390.605	390.34
390.984	406.39
391.363	407.07
391.743	416.78
392.122	395.99
392.501	404.58
392.881	411.36
393.26	418.82
393.639	417.46
394.018	419.04
394.397	418.14
394.776	404.81
395.155	421.98
395.534	408.42
395.913	425.6
396.292	438.25
396.671	421.75
397.05	439.83
397.429	419.27
397.808	417.01
398.186	453.39
398.565	451.36
398.944	450.45
399.323	432.15
399.701	457.46
400.08	454.97
400.458	444.35
400.837	441.41
401.215	463.34
401.594	445.03
401.972	467.18
402.351	491.81
402.729	475.76
403.107	484.13
403.486	510.57
403.864	490.68
404.242	484.58
404.62	506.27
404.999	488.87
405.377	497.46
405.755	523.45
406.133	500.17
406.511	514.41
406.889	537.46
407.267	518.93
407.645	539.72
408.023	561.64
408.401	527.51
408.779	543.79
409.156	559.38
409.534	584.69
409.912	601.41
410.29	625.59
410.667	602.54
411.045	626.04
411.422	633.5
411.8	639.83
412.178	682.54
412.555	655.42
412.933	673.73
413.31	684.35
413.687	702.65
414.065	734.51
414.442	732.71
414.819	730.67
415.197	781.97
415.574	792.59
415.951	803.21
416.328	821.97
416.705	800.5
417.082	840.27
417.46	864.68
417.837	873.04
418.214	877.11
418.591	891.57
418.967	908.3
419.344	930.89
419.721	943.1
420.098	956.66
420.475	965.02
420.852	987.39
421.228	1002.98
421.605	1009.76
421.982	1004.11
422.358	1056.99
422.735	1054.51
423.111	1061.74
423.488	1074.84
423.864	1116.65
424.241	1094.05
424.617	1141.06
424.994	1128.85
425.37	1150.32
425.746	1162.3
426.123	1195.75
426.499	1169.08
426.875	1200.27
427.251	1232.13
427.627	1278.68
428.003	1298.57
428.379	1294.5
428.756	1318.23
429.132	1352.8
429.507	1354.39
429.883	1348.74
430.259	1405.68
430.635	1419.92
431.011	1406.59
431.387	1448.85
431.763	1481.84
432.138	1487.72
432.514	1528.84
432.89	1560.93
433.265	1554.38
433.641	1605.68
434.016	1618.11
434.392	1599.58
434.767	1648.16
435.143	1619.92
435.518	1644.55
435.894	1675.28
436.269	1713.7
436.644	1727.48
437.02	1737.65
437.395	1755.5
437.77	1759.8
438.145	1800.02
438.52	1840.93
438.895	1860.36
439.271	1852.68
439.646	1898.55
440.021	1890.64
440.395	1907.14
440.77	1869.4
441.145	1899.68
441.52	1932
441.895	1969.28
442.27	1978.1
442.645	1983.75
443.019	2025.78
443.394	2019
443.769	2048.6
444.143	2029.4
444.518	2081.15
444.892	2071.65
445.267	2084.54
445.641	2073.91
446.016	2080.24
446.39	2099.9
446.764	2111.2
447.139	2114.59
447.513	2172.89
447.887	2168.83
448.262	2198.88
448.636	2187.81
449.01	2192.78
449.384	2256.73
449.758	2263.51
450.132	2272.55
450.506	2304.42
450.88	2303.51
451.254	2272.55
451.628	2345.09
452.002	2373.57
452.376	2403.17
452.75	2407.46
453.123	2399.1
453.497	2478.2
453.871	2459.67
454.244	2513.9
454.618	2514.35
454.992	2576.95
455.365	2612.88
455.739	2678.64
456.112	2646.1
456.486	2670.06
456.859	2717.29
457.232	2776.95
457.606	2773.78
457.979	2790.28
458.352	2842.26
458.725	2867.57
459.099	2872.54
459.472	2930.16
459.845	2954.12
460.218	2985.3
460.591	2987.56
460.964	2992.99
461.337	3102.59
461.71	3130.84
462.083	3205.64
462.456	3166.99
462.829	3222.13
463.201	3288.8
463.574	3307.1
463.947	3333.99
464.32	3396.59
464.692	3393.2
465.065	3408.57
465.438	3485.85
465.81	3503.48
466.183	3575.34
466.555	3653.53
466.928	3671.16
467.3	3642.91
467.672	3738.5
468.045	3827.09
468.417	3824.83
468.789	3846.75
469.161	3892.85
469.534	3980.76
469.906	4010.81
470.278	4075.67
470.65	4141.66
471.022	4224.14
471.394	4245.83
471.766	4302.78
472.138	4332.39
472.51	4452.16
472.882	4473.4
473.253	4540.97
473.625	4562.89
473.997	4679.27
474.369	4727.63
474.74	4735.77
475.112	4833.84
475.484	4905.48
475.855	5028.64
476.227	5044.46
476.598	5196.09
476.97	5208.3
477.341	5327.16
477.713	5438.57
478.084	5439.48
478.455	5553.6
478.827	5633.82
479.198	5796.98
479.569	5848.28
479.94	5956.3
480.311	6004.66
480.682	6111.77
481.053	6244.2
481.424	6358.55
481.795	6442.84
482.166	6500.46
482.537	6601.93
482.908	6709.27
483.279	6820.68
483.65	6963.28
484.021	7030.39
484.391	7132.99
484.762	7155.59
485.133	7290.5
485.503	7363.27
485.874	7554
486.244	7635.8
486.615	7759.87
486.985	7899.98
487.356	8044.15
487.726	8064.04
488.097	8248.22
488.467	8227.88
488.837	8438.72
489.207	8515.55
489.578	8631.71
489.948	8698.37
490.318	8863.57
490.688	8889.1
491.058	9043.22
491.428	9164.35
491.798	9220.85
492.168	9394.4
492.538	9427.62
492.908	9557.56
493.278	9703.09
493.648	9718.01
494.017	9821.51
494.387	9958.68
494.757	10075.51
495.126	10103.99
495.496	10230.54
495.866	10228.95
496.235	10417.65
496.605	10552.79
496.974	10624.42
497.344	10674.37
497.713	10727.25
498.082	10863.74
498.452	10888.37
498.821	10962.72
499.19	11013.11
499.559	11134.92
499.928	11201.58
500.298	11272.54
500.667	11429.15
501.036	11365.2
501.405	11477.73
501.774	11502.82
502.143	11790.95
502.512	11737.39
502.88	11778.74
503.249	11807.22
503.618	11973.77
503.987	12087.66
504.356	12089.24
504.724	12178.28
505.093	12279.52
505.462	12384.38
505.83	12444.04
506.199	12547.31
506.567	12626.41
506.936	12690.81
507.304	12867.75
507.672	12832.95
508.041	13010.58
508.409	13003.12
508.777	13209.21
509.145	13327.18
509.514	13305.03
509.882	13446.04
510.25	13468.64
510.618	13642.88
510.986	13640.62
511.354	13741.18
511.722	13932.36
512.09	13943.88
512.458	13963.09
512.826	14179.36
513.193	14335.29
513.561	14298.9
513.929	14440.37
514.297	14561.72
514.664	14740.7
515.032	14857.53
515.4	14894.59
515.767	15011.2
516.135	15061.6
516.502	14982.05
516.869	15320.12
517.237	15385.2
517.604	15361.93
517.972	15611.86
518.339	15726.21
518.706	15670.85
519.073	15840.33
519.44	15973.89
519.808	16117.84
520.175	16031.74
520.542	16401.45
520.909	16430.6
521.276	16492.29
521.643	16606.64
522.009	16803.47
522.376	16904.48
522.743	17043.92
523.11	17197.36
523.477	17422.21
523.843	17513.51
524.21	17616.56
524.577	17880.05
524.943	17863.78
525.31	18022.2
525.676	18225.35
526.043	18267.84
526.409	18354.16
526.776	18597.77
527.142	18655.63
527.508	18747.6
527.874	18951.44
528.241	19073.69
528.607	19129.51
528.973	19272.33
529.339	19242.95
529.705	19517.3
530.071	19673.68
530.437	19697.63
530.803	19798.65
531.169	19972.2
531.535	20023.27
531.901	20155.92
532.267	20199.99
532.632	20329.48
532.998	20561.34
533.364	20604.05
533.73	20640.88
534.095	20794.55
534.461	20806.98
534.826	20950.93
535.192	21090.14
535.557	21271.6
535.923	21234.99
536.288	21461.65
536.653	21451.26
537.019	21519.5
537.384	21610.58
537.749	21623.46
538.114	21767.18
538.479	21821.42
538.845	21963.11
539.21	21938.7
539.575	22095.99
539.94	22185.48
540.305	22197
540.67	22411.91
541.034	22370.56
541.399	22518.35
541.764	22509.76
542.129	22633.15
542.494	22621.85
542.858	22741.17
543.223	22823.43
543.587	22889.41
543.952	23108.39
544.316	23070.65
544.681	23148.16
545.045	23257.54
545.41	23422.51
545.774	23472.45
546.138	23533.01
546.503	23481.26
546.867	23581.15
547.231	23791.76
547.595	23795.83
547.959	23913.11
548.324	23925.54
548.688	24054.58
549.052	24146.1
549.416	24053.68
549.779	24288.47
550.143	24360.11
550.507	24523.27
550.871	24633.1
551.235	24575.24
551.599	24831.06
551.962	24749.48
552.326	24866.31
552.689	25055.01
553.053	25029.92
553.417	25064.04
553.78	25365.05
554.143	25364.15
554.507	25446.63
554.87	25475.78
555.234	25804.36
555.597	25771.14
555.96	25835.55
556.323	25976.79
556.686	25965.26
557.05	26173.17
557.413	26178.14
557.776	26310.57
558.139	26494.06
558.502	26497
558.865	26642.31
559.228	26926.37
559.59	27021.73
559.953	27020.15
560.316	27288.39
560.679	27355.51
561.041	27484.32
561.404	27608.61
561.767	27821.26
562.129	27804.31
562.492	28050.18
562.854	28018.77
563.217	27994.81
563.579	28085.66
563.941	28420.11
564.304	28536.04
564.666	28648.13
565.028	28720.67
565.39	28839.76
565.753	28906.43
566.115	29056.93
566.477	29240.21
566.839	29234.1
567.201	29416.02
567.563	29451.5
567.925	29769.23
568.287	29768.33
568.648	29746.86
569.01	29950.47
569.372	30229.56
569.734	30131.93
570.095	30304.36
570.457	30454.86
570.819	30535.76
571.18	30610.57
571.542	30705.93
571.903	30795.19
572.265	30897.56
572.626	31077.9
572.987	31096.65
573.349	31150.89
573.71	31201.74
574.071	31343.88
574.432	31411.22
574.794	31608.28
575.155	31730.99
575.516	31531.22
575.877	31661.16
576.238	31881.04
576.599	31919.46
576.96	31989.29
577.32	31930.3
577.681	32289.84
578.042	32174.14
578.403	32217.3
578.763	32213.23
579.124	32300.92
579.485	32397.18
579.845	32500.46
580.206	32456.17
580.566	32412.78
580.927	32610.74
581.287	32635.82
581.648	32565.09
582.008	32669.49
582.368	32469.27
582.728	32762.37
583.089	32607.35
583.449	32692.32
583.809	32808.25
584.169	32787.01
584.529	32692.54
584.889	32820.45
585.249	32801.02
585.609	32629.95
585.969	32858.87
586.329	32761.7
586.688	32761.02
587.048	32920.11
587.408	32872.88
587.768	32790.39
588.127	32880.79
588.487	32847.34
588.846	32941.13
589.206	32956.72
589.565	32829.49
589.925	32990.39
590.284	32976.15
590.643	32909.71
591.003	32987.9
591.362	33079.2
591.721	32762.82
592.08	32995.14
592.44	33068.35
592.799	32947
593.158	32952.88
593.517	33019.99
593.876	33092.99
594.235	33032.87
594.593	33037.39
594.952	33100.44
595.311	33019.32
595.67	33094.79
596.029	33274.22
596.387	33277.61
596.746	33175.02
597.104	33211.4
597.463	33204.4
597.822	33316.26
598.18	33295.01
598.538	33103.16
598.897	33423.6
599.255	33072.2
599.613	33629.47
599.972	33424.73
600.33	33442.36
600.688	33333.66
601.046	33537.49
601.404	33607.32
601.762	33528.68
602.12	33752.86
602.478	33696.13
602.836	33661.78
603.194	33614.55
603.552	33591.05
603.91	33620.2
604.268	33622.92
604.625	33718.73
604.983	33839.63
605.341	33639.41
605.698	33767.54
606.056	33758.28
606.413	33892.96
606.771	34040.08
607.128	33964.83
607.485	33907.65
607.843	33895.45
608.2	34188.1
608.557	34196.01
608.914	34021.55
609.272	34200.75
609.629	34303.12
609.986	34304.03
610.343	34284.14
610.7	34589.22
611.057	34500.86
611.414	34360.98
611.771	34495.89
612.127	34538.6
612.484	34541.31
612.841	34690.01
613.198	34563
613.554	34552.83
613.911	34799.16
614.267	34816.33
614.624	34579.5
614.98	34702.89
615.337	34849.1
615.693	34762.09
616.05	34711.47
616.406	34946.04
616.762	34820.85
617.118	34828.53
617.475	34889.1
617.831	34986.27
618.187	35042.99
618.543	35035.99
618.899	35202.99
619.255	35121.86
619.611	35159.15
619.967	35281.63
620.323	35223.55
620.678	35182.65
621.034	35096.1
621.39	35032.6
621.746	35044.8
622.101	35552.36
622.457	35172.48
622.812	35229.88
623.168	35276.21
623.523	35355.07
623.879	35330.67
624.234	35179.48
624.589	35228.97
624.945	35291.35
625.3	35260.61
625.655	35323.89
626.01	35229.65
626.365	35341.06
626.72	35262.19
627.075	35150.11
627.43	35250.9
627.785	35251.12
628.14	35227.17
628.495	35294.51
628.85	35196.66
629.205	35018.58
629.559	35351.91
629.914	35057
630.269	35122.08
630.623	34961.64
630.978	35052.71
631.332	34999.38
631.687	35110.56
632.041	34829.89
632.396	34965.48
632.75	34712.83
633.104	34854.97
633.459	34598.48
633.813	34692.27
634.167	34636.9
634.521	34577.01
634.875	34568.2
635.229	34534.98
635.583	34522.33
635.937	34517.81
636.291	34460.86
636.645	34438.71
636.999	34253.86
637.352	34454.76
637.706	34320.07
638.06	34429.45
638.413	34238.94
638.767	34144.48
639.121	34185.16
639.474	34071.27
639.828	34042.11
640.181	34070.59
640.534	34083.69
640.888	33974.09
641.241	33727.09
641.594	33857.03
641.947	34007.09
642.301	33701.56
642.654	33926.18
643.007	33927.99
643.36	33820.65
643.713	33645.97
644.066	33806.19
644.419	33620.43
644.771	33335.69
645.124	32989.71
645.477	32955.81
645.83	32697.74
646.182	32663.84
646.535	32591.08
646.888	32596.05
647.24	32400.57
647.593	32783.16
647.945	32537.75
648.298	32316.28
648.65	32266.57
649.002	32153.35
649.355	32265.21
649.707	32278.54
650.059	32365.1
650.411	32659.55
650.763	32768.02
651.115	33090.05
651.467	32919.88
651.819	32899.32
652.171	32827.68
652.523	32826.1
652.875	32796.72
653.227	32629.04
653.578	32824.29
653.93	32691.64
654.282	32570.97
654.633	32478.31
654.985	32566.22
655.337	32566.45
655.688	32363.51
656.039	32640.34
656.391	32323.74
656.742	32356.96
657.094	32388.82
657.445	32455.49
657.796	32434.7
658.147	32303.63
658.498	32316.51
658.849	32274.48
659.2	32268.15
659.551	32124.2
659.902	32455.49
660.253	32207.36
660.604	32415.04
660.955	32057.31
661.306	32172.33
661.656	32265.21
662.007	32163.07
662.358	32119.23
662.708	32132.33
663.059	32120.81
663.409	31951.32
663.76	32106.8
664.11	32053.01
664.461	32104.76
664.811	32054.6
665.161	32072.22
665.511	31977.53
665.862	31982.28
666.212	32032.45
666.562	31948.38
666.912	31940.7
667.262	31903.64
667.612	31977.76
667.962	31904.09
668.312	31751.33
668.662	32037.65
669.011	31907.71
669.361	31821.38
669.711	31738.45
670.06	31676.3
670.41	31636.3
670.76	31654.15
671.109	31751.33
671.459	31526.7
671.808	31532.35
672.157	31640.59
672.507	31463.42
672.856	31378.91
673.205	31486.02
673.554	31598.34
673.904	31389.08
674.253	31613.02
674.602	31350.21
674.951	31030.67
675.3	30801.97
675.649	31383.2
675.998	31294.61
676.346	31351.34
676.695	31432.01
677.044	31035.19
677.393	31276.08
677.741	31282.86
678.09	31281.73
678.438	31109.54
678.787	31135.98
679.135	31091.91
679.484	30862.31
679.832	31047.84
680.181	30824.57
680.529	30956.32
680.877	30873.38
681.225	30825.25
681.573	30884.46
681.922	30761.75
682.27	30600.4
682.618	30641.52
682.966	30572.15
683.314	30613.5
683.661	30606.72
684.009	30383.68
684.357	30322.44
684.705	30415.99
685.053	30310.46
685.4	30288.99
685.748	30111.14
686.095	30067.3
686.443	29978.49
686.79	29879.06
687.138	29991.6
687.485	29997.93
687.832	29894.65
688.18	29790.02
688.527	29761.1
688.874	29722
689.221	29480.88
689.568	29510.26
689.915	29406.98
690.262	29299.41
690.609	29375.8
690.956	29202.47
691.303	29241.34
691.65	29080.44
691.997	29126.99
692.344	28899.2
692.69	28865.75
693.037	28932.64
693.383	28627.79
693.73	28761.35
694.077	28598.19
694.423	28618.3
694.769	28503.05
695.116	28369.49
695.462	28323.62
695.808	28205.43
696.155	28278.65
696.501	28120.91
696.847	27996.62
697.193	27901.71
697.539	28015.15
697.885	27766.8
698.231	27797.08
698.577	27751.88
698.923	27646.12
699.269	27460.82
699.614	27422.63
699.96	27452
700.306	27226.93
700.651	27212.91
700.997	27129.53
701.342	27019.47
701.688	27018.57
702.033	26934.5
702.379	26886.37
702.724	26844.56
703.069	26851.34
703.415	26585.36
703.76	26630.78
704.105	26664.45
704.45	26658.8
704.795	26395.31
705.14	26287.74
705.485	26404.12
705.83	26099.05
706.175	26152.38
706.52	26085.71
706.865	26005.71
707.209	26064.7
707.554	25857.24
707.899	25912.84
708.243	25657.7
708.588	25693.63
708.932	25520.76
709.277	25529.34
709.621	25487.08
709.966	25345.17
710.31	25372.96
710.654	25151.05
710.998	25184.49
711.342	25267.2
711.687	25157.15
712.031	25048.23
712.375	24945.4
712.719	24981.79
713.063	24904.05
713.407	25011.16
713.75	24840.77
714.094	24866.54
714.438	24805.07
714.782	24758.29
715.125	24637.84
715.469	24753.09
715.812	24419.09
716.156	24363.72
716.499	24474.68
716.843	24432.87
717.186	24220.9
717.53	24360.79
717.873	24398.07
718.216	24255.03
718.559	24090.96
718.902	23956.05
719.246	24034.01
719.589	23933.68
719.932	23887.35
720.275	23900.91
720.617	23784.3
720.96	23766.9
721.303	23767.58
721.646	23778.88
721.989	23687.58
722.331	23774.59
722.674	23690.75
723.016	23645.1
723.359	23607.81
723.701	23683.29
724.044	23454.82
724.386	23377.31
724.729	23434.03
725.071	23307.48
725.413	23336.86
725.755	23263.87
726.097	23143.42
726.439	23062.06
726.782	23050.76
727.124	23234.26
727.465	22979.81
727.807	23112.46
728.149	22983.2
728.491	22847.61
728.833	22883.54
729.175	22818.45
729.516	22759.02
729.858	22816.42
730.199	22814.84
730.541	22794.95
730.882	22663.88
731.224	22738.68
731.565	22566.71
731.906	22645.8
732.248	22616.2
732.589	22493.94
732.93	22393.83
733.271	22436.32
733.612	22398.58
733.953	22396.32
734.294	22348.18
734.635	22236.77
734.976	22309.99
735.317	22221.63
735.658	22216.66
735.999	22136.66
736.339	22180.96
736.68	22175.53
737.021	22130.56
737.361	21950
737.702	22019.83
738.042	21889.44
738.383	21964.01
738.723	21944.58
739.063	21792.04
739.404	21834.52
739.744	21872.04
740.084	21708.88
740.424	21793.17
740.764	21794.75
741.104	21665.94
741.444	21590.69
741.784	21515.89
742.124	21501.43
742.464	21467.08
742.804	21399.28
743.143	21407.19
743.483	21390.47
743.823	21194.54
744.162	21193.19
744.502	21288.78
744.841	21157.48
745.181	21244.48
745.52	21176.69
745.86	21217.14
746.199	21167.2
746.538	21156.8
746.877	21151.38
747.216	21013.08
747.556	20992.51
747.895	21023.47
748.234	20896.7
748.573	20850.6
748.911	20771.05
749.25	20858.28
749.589	20688.34
749.928	20761.33
750.267	20764.72
750.605	20665.97
750.944	20614.44
751.283	20574.9
751.621	20518.18
751.96	20530.15
752.298	20470.04
752.636	20412.42
752.975	20434.79
753.313	20325.86
753.651	20306.88
753.989	20169.03
754.327	20119.54
754.666	20082.25
755.004	20167.9
755.342	20192.99
755.679	20110.05
756.017	19940.34
756.355	20003.84
756.693	19931.75
757.031	19918.64
757.368	19790.06
757.706	19746.44
758.044	19644.98
758.381	19725.65
758.719	19567.01
759.056	19616.73
759.394	19419.45
759.731	19378.09
760.068	19271.43
760.405	19250.64
760.743	19262.84
761.08	19191.2
761.417	19115.95
761.754	19100.81
762.091	19123.18
762.428	19004.09
762.765	18917.77
763.102	18935.84
763.438	18803.42
763.775	18724.78
764.112	18813.36
764.449	18686.58
764.785	18602.97
765.122	18413.15
765.458	18435.97
765.795	18355.07
766.131	18405.46
766.467	18286.37
766.804	18255.18
767.14	18163.66
767.476	18135.19
767.812	18000.28
768.148	18026.26
768.485	17992.14
768.821	17837.34
769.157	17778.81
769.492	17741.3
769.828	17760.28
770.164	17603.22
770.5	17585.37
770.836	17557.58
771.171	17452.72
771.507	17357.81
771.842	17306.51
772.178	17269.45
772.513	17244.14
772.849	17081.43
773.184	17152.39
773.519	17045.95
773.855	17020.64
774.19	16948.78
774.525	16918.5
774.86	16822
775.195	16833.98
775.53	16740.87
775.865	16574.78
776.2	16535
776.535	16451.84
776.87	16425.4
777.205	16370.04
777.539	16249.36
777.874	16269.02
778.209	16204.62
778.543	16143.83
778.878	16014.79
779.212	16030.61
779.547	15926.21
779.881	15926.21
780.215	15805.76
780.55	15728.92
780.884	15716.04
781.218	15787
781.552	15718.75
781.886	15662.03
782.22	15490.96
782.554	15464.52
782.888	15347.46
783.222	15191.08
783.556	15122.61
783.889	15328.71
784.223	15166.45
784.557	15060.01
784.89	15104.31
785.224	14965.1
785.557	14893.69
785.891	14861.37
786.224	14955.38
786.558	14755.84
786.891	14681.49
787.224	14641.04
787.557	14587.48
787.891	14623.64
788.224	14482.4
788.557	14551.78
788.89	14424.32
789.223	14397.66
789.556	14325.12
789.888	14223.2
790.221	14217.55
790.554	14060.94
790.887	14106.59
791.219	14048.74
791.552	14013.04
791.884	13891.91
792.217	13864.79
792.549	13940.27
792.882	13785.47
793.214	13688.07
793.546	13745.02
793.879	13648.07
794.211	13640.84
794.543	13550.22
794.875	13577.79
795.207	13643.55
795.539	13510.68
795.871	13491.24
796.203	13374.18
796.535	13293.05
796.867	13224.81
797.198	13197.92
797.53	13157.92
797.862	13095.55
798.193	13102.55
798.525	13095.55
798.856	13003.57
799.188	12922.67
799.519	12876.12
799.85	12787.08
800.182	12829.34
800.513	12839.96
800.844	12756.35
801.175	12773.97
801.506	12782.33
801.837	12631.6
802.168	12610.59
802.499	12556.58
802.83	12516.58
803.161	12591.15
803.491	12462.12
803.822	12535.56
804.153	12402.23
804.483	12288.11
804.814	12242.01
805.145	12241.1
805.475	12283.59
805.805	12242.01
806.136	12202.46
806.466	12160.2
806.796	12145.06
807.126	12051.73
807.457	12075.01
807.787	12027.78
808.117	11984.39
808.447	12039.75
808.777	11975.12
809.107	11919.31
809.436	11879.31
809.766	11876.14
810.096	11806.99
810.426	11738.52
810.755	11690.16
811.085	11684.74
811.414	11674.34
811.744	11576.26
812.073	11530.39
812.403	11578.3
812.732	11519.32
813.061	11492.65
813.39	11467.57
813.719	11457.4
814.049	11442.71
814.378	11361.81
814.707	11367.23
815.036	11399.32
815.365	11315.48
815.693	11150.51
816.022	11233
816.351	11169.95
816.68	11094.02
817.008	11143.28
817.337	11056.28
817.665	10994.36
817.994	11095.15
818.322	10994.81
818.651	10958.43
818.979	10920.01
819.307	11010.18
819.636	10887.69
819.964	10865.77
820.292	10882.27
820.62	10942.16
820.948	10845.89
821.276	10844.31
821.604	10785.32
821.932	10783.74
822.259	10790.3
822.587	10812.67
822.915	10796.4
823.243	10833.23
823.57	10760.01
823.898	10887.02
824.225	10714.14
824.553	10793.69
824.88	10800.92
825.207	10799.56
825.535	10776.28
825.862	10768.38
826.189	10766.12
826.516	10760.01
826.843	10847.47
827.17	10810.63
827.497	10813.8
827.824	10793.69
828.151	10811.09
828.478	10769.96
828.805	10792.56
829.131	10715.95
829.458	10744.42
829.785	10784.65
830.111	10726.12
830.438	10768.15
830.764	10740.35
831.09	10717.75
831.417	10743.52
831.743	10753.46
832.069	10692.44
832.395	10670.07
832.722	10752.56
833.048	10708.94
833.374	10651.54
833.7	10609.51
834.026	10627.14
834.351	10709.62
834.677	10674.59
835.003	10647.93
835.329	10651.99
835.654	10516.86
835.98	10551.88
836.306	10602.05
836.631	10487.25
836.956	10565.44
837.282	10547.36
837.607	10488.61
837.932	10459.46
838.258	10508.49
838.583	10469.17
838.908	10442.28
839.233	10378.55
839.558	10424.43
839.883	10393.02
840.208	10381.04
840.533	10388.95
840.858	10324.54
841.182	10350.08
841.507	10357.09
841.832	10253.36
842.156	10261.95
842.481	10219.24
842.805	10281.38
843.13	10220.59
843.454	10180.82
843.778	10214.72
844.103	10132.23
844.427	10081.61
844.751	10095.17
845.075	10060.6
845.399	10013.82
845.723	9943.76
846.047	9925.23
846.371	9857.21
846.695	9908.96
847.019	9894.5
847.343	9734.28
847.666	9713.94
847.99	9729.31
848.313	9679.14
848.637	9569.76
848.96	9648.4
849.284	9575.41
849.607	9474.62
849.931	9446.15
850.254	9380.84
850.577	9409.99
850.9	9284.57
851.223	9346.49
851.546	9270.56
851.869	9201.86
852.192	9237.57
852.515	9149.21
852.838	9114.86
853.161	9106.5
853.483	9051.36
853.806	9019.95
854.129	9038.03
854.451	8967.52
854.774	8922.55
855.096	8913.96
855.419	8883.9
855.741	8906.5
856.063	8813.85
856.385	8800.52
856.708	8789.67
857.03	8735.89
857.352	8765.72
857.674	8737.47
857.996	8665.83
858.318	8636.68
858.64	8658.15
858.961	8570.24
859.283	8531.37
859.605	8592.61
859.926	8531.6
860.248	8479.85
860.57	8453.86
860.891	8572.05
861.212	8422.67
861.534	8426.29
861.855	8429.91
862.176	8443.92
862.498	8437.81
862.819	8371.6
863.14	8341.32
863.461	8366.18
863.782	8346.29
864.103	8358.04
864.424	8266.07
864.745	8269.91
865.065	8163.92
865.386	8235.56
865.707	8221.1
866.027	8290.25
866.348	8170.25
866.668	8182.91
866.989	8180.87
867.309	8156.24
867.63	8184.71
867.95	8087.77
868.27	8115.79
868.59	8086.19
868.91	8104.94
869.23	8034.21
869.55	8056.13
869.87	8050.03
870.19	8026.53
870.51	8005.06
870.83	8145.85
871.15	8039.63
871.469	7975.23
871.789	8022.01
872.109	8002.35
872.428	7974.32
872.748	7957.83
873.067	7988.34
873.386	7956.7
873.706	7909.24
874.025	7865.17
874.344	7829.02
874.663	7866.98
874.982	7819.98
875.301	7832.41
875.62	7784.72
875.939	7753.99
876.258	7780.88
876.577	7706.31
876.896	7753.31
877.214	7765.29
877.533	7730.94
877.852	7649.59
878.17	7714.22
878.489	7674.45
878.807	7717.83
879.125	7714.9
879.444	7634.22
879.762	7615.69
880.08	7627.89
880.398	7595.8
880.716	7596.93
881.034	7535.47
881.352	7526.88
881.67	7568.91
881.988	7505.86
882.306	7520.55
882.624	7449.37
882.941	7479.2
883.259	7457.5
883.577	7433.77
883.894	7419.76
884.212	7439.65
884.529	7349.71
884.846	7351.52
885.164	7353.1
885.481	7346.77
885.798	7334.12
886.115	7289.6
886.432	7314.68
886.75	7259.54
887.067	7271.07
887.383	7236.04
887.7	7194.23
888.017	7190.16
888.334	7176.15
888.651	7210.73
888.967	7123.27
889.284	7124.4
889.6	7071.3
889.917	7079.66
890.233	7078.08
890.55	6989.94
890.866	7005.76
891.182	7012.09
891.498	6958.98
891.815	6991.07
892.131	6888.7
892.447	6909.04
892.763	6896.84
893.079	6893.22
893.395	6836.95
893.71	6858.2
894.026	6846.44
894.342	6807.58
894.657	6743.62
894.973	6757.41
895.289	6711.08
895.604	6763.51
895.92	6709.95
896.235	6655.04
896.55	6643.29
896.865	6607.58
897.181	6573.68
897.496	6569.84
897.811	6536.17
898.126	6551.31
898.441	6484.65
898.756	6495.95
899.071	6451.43
899.386	6509.05
899.7	6443.97
900.015	6402.61
900.33	6304.76
900.644	6358.55
900.959	6376.17
901.273	6325.78
901.588	6346.8
901.902	6266.12
902.216	6260.92
902.531	6196.52
902.845	6166.69
903.159	6113.36
903.473	6133.69
903.787	6145.67
904.101	6112.9
904.415	6090.53
904.729	6038.33
905.042	6057.54
905.356	6033.13
905.67	6013.47
905.984	6033.36
906.297	6014.83
906.611	5919.46
906.924	5921.72
907.237	5968.73
907.551	5890.09
907.864	5868.62
908.177	5905.23
908.491	5816.41
908.804	5830.2
909.117	5779.58
909.43	5685.12
909.743	5745.91
910.056	5716.76
910.368	5712.46
910.681	5650.77
910.994	5648.28
911.307	5648.96
911.619	5567.61
911.932	5608.74
912.244	5517.21
912.557	5521.73
912.869	5506.14
913.181	5451
913.494	5422.3
913.806	5392.92
914.118	5407.84
914.43	5397.89
914.742	5351.12
915.054	5347.95
915.366	5350.89
915.678	5224.34
915.99	5265.02
916.302	5254.85
916.613	5205.58
916.925	5166.94
917.236	5261.18
917.548	5221.85
917.859	5143.66
918.171	5121.07
918.482	5129.88
918.794	5107.96
919.105	5094.4
919.416	5020.28
919.727	5033.61
920.038	5034.74
920.349	4982.99
920.66	4954.74
920.971	4956.1
921.282	4988.41
921.593	4893.73
921.903	4867.06
922.214	4914.74
922.525	4835.88
922.835	4805.59
923.146	4797.91
923.456	4793.84
923.767	4766.5
924.077	4776.89
924.387	4763.79
924.697	4703.9
925.008	4695.54
925.318	4713.39
925.628	4700.06
925.938	4637.24
926.248	4625.26
926.558	4606.28
926.867	4607.86
927.177	4585.94
927.487	4509.1
927.796	4498.94
928.106	4537.8
928.416	4509.33
928.725	4514.3
929.034	4454.64
929.344	4448.32
929.653	4405.38
929.962	4448.54
930.271	4441.54
930.581	4335.1
930.89	4333.74
931.199	4321.09
931.508	4297.13
931.817	4281.09
932.125	4285.83
932.434	4217.13
932.743	4215.55
933.051	4224.14
933.36	4229.79
933.669	4203.8
933.977	4169
934.286	4178.49
934.594	4152.28
934.902	4110.92
935.21	4113.63
935.519	4097.59
935.827	4042
936.135	4048.33
936.443	4009.46
936.751	4031.38
937.059	3994.09
937.367	3990.25
937.674	4004.49
937.982	3954.09
938.29	3937.59
938.597	3980.3
938.905	3915.9
939.213	3894.66
939.52	3864.38
939.827	3905.28
940.135	3834.09
940.442	3821.44
940.749	3791.61
941.056	3865.05
941.363	3801.55
941.67	3756.13
941.977	3757.49
942.284	3742.35
942.591	3737.6
942.898	3677.94
943.205	3681.78
943.511	3665.28
943.818	3697.15
944.125	3641.33
944.431	3619.18
944.738	3624.61
945.044	3548.23
945.35	3586.19
945.657	3555.46
945.963	3567.89
946.269	3554.1
946.575	3526.08
946.881	3523.14
947.187	3500.54
947.493	3480.88
947.799	3510.26
948.105	3482.92
948.41	3437.95
948.716	3403.37
949.022	3375.8
949.327	3359.98
949.633	3375.8
949.938	3336.03
950.244	3378.51
950.549	3335.8
950.854	3303.71
951.16	3305.29
951.465	3278.85
951.77	3327.44
952.075	3261.91
952.38	3278.18
952.685	3251.28
952.99	3199.53
953.294	3200.44
953.599	3171.51
953.904	3194.34
954.209	3152.98
954.513	3126.09
954.818	3105.98
955.122	3162.47
955.426	3115.69
955.731	3094.23
956.035	3101.68
956.339	3057.62
956.643	3085.19
956.948	3054.45
957.252	3013.55
957.556	3003.16
957.86	3043.15
958.163	2982.59
958.467	2998.64
958.771	2967.68
959.075	2976.04
959.378	2937.62
959.682	2934.23
959.985	2950.95
960.289	2961.57
960.592	2946.21
960.896	2863.72
961.199	2867.57
961.502	2896.49
961.805	2825.31
962.108	2821.69
962.411	2870.5
962.714	2827.79
963.017	2799.32
963.32	2818.53
963.623	2774.46
963.926	2778.53
964.228	2744.63
964.531	2746.67
964.833	2713.45
965.136	2699.21
965.438	2719.1
965.741	2704.41
966.043	2646.33
966.345	2722.71
966.648	2694.92
966.95	2675.71
967.252	2652.43
967.554	2633.22
967.856	2613.34
968.158	2604.75
968.46	2581.7
968.761	2600
969.063	2587.35
969.365	2552.55
969.666	2553.9
969.968	2548.25
970.269	2519.33
970.571	2539.66
970.872	2531.3
971.174	2475.26
971.475	2470.51
971.776	2480.68
972.077	2480.46
972.378	2463.28
972.679	2467.35
972.98	2449.72
973.281	2455.15
973.582	2416.28
973.883	2413.79
974.183	2409.72
974.484	2413.57
974.785	2388.48
975.085	2369.73
975.386	2375.83
975.686	2359.56
975.986	2354.13
976.287	2338.54
976.587	2317.52
976.887	2330.63
977.187	2326.56
977.487	2326.11
977.787	2292.67
978.087	2273.01
978.387	2295.6
978.687	2253.8
978.987	2239.56
979.286	2228.03
979.586	2240.01
979.885	2258.09
980.185	2244.98
980.484	2203.63
980.784	2195.04
981.083	2194.36
981.382	2178.09
981.682	2166.12
981.981	2164.76
982.28	2149.17
982.579	2133.12
982.878	2131.31
983.177	2105.33
983.475	2101.26
983.774	2083.86
984.073	2100.81
984.372	2077.76
984.67	2101.48
984.969	2087.02
985.267	2073.24
985.566	2066.46
985.864	2051.77
986.162	2032.79
986.461	2003.63
986.759	2025.1
987.057	1993.01
987.355	1953.69
987.653	1957.53
987.951	1967.25
988.249	1976.52
988.547	1958.21
988.844	1938.1
989.142	1963.41
989.44	1943.52
989.737	1921.83
990.035	1918.44
990.332	1946.23
990.63	1916.4
990.927	1908.72
991.224	1886.57
991.521	1864.65
991.819	1862.17
992.116	1866.01
992.413	1823.3
992.71	1860.59
993.006	1815.16
993.303	1818.33
993.6	1784.88
993.897	1811.77
994.193	1780.14
994.49	1798.44
994.787	1814.94
995.083	1773.36
995.379	1767.93
995.676	1757.31
995.972	1774.71
996.268	1761.83
996.565	1740.82
996.861	1726.13
997.157	1741.95
997.453	1733.58
997.749	1690.42
998.044	1696.98
998.34	1685.45
998.636	1666.24
998.932	1683.42
999.227	1659.91
999.523	1676.64
999.818	1661.04
1000.114	1644.55
1000.409	1652.23
1000.704	1626.02
1001	1628.5
1001.295	1623.53
1001.59	1600.03
1001.885	1605.68
1002.18	1602.97
1002.475	1589.18
1002.77	1546.47
1003.065	1537.43
1003.359	1545.11
1003.654	1563.87
1003.949	1544.89
1004.243	1502.86
1004.538	1501.27
1004.832	1523.42
1005.127	1510.77
1005.421	1504.66
1005.715	1500.82
1006.009	1454.5
1006.304	1489.07
1006.598	1471.22
1006.892	1452.24
1007.186	1446.59
1007.48	1413.14
1007.773	1445.68
1008.067	1413.14
1008.361	1419.47
1008.655	1443.87
1008.948	1398.9
1009.242	1418.79
1009.535	1404.78
1009.829	1385.12
1010.122	1351.22
1010.415	1349.87
1010.708	1367.49
1011.001	1371.11
1011.295	1377.44
1011.588	1341.28
1011.881	1329.08
1012.173	1329.3
1012.466	1325.46
1012.759	1346.25
1013.052	1297.89
1013.344	1316.65
1013.637	1308.06
1013.93	1293.37
1014.222	1328.17
1014.514	1294.5
1014.807	1262.41
1015.099	1254.73
1015.391	1265.8
1015.683	1255.86
1015.976	1215.18
1016.268	1233.71
1016.56	1235.07
1016.851	1227.83
1017.143	1220.38
1017.435	1205.91
1017.727	1197.33
1018.018	1206.82
1018.31	1204.56
1018.602	1191.68
1018.893	1182.86
1019.185	1173.37
1019.476	1141.51
1019.767	1157.78
1020.058	1162.75
1020.35	1114.17
1020.641	1140.61
1020.932	1131.34
1021.223	1104.9
1021.514	1108.52
1021.804	1094.51
1022.095	1103.54
1022.386	1097.22
1022.677	1078.46
1022.967	1055.41
1023.258	1087.95
1023.548	1080.04
1023.839	1080.04
1024.129	1051.12
1024.419	1073.49
1024.709	1005.69
1025	1033.94
1025.29	1034.17
1025.58	1011.12
1025.87	1013.83
1026.16	1007.73
1026.449	1022.64
1026.739	1000.04
1027.029	1010.21
1027.319	967.95
1027.608	987.84
1027.898	970.44
1028.187	984.68
1028.477	951.46
1028.766	945.13
1029.055	939.03
1029.344	930.89
1029.634	950.33
1029.923	942.64
1030.212	897
1030.501	911.91
1030.79	939.48
1031.078	911.91
1031.367	904
1031.656	891.35
1031.945	916.66
1032.233	887.05
1032.522	876.66
1032.81	886.6
1033.099	877.11
1033.387	853.61
1033.675	866.04
1033.963	854.74
1034.251	862.87
1034.54	840.73
1034.828	835.08
1035.116	854.29
1035.403	838.01
1035.691	840.5
1035.979	813.83
1036.267	836.66
1036.554	818.13
1036.842	814.51
1037.129	820.39
1037.417	815.42
1037.704	804.34
1037.992	788.98
1038.279	797.56
1038.566	776.32
1038.853	776.32
1039.14	776.32
