Data from white_steel_sheet_FLMS001491_093.txt Node
Date: Tue Feb 07 10:58:50 GMT 2017
User: dcchb
Spectrometer: FLMS00149
Trigger mode: 0
Integration Time (sec): 2.000000E-2
Scans to average: 10
Electric dark correction enabled: true
Nonlinearity correction enabled: false
Boxcar width: 0
XAxis mode: Wavelengths
Number of Pixels in Spectrum: 2048
>>>>>Begin Spectral Data<<<<<
341.393	-8.18
341.776	-8.18
342.16	-8.18
342.543	-56.09
342.927	-66.71
343.31	-81.85
343.693	-72.58
344.077	-73.49
344.46	-65.58
344.843	-43.88
345.226	-37.33
345.61	-36.43
345.993	-29.87
346.376	4.25
346.759	9.9
347.142	53.06
347.525	33.63
347.908	57.36
348.291	85.15
348.674	98.26
349.057	99.39
349.44	135.32
349.823	163.8
350.206	165.83
350.588	181.2
350.971	202.66
351.354	208.54
351.737	233.62
352.119	252.61
352.502	267.3
352.884	268.65
353.267	294.19
353.65	279.5
354.032	298.71
354.414	311.14
354.797	336.9
355.179	289.22
355.562	331.7
355.944	317.01
356.326	331.47
356.709	359.04
357.091	349.1
357.473	356.78
357.855	352.72
358.238	350
358.62	366.28
359.002	351.13
359.384	335.99
359.766	363.34
360.148	354.98
360.53	344.36
360.912	335.99
361.294	332.15
361.676	341.87
362.057	317.46
362.439	326.28
362.821	323.11
363.203	340.97
363.584	343.68
363.966	337.12
364.348	347.29
364.729	335.77
365.111	320.4
365.493	323.34
365.874	323.79
366.256	325.6
366.637	311.59
367.019	349.1
367.4	338.03
367.781	326.05
368.163	337.12
368.544	329.89
368.925	315.88
369.306	326.73
369.688	338.93
370.069	318.59
370.45	337.35
370.831	324.69
371.212	330.8
371.593	337.8
371.974	335.32
372.355	323.34
372.736	348.2
373.117	325.82
373.498	325.15
373.879	322.89
374.26	351.59
374.641	329.44
375.021	326.5
375.402	331.93
375.783	332.15
376.163	330.57
376.544	348.88
376.925	350.91
377.305	362.43
377.686	373.51
378.066	342.77
378.447	355.43
378.827	357.46
379.208	357.91
379.588	329.21
379.968	328.76
380.349	350.68
380.729	372.38
381.109	364.02
381.489	371.25
381.87	384.35
382.25	359.04
382.63	375.31
383.01	361.08
383.39	373.51
383.77	361.53
384.15	383.9
384.53	375.31
384.91	371.02
385.29	376.9
385.67	384.58
386.049	376.9
386.429	387.52
386.809	388.2
387.189	390
387.568	390.91
387.948	393.85
388.328	396.78
388.707	407.4
389.087	392.26
389.466	401.98
389.846	423.9
390.225	418.03
390.605	429.1
390.984	404.24
391.363	445.14
391.743	433.62
392.122	412.15
392.501	434.3
392.881	445.37
393.26	430.45
393.639	443.34
394.018	469.55
394.397	459.38
394.776	472.71
395.155	471.58
395.534	462.54
395.913	465.93
396.292	484.46
396.671	495.99
397.05	510.68
397.429	486.27
397.808	507.51
398.186	506.16
398.565	491.02
398.944	523.56
399.323	519.72
399.701	531.7
400.08	527.63
400.458	547.74
400.837	564.24
401.215	568.76
401.594	556.78
401.972	568.76
402.351	597.91
402.729	573.73
403.107	580.06
403.486	586.16
403.864	613.5
404.242	598.59
404.62	628.19
404.999	601.3
405.377	648.75
405.755	670.45
406.133	631.81
406.511	662.77
406.889	660.28
407.267	679.26
407.645	700.73
408.023	715.65
408.401	715.19
408.779	719.71
409.156	716.1
409.534	741.86
409.912	749.99
410.29	763.1
410.667	773.72
411.045	783.67
411.422	812.37
411.8	811.01
412.178	809.2
412.555	852.59
412.933	839.94
413.31	833.61
413.687	845.36
414.065	879.03
414.442	891.23
414.819	893.72
415.197	907.5
415.574	908.18
415.951	938.01
416.328	928.75
416.705	949.54
417.082	963.32
417.46	962.87
417.837	959.25
418.214	994.06
418.591	1004.9
418.967	982.53
419.344	1024.11
419.721	1005.81
420.098	1001.51
420.475	1044.45
420.852	1045.58
421.228	1041.51
421.605	1085.35
421.982	1098.01
422.358	1089.65
422.735	1100.04
423.111	1127.39
423.488	1105.69
423.864	1161.06
424.241	1164.9
424.617	1171.68
424.994	1187.72
425.37	1210.1
425.746	1200.38
426.123	1210.77
426.499	1219.13
426.875	1214.16
427.251	1256.87
427.627	1250.55
428.003	1290.55
428.379	1291
428.756	1301.84
429.132	1329.41
429.507	1347.27
429.883	1374.38
430.259	1376.87
430.635	1383.42
431.011	1401.05
431.387	1420.26
431.763	1475.17
432.138	1455.06
432.514	1483.53
432.89	1479.47
433.265	1496.19
433.641	1560.82
434.016	1567.83
434.392	1602.85
434.767	1633.59
435.143	1616.19
435.518	1632.68
435.894	1643.3
436.269	1686.92
436.644	1693.92
437.02	1714.26
437.395	1737.99
437.77	1740.02
438.145	1794.71
438.52	1786.35
438.895	1814.83
439.271	1829.29
439.646	1844.2
440.021	1876.74
440.395	1888.72
440.77	1879.46
441.145	1902.28
441.52	1947.25
441.895	1945.44
442.27	1948.38
442.645	1939.57
443.019	1999.23
443.394	1992.9
443.769	2009.62
444.143	2014.37
444.518	2055.95
444.892	2047.81
445.267	2069.28
445.641	2081.03
446.016	2099.11
446.39	2151.09
446.764	2165.1
447.139	2127.81
447.513	2168.04
447.887	2198.54
448.262	2200.35
448.636	2213.68
449.01	2236.06
449.384	2238.99
449.758	2283.29
450.132	2293.91
450.506	2311.99
450.88	2337.3
451.254	2328.71
451.628	2377.75
452.002	2379.78
452.376	2413
452.75	2441.02
453.123	2467.69
453.497	2512.89
453.871	2544.07
454.244	2583.84
454.618	2575.48
454.992	2636.5
455.365	2610.06
455.739	2703.16
456.112	2711.07
456.486	2741.13
456.859	2761.69
457.232	2839.88
457.606	2833.33
457.979	2842.14
458.352	2878.3
458.725	2895.25
459.099	2920.11
459.472	3017.96
459.845	3037.62
460.218	3075.81
460.591	3070.16
460.964	3102.02
461.337	3201.23
461.71	3194.68
462.083	3266.99
462.456	3266.99
462.829	3275.8
463.201	3375.69
463.574	3361.9
463.947	3405.07
464.32	3483.03
464.692	3460.43
465.065	3533.88
465.438	3574.78
465.81	3619.52
466.183	3658.39
466.555	3731.61
466.928	3775.45
467.3	3738.62
467.672	3818.39
468.045	3955.33
468.417	3958.72
468.789	3995.78
469.161	4007.54
469.534	4067.2
469.906	4144.48
470.278	4152.84
470.65	4221.77
471.022	4349.22
471.394	4385.83
471.766	4404.14
472.138	4506.73
472.51	4563.91
472.882	4669.44
473.253	4724.58
473.625	4768.87
473.997	4862.88
474.369	4838.7
474.74	4899.94
475.112	4993.95
475.484	5162.31
475.855	5194.17
476.227	5244.79
476.598	5366.82
476.97	5425.35
477.341	5565.46
477.713	5638.45
478.084	5676.87
478.455	5820.37
478.827	5834.15
479.198	6036.64
479.569	6016.52
479.94	6165.67
480.311	6223.52
480.682	6400.47
481.053	6553.23
481.424	6595.26
481.795	6689.95
482.166	6792.77
482.537	6914.58
482.908	6974.92
483.279	7089.71
483.65	7214.91
484.021	7355.47
484.391	7448.12
484.762	7472.3
485.133	7567.67
485.503	7673.43
485.874	7917.72
486.244	7975.79
486.615	8077.71
486.985	8248.55
487.356	8362.9
487.726	8485.84
488.097	8594.53
488.467	8628.88
488.837	8767.64
489.207	8961.53
489.578	9045.14
489.948	9123.79
490.318	9235.65
490.688	9248.53
491.058	9467.28
491.428	9516.77
491.798	9654.39
492.168	9857.1
492.538	9890.55
492.908	10013.71
493.278	10123.53
493.648	10199.46
494.017	10293.47
494.387	10382.28
494.757	10527.14
495.126	10639.45
495.496	10640.58
495.866	10751.99
496.235	10925.77
496.605	10996.28
496.974	11115.6
497.344	11212.09
497.713	11238.31
498.082	11397.85
498.452	11441.46
498.821	11489.6
499.19	11579.99
499.559	11712.42
499.928	11766.65
500.298	11853.66
500.667	11954.67
501.036	11935.24
501.405	12146.98
501.774	12146.98
502.143	12178.39
502.512	12275.79
502.88	12548.1
503.249	12443.92
503.618	12548.78
503.987	12625.16
504.356	12749.9
504.724	12849.11
505.093	12830.81
505.462	12970.46
505.83	13078.03
506.199	13170.68
506.567	13304.47
506.936	13343.56
507.304	13577.23
507.672	13542.2
508.041	13632.37
508.409	13788.97
508.777	13876.43
509.145	14025.13
509.514	14052.24
509.882	14134.73
510.25	14217.66
510.618	14251.56
510.986	14422.63
511.354	14532
511.722	14628.95
512.09	14749.4
512.458	14796.63
512.826	14876.4
513.193	15080.92
513.561	15064.65
513.929	15206.34
514.297	15417.63
514.664	15478.19
515.032	15553
515.4	15761.8
515.767	15779.66
516.135	15933.32
516.502	15881.12
516.869	16216.93
517.237	16228.01
517.604	16195.24
517.972	16498.51
518.339	16561.56
518.706	16566.53
519.073	16655.11
519.44	16877.71
519.808	17059.17
520.175	17132.84
520.542	17342.33
520.909	17479.27
521.276	17434.08
521.643	17597.46
522.009	17744.8
522.376	17903.44
522.743	17980.28
523.11	18289.87
523.477	18418.91
523.843	18502.3
524.21	18705.45
524.577	18825.9
524.943	18904.32
525.31	19085.33
525.676	19289.17
526.043	19339.79
526.409	19493.46
526.776	19632.89
527.142	19746.33
527.508	19847.12
527.874	20026.32
528.241	20138.86
528.607	20128.92
528.973	20455.01
529.339	20444.62
529.705	20775.46
530.071	20867.21
530.437	20884.38
530.803	21065.84
531.169	21232.17
531.535	21256.8
531.901	21356.46
532.267	21358.49
532.632	21595.32
532.998	21723.23
533.364	21860.17
533.73	21915.09
534.095	22035.99
534.461	22090.45
534.826	22248.86
535.192	22344.68
535.557	22525.47
535.923	22423.32
536.288	22685.91
536.653	22606.82
537.019	22855.4
537.384	22884.33
537.749	22886.14
538.114	23053.14
538.479	23013.82
538.845	23222.4
539.21	23190.31
539.575	23335.62
539.94	23369.96
540.305	23728.6
540.67	23689.05
541.034	23652.22
541.399	23925.43
541.764	23964.98
542.129	23993.68
542.494	24066.67
542.858	24078.42
543.223	24194.8
543.587	24348.24
543.952	24349.37
544.316	24462.37
544.681	24459.2
545.045	24608.35
545.41	24847.44
545.774	24855.58
546.138	24830.94
546.503	24960.66
546.867	24957.27
547.231	25315.45
547.595	25158.84
547.959	25203.81
548.324	25329.24
548.688	25340.99
549.052	25476.8
549.416	25564.94
549.779	25644.48
550.143	25645.84
550.507	25935.55
550.871	25980.52
551.235	26022.55
551.599	26091.25
551.962	26112.27
552.326	26261.19
552.689	26528.98
553.053	26340.73
553.417	26536.44
553.78	26941.4
554.143	26666.83
554.507	26870.21
554.87	27137.1
555.234	27218
555.597	27027.95
555.96	27329.86
556.323	27448.28
556.686	27481.95
557.05	27631.1
557.413	27787.25
557.776	27780.92
558.139	28095.26
558.502	28111.53
558.865	28164.19
559.228	28338.2
559.59	28465.2
559.953	28513.56
560.316	28827
560.679	28765.3
561.041	28837.62
561.404	29094.11
561.767	29168
562.129	29269.24
562.492	29574.32
562.854	29538.39
563.217	29574.77
563.579	29659.06
563.941	29784.03
564.304	29823.81
564.666	30102.22
565.028	30172.27
565.39	30345.15
565.753	30463.34
566.115	30541.75
566.477	30674.86
566.839	30715.76
567.201	31015.64
567.563	31082.98
567.925	31144.68
568.287	31256.54
568.648	31409.08
569.01	31513.03
569.372	31562.74
569.734	31548.73
570.095	31734.04
570.457	31966.12
570.819	32023.52
571.18	32008.83
571.542	32291.99
571.903	32194.37
572.265	32399.33
572.626	32510.29
572.987	32521.36
573.349	32519.78
573.71	32604.07
574.071	32824.86
574.432	32927.45
574.794	33041.8
575.155	32978.53
575.516	33002.25
575.877	33215.58
576.238	33096.71
576.599	33246.54
576.96	33315.01
577.32	33208.58
577.681	33399.53
578.042	33504.39
578.403	33506.42
578.763	33648.79
579.124	33688.34
579.485	33824.38
579.845	33885.39
580.206	33782.8
580.566	33789.13
580.927	33809.69
581.287	33890.59
581.648	33875.23
582.008	34021.66
582.368	33757.49
582.728	34128.33
583.089	33941.89
583.449	33948.44
583.809	33955.67
584.169	33929.01
584.529	33876.13
584.889	34240.64
585.249	33877.48
585.609	33938.5
585.969	33986.18
586.329	34025.5
586.688	33909.12
587.048	33991.15
587.408	33904.15
587.768	34027.09
588.127	34032.74
588.487	34025.05
588.846	34292.39
589.206	33936.69
589.565	33907.77
589.925	34373.97
590.284	34008.55
590.643	34070.7
591.003	34118.83
591.362	34084.94
591.721	34100.08
592.08	34073.64
592.44	34240.19
592.799	34229.11
593.158	34109.57
593.517	34303.46
593.876	34214.88
594.235	34156.8
594.593	34204.48
594.952	34238.38
595.311	34126.97
595.67	34151.6
596.029	34339.62
596.387	34264.82
596.746	34295.78
597.104	34244.48
597.463	34294.2
597.822	34321.32
598.18	34148.89
598.538	34279.28
598.897	34350.24
599.255	34104.15
599.613	34648.76
599.972	34261.88
600.33	34338.49
600.688	34364.7
601.046	34404.48
601.404	34593.17
601.762	34502.55
602.12	34576.22
602.478	34588.2
602.836	34664.13
603.194	34375.32
603.552	34498.71
603.91	34297.13
604.268	34531.71
604.625	34431.82
604.983	34622.78
605.341	34326.06
605.698	34567.18
606.056	34799.95
606.413	34491.03
606.771	34618.03
607.128	34707.52
607.485	34545.94
607.843	34597.01
608.2	34748.87
608.557	34902.54
608.914	34705.49
609.272	34909.32
609.629	34993.16
609.986	35216.88
610.343	34940.73
610.7	35181.41
611.057	35050.79
611.414	35127.85
611.771	35135.98
612.127	35150.45
612.484	35196.09
612.841	35320.61
613.198	35123.33
613.554	35222.08
613.911	35333.49
614.267	35408.52
614.624	35405.58
614.98	35335.53
615.337	35522.64
615.693	35509.53
616.05	35600.83
616.406	35634.95
616.762	35534.62
617.118	35620.49
617.475	35596.76
617.831	35627.04
618.187	35843.99
618.543	35717.89
618.899	35935.28
619.255	35893.03
619.611	35860.71
619.967	36033.81
620.323	35986.58
620.678	35900.93
621.034	35852.35
621.39	35809.64
621.746	35856.64
622.101	36288.04
622.457	35897.09
622.812	35898.22
623.168	36176.63
623.523	36024.1
623.879	36109.06
624.234	35980.48
624.589	36030.2
624.945	35881.05
625.3	35955.17
625.655	35963.76
626.01	36084.88
626.365	35927.37
626.72	36010.08
627.075	35976.86
627.43	35975.73
627.785	35944.1
628.14	36018.22
628.495	36022.29
628.85	35952.46
629.205	35715.18
629.559	36187.25
629.914	35940.93
630.269	35943.42
630.623	35768.73
630.978	35762.18
631.332	35880.37
631.687	35886.02
632.041	35770.54
632.396	35855.74
632.75	35622.52
633.104	35617.33
633.459	35417.11
633.813	35434.73
634.167	35576.88
634.521	35440.83
634.875	35460.95
635.229	35476.31
635.583	35222.76
635.937	35302.53
636.291	35247.62
636.645	35288.97
636.999	35161.52
637.352	35355.64
637.706	35103.67
638.06	35147.73
638.413	35073.16
638.767	34834.75
639.121	35039.04
639.474	34774.64
639.828	34825.26
640.181	34771.92
640.534	34786.16
640.888	34711.14
641.241	34537.81
641.594	34665.26
641.947	34646.28
642.301	34388.21
642.654	34562.89
643.007	34570.8
643.36	34422.56
643.713	34293.75
644.066	34456.23
644.419	34234.09
644.771	34068.89
645.124	33683.37
645.477	33500.32
645.83	33365.86
646.182	33227.78
646.535	33194.34
646.888	33265.98
647.24	33103.27
647.593	33273.88
647.945	33266.2
648.298	33153.89
648.65	33117.73
649.002	32939.43
649.355	33059.43
649.707	32945.08
650.059	33188.01
650.411	33350.04
650.763	33527.89
651.115	33786.41
651.467	33689.92
651.819	33660.99
652.171	33493.09
652.523	33512.3
652.875	33605.63
653.227	33323.38
653.578	33586.87
653.93	33533.77
654.282	33341.23
654.633	33296.48
654.985	33359.08
655.337	33299.2
655.688	33297.61
656.039	33449.25
656.391	33117.28
656.742	33193.44
657.094	33040.67
657.445	33222.36
657.796	33206.09
658.147	33254
658.498	33008.81
658.849	33103.95
659.2	32988.24
659.551	32835.25
659.902	32944.4
660.253	32890.17
660.604	32811.3
660.955	32550.06
661.306	32717.97
661.656	32725.2
662.007	32748.48
662.358	32713.22
662.708	32607.01
663.059	32633
663.409	32444.75
663.76	32616.05
664.11	32515.26
664.461	32563.17
664.811	32342.84
665.161	32423.51
665.511	32210.41
665.862	32277.3
666.212	32274.36
666.562	32273.69
666.912	32103.29
667.262	31983.07
667.612	31872.79
667.962	31901.27
668.312	31786.01
668.662	31947.14
669.011	31790.08
669.361	31525
669.711	31552.8
670.06	31535.85
670.41	31422.41
670.76	31361.39
671.109	31455.18
671.459	31346.7
671.808	31222.19
672.157	31231
672.507	30907.17
672.856	30907.85
673.205	31024.68
673.554	31089.99
673.904	30847.28
674.253	31011.35
674.602	30828.3
674.951	30351.25
675.3	30240.29
675.649	30659.26
675.998	30610.45
676.346	30684.35
676.695	30796.21
677.044	30547.4
677.393	30642.32
677.741	30624.24
678.09	30608.64
678.438	30499.95
678.787	30489.1
679.135	30374.3
679.484	30246.17
679.832	30446.84
680.181	30240.07
680.529	30485.48
680.877	30314.64
681.225	30240.52
681.573	30503.34
681.922	30270.8
682.27	30285.49
682.618	30168.66
682.966	30218.15
683.314	30266.05
683.661	30327.75
684.009	30208.88
684.357	30153.06
684.705	30204.81
685.053	30259.27
685.4	30305.15
685.748	29976.12
686.095	30130.92
686.443	30030.13
686.79	30078.26
687.138	30145.61
687.485	30176.79
687.832	29904.93
688.18	30128.88
688.527	29950.81
688.874	29988.1
689.221	29913.3
689.568	29888.66
689.915	29903.8
690.262	29892.96
690.609	29889.34
690.956	29819.06
691.303	29725.05
691.65	29701.78
691.997	29646.86
692.344	29511.27
692.69	29619.97
693.037	29678.73
693.383	29426.3
693.73	29556.47
694.077	29304.95
694.423	29389.24
694.769	29283.71
695.116	29388.56
695.462	29276.93
695.808	29241
696.155	29278.06
696.501	29018.18
696.847	29189.92
697.193	28896.37
697.539	29026.99
697.885	28801.69
698.231	28687.56
698.577	28759.88
698.923	28725.53
699.269	28623.16
699.614	28448.7
699.96	28309.04
700.306	28384.52
700.651	28288.93
700.997	28255.26
701.342	28132.1
701.688	28090.74
702.033	28033.8
702.379	27974.82
702.724	27811.88
703.069	27911.99
703.415	27656.63
703.76	27611.44
704.105	27705.9
704.45	27478.33
704.795	27453.25
705.14	27333.02
705.485	27300.71
705.83	27203.99
706.175	27305.23
706.52	27124.22
706.865	27085.35
707.209	27067.27
707.554	26966.93
707.899	26926.03
708.243	26813.72
708.588	26800.83
708.932	26609.43
709.277	26616.66
709.621	26681.52
709.966	26510.67
710.31	26598.35
710.654	26309.77
710.998	26367.85
711.342	26333.28
711.687	26317.68
712.031	26191.81
712.375	26116.56
712.719	26150
713.063	25923.57
713.407	26036.34
713.75	25932.84
714.094	25874.98
714.438	25760.18
714.782	25806.28
715.125	25741.88
715.469	25780.97
715.812	25627.08
716.156	25436.58
716.499	25505.73
716.843	25434.09
717.186	25328.78
717.53	25599.28
717.873	25522.9
718.216	25276.58
718.559	25319.74
718.902	25037.49
719.246	25074.55
719.589	25117.49
719.932	24969.24
720.275	25000.66
720.617	25015.8
720.96	24889.25
721.303	24896.93
721.646	24928.57
721.989	24689.7
722.331	24821.68
722.674	24750.95
723.016	24746.2
723.359	24708.91
723.701	24736.48
724.044	24605.64
724.386	24463.27
724.729	24452.2
725.071	24505.75
725.413	24417.39
725.755	24438.64
726.097	24344.63
726.439	24183.95
726.782	24192.54
727.124	24382.14
727.465	24115.71
727.807	24070.29
728.149	24091.3
728.491	23959.33
728.833	23922.94
729.175	23866.22
729.516	23882.72
729.858	23819.44
730.199	23987.8
730.541	23833.68
730.882	23800.91
731.224	23833.23
731.565	23630.3
731.906	23663.52
732.248	23765.43
732.589	23574.25
732.93	23509.4
733.271	23368.16
733.612	23522.95
733.953	23395.95
734.294	23394.14
734.635	23312.56
734.976	23430.98
735.317	23268.05
735.658	23238.22
735.999	23171.55
736.339	23183.75
736.68	23113.7
737.021	23110.76
737.361	22993.03
737.702	23123.19
738.042	22998.67
738.383	22949.64
738.723	23039.58
739.063	22877.32
739.404	22897.66
739.744	22781.05
740.084	22709.64
740.424	22770.21
740.764	22796.42
741.104	22770.43
741.444	22637.78
741.784	22540.83
742.124	22518.24
742.464	22569.31
742.804	22474.17
743.143	22397.11
743.483	22428.52
743.823	22301.29
744.162	22247.51
744.502	22341.07
744.841	22208.41
745.181	22265.36
745.52	22145.59
745.86	22201.18
746.199	22171.35
746.538	22091.13
746.877	22092.71
747.216	22091.35
747.556	22031.69
747.895	22014.97
748.234	21891.59
748.573	21903.56
748.911	21796.22
749.25	21861.98
749.589	21635.32
749.928	21753.06
750.267	21639.61
750.605	21680.07
750.944	21593.51
751.283	21534.31
751.621	21483.91
751.96	21405.95
752.298	21466.06
752.636	21416.8
752.975	21240.53
753.313	21207.31
753.651	21249.34
753.989	21186.29
754.327	21255.22
754.666	21011.16
755.004	21010.03
755.342	21039.63
755.679	21039.18
756.017	20814.78
756.355	20936.58
756.693	20789.47
757.031	20679.19
757.368	20568.91
757.706	20650.04
758.044	20575.91
758.381	20648.23
758.719	20462.92
759.056	20547.44
759.394	20430.38
759.731	20290.27
760.068	20288.69
760.405	20170.95
760.743	20139.99
761.08	20064.06
761.417	20033.1
761.754	19927.34
762.091	19935.93
762.428	19776.39
762.765	19608.71
763.102	19729.38
763.438	19602.38
763.775	19581.59
764.112	19667.69
764.449	19626.33
764.785	19447.58
765.122	19329.62
765.458	19227.47
765.795	19193.13
766.131	19123.3
766.467	19204.65
766.804	19046.01
767.14	18919.01
767.476	18941.38
767.812	18878.33
768.148	18925.56
768.485	18744.55
768.821	18595.4
769.157	18540.94
769.492	18580.26
769.828	18521.28
770.164	18392.47
770.5	18410.55
770.836	18310.66
771.171	18156.99
771.507	18190.21
771.842	18074.74
772.178	18096.2
772.513	17992.03
772.849	18006.26
773.184	17836.1
773.519	17953.84
773.855	17759.04
774.19	17677.68
774.525	17639.49
774.86	17623
775.195	17610.12
775.53	17489.67
775.865	17348.65
776.2	17304.14
776.535	17074.54
776.87	17164.25
777.205	17023.01
777.539	17062.11
777.874	16970.81
778.209	16844.94
778.543	16943.01
778.878	16670.25
779.212	16826.41
779.547	16663.93
779.881	16663.02
780.215	16566.75
780.55	16476.81
780.884	16338.51
781.218	16339.64
781.552	16390.04
781.886	16346.19
782.22	16173.77
782.554	16116.14
782.888	16008.58
783.222	15939.65
783.556	15948.24
783.889	15882.48
784.223	15688.81
784.557	15713.67
784.89	15708.47
785.224	15657.63
785.557	15661.69
785.891	15498.31
786.224	15460.57
786.558	15539.66
786.891	15340.57
787.224	15282.95
787.557	15204.98
787.891	15221.93
788.224	15175.83
788.557	15165.66
788.89	15070.52
789.223	15084.53
789.556	14940.36
789.888	14873.01
790.221	14847.7
790.554	14707.59
790.887	14721.83
791.219	14636.18
791.552	14600.48
791.884	14495.62
792.217	14595.96
792.549	14410.65
792.882	14377.66
793.214	14320.71
793.546	14349.64
793.879	14303.54
794.211	14140.38
794.543	14238.45
794.875	14127.5
795.207	14169.98
795.539	14044.11
795.871	14113.26
796.203	14036.88
796.535	13925.24
796.867	13918.24
797.198	13832.59
797.53	13837.56
797.862	13712.82
798.193	13727.96
798.525	13720.95
798.856	13632.82
799.188	13511.01
799.519	13465.14
799.85	13302.43
800.182	13364.35
800.513	13438.93
800.844	13250.91
801.175	13335.43
801.506	13242.77
801.837	13254.98
802.168	13193.74
802.499	13169.78
802.83	13104.02
803.161	12954.65
803.491	13025.6
803.822	12936.34
804.153	12922.1
804.483	12850.92
804.814	12851.37
805.145	12797.81
805.475	12740.41
805.805	12631.72
806.136	12715.33
806.466	12710.36
806.796	12624.48
807.126	12517.37
807.457	12520.31
807.787	12521.89
808.117	12494.32
808.447	12369.12
808.777	12531.83
809.107	12258.84
809.436	12353.53
809.766	12271.73
810.096	12234.44
810.426	12168.9
810.755	12239.86
811.085	12250.71
811.414	12117.38
811.744	12053.88
812.073	11999.87
812.403	12097.94
812.732	11992.86
813.061	12017.95
813.39	11893.88
813.719	11876.71
814.049	11966.42
814.378	11895.01
814.707	11803.49
815.036	11812.75
815.365	11730.04
815.693	11606.88
816.022	11693.89
816.351	11594.46
816.68	11544.96
817.008	11611.86
817.337	11502.71
817.665	11476.27
817.994	11467.23
818.322	11470.16
818.651	11475.14
818.979	11410.28
819.307	11404.63
819.636	11325.99
819.964	11337.74
820.292	11403.73
820.62	11301.36
820.948	11316.95
821.276	11281.24
821.604	11181.13
821.932	11315.14
822.259	11268.59
822.587	11287.12
822.915	11212.54
823.243	11216.61
823.57	11205.31
823.898	11241.47
824.225	11159.44
824.553	11198.08
824.88	11195.37
825.207	11225.2
825.535	11255.03
825.862	11257.51
826.189	11151.08
826.516	11158.31
826.843	11226.1
827.17	11187.91
827.497	11264.97
827.824	11192.43
828.151	11208.02
828.478	11197.18
828.805	11261.81
829.131	11170.06
829.458	11158.31
829.785	11130.96
830.111	11186.78
830.438	11169.61
830.764	11139.33
831.09	11149.27
831.417	11089.38
831.743	11096.84
832.069	11149.72
832.395	11065.43
832.722	11167.8
833.048	11042.38
833.374	11146.11
833.7	10995.15
834.026	11052.77
834.351	11104.3
834.677	11022.27
835.003	11020.23
835.329	10986.34
835.654	11048.48
835.98	10908.15
836.306	11004.64
836.631	10887.13
836.956	10924.42
837.282	10906.56
837.607	10890.29
837.932	10816.4
838.258	10868.6
838.583	10800.58
838.908	10757.87
839.233	10838.32
839.558	10724.42
839.883	10721.71
840.208	10753.12
840.533	10685.33
840.858	10693.24
841.182	10704.53
841.507	10701.6
841.832	10650.75
842.156	10627.25
842.481	10606.46
842.805	10604.2
843.13	10514.71
843.454	10496.86
843.778	10476.29
844.103	10432
844.427	10481.26
844.751	10465.9
845.075	10374.6
845.399	10267.48
845.723	10316.07
846.047	10303.42
846.371	10267.03
846.695	10193.59
847.019	10153.59
847.343	10072.01
847.666	10020.94
847.99	10015.74
848.313	10010.99
848.637	9906.36
848.96	9995.85
849.284	9899.58
849.607	9845.57
849.931	9839.02
850.254	9738.23
850.577	9705.01
850.9	9645.13
851.223	9620.72
851.546	9570.33
851.869	9513.61
852.192	9594.06
852.515	9468.86
852.838	9437.9
853.161	9436.09
853.483	9401.07
853.806	9376.66
854.129	9393.61
854.451	9261.18
854.774	9294.85
855.096	9256.44
855.419	9249.21
855.741	9183.44
856.063	9187.29
856.385	9148.64
856.708	9102.09
857.03	9090.11
857.352	9061.19
857.674	8958.59
857.996	8964.92
858.318	8939.16
858.64	8955.43
858.961	8919.27
859.283	8909.78
859.605	8805.15
859.926	8872.49
860.248	8764.02
860.57	8813.96
860.891	8734.19
861.212	8735.32
861.534	8760.41
861.855	8671.14
862.176	8728.77
862.498	8701.65
862.819	8683.57
863.14	8591.6
863.461	8580.97
863.782	8589.34
864.103	8571.71
864.424	8558.83
864.745	8576
865.065	8584.36
865.386	8541.43
865.707	8518.38
866.027	8537.81
866.348	8474.99
866.668	8458.49
866.989	8406.06
867.309	8392.51
867.63	8451.26
867.95	8376.46
868.27	8321.55
868.59	8354.09
868.91	8321.55
869.23	8276.8
869.55	8283.36
869.87	8313.41
870.19	8265.95
870.51	8316.35
870.83	8313.41
871.15	8234.54
871.469	8190.7
871.789	8258.27
872.109	8156.35
872.428	8161.1
872.748	8171.04
873.067	8155.45
873.386	8159.52
873.706	8117.71
874.025	8056.69
874.344	8072.97
874.663	8132.4
874.982	8061.21
875.301	8047.88
875.62	8033.87
875.939	8034.1
876.258	8051.05
876.577	7942.35
876.896	7990.48
877.214	7922.69
877.533	7967.43
877.852	7982.35
878.17	7988.45
878.489	7900.09
878.807	7967.88
879.125	7874.78
879.444	7912.52
879.762	7899.18
880.08	7886.53
880.398	7841.56
880.716	7875.68
881.034	7791.39
881.352	7767.44
881.67	7763.82
881.988	7762.24
882.306	7743.48
882.624	7784.39
882.941	7732.86
883.259	7634.33
883.577	7623.71
883.894	7674.33
884.212	7642.47
884.529	7696.48
884.846	7592.3
885.164	7598.4
885.481	7532.19
885.798	7565.18
886.115	7470.5
886.432	7504.39
886.75	7457.16
887.067	7420.1
887.383	7425.07
887.7	7479.31
888.017	7432.98
888.334	7352.76
888.651	7424.4
888.967	7364.74
889.284	7312.53
889.6	7237.73
889.917	7241.58
890.233	7315.47
890.55	7228.69
890.866	7271.18
891.182	7278.64
891.498	7134.91
891.815	7129.26
892.131	7108.47
892.447	7101.24
892.763	7103.73
893.079	7062.14
893.395	7043.39
893.71	7040
894.026	7018.53
894.342	6968.81
894.657	6959.55
894.973	6926.33
895.289	6945.99
895.604	6948.02
895.92	6894.01
896.235	6835.26
896.55	6896.27
896.865	6840.46
897.181	6787.12
897.496	6795.49
897.811	6768.14
898.126	6760.46
898.441	6725.2
898.756	6718.2
899.071	6640.24
899.386	6635.72
899.7	6599.11
900.015	6608.15
900.33	6483.18
900.644	6514.36
900.959	6496.06
901.273	6455.61
901.588	6510.75
901.902	6447.02
902.216	6408.83
902.531	6428.26
902.845	6389.85
903.159	6352.56
903.473	6320.24
903.787	6289.51
904.101	6250.19
904.415	6286.57
904.729	6228.27
905.042	6151.89
905.356	6156.18
905.67	6167.48
905.984	6116.63
906.297	6082.74
906.611	6113.7
906.924	6075.05
907.237	6089.29
907.551	6085.67
907.864	6010.87
908.177	5993.25
908.491	6008.61
908.804	5866.47
909.117	5914.38
909.43	5832.57
909.743	5811.33
910.056	5870.99
910.368	5859.46
910.681	5755.06
910.994	5780.14
911.307	5721.39
911.619	5661.28
911.932	5699.69
912.244	5667.15
912.557	5619.7
912.869	5583.77
913.181	5631
913.494	5600.94
913.806	5560.26
914.118	5510.77
914.43	5488.85
914.742	5492.92
915.054	5455.18
915.366	5489.08
915.678	5441.17
915.99	5406.82
916.302	5376.54
916.613	5373.15
916.925	5393.04
917.236	5374.28
917.548	5289.31
917.859	5315.3
918.171	5279.37
918.482	5249.99
918.794	5213.15
919.105	5188.75
919.416	5197.79
919.727	5138.81
920.038	5120.5
920.349	5076.89
920.66	5116.43
920.971	5105.13
921.282	5072.14
921.593	5031.46
921.903	4970
922.214	4981.52
922.525	4953.95
922.835	4956.44
923.146	4928.42
923.456	4923.67
923.767	4849.55
924.077	4900.85
924.387	4870.79
924.697	4808.64
925.008	4801.87
925.318	4817.23
925.628	4818.59
925.938	4736.56
926.248	4730.23
926.558	4715.77
926.867	4717.35
927.177	4701.3
927.487	4649.78
927.796	4599.38
928.106	4618.59
928.416	4610.68
928.725	4590.35
929.034	4540.4
929.344	4558.48
929.653	4577.24
929.962	4507.41
930.271	4455.66
930.581	4439.61
930.89	4451.59
931.199	4368.88
931.508	4407.07
931.817	4392.38
932.125	4356
932.434	4335.89
932.743	4312.16
933.051	4312.61
933.36	4332.05
933.669	4261.99
933.977	4282.1
934.286	4243.69
934.594	4241.88
934.902	4179.06
935.21	4239.39
935.519	4175.89
935.827	4154.2
936.135	4135.89
936.443	4085.05
936.751	4106.29
937.059	4073.52
937.367	4013.41
937.674	4050.02
937.982	4033.98
938.29	4039.4
938.597	4038.95
938.905	3970.47
939.213	3928.44
939.52	3949.23
939.827	3936.35
940.135	3922.11
940.442	3894.32
940.749	3874.21
941.056	3908.1
941.363	3851.16
941.67	3826.52
941.977	3791.04
942.284	3783.59
942.591	3765.96
942.898	3782.68
943.205	3728.45
943.511	3725.74
943.818	3693.65
944.125	3656.81
944.431	3683.02
944.738	3661.78
945.044	3666.75
945.35	3654.1
945.657	3633.31
945.963	3571.39
946.269	3603.48
946.575	3609.35
946.881	3532.29
947.187	3558.28
947.493	3508.57
947.799	3480.77
948.105	3515.35
948.41	3502.69
948.716	3462.69
949.022	3418.62
949.327	3446.42
949.633	3419.08
949.938	3428.34
950.244	3394.9
950.549	3361
950.854	3384.28
951.16	3368.91
951.465	3340.89
951.77	3349.25
952.075	3306.76
952.38	3325.29
952.685	3304.05
952.99	3238.52
953.294	3237.16
953.599	3182.25
953.904	3234.45
954.209	3200.55
954.513	3243.04
954.818	3178.41
955.122	3176.15
955.426	3166.2
955.731	3144.96
956.035	3109.93
956.339	3101.35
956.643	3124.85
956.948	3064.96
957.252	3068.35
957.556	3054.79
957.86	3049.82
958.163	3024.96
958.467	3034.45
958.771	2991.07
959.075	3025.87
959.378	2984.96
959.682	2961.01
959.985	2965.98
960.289	2958.07
960.592	2955.13
960.896	2902.25
961.199	2882.14
961.502	2907.23
961.805	2894.12
962.108	2836.72
962.411	2854.35
962.714	2864.06
963.017	2850.05
963.32	2827.91
963.623	2803.5
963.926	2833.1
964.228	2799.66
964.531	2785.42
964.833	2725.08
965.136	2717.85
965.438	2791.52
965.741	2744.97
966.043	2721.69
966.345	2737.96
966.648	2717.63
966.95	2701.81
967.252	2669.94
967.554	2645.09
967.856	2647.35
968.158	2634.69
968.46	2641.02
968.761	2637.18
969.063	2601.25
969.365	2603.28
969.666	2560.79
969.968	2562.6
970.269	2525.31
970.571	2538.65
970.872	2515.15
971.174	2521.25
971.475	2535.26
971.776	2505.43
972.077	2503.39
972.378	2457.52
972.679	2487.12
972.98	2452.77
973.281	2480.8
973.582	2463.4
973.883	2450.97
974.183	2397.18
974.484	2441.93
974.785	2382.04
975.085	2403.28
975.386	2383.62
975.686	2364.42
975.986	2385.43
976.287	2401.48
976.587	2356.96
976.887	2321.7
977.187	2317.86
977.487	2349.95
977.787	2307.92
978.087	2340.69
978.387	2300.91
978.687	2289.61
978.987	2227.92
979.286	2260.69
979.586	2234.25
979.885	2215.04
980.185	2243.51
980.484	2218.43
980.784	2191.76
981.083	2196.51
981.382	2159
981.682	2197.87
981.981	2148.38
982.28	2141.14
982.579	2136.4
982.878	2158.09
983.177	2144.99
983.475	2161.03
983.774	2094.14
984.073	2076.29
984.372	2088.94
984.67	2090.75
984.969	2110.18
985.267	2063.63
985.566	2044.65
985.864	2034.93
986.162	2026.12
986.461	2019.34
986.759	2032.67
987.057	1986.12
987.355	1981.37
987.653	1971.21
987.951	2021.6
988.249	1944.77
988.547	1973.24
988.844	1986.8
989.142	1961.26
989.44	1947.03
989.737	1937.08
990.035	1918.1
990.332	1928.49
990.63	1908.83
990.927	1961.49
991.224	1909.06
991.521	1868.16
991.819	1843.3
992.116	1849.63
992.413	1882.39
992.71	1869.06
993.006	1841.94
993.303	1845.56
993.6	1824.54
993.897	1803.98
994.193	1799.01
994.49	1799.23
994.787	1769.18
995.083	1763.08
995.379	1751.55
995.676	1779.35
995.972	1752
996.268	1728.5
996.565	1756.3
996.861	1756.52
997.157	1729.63
997.453	1728.05
997.749	1688.27
998.044	1709.52
998.34	1685.34
998.636	1682.17
998.932	1669.97
999.227	1673.81
999.523	1676.52
999.818	1648.28
1000.114	1648.28
1000.409	1628.16
1000.704	1604.21
1001	1614.6
1001.295	1615.96
1001.59	1616.64
1001.885	1587.71
1002.18	1601.72
1002.475	1579.58
1002.77	1567.6
1003.065	1575.74
1003.359	1546.81
1003.654	1558.33
1003.949	1512.69
1004.243	1542.29
1004.538	1530.31
1004.832	1529.86
1005.127	1542.06
1005.421	1495.06
1005.715	1509.07
1006.009	1478.34
1006.304	1479.92
1006.598	1455.74
1006.892	1472.24
1007.186	1453.03
1007.48	1457.09
1007.773	1437.43
1008.067	1436.76
1008.361	1434.04
1008.655	1414.61
1008.948	1408.06
1009.242	1429.98
1009.535	1403.76
1009.829	1390.2
1010.122	1361.28
1010.415	1393.37
1010.708	1371.9
1011.001	1356.08
1011.295	1355.18
1011.588	1337.32
1011.881	1329.41
1012.173	1321.28
1012.466	1315.86
1012.759	1326.93
1013.052	1292.35
1013.344	1287.16
1013.637	1310.21
1013.93	1303.2
1014.222	1259.36
1014.514	1265.24
1014.807	1284.22
1015.099	1227.5
1015.391	1228.4
1015.683	1248.96
1015.976	1202.41
1016.268	1201.73
1016.56	1225.46
1016.851	1224.56
1017.143	1180.49
1017.435	1234.28
1017.727	1174.16
1018.018	1192.69
1018.31	1177.55
1018.602	1178.46
1018.893	1161.51
1019.185	1151.11
1019.476	1144.11
1019.767	1146.14
1020.058	1140.49
1020.35	1148.18
1020.641	1114.5
1020.932	1123.54
1021.223	1115.18
1021.514	1106.82
1021.804	1087.39
1022.095	1100.27
1022.386	1092.36
1022.677	1077.67
1022.967	1031.57
1023.258	1084.45
1023.548	1050.1
1023.839	1062.98
1024.129	1073.83
1024.419	1018.01
1024.709	1030.89
1025	1016.43
1025.29	1011.23
1025.58	1016.43
1025.87	1031.12
1026.16	998.12
1026.449	984.34
1026.739	981.85
1027.029	976.88
1027.319	974.4
1027.608	1003.1
1027.898	968.29
1028.187	931.23
1028.477	967.84
1028.766	963.32
1029.055	944.57
1029.344	940.72
1029.634	918.35
1029.923	924.45
1030.212	926.49
1030.501	894.4
1030.79	888.3
1031.078	928.07
1031.367	909.99
1031.656	904.57
1031.945	870.67
1032.233	860.5
1032.522	864.34
1032.81	870.22
1033.099	865.7
1033.387	858.01
1033.675	849.43
1033.963	860.73
1034.251	847.17
1034.54	818.02
1034.828	853.95
1035.116	830.44
1035.403	814.85
1035.691	838.58
1035.979	818.02
1036.267	808.52
1036.554	817.11
1036.842	797.9
1037.129	799.26
1037.417	797.68
1037.704	767.85
1037.992	790.67
1038.279	801.97
1038.566	759.26
1038.853	759.26
1039.14	759.26
