Data from white_wall_FLMS001491_043.txt Node
Date: Tue Feb 07 11:04:34 GMT 2017
User: dcchb
Spectrometer: FLMS00149
Trigger mode: 0
Integration Time (sec): 2.000000E-2
Scans to average: 10
Electric dark correction enabled: true
Nonlinearity correction enabled: false
Boxcar width: 0
XAxis mode: Wavelengths
Number of Pixels in Spectrum: 2048
>>>>>Begin Spectral Data<<<<<
341.393	-34.98
341.776	-34.98
342.16	-34.98
342.543	-58.04
342.927	-64.14
343.31	-82.44
343.693	-57.58
344.077	-73.18
344.46	-62.78
344.843	-33.63
345.226	-34.53
345.61	-36.11
345.993	-18.49
346.376	-2.44
346.759	6.82
347.142	33.49
347.525	31
347.908	62.64
348.291	73.03
348.674	82.53
349.057	111.68
349.44	104.9
349.823	147.38
350.206	158.23
350.588	212.69
350.971	229.19
351.354	226.7
351.737	231.22
352.119	253.14
352.502	271.22
352.884	292.24
353.267	290.2
353.65	293.14
354.032	305.57
354.414	301.73
354.797	314.61
355.179	316.87
355.562	326.36
355.944	335.85
356.326	341.5
356.709	331.11
357.091	337.66
357.473	334.72
357.855	347.83
358.238	346.93
358.62	348.96
359.002	364.1
359.384	343.08
359.766	359.13
360.148	349.86
360.53	351.67
360.912	332.91
361.294	324.55
361.676	343.08
362.057	343.76
362.439	365.46
362.821	339.69
363.203	340.6
363.584	336.3
363.966	340.15
364.348	334.04
364.729	339.24
365.111	316.19
365.493	345.8
365.874	334.95
366.256	327.27
366.637	296.76
367.019	344.67
367.4	329.53
367.781	344.21
368.163	318
368.544	349.64
368.925	302.41
369.306	341.28
369.688	316.42
370.069	340.82
370.45	350.77
370.831	335.17
371.212	339.69
371.593	329.07
371.974	320.26
372.355	322.75
372.736	323.42
373.117	326.14
373.498	330.43
373.879	334.5
374.26	352.8
374.641	321.62
375.021	332.01
375.402	346.47
375.783	348.51
376.163	351.67
376.544	344.89
376.925	331.11
377.305	336.53
377.686	346.47
378.066	340.15
378.447	335.4
378.827	347.6
379.208	345.57
379.588	348.28
379.968	366.59
380.349	359.35
380.729	348.73
381.109	352.35
381.489	381.05
381.87	367.94
382.25	358.68
382.63	364.33
383.01	380.82
383.39	374.5
383.77	384.21
384.15	376.3
384.53	376.76
384.91	384.89
385.29	389.86
385.67	372.69
386.049	377.66
386.429	403.65
386.809	413.82
387.189	412.01
387.568	402.74
387.948	377.66
388.328	407.26
388.707	416.98
389.087	405
389.466	419.69
389.846	419.47
390.225	427.83
390.605	437.54
390.984	445.68
391.363	431.9
391.743	442.97
392.122	460.14
392.501	451.56
392.881	445.23
393.26	446.36
393.639	480.93
394.018	475.96
394.397	475.06
394.776	500.14
395.155	480.93
395.534	503.98
395.913	515.28
396.292	497.2
396.671	515.06
397.05	537.66
397.429	534.94
397.808	558.9
398.186	534.49
398.565	546.24
398.944	539.92
399.323	560.03
399.701	582.17
400.08	583.98
400.458	596.64
400.837	622.62
401.215	588.95
401.594	631.66
401.972	640.48
402.351	638.22
402.729	666.47
403.107	667.37
403.486	723.19
403.864	685.67
404.242	677.31
404.62	681.61
404.999	701.72
405.377	738.33
405.755	736.97
406.133	759.8
406.511	759.34
406.889	781.94
407.267	820.36
407.645	799.8
408.023	820.59
408.401	816.07
408.779	832.56
409.156	871.21
409.534	899.91
409.912	901.04
410.29	901.49
410.667	925.22
411.045	923.41
411.422	944.42
411.8	952.33
412.178	985.55
412.555	1003.41
412.933	1014.25
413.31	1009.96
413.687	1035.04
414.065	1056.06
414.442	1050.18
414.819	1090.86
415.197	1107.58
415.574	1107.36
415.951	1148.26
416.328	1118.43
416.705	1143.74
417.082	1142.39
417.46	1190.52
417.837	1190.75
418.214	1209.73
418.591	1191.88
418.967	1204.98
419.344	1213.34
419.721	1259.22
420.098	1280.91
420.475	1251.76
420.852	1267.13
421.228	1280.46
421.605	1301.7
421.982	1336.05
422.358	1320.46
422.735	1382.6
423.111	1316.84
423.488	1373.11
423.864	1414.47
424.241	1406.11
424.617	1421.02
424.994	1433.9
425.37	1441.36
425.746	1460.12
426.123	1486.1
426.499	1497.4
426.875	1518.65
427.251	1545.09
427.627	1548.48
428.003	1584.63
428.379	1598.19
428.756	1632.09
429.132	1647.23
429.507	1654.69
429.883	1691.98
430.259	1699.66
430.635	1743.5
431.011	1739.66
431.387	1791.41
431.763	1815.81
432.138	1807.68
432.514	1864.63
432.89	1871.18
433.265	1913.21
433.641	1929.94
434.016	1955.92
434.392	1988.92
434.767	2004.51
435.143	1975.81
435.518	2025.98
435.894	2038.86
436.269	2098.97
436.644	2105.52
437.02	2141.91
437.395	2144.84
437.77	2185.75
438.145	2211.28
438.52	2223.71
438.895	2229.81
439.271	2224.39
439.646	2289.25
440.021	2326.31
440.395	2320.21
440.77	2306.42
441.145	2365.4
441.52	2411.96
441.895	2399.3
442.27	2439.98
442.645	2438.17
443.019	2505.74
443.394	2479.53
443.769	2517.94
444.143	2498.96
444.518	2516.81
444.892	2536.92
445.267	2564.95
445.641	2574.21
446.016	2614.89
446.39	2642.91
446.764	2638.84
447.139	2650.59
447.513	2666.64
447.887	2738.5
448.262	2745.51
448.636	2734.43
449.01	2780.99
449.384	2819.18
449.758	2818.95
450.132	2875.22
450.506	2887.65
450.88	2914.77
451.254	2911.38
451.628	2930.36
452.002	2976.01
452.376	3019.17
452.75	3032.51
453.123	3054.43
453.497	3137.59
453.871	3134.42
454.244	3242.67
454.618	3230.47
454.992	3283.57
455.365	3279.5
455.739	3362.89
456.112	3413.96
456.486	3409.67
456.859	3466.17
457.232	3532.15
457.606	3524.92
457.979	3581.42
458.352	3686.05
458.725	3704.58
459.099	3737.8
459.472	3824.57
459.845	3810.34
460.218	3880.84
460.591	3949.54
460.964	3928.53
461.337	4069.77
461.71	4084.45
462.083	4133.94
462.456	4165.13
462.829	4184.11
463.201	4282.87
463.574	4316.09
463.947	4340.27
464.32	4420.94
464.692	4479.92
465.065	4509.98
465.438	4596.76
465.81	4651.22
466.183	4726.25
466.555	4832.68
466.928	4840.82
467.3	4821.16
467.672	4926.69
468.045	5068.38
468.417	5057.31
468.789	5102.96
469.161	5163.97
469.534	5297.08
469.906	5397.64
470.278	5400.35
470.65	5472.44
471.022	5615.49
471.394	5716.73
471.766	5801.47
472.138	5849.15
472.51	5939.55
472.882	6034.46
473.253	6129.82
473.625	6210.5
473.997	6305.41
474.369	6349.03
474.74	6443.71
475.112	6587.21
475.484	6725.29
475.855	6831.05
476.227	6866.53
476.598	7069.01
476.97	7092.74
477.341	7315.33
477.713	7400.75
478.084	7470.58
478.455	7684.36
478.827	7725.94
479.198	8003.45
479.569	7966.84
479.94	8247.51
480.311	8298.13
480.682	8463.55
481.053	8719.59
481.424	8855.4
481.795	8903.09
482.166	9090.65
482.537	9143.3
482.908	9346.24
483.279	9475.27
483.65	9741.48
484.021	9894.02
484.391	9960.91
484.762	10090.85
485.133	10240.68
485.503	10288.59
485.874	10657.39
486.244	10645.64
486.615	10917.04
486.985	11102.8
487.356	11276.58
487.726	11308.22
488.097	11564.94
488.467	11606.06
488.837	11899.84
489.207	12042.89
489.578	12226.61
489.948	12355.2
490.318	12466.16
490.688	12541.63
491.058	12765.13
491.428	12936.65
491.798	13143.43
492.168	13368.73
492.538	13387.94
492.908	13648.05
493.278	13683.75
493.648	13782.73
494.017	13933.91
494.387	14057.98
494.757	14235.83
495.126	14360.12
495.496	14447.57
495.866	14600.11
496.235	14728.92
496.605	14869.71
496.974	15060.89
497.344	15143.82
497.713	15337.49
498.082	15284.84
498.452	15563.25
498.821	15575.23
499.19	15765.05
499.559	15851.83
499.928	15925.27
500.298	16124.14
500.667	16280.97
501.036	16278.26
501.405	16432.15
501.774	16492.94
502.143	16685.93
502.512	16781.07
502.88	16951.69
503.249	17091.12
503.618	17102.87
503.987	17267.84
504.356	17413.37
504.724	17472.13
505.093	17562.74
505.462	17657.88
505.83	17808.39
506.199	17940.59
506.567	18245.89
506.936	18167.25
507.304	18481.59
507.672	18509.61
508.041	18644.75
508.409	18812.88
508.777	18915.93
509.145	19105.98
509.514	19078.18
509.882	19308.91
510.25	19490.6
510.618	19512.3
510.986	19718.85
511.354	19915.22
511.722	20074.54
512.09	20301.2
512.458	20273.41
512.826	20390.92
513.193	20517.24
513.561	20672.04
513.929	20889.44
514.297	21011.92
514.664	21184.57
515.032	21359.48
515.4	21466.6
515.767	21550.44
516.135	21761.05
516.502	21729.19
516.869	22043.76
517.237	22202.62
517.604	22207.37
517.972	22488.26
518.339	22661.14
518.706	22631.54
519.073	22986.56
519.44	22947.91
519.808	23279.88
520.175	23299.99
520.542	23715.8
520.909	23742.24
521.276	23795.12
521.643	24026.08
522.009	24260.65
522.376	24456.57
522.743	24572.96
523.11	24784.93
523.477	25072.38
523.843	25111.47
524.21	25433.27
524.577	25576.32
524.943	25716.2
525.31	25858.35
525.676	26078.9
526.043	26188.05
526.409	26341.27
526.776	26597.54
527.142	26715.05
527.508	26946
527.874	27122.27
528.241	27261.92
528.607	27339.44
528.973	27635.47
529.339	27740.1
529.705	27929.48
530.071	28144.84
530.437	28171.73
530.803	28457.6
531.169	28519.07
531.535	28580.31
531.901	28663.92
532.267	28892.62
532.632	29111.59
532.998	29233.17
533.364	29450.79
533.73	29507.06
534.095	29722.2
534.461	29829.09
534.826	29947.05
535.192	30142.53
535.557	30312.92
535.923	30198.57
536.288	30416.42
536.653	30676.98
537.019	30591.55
537.384	30845.78
537.749	31013.69
538.114	30994.48
538.479	31130.07
538.845	31297.07
539.21	31262.5
539.575	31534.58
539.94	31689.83
540.305	31729.6
540.67	31753.11
541.034	31915.81
541.399	31933.67
541.764	32259.08
542.129	32378.4
542.494	32468.79
542.858	32613.2
543.223	32561.45
543.587	32696.81
543.952	32864.49
544.316	32924.37
544.681	33039.85
545.045	33099.51
545.41	33424.25
545.774	33493.85
546.138	33548.76
546.503	33649.33
546.867	33591.02
547.231	33928.19
547.595	34200.73
547.959	34288.41
548.324	34257.9
548.688	34526.82
549.052	34552.81
549.416	34778.56
549.779	34673.71
550.143	34813.82
550.507	35110.08
550.871	35181.26
551.235	35350.53
551.599	35501.71
551.962	35611.76
552.326	35766.33
552.689	35993.22
553.053	35922.26
553.417	36080
553.78	36568.8
554.143	36454.68
554.507	36737.61
554.87	36791.84
555.234	37278.84
555.597	37035
555.96	37194.09
556.323	37378.27
556.686	37619.62
557.05	37870.23
557.413	37948.42
557.776	37985.03
558.139	38408.75
558.502	38407.39
558.865	38635.86
559.228	38898.68
559.59	38999.92
559.953	39144.1
560.316	39543.41
560.679	39481.72
561.041	39669.51
561.404	40002.15
561.767	40078.31
562.129	39952.89
562.492	40430.62
562.854	40523.5
563.217	40503.61
563.579	40758.74
563.941	41024.5
564.304	41152.86
564.666	41457.26
565.028	41361.21
565.39	41605.05
565.753	41812.5
566.115	41922.33
566.477	42085.94
566.839	42135.43
567.201	42407.06
567.563	42442.32
567.925	42845.24
568.287	42857.9
568.648	42836.43
569.01	43061.73
569.372	43493.14
569.734	43331.33
570.095	43704.2
570.457	43734.03
570.819	43800.92
571.18	43943.07
571.542	44010.64
571.903	44279.33
572.265	44383.28
572.626	44509.83
572.987	44618.98
573.349	44767.9
573.71	44864.4
574.071	44951.85
574.432	44990.05
574.794	45355.01
575.155	45282.69
575.516	45192.75
575.877	45469.36
576.238	45538.96
576.599	45670.25
576.96	45635.9
577.32	45629.35
577.681	45755.22
578.042	45953.86
578.403	45941.43
578.763	45979.4
579.124	45935.78
579.485	46258.71
579.845	46165.83
580.206	46157.92
580.566	46074.99
580.927	46244.02
581.287	46488.76
581.648	46305.94
582.008	46592.94
582.368	46408.99
582.728	46380.07
583.089	46380.74
583.449	46462.32
583.809	46518.14
584.169	46630.68
584.529	46550.91
584.889	46829.32
585.249	46517.24
585.609	46463.45
585.969	46688.76
586.329	46612.38
586.688	46734.63
587.048	46654.63
587.408	46698.93
587.768	46701.87
588.127	46657.12
588.487	46539.61
588.846	46872.48
589.206	46593.17
589.565	46677.23
589.925	46833.61
590.284	46725.82
590.643	46816.44
591.003	46981.18
591.362	47012.14
591.721	46880.84
592.08	46890.56
592.44	46981.41
592.799	46866.83
593.158	46780.73
593.517	46844.23
593.876	46970.56
594.235	46901.63
594.593	47087.17
594.952	47085.13
595.311	46862.31
595.67	47164.68
596.029	47223.43
596.387	47231.12
596.746	47281.74
597.104	47166.03
597.463	47173.27
597.822	47161.29
598.18	47095.08
598.538	47168.52
598.897	47238.8
599.255	46988.86
599.613	47580.03
599.972	47309.31
600.33	47453.71
600.688	47278.35
601.046	47324
601.404	47538.91
601.762	47516.31
602.12	47607.15
602.478	47625.68
602.836	47745.91
603.194	47522.86
603.552	47590.43
603.91	47511.56
604.268	47599.24
604.625	47595.18
604.983	47787.71
605.341	47750.65
605.698	47849.86
606.056	47884.88
606.413	47894.15
606.771	48044.65
607.128	48048.95
607.485	47837.2
607.843	47959.46
608.2	48246.68
608.557	48353.35
608.914	48150.87
609.272	48220.47
609.629	48398.09
609.986	48448.26
610.343	48242.84
610.7	48542.49
611.057	48413.01
611.414	48551.08
611.771	48566.22
612.127	48665.43
612.484	48629.05
612.841	48797.4
613.198	48559.22
613.554	48595.15
613.911	48830.85
614.267	48879.44
614.624	48793.34
614.98	48954.69
615.337	49023.84
615.693	49021.35
616.05	48923.28
616.406	49167.11
616.762	49147.45
617.118	49018.87
617.475	49159.88
617.831	49275.13
618.187	49308.35
618.543	49253.66
618.899	49365.52
619.255	49209.14
619.611	49331.4
619.967	49509.48
620.323	49465.18
620.678	49411.4
621.034	49347.9
621.39	49290.5
621.746	49224.96
622.101	49673.54
622.457	49430.83
622.812	49543.6
623.168	49625.18
623.523	49640.55
623.879	49574.56
624.234	49287.79
624.589	49488.01
624.945	49621.11
625.3	49679.19
625.655	49526.2
626.01	49597.16
626.365	49640.55
626.72	49568.91
627.075	49558.29
627.43	49520.1
627.785	49542.47
628.14	49572.3
628.495	49666.99
628.85	49538.85
629.205	49308.35
629.559	49544.73
629.914	49463.37
630.269	49430.83
630.623	49299.99
630.978	49198.3
631.332	49386.31
631.687	49465.63
632.041	49335.92
632.396	49353.09
632.75	49194.23
633.104	49317.16
633.459	49072.42
633.813	49082.14
634.167	49192.2
634.521	48970.28
634.875	49097.96
635.229	49046.21
635.583	48829.27
635.937	48846.67
636.291	48870.17
636.645	48799.21
636.999	48739.1
637.352	48779.55
637.706	48470.18
638.06	48784.3
638.413	48664.3
638.767	48519.67
639.121	48607.35
639.474	48402.16
639.828	48373.23
640.181	48491.65
640.534	48556.73
640.888	48289.17
641.241	48206.23
641.594	48295.72
641.947	48313.12
642.301	48299.34
642.654	48187.25
643.007	48067.48
643.36	48141.6
643.713	48121.71
644.066	48181.6
644.419	47888.27
644.771	47785.45
645.124	47366.71
645.477	47258.01
645.83	46943.44
646.182	46909.09
646.535	46808.08
646.888	46874.06
647.24	46569.67
647.593	46879.71
647.945	46770.34
648.298	46463
648.65	46397.47
649.002	46317.24
649.355	46466.39
649.707	46314.76
650.059	46539.84
650.411	46876.1
650.763	46895.31
651.115	47387.72
651.467	47226.37
651.819	47228.86
652.171	47013.27
652.523	47013.5
652.875	47102.08
653.227	46762.88
653.578	47165.36
653.93	46981.63
654.282	46842.43
654.633	46814.86
654.985	46859.38
655.337	46793.16
655.688	46854.63
656.039	46917.68
656.391	46527.63
656.742	46670.68
657.094	46566.28
657.445	46829.09
657.796	46624.13
658.147	46581.64
658.498	46530.12
658.849	46666.84
659.2	46537.12
659.551	46439.95
659.902	46572.15
660.253	46505.49
660.604	46355.66
660.955	46228.43
661.306	46337.81
661.656	46324.02
662.007	46244.25
662.358	46271.14
662.708	46341.2
663.059	46141.2
663.409	46045.39
663.76	46275.89
664.11	46321.76
664.461	46304.81
664.811	46208.32
665.161	46263.23
665.511	45991.15
665.862	46102.33
666.212	46300.97
666.562	46244.93
666.912	46073.63
667.262	45990.02
667.612	45917.25
667.962	46005.61
668.312	45935.33
668.662	46249.45
669.011	46113.18
669.361	45996.57
669.711	45978.04
670.06	45840.87
670.41	45724.94
670.76	45740.76
671.109	45897.82
671.459	45726.52
671.808	45718.84
672.157	45843.36
672.507	45470.71
672.856	45478.39
673.205	45606.07
673.554	45602.23
673.904	45428.23
674.253	45610.82
674.602	45406.08
674.951	44946.66
675.3	44695.82
675.649	45318.85
675.998	45238.63
676.346	45146.88
676.695	45467.77
677.044	45001.57
677.393	45115.01
677.741	45231.62
678.09	45061.46
678.438	44935.36
678.787	45037.05
679.135	44972.65
679.484	44731.75
679.832	44888.13
680.181	44652.88
680.529	44850.39
680.877	44645.2
681.225	44658.76
681.573	44796.15
681.922	44545.99
682.27	44422.83
682.618	44514.8
682.966	44345.32
683.314	44335.15
683.661	44227.13
684.009	44063.06
684.357	43798.44
684.705	43948.04
685.053	43846.8
685.4	43750.98
685.748	43708.95
686.095	43619.91
686.443	43469.41
686.79	43360.48
687.138	43385.79
687.485	43362.29
687.832	43259.24
688.18	43245.23
688.527	43080.27
688.874	43115.74
689.221	42882.53
689.568	42863.32
689.915	42734.74
690.262	42683.44
690.609	42541.75
690.956	42506.5
691.303	42410.9
691.65	42222.44
691.997	42205.71
692.344	41924.14
692.69	42059.28
693.037	42057.69
693.383	41675.78
693.73	41790.13
694.077	41585.84
694.423	41598.5
694.769	41398.73
695.116	41302.01
695.462	41302.91
695.808	41051.17
696.155	41114.89
696.501	41022.01
696.847	40903.15
697.193	40557.62
697.539	40682.36
697.885	40432.65
698.231	40345.42
698.577	40318.53
698.923	40258.87
699.269	40225.2
699.614	39876.73
699.96	39912.21
700.306	39952.89
700.651	39737.53
700.997	39596.52
701.342	39544.54
701.688	39580.92
702.033	39242.85
702.379	39306.58
702.724	39064.33
703.069	39301.16
703.415	38755.18
703.76	38791.34
704.105	38873.82
704.45	38722.87
704.795	38598.35
705.14	38503.66
705.485	38338.47
705.83	38164.24
706.175	38271.58
706.52	38041.75
706.865	37932.15
707.209	38084.69
707.554	37876.11
707.899	38041.3
708.243	37690.35
708.588	37633.63
708.932	37308.67
709.277	37368.78
709.621	37519.73
709.966	37297.82
710.31	37434.99
710.654	37012.85
710.998	37130.82
711.342	36998.84
711.687	36849.02
712.031	36779.41
712.375	36768.79
712.719	36883.14
713.063	36585.52
713.407	36626.65
713.75	36532.64
714.094	36383.94
714.438	36336.04
714.782	36393.44
715.125	36085.65
715.469	36263.72
715.812	35957.29
716.156	35875.48
716.499	35786.22
716.843	35962.26
717.186	35741.02
717.53	35837.29
717.873	35778.31
718.216	35747.13
718.559	35541.03
718.902	35383.52
719.246	35298.78
719.589	35368.83
719.932	35196.86
720.275	35202.05
720.617	35244.77
720.96	35165.9
721.303	35082.28
721.646	35065.34
721.989	34791.9
722.331	34956.86
722.674	34717.32
723.016	34932.01
723.359	34815.4
723.701	34811.33
724.044	34500.15
724.386	34366.14
724.729	34553.03
725.071	34427.16
725.413	34293.83
725.755	34360.95
726.097	34170.67
726.439	33975.87
726.782	34113.04
727.124	34207.05
727.465	33957.57
727.807	34047.51
728.149	33888.19
728.491	33839.83
728.833	33774.52
729.175	33726.16
729.516	33532.49
729.858	33577.69
730.199	33584.24
730.541	33401.65
730.882	33385.38
731.224	33487.07
731.565	33334.08
731.906	33259.73
732.248	33292.95
732.589	33023.58
732.93	33007.54
733.271	33010.25
733.612	33063.35
733.953	33033.98
734.294	32878.05
734.635	32885.73
734.976	32876.24
735.317	32674.44
735.658	32740.2
735.999	32675.12
736.339	32661.78
736.68	32697.26
737.021	32608.45
737.361	32412.98
737.702	32638.73
738.042	32492.52
738.383	32448.68
738.723	32359.87
739.063	32277.39
739.404	32189.48
739.744	32301.34
740.084	32053.44
740.424	32034.45
740.764	32080.33
741.104	32139.31
741.444	31984.51
741.784	31867.45
742.124	31816.15
742.464	31828.36
742.804	31853.44
743.143	31661.13
743.483	31666.1
743.823	31491.64
744.162	31496.62
744.502	31528.48
744.841	31302.5
745.181	31439.44
745.52	31246.45
745.86	31274.7
746.199	31093.01
746.538	31106.12
746.877	31206.23
747.216	31255.49
747.556	31057.08
747.895	31078.1
748.234	30869.74
748.573	31064.54
748.911	30822.96
749.25	30828.61
749.589	30696.18
749.928	30535.96
750.267	30729.63
750.605	30509.07
750.944	30461.16
751.283	30385.01
751.621	30513.59
751.96	30352.46
752.298	30265.24
752.636	30278.79
752.975	30115.86
753.313	30052.36
753.651	30243.99
753.989	30005.81
754.327	30009.42
754.666	29823.66
755.004	29908.63
755.342	29809.65
755.679	29748.64
756.017	29653.73
756.355	29665.48
756.693	29549.55
757.031	29506.61
757.368	29463.67
757.706	29345.71
758.044	29176.22
758.381	29350.91
758.719	29096.9
759.056	29054.19
759.394	29086.06
759.731	28731.94
760.068	28809
760.405	28684.26
760.743	28567.43
761.08	28642.91
761.417	28400.88
761.754	28427.32
762.091	28390.71
762.428	28217.15
762.765	28079.3
763.102	28160.21
763.438	27978.06
763.775	27822.59
764.112	27877.95
764.449	27811.51
764.785	27837.73
765.122	27631.86
765.458	27413.11
765.795	27460.34
766.131	27366.78
766.467	27260.79
766.804	27060.57
767.14	26931.99
767.476	26942.84
767.812	26864.87
768.148	26886.57
768.485	26662.17
768.821	26547.14
769.157	26620.81
769.492	26498.78
769.828	26513.02
770.164	26126.81
770.5	26192.8
770.836	26216.75
771.171	26021.51
771.507	25963.88
771.842	25844.11
772.178	25762.75
772.513	25662.87
772.849	25520.95
773.184	25372.03
773.519	25513.72
773.855	25307.85
774.19	25134.07
774.525	25187.18
774.86	25040.97
775.195	25036.22
775.53	24888.65
775.865	24880.29
776.2	24557.14
776.535	24454.09
776.87	24481.43
777.205	24326.86
777.539	24202.8
777.874	24354.66
778.209	24140.2
778.543	24056.36
778.878	23933.65
779.212	23978.85
779.547	23759.64
779.881	23778.85
780.215	23598.52
780.55	23719.42
780.884	23425.87
781.218	23455.92
781.552	23496.15
781.886	23234.91
782.22	23148.13
782.554	23103.39
782.888	22878.76
783.222	22702.04
783.556	22671.08
783.889	22713.8
784.223	22510.41
784.557	22501.82
784.89	22530.52
785.224	22342.73
785.557	22330.3
785.891	22140.93
786.224	22089.18
786.558	22116.97
786.891	21927.83
787.224	21839.24
787.557	21857.77
787.891	21732.8
788.224	21709.75
788.557	21758.34
788.89	21605.35
789.223	21552.7
789.556	21431.34
789.888	21402.42
790.221	21185.02
790.554	21102.31
790.887	21003.56
791.219	20969.89
791.552	20938.25
791.884	20863.45
792.217	20848.99
792.549	20749.33
792.882	20588.65
793.214	20512.5
793.546	20487.64
793.879	20411.71
794.211	20277.7
794.543	20361.54
794.875	20175.56
795.207	20256.46
795.539	20183.69
795.871	20103.92
796.203	19936.24
796.535	19838.39
796.867	19752.52
797.198	19663.25
797.53	19812.63
797.862	19679.98
798.193	19703.25
798.525	19626.19
798.856	19607.21
799.188	19372.64
799.519	19320.89
799.85	19218.52
800.182	19173.78
800.513	19151.4
800.844	19123.61
801.175	19095.36
801.506	19024.4
801.837	18905.31
802.168	18845.42
802.499	18729.49
802.83	18698.08
803.161	18686.78
803.491	18635.26
803.822	18629.16
804.153	18589.61
804.483	18367.47
804.814	18331.31
805.145	18295.83
805.475	18291.31
805.805	18175.61
806.136	18161.37
806.466	18208.15
806.796	18223.52
807.126	18006.8
807.457	17947.59
807.787	17877.99
808.117	17823.75
808.447	17848.84
808.777	17834.6
809.107	17759.58
809.436	17702.18
809.766	17723.64
810.096	17544.67
810.426	17530.88
810.755	17519.36
811.085	17418.57
811.414	17394.84
811.744	17277.55
812.073	17352.81
812.403	17301.73
812.732	17158.69
813.061	17216.99
813.39	17053.83
813.719	17071.23
814.049	17150.33
814.378	17027.84
814.707	17005.02
815.036	16919.15
815.365	16841.63
815.693	16699.94
816.022	16701.07
816.351	16700.62
816.68	16501.08
817.008	16655.2
817.337	16516.9
817.665	16419.05
817.994	16482.32
818.322	16434.86
818.651	16344.47
818.979	16217.02
819.307	16434.19
819.636	16246.39
819.964	16192.61
820.292	16161.65
820.62	16193.74
820.948	16111.94
821.276	16110.13
821.604	16049.56
821.932	16139.51
822.259	16132.73
822.587	16169.11
822.915	16075.1
823.243	16163.46
823.57	16090.92
823.898	16139.73
824.225	16074.42
824.553	16075.33
824.88	16107.42
825.207	16074.42
825.535	16009.34
825.862	16172.72
826.189	16038.49
826.516	16107.87
826.843	16098.6
827.17	16089.56
827.497	16045.27
827.824	16158.04
828.151	16247.07
828.478	16101.31
828.805	16104.93
829.131	16069.68
829.458	16011.82
829.785	15991.71
830.111	15985.84
830.438	16020.41
830.764	16009.56
831.09	16035.78
831.417	15869
831.743	16000.75
832.069	15978.61
832.395	15916.46
832.722	15974.31
833.048	15951.49
833.374	15911.26
833.7	15783.58
834.026	15925.5
834.351	15954.43
834.677	15776.12
835.003	15869.23
835.329	15848.44
835.654	15910.58
835.98	15769.35
836.306	15787.42
836.631	15697.71
836.956	15771.15
837.282	15738.61
837.607	15694.09
837.932	15697.03
838.258	15671.27
838.583	15506.53
838.908	15563.7
839.233	15579.07
839.558	15495.23
839.883	15392.41
840.208	15375.91
840.533	15396.47
840.858	15411.16
841.182	15372.52
841.507	15275.35
841.832	15200.77
842.156	15195.8
842.481	15236.48
842.805	15239.19
843.13	15147.67
843.454	15155.8
843.778	15093.88
844.103	15025.18
844.427	15005.75
844.751	15036.94
845.075	14876.94
845.399	14868.35
845.723	14799.65
846.047	14773.89
846.371	14750.84
846.695	14711.07
847.019	14569.6
847.343	14572.99
847.666	14507.46
847.99	14390.85
848.313	14472.2
848.637	14338.65
848.96	14330.74
849.284	14269.5
849.607	14109.05
849.931	14159.22
850.254	14050.07
850.577	13978.66
850.9	13896.85
851.223	13868.6
851.546	13851.43
851.869	13736.18
852.192	13752.45
852.515	13631.77
852.838	13551.78
853.161	13556.75
853.483	13563.08
853.806	13467.26
854.129	13394.94
854.451	13368.96
854.774	13319.69
855.096	13277.66
855.419	13202.41
855.741	13161.96
856.063	13122.86
856.385	13056.2
856.708	13060.04
857.03	13022.75
857.352	13031.34
857.674	13005.12
857.996	12882.19
858.318	12881.74
858.64	12784.11
858.961	12781.85
859.283	12803.32
859.605	12665.02
859.926	12670.44
860.248	12756.77
860.57	12547.51
860.891	12622.99
861.212	12581.41
861.534	12508.87
861.855	12456.44
862.176	12461.41
862.498	12507.51
862.819	12420.05
863.14	12419.83
863.461	12272.94
863.782	12341.64
864.103	12452.37
864.424	12349.55
864.745	12344.8
865.065	12244.24
865.386	12199.04
865.707	12180.97
866.027	12167.86
866.348	12098.03
866.668	12127.86
866.989	12057.8
867.309	11972.16
867.63	12074.75
867.95	12023.68
868.27	11922.89
868.59	11947.07
868.91	11991.37
869.23	11954.3
869.55	11910.69
869.87	11971.48
870.19	11892.61
870.51	11879.05
870.83	11805.61
871.15	11869.56
871.469	11770.81
871.789	11856.45
872.109	11750.92
872.428	11662.56
872.748	11795.21
873.067	11733.97
873.386	11776.68
873.706	11663.69
874.025	11665.5
874.344	11605.39
874.663	11726.06
874.982	11611.26
875.301	11610.58
875.62	11520.87
875.939	11534.43
876.258	11496.01
876.577	11564.26
876.896	11453.75
877.214	11390.7
877.533	11482.23
877.852	11415.79
878.17	11397.71
878.489	11445.84
878.807	11360.87
879.125	11365.39
879.444	11411.49
879.762	11379.86
880.08	11256.92
880.398	11302.57
880.716	11228.22
881.034	11221.22
881.352	11160.88
881.67	11164.95
881.988	11156.36
882.306	11168.79
882.624	11086.76
882.941	11027.1
883.259	11027.32
883.577	11074.1
883.894	11027.32
884.212	10893.32
884.529	10963.14
884.846	10892.41
885.164	10944.61
885.481	10839.76
885.798	10911.17
886.115	10736.71
886.432	10743.71
886.75	10696.26
887.067	10703.49
887.383	10697.61
887.7	10695.58
888.017	10623.94
888.334	10686.09
888.651	10563.38
888.967	10596.15
889.284	10539.2
889.6	10506.88
889.917	10420.11
890.233	10482.93
890.55	10426.89
890.866	10413.55
891.182	10409.49
891.498	10336.72
891.815	10310.05
892.131	10248.13
892.447	10247
892.763	10220.56
893.079	10207.68
893.395	10103.51
893.71	10187.57
894.026	10147.35
894.342	10119.55
894.657	10013.56
894.973	10008.37
895.289	9983.73
895.604	9927.69
895.92	9915.49
896.235	9823.06
896.55	9827.58
896.865	9807.92
897.181	9784.87
897.496	9748.03
897.811	9751.42
898.126	9696.28
898.441	9626.23
898.756	9576.74
899.071	9487.7
899.386	9559.79
899.7	9473.24
900.015	9516.4
900.33	9466.69
900.644	9423.98
900.959	9329.74
901.273	9330.64
901.588	9231.89
901.902	9207.71
902.216	9231.21
902.531	9220.59
902.845	9174.26
903.159	9082.97
903.473	9043.65
903.787	9035.29
904.101	8957.77
904.415	8957.09
904.729	8937.21
905.042	8917.77
905.356	8915.29
905.67	8875.97
905.984	8885.01
906.297	8816.99
906.611	8727.04
906.924	8776.53
907.237	8712.58
907.551	8666.48
907.864	8623.09
908.177	8603.66
908.491	8632.58
908.804	8482.98
909.117	8514.62
909.43	8444.57
909.743	8419.71
910.056	8343.78
910.368	8328.64
910.681	8322.76
910.994	8274.63
911.307	8208.41
911.619	8098.81
911.932	8264.46
912.244	8159.15
912.557	8125.25
912.869	8058.81
913.181	8066.95
913.494	8047.97
913.806	7994.86
914.118	7970
914.43	7933.39
914.742	7902.43
915.054	7867.41
915.366	7852.04
915.678	7810.46
915.99	7750.8
916.302	7681.2
916.613	7660.86
916.925	7667.64
917.236	7620.86
917.548	7593.74
917.859	7568.66
918.171	7514.42
918.482	7504.7
918.794	7528.21
919.105	7460.64
919.416	7400.3
919.727	7413.18
920.038	7306.97
920.349	7311.94
920.66	7309.45
920.971	7255.67
921.282	7228.55
921.593	7198.27
921.903	7110.82
922.214	7131.61
922.525	7087.54
922.835	7083.7
923.146	7005.96
923.456	6950.37
923.767	6942.68
924.077	6933.42
924.387	6950.14
924.697	6896.58
925.008	6924.83
925.318	6803.48
925.628	6847.09
925.938	6787.66
926.248	6737.94
926.558	6735.46
926.867	6639.42
927.177	6669.02
927.487	6638.29
927.796	6572.3
928.106	6595.35
928.416	6530.04
928.725	6511.28
929.034	6456.14
929.344	6476.26
929.653	6434.22
929.962	6322.59
930.271	6360.78
930.581	6341.12
930.89	6254.12
931.199	6229.26
931.508	6234.91
931.817	6234.45
932.125	6199.88
932.434	6222.03
932.743	6126.66
933.051	6098.87
933.36	6005.76
933.669	6086.66
933.977	6040.34
934.286	5988.59
934.594	6023.16
934.902	5922.6
935.21	5908.81
935.519	5887.35
935.827	5984.52
936.135	5857.52
936.443	5829.27
936.751	5796.27
937.059	5801.7
937.367	5751.76
937.674	5746.11
937.982	5720.57
938.29	5725.09
938.597	5708.14
938.905	5623.4
939.213	5608.26
939.52	5536.85
939.827	5573.46
940.135	5545.43
940.442	5529.16
940.749	5535.04
941.056	5544.3
941.363	5394.02
941.67	5419.79
941.977	5433.8
942.284	5408.94
942.591	5389.73
942.898	5329.39
943.205	5327.13
943.511	5301.37
943.818	5287.36
944.125	5247.59
944.431	5225.22
944.738	5217.31
945.044	5171.43
945.35	5201.71
945.657	5137.99
945.963	5137.31
946.269	5083.75
946.575	5037.42
946.881	5040.81
947.187	5012.34
947.493	5029.06
947.799	5002.17
948.105	4947.71
948.41	4875.39
948.716	4921.72
949.022	4848.73
949.327	4817.77
949.633	4817.54
949.938	4817.54
950.244	4775.28
950.549	4821.16
950.854	4713.59
951.16	4753.59
951.465	4706.81
951.77	4683.99
952.075	4668.85
952.38	4652.35
952.685	4666.81
952.99	4625.01
953.294	4551.11
953.599	4578.23
953.904	4574.84
954.209	4553.82
954.513	4518.57
954.818	4441.51
955.122	4457.33
955.426	4456.42
955.731	4411.68
956.035	4464.33
956.339	4412.81
956.643	4419.81
956.948	4335.75
957.252	4348.85
957.556	4341.17
957.86	4326.26
958.163	4301.85
958.467	4284
958.771	4254.17
959.075	4242.42
959.378	4187.95
959.682	4196.99
959.985	4199.25
960.289	4191.12
960.592	4125.13
960.896	4116.09
961.199	4110.67
961.502	4085.81
961.805	4086.04
962.108	3996.1
962.411	3999.94
962.714	4029.54
963.017	3994.29
963.32	3954.74
963.623	3959.03
963.926	3987.96
964.228	3937.57
964.531	3895.99
964.833	3922.65
965.136	3912.93
965.438	3856.89
965.741	3867.74
966.043	3819.38
966.345	3824.35
966.648	3804.91
966.95	3826.38
967.252	3730.11
967.554	3728.76
967.856	3680.4
968.158	3685.37
968.46	3692.83
968.761	3674.75
969.063	3647.86
969.365	3661.42
969.666	3624.81
969.968	3561.98
970.269	3564.24
970.571	3570.12
970.872	3578.25
971.174	3527.41
971.475	3531.93
971.776	3529.22
972.077	3499.39
972.378	3466.84
972.679	3435.43
972.98	3457.58
973.281	3455.32
973.582	3408.54
973.883	3432.95
974.183	3372.84
974.484	3408.77
974.785	3340.52
975.085	3364.25
975.386	3361.54
975.686	3314.76
975.986	3267.98
976.287	3319.96
976.587	3248.32
976.887	3266.85
977.187	3248.32
977.487	3225.72
977.787	3226.85
978.087	3205.16
978.387	3148.21
978.687	3181.43
978.987	3146.17
979.286	3111.6
979.586	3134.2
979.885	3098.49
980.185	3064.14
980.484	3084.93
980.784	3088.1
981.083	3044.26
981.382	3089.9
981.682	3021.43
981.981	3014.43
982.28	3016.46
982.579	2943.24
982.878	2945.05
983.177	2930.59
983.475	2924.03
983.774	2943.02
984.073	2925.16
984.372	2888.78
984.67	2925.39
984.969	2893.75
985.267	2896.92
985.566	2860.76
985.864	2869.12
986.162	2866.18
986.461	2817.37
986.759	2802.23
987.057	2811.27
987.355	2803.13
987.653	2771.95
987.951	2732.17
988.249	2715.23
988.547	2733.98
988.844	2732.4
989.142	2711.84
989.44	2700.31
989.737	2665.73
990.035	2651.5
990.332	2656.92
990.63	2645.4
990.927	2642.68
991.224	2589.8
991.521	2605.85
991.819	2599.75
992.116	2596.13
992.413	2568.79
992.71	2577.15
993.006	2531.95
993.303	2549.13
993.6	2540.31
993.897	2505.51
994.193	2487.21
994.49	2476.36
994.787	2479.3
995.083	2450.6
995.379	2453.09
995.676	2441.79
995.972	2421
996.268	2411.96
996.565	2395.23
996.861	2392.3
997.157	2385.06
997.453	2360.88
997.749	2348.23
998.044	2350.04
998.34	2361.56
998.636	2325.4
998.932	2285.18
999.227	2306.42
999.523	2319.53
999.818	2280.43
1000.114	2258.29
1000.409	2232.98
1000.704	2230.94
1001	2220.77
1001.295	2190.72
1001.59	2232.3
1001.885	2197.27
1002.18	2175.35
1002.475	2159.76
1002.77	2161.34
1003.065	2154.56
1003.359	2137.61
1003.654	2120.44
1003.949	2114.79
1004.243	2092.87
1004.538	2110.95
1004.832	2095.13
1005.127	2046.32
1005.421	2072.08
1005.715	2031.63
1006.009	2035.7
1006.304	2033.66
1006.598	2013.32
1006.892	1991.63
1007.186	1973.55
1007.48	1961.57
1007.773	1945.98
1008.067	1933.1
1008.361	1940.33
1008.655	1918.18
1008.948	1918.41
1009.242	1870.5
1009.535	1873.44
1009.829	1855.36
1010.122	1873.67
1010.415	1836.83
1010.708	1855.81
1011.001	1856.26
1011.295	1850.16
1011.588	1804.29
1011.881	1800.22
1012.173	1781.46
1012.466	1792.31
1012.759	1811.52
1013.052	1764.29
1013.344	1766.55
1013.637	1760.9
1013.93	1738.98
1014.222	1702.14
1014.514	1716.38
1014.807	1716.16
1015.099	1705.08
1015.391	1696.49
1015.683	1690.62
1015.976	1656.04
1016.268	1648.13
1016.56	1630.73
1016.851	1627.12
1017.143	1603.16
1017.435	1632.32
1017.727	1608.81
1018.018	1597.29
1018.31	1590.51
1018.602	1596.38
1018.893	1541.02
1019.185	1578.31
1019.476	1564.3
1019.767	1542.6
1020.058	1489.72
1020.35	1501.92
1020.641	1458.31
1020.932	1462.83
1021.223	1496.73
1021.514	1467.8
1021.804	1454.02
1022.095	1444.3
1022.386	1450.63
1022.677	1443.17
1022.967	1420.8
1023.258	1424.64
1023.548	1399.1
1023.839	1407.69
1024.129	1370.18
1024.419	1377.63
1024.709	1357.97
1025	1370.18
1025.29	1359.33
1025.58	1327.47
1025.87	1348.26
1026.16	1322.72
1026.449	1334.7
1026.739	1304.41
1027.029	1276.17
1027.319	1296.51
1027.608	1274.81
1027.898	1268.26
1028.187	1277.07
1028.477	1262.83
1028.766	1245.66
1029.055	1204.08
1029.344	1206.34
1029.634	1209.73
1029.923	1234.13
1030.212	1217.19
1030.501	1215.6
1030.79	1205.21
1031.078	1167.47
1031.367	1183.74
1031.656	1163.63
1031.945	1164.53
1032.233	1141.48
1032.522	1133.12
1032.81	1124.08
1033.099	1119.56
1033.387	1117.3
1033.675	1115.27
1033.963	1114.36
1034.251	1127.02
1034.54	1088.38
1034.828	1072.33
1035.116	1057.19
1035.403	1058.32
1035.691	1035.04
1035.979	1070.07
1036.267	1049.28
1036.554	1048.15
1036.842	1057.19
1037.129	1030.98
1037.417	1035.95
1037.704	1032.11
1037.992	996.63
1038.279	1011.77
1038.566	1014.03
1038.853	1014.03
1039.14	1014.03
