Data from White_paper_FLMS001491_003.txt Node
Date: Tue Feb 07 10:34:34 GMT 2017
User: dcchb
Spectrometer: FLMS00149
Trigger mode: 0
Integration Time (sec): 2.000000E-2
Scans to average: 10
Electric dark correction enabled: true
Nonlinearity correction enabled: false
Boxcar width: 0
XAxis mode: Wavelengths
Number of Pixels in Spectrum: 2048
>>>>>Begin Spectral Data<<<<<
341.393	-34.11
341.776	-34.11
342.16	-34.11
342.543	-66.65
342.927	-63.04
343.31	-73.2
343.693	-83.6
344.077	-61
344.46	-61.45
344.843	-50.38
345.226	-46.76
345.61	-31.17
345.993	-14.45
346.376	16.96
346.759	23.74
347.142	17.19
347.525	32.78
347.908	72.1
348.291	63.29
348.674	86.79
349.057	109.16
349.44	139.45
349.823	122.04
350.206	172.21
350.588	213.57
350.971	226.67
351.354	253.11
351.737	270.74
352.119	252.66
352.502	286.11
352.884	297.18
353.267	306.45
353.65	308.25
354.032	322.04
354.414	345.77
354.797	330.63
355.179	360.68
355.562	339.21
355.944	366.33
356.326	367.24
356.709	367.24
357.091	367.01
357.473	362.26
357.855	354.36
358.238	376.73
358.62	380.12
359.002	382.15
359.384	363.39
359.766	363.17
360.148	391.87
360.53	358.42
360.912	360
361.294	367.46
361.676	377.63
362.057	357.74
362.439	360.91
362.821	354.58
363.203	375.15
363.584	355.71
363.966	377.41
364.348	383.96
364.729	346.67
365.111	359.55
365.493	345.32
365.874	346.9
366.256	324.07
366.637	361.13
367.019	362.94
367.4	355.26
367.781	367.46
368.163	361.13
368.544	353
368.925	357.29
369.306	366.33
369.688	358.2
370.069	353.45
370.45	364.52
370.831	354.81
371.212	376.28
371.593	379.67
371.974	366.56
372.355	371.98
372.736	362.94
373.117	359.55
373.498	351.64
373.879	365.2
374.26	369.72
374.641	375.6
375.021	378.08
375.402	375.15
375.783	382.6
376.163	389.83
376.544	389.83
376.925	371.76
377.305	387.35
377.686	402.26
378.066	389.16
378.447	400.46
378.827	374.02
379.208	396.84
379.588	423.05
379.968	405.43
380.349	416.05
380.729	409.95
381.109	427.8
381.489	423.51
381.87	412.88
382.25	400.68
382.63	414.92
383.01	413.34
383.39	430.74
383.77	431.87
384.15	431.64
384.53	422.38
384.91	425.77
385.29	442.71
385.67	446.56
386.049	437.06
386.429	450.62
386.809	452.21
387.189	451.53
387.568	482.49
387.948	448.14
388.328	471.87
388.707	485.43
389.087	483.39
389.466	486.33
389.846	480.91
390.225	512.09
390.605	485.65
390.984	492.88
391.363	506.89
391.743	531.98
392.122	523.39
392.501	525.2
392.881	518.87
393.26	531.98
393.639	543.28
394.018	546.89
394.397	550.73
394.776	551.41
395.155	578.08
395.534	556.16
395.913	562.71
396.292	557.51
396.671	574.69
397.05	589.83
397.429	608.59
397.808	594.12
398.186	599.09
398.565	620.11
398.944	585.76
399.323	611.98
399.701	618.3
400.08	630.51
400.458	644.06
400.837	642.26
401.215	652.88
401.594	659.21
401.972	683.16
402.351	678.64
402.729	689.26
403.107	699.88
403.486	710.73
403.864	712.99
404.242	737.4
404.62	738.98
404.999	736.04
405.377	786.21
405.755	781.24
406.133	808.35
406.511	820.78
406.889	831.18
407.267	846.09
407.645	860.1
408.023	883.38
408.401	881.12
408.779	910.05
409.156	957.05
409.534	978.07
409.912	974
410.29	1005.19
410.667	1047.44
411.045	1066.2
411.422	1080.89
411.8	1103.04
412.178	1121.79
412.555	1208.8
412.933	1219.42
413.31	1208.8
413.687	1233.65
414.065	1273.2
414.442	1277.04
414.819	1324.73
415.197	1352.75
415.574	1384.38
415.951	1427.55
416.328	1453.54
416.705	1460.77
417.082	1491.5
417.46	1497.6
417.837	1548
418.214	1562.01
418.591	1587.32
418.967	1616.24
419.344	1648.56
419.721	1686.3
420.098	1680.2
420.475	1710.93
420.852	1722.23
421.228	1822.79
421.605	1802.9
421.982	1810.81
422.358	1880.87
422.735	1864.15
423.111	1847.65
423.488	1926.52
423.864	1928.1
424.241	2014.88
424.617	2005.16
424.994	2015.1
425.37	2068.66
425.746	2067.76
426.123	2091.03
426.499	2129.45
426.875	2164.03
427.251	2168.32
427.627	2215.55
428.003	2264.59
428.379	2285.15
428.756	2339.16
429.132	2340.74
429.507	2375.09
429.883	2432.49
430.259	2473.4
430.635	2494.41
431.011	2503
431.387	2578.48
431.763	2645.14
432.138	2643.56
432.514	2666.38
432.89	2706.61
433.265	2780.96
433.641	2810.11
434.016	2846.94
434.392	2887.4
434.767	2963.55
435.143	2960.61
435.518	2960.61
435.894	3063.44
436.269	3107.73
436.644	3128.52
437.02	3144.34
437.395	3171
437.77	3230.89
438.145	3286.26
438.52	3291.68
438.895	3332.58
439.271	3359.25
439.646	3410.09
440.021	3428.62
440.395	3467.27
440.77	3425.01
441.145	3504.33
441.52	3559.47
441.895	3520.6
442.27	3576.42
442.645	3627.04
443.019	3660.48
443.394	3636.98
443.769	3699.58
444.143	3698.22
444.518	3735.06
444.892	3764.43
445.267	3770.54
445.641	3811.21
446.016	3816.41
446.39	3842.4
446.764	3848.73
447.139	3903.87
447.513	3899.57
447.887	3922.4
448.262	3978.21
448.636	3962.62
449.01	4029.06
449.384	4040.13
449.758	4059.34
450.132	4163.07
450.506	4186.57
450.88	4187.02
451.254	4159.9
451.628	4279.9
452.002	4329.84
452.376	4329.84
452.75	4423.63
453.123	4441.03
453.497	4541.59
453.871	4516.05
454.244	4630.17
454.618	4639.21
454.992	4665.43
455.365	4685.54
455.739	4814.35
456.112	4865.65
456.486	4864.97
456.859	4958.53
457.232	5034.68
457.606	5034.68
457.979	5073.1
458.352	5219.31
458.725	5247.56
459.099	5349.93
459.472	5348.35
459.845	5472.41
460.218	5531.85
460.591	5593.77
460.964	5572.97
461.337	5689.13
461.71	5795.57
462.083	5895.9
462.456	5882.35
462.829	5918.73
463.201	6006.64
463.574	6082.57
463.947	6150.36
464.32	6311.03
464.692	6316.46
465.065	6403.24
465.438	6482.33
465.81	6577.02
466.183	6609.11
466.555	6776.33
466.928	6852.04
467.3	6834.18
467.672	6897.01
468.045	7114.4
468.417	7100.84
468.789	7238.02
469.161	7263.55
469.534	7386.71
469.906	7557.78
470.278	7600.27
470.65	7717.33
471.022	7852.46
471.394	7975.17
471.766	8146.92
472.138	8168.84
472.51	8365.44
472.882	8462.16
473.253	8554.37
473.625	8673.01
473.997	8866.67
474.369	8944.86
474.74	9004.07
475.112	9216.95
475.484	9355.93
475.855	9460.78
476.227	9584.85
476.598	9896.48
476.97	9960.43
477.341	10157.71
477.713	10254.66
478.084	10350.93
478.455	10607.42
478.827	10743.23
479.198	11025.94
479.569	11048.31
479.94	11344.8
480.311	11468.41
480.682	11780.04
481.053	11961.28
481.424	12132.35
481.795	12233.36
482.166	12484.43
482.537	12582.96
482.908	12850.3
483.279	12997.86
483.65	13230.4
484.021	13436.5
484.391	13611.63
484.762	13733.21
485.133	13839.65
485.503	14120.32
485.874	14373.87
486.244	14454.1
486.615	14699.51
486.985	14907.42
487.356	15217.24
487.726	15356.9
488.097	15602.09
488.467	15674.4
488.837	15997.11
489.207	16101.06
489.578	16395.74
489.948	16535.85
490.318	16754.83
490.688	16780.82
491.058	17107.13
491.428	17302.38
491.798	17522.72
492.168	17787.8
492.538	17818.53
492.908	18121.12
493.278	18293.54
493.648	18304.62
494.017	18476.36
494.387	18732.63
494.757	18809.46
495.126	19065.73
495.496	19013.3
495.866	19267.76
496.235	19522.44
496.605	19619.84
496.974	19806.05
497.344	19903.9
497.713	20033.16
498.082	20206.26
498.452	20449.65
498.821	20540.72
499.19	20628.85
499.559	20756.08
499.928	20921.5
500.298	21002.17
500.667	21177.08
501.036	21244.43
501.405	21420.69
501.774	21439.45
502.143	21756.05
502.512	21828.59
502.88	21964.41
503.249	22071.98
503.618	22212.99
503.987	22257.28
504.356	22346.09
504.724	22574.56
505.093	22598.52
505.462	22827.66
505.83	22908.79
506.199	23088.22
506.567	23486.4
506.936	23389.46
507.304	23666.96
507.672	23797.58
508.041	23853.85
508.409	24082.77
508.777	24233.5
509.145	24355.53
509.514	24438.92
509.882	24544
510.25	24738.57
510.618	24949.41
510.986	25026.25
511.354	25250.65
511.722	25386.47
512.09	25660.58
512.458	25710.52
512.826	25934.02
513.193	26002.72
513.561	26200.46
513.929	26254.24
514.297	26550.73
514.664	26694.91
515.032	26894.67
515.4	26986.42
515.767	27119.75
516.135	27323.14
516.502	27198.62
516.869	27646.74
517.237	27688.55
517.604	27722
517.972	27972.84
518.339	28261.42
518.706	28261.42
519.073	28540.05
519.44	28663.44
519.808	29002.87
520.175	28845.36
520.542	29413.48
520.909	29521.5
521.276	29451.67
521.643	29966.01
522.009	29894.82
522.376	30250.97
522.743	30438.76
523.11	30764.18
523.477	30961.23
523.843	31230.61
524.21	31452.97
524.577	31707.65
524.943	31782.46
525.31	31953.98
525.676	32261.99
526.043	32432.61
526.409	32598.03
526.776	32918.02
527.142	33058.35
527.508	33157.11
527.874	33355.97
528.241	33626.25
528.607	33798.9
528.973	34050.64
529.339	33984.66
529.705	34369.73
530.071	34652.89
530.437	34890.4
530.803	34937.63
531.169	35227.11
531.535	35331.06
531.901	35311.85
532.267	35592.52
532.632	35703.03
532.998	35934.21
533.364	35956.13
533.73	36233.64
534.095	36486.29
534.461	36684.93
534.826	36764.7
535.192	36916.56
535.557	37102.54
535.923	37223.67
536.288	37437.67
536.653	37509.76
537.019	37531.46
537.384	37742.52
537.749	37926.47
538.114	38018.9
538.479	38126.24
538.845	38199.69
539.21	38190.2
539.575	38467.03
539.94	38549.28
540.305	38827.92
540.67	38806.45
541.034	38990.85
541.399	39111.3
541.764	39220.9
542.129	39471.97
542.494	39589.93
542.858	39758.29
543.223	39672.42
543.587	39928.23
543.952	39921.68
544.316	40142.01
544.681	40168.22
545.045	40450.25
545.41	40660.64
545.774	40739.96
546.138	40694.54
546.503	40962.78
546.867	40917.36
547.231	41416.1
547.595	41370.9
547.959	41470.11
548.324	41624.46
548.688	41554.4
549.052	41772.7
549.416	41879.82
549.779	41855.86
550.143	42092.47
550.507	42333.59
550.871	42431.67
551.235	42460.37
551.599	42769.96
551.962	42884.31
552.326	43022.39
552.689	43275.49
553.053	43108.49
553.417	43276.62
553.78	43787.11
554.143	43578.08
554.507	43731.29
554.87	43779.65
555.234	44227.55
555.597	44048.8
555.96	44262.13
556.323	44478.62
556.686	44427.09
557.05	44812.4
557.413	44949.57
557.776	45003.8
558.139	45192.95
558.502	45253.74
558.865	45349.1
559.228	45663.22
559.59	45851.46
559.953	45848.3
560.316	46320.6
560.679	46302.07
561.041	46475.4
561.404	46577.32
561.767	46967.14
562.129	46777.32
562.492	47161.03
562.854	47186.12
563.217	47331.42
563.579	47432.44
563.941	47607.35
564.304	47926.89
564.666	48038.3
565.028	48129.82
565.39	48318.07
565.753	48468.57
566.115	48508.8
566.477	48698.17
566.839	48816.58
567.201	49064.03
567.563	49157.14
567.925	49369.56
568.287	49411.6
568.648	49490.01
569.01	49784.02
569.372	49921.64
569.734	49912.83
570.095	50091.13
570.457	50255.87
570.819	50300.61
571.18	50511.45
571.542	50617.89
571.903	50707.16
572.265	50805.01
572.626	50842.97
572.987	50974.27
573.349	51190.98
573.71	51198.44
574.071	51267.82
574.432	51418.55
574.794	51605.21
575.155	51573.8
575.516	51518.66
575.877	51657.86
576.238	51777.86
576.599	51929.5
576.96	52022.83
577.32	52051.53
577.681	52146.44
578.042	52243.16
578.403	52207.91
578.763	52314.34
579.124	52347.34
579.485	52552.98
579.845	52604.73
580.206	52533.32
580.566	52529.03
580.927	52684.5
581.287	52722.92
581.648	52670.27
582.008	52828.91
582.368	52738.06
582.728	52868.45
583.089	52787.1
583.449	52876.82
583.809	52933.76
584.169	52987.55
584.529	52938.06
584.889	53162.46
585.249	53028.22
585.609	52875.69
585.969	53201.33
586.329	53148.22
586.688	53146.19
587.048	53206.3
587.408	53156.58
587.768	53274.09
588.127	53143.02
588.487	53220.08
588.846	53357.71
589.206	53193.19
589.565	53208.11
589.925	53394.77
590.284	53202.68
590.643	53369.46
591.003	53478.38
591.362	53478.16
591.721	53396.58
592.08	53536.23
592.44	53491.04
592.799	53487.65
593.158	53484.03
593.517	53512.96
593.876	53573.07
594.235	53610.81
594.593	53548.89
594.952	53648.55
595.311	53615.33
595.67	53663.91
596.029	53797.24
596.387	53896
596.746	53840.18
597.104	53771.48
597.463	53712.95
597.822	53898.03
598.18	53821.2
598.538	53722.67
598.897	53942.78
599.255	53698.49
599.613	54177.35
599.972	53905.72
600.33	54049.21
600.688	53945.71
601.046	54052.38
601.404	54173.96
601.762	54111.36
602.12	54250.79
602.478	54264.35
602.836	54155.65
603.194	54060.29
603.552	54167.63
603.91	54147.06
604.268	54311.58
604.625	54208.08
604.983	54327.4
605.341	54156.56
605.698	54368.98
606.056	54339.15
606.413	54281.98
606.771	54456.66
607.128	54513.38
607.485	54284.91
607.843	54425.48
608.2	54620.27
608.557	54642.65
608.914	54539.6
609.272	54665.92
609.629	54705.47
609.986	54852.58
610.343	54575.08
610.7	54889.19
611.057	54790.44
611.414	54784.79
611.771	54820.95
612.127	54957.89
612.484	54930.1
612.841	55026.59
613.198	54934.84
613.554	54969.64
613.911	55100.71
614.267	55087.83
614.624	54998.57
614.98	55079.24
615.337	55208.05
615.693	55076.76
616.05	55122.18
616.406	55293.93
616.762	55202.18
617.118	55193.82
617.475	55166.7
617.831	55266.81
618.187	55260.71
618.543	55280.82
618.899	55427.71
619.255	55347.94
619.611	55345.68
619.967	55480.59
620.323	55414.6
620.678	55432.45
621.034	55301.84
621.39	55370.76
621.746	55319.92
622.101	55636.52
622.457	55378.22
622.812	55443.98
623.168	55509.29
623.523	55510.64
623.879	55585.67
624.234	55425.22
624.589	55496.86
624.945	55515.84
625.3	55573.24
625.655	55462.28
626.01	55479.46
626.365	55627.48
626.72	55490.76
627.075	55489.4
627.43	55506.35
627.785	55455.05
628.14	55536.18
628.495	55560.36
628.85	55452.12
629.205	55411.21
629.559	55477.2
629.914	55403.76
630.269	55397.88
630.623	55448.05
630.978	55363.98
631.332	55502.06
631.687	55508.61
632.041	55431.1
632.396	55431.78
632.75	55372.57
633.104	55365.79
633.459	55349.97
633.813	55307.94
634.167	55309.52
634.521	55306.36
634.875	55353.81
635.229	55340.71
635.583	55199.24
635.937	55148.85
636.291	55163.76
636.645	55178.22
636.999	55161.5
637.352	55211.9
637.706	55084.44
638.06	55209.41
638.413	55103.65
638.767	55123.76
639.121	55146.13
639.474	54925.35
639.828	54954.95
640.181	55047.15
640.534	55051
640.888	54977.55
641.241	54874.73
641.594	54952.02
641.947	55024.56
642.301	54896.65
642.654	54954.05
643.007	54882.86
643.36	54966.48
643.713	54808.06
644.066	54967.16
644.419	54723.1
644.771	54626.15
645.124	54353.39
645.477	54230
645.83	54126.27
646.182	54011.7
646.535	53961.76
646.888	54084.69
647.24	53906.85
647.593	53997.24
647.945	54033.62
648.298	53849.67
648.65	53816.23
649.002	53773.52
649.355	53884.47
649.707	53863.68
650.059	53986.39
650.411	54394.97
650.763	54302.32
651.115	54693.72
651.467	54493.72
651.819	54488.52
652.171	54469.99
652.523	54447.85
652.875	54431.8
653.227	54308.42
653.578	54468.41
653.93	54352.26
654.282	54233.16
654.633	54207.63
654.985	54208.08
655.337	54252.6
655.688	54277.68
656.039	54347.96
656.391	54135.54
656.742	54146.39
657.094	54203.11
657.445	54278.59
657.796	54204.92
658.147	54164.01
658.498	54157.23
658.849	54233.84
659.2	54213.73
659.551	54073.39
659.902	54144.35
660.253	54067.75
660.604	54151.36
660.955	54023.45
661.306	54187.97
661.656	54054.86
662.007	54039.27
662.358	54068.42
662.708	54121.75
663.059	54025.49
663.409	53862.78
663.76	54051.93
664.11	54083.34
664.461	54085.82
664.811	54009.44
665.161	54026.62
665.511	53862.1
665.862	53927.64
666.212	54059.16
666.562	54086.05
666.912	53937.8
667.262	53878.37
667.612	53936.9
667.962	53923.34
668.312	53829.11
668.662	54016.67
669.011	53943.23
669.361	53797.92
669.711	53871.37
670.06	53748.66
670.41	53733.97
670.76	53672.73
671.109	53798.15
671.459	53664.59
671.808	53685.16
672.157	53714.76
672.507	53522
672.856	53507.76
673.205	53573.97
673.554	53744.36
673.904	53550.02
674.253	53658.72
674.602	53578.27
674.951	53092.18
675.3	52974.67
675.649	53369.23
675.998	53342.11
676.346	53356.8
676.695	53399.06
677.044	53262.57
677.393	53272.29
677.741	53255.56
678.09	53207.2
678.438	53103.25
678.787	53260.99
679.135	53248.78
679.484	52928.34
679.832	53038.17
680.181	52832.98
680.529	52976.7
680.877	52824.39
681.225	52807.44
681.573	53001.11
681.922	52773.32
682.27	52676.14
682.618	52576.94
682.966	52510.27
683.314	52597.95
683.661	52496.49
684.009	52404.06
684.357	52308.47
684.705	52293.55
685.053	52256.49
685.4	52206.1
685.748	52024.86
686.095	52045.43
686.443	51945.09
686.79	51750.29
687.138	51875.94
687.485	51789.61
687.832	51637.3
688.18	51729.5
688.527	51522.95
688.874	51528.6
689.221	51475.95
689.568	51367.48
689.915	51200.48
690.262	51259.23
690.609	51037.54
690.956	50966.58
691.303	51012.68
691.65	50877.55
691.997	50760.26
692.344	50675.97
692.69	50581.28
693.037	50554.62
693.383	50306.94
693.73	50471.68
694.077	50145.59
694.423	50155.53
694.769	50077.12
695.116	49925.71
695.462	49866.95
695.808	49759.38
696.155	49861.53
696.501	49575.21
696.847	49598.94
697.193	49303.35
697.539	49439.84
697.885	49161.66
698.231	49064.26
698.577	49149
698.923	49097.93
699.269	48757.38
699.614	48581.79
699.96	48591.5
700.306	48589.92
700.651	48350.16
700.997	48243.27
701.342	48218.41
701.688	48249.82
702.033	48041.91
702.379	48131.86
702.724	47973.44
703.069	48025.42
703.415	47476.05
703.76	47490.97
704.105	47582.04
704.45	47457.52
704.795	47283.97
705.14	47177.53
705.485	47090.75
705.83	46850.53
706.175	46993.13
706.52	47060.25
706.865	46813.02
707.209	46657.09
707.554	46498.23
707.899	46557.89
708.243	46439.47
708.588	46307.95
708.932	46189.31
709.277	45950.22
709.621	45971.69
709.966	45805.36
710.31	45990.22
710.654	45473.62
710.998	45768.53
711.342	45627.29
711.687	45462.1
712.031	45393.4
712.375	45223.46
712.719	45208.09
713.063	45231.37
713.407	45409.22
713.75	45039.96
714.094	44966.97
714.438	44843.35
714.782	44852.17
715.125	44524.49
715.469	44836.8
715.812	44393.42
716.156	44237.27
716.499	44301.67
716.843	44313.43
717.186	44146.88
717.53	44359.98
717.873	44332.41
718.216	44132.41
718.559	44156.59
718.902	43619.88
719.246	43748.47
719.589	43666.44
719.932	43489.04
720.275	43547.12
720.617	43465.54
720.96	43353.22
721.303	43500.11
721.646	43461.7
721.989	43069.39
722.331	43268.48
722.674	43035.49
723.016	43154.13
723.359	43012.44
723.701	43037.07
724.044	42786.01
724.386	42630.98
724.729	42819.91
725.071	42777.42
725.413	42570.42
725.755	42672.56
726.097	42499.46
726.439	42273.25
726.782	42332.46
727.124	42541.27
727.465	42155.74
727.807	42219.02
728.149	42260.6
728.491	41979.02
728.833	42125.23
729.175	41861.96
729.516	41848.63
729.858	41816.77
730.199	41808.86
730.541	41666.72
730.882	41729.54
731.224	41705.13
731.565	41524.8
731.906	41516.89
732.248	41608.86
732.589	41453.16
732.93	41299.49
733.271	41309.44
733.612	41289.55
733.953	41390.56
734.294	41189.44
734.635	41045.71
734.976	41206.39
735.317	40923.46
735.658	40858.37
735.999	40871.03
736.339	40814.76
736.68	40903.12
737.021	40573.86
737.361	40532.28
737.702	40727.08
738.042	40614.09
738.383	40433.08
738.723	40570.25
739.063	40298.39
739.404	40411.61
739.744	40369.35
740.084	40244.83
740.424	40240.99
740.764	40155.34
741.104	40152.4
741.444	39991.28
741.784	39838.97
742.124	39917.16
742.464	39819.08
742.804	39875.58
743.143	39685.3
743.483	39772.75
743.823	39565.98
744.162	39575.24
744.502	39564.17
744.841	39403.95
745.181	39490.05
745.52	39418.41
745.86	39339.54
746.199	39211.86
746.538	39208.02
746.877	39324.63
747.216	39106.78
747.556	39135.71
747.895	39105.88
748.234	38940.91
748.573	38764.64
748.911	38958.09
749.25	38773.91
749.589	38643.52
749.928	38625.67
750.267	38673.57
750.605	38547.48
750.944	38411.66
751.283	38436.29
751.621	38356.07
751.96	38264.77
752.298	38275.17
752.636	38223.19
752.975	37983.65
753.313	37919.47
753.651	38101.16
753.989	37861.17
754.327	37745.24
754.666	37583.21
755.004	37800.83
755.342	37796.76
755.679	37555.41
756.017	37369.2
756.355	37505.24
756.693	37222.99
757.031	37309.99
757.368	36997.01
757.706	37036.55
758.044	36903.9
758.381	36814.41
758.719	36737.81
759.056	36779.61
759.394	36616.23
759.731	36339.85
760.068	36467.98
760.405	36136.24
760.743	36083.81
761.08	36176.01
761.417	35994.77
761.754	35955.23
762.091	35743.03
762.428	35735.57
762.765	35594.33
763.102	35630.26
763.438	35394.11
763.775	35344.4
764.112	35313.89
764.449	35329.48
764.785	35028.25
765.122	34839.32
765.458	34710.51
765.795	34731.53
766.131	34627.13
766.467	34616.28
766.804	34416.74
767.14	34161.38
767.476	34253.12
767.812	34024.2
768.148	34108.5
768.485	33819.46
768.821	33683.87
769.157	33659.24
769.492	33571.33
769.828	33559.36
770.164	33378.57
770.5	33263.32
770.836	33188.29
771.171	33056.09
771.507	32982.42
771.842	32734.29
772.178	32696.56
772.513	32636.67
772.849	32574.98
773.184	32315.1
773.519	32327.75
773.855	32160.07
774.19	32110.81
774.525	31947.2
774.86	31864.04
775.195	31874.43
775.53	31687.99
775.865	31562.57
776.2	31289.81
776.535	31162.36
776.87	31157.39
777.205	30973.21
777.539	30907.45
777.874	30848.92
778.209	30597.4
778.543	30593.56
778.878	30400.12
779.212	30304.3
779.547	30082.84
779.881	30278.77
780.215	30059.79
780.55	30052.33
780.884	30022.28
781.218	29844.88
781.552	29856.18
781.886	29636.97
782.22	29548.39
782.554	29507.71
782.888	29118.8
783.222	29194.5
783.556	28930.78
783.889	28909.76
784.223	28739.6
784.557	28507.74
784.89	28807.62
785.224	28486.95
785.557	28466.61
785.891	28333.28
786.224	28253.96
786.558	28180.06
786.891	27983.69
787.224	27777.81
787.557	27852.16
787.891	27709.12
788.224	27683.81
788.557	27526.52
788.89	27462.57
789.223	27476.35
789.556	27317.49
789.888	27242.46
790.221	27096.25
790.554	26967.67
790.887	26875.24
791.219	26778.52
791.552	26698.52
791.884	26600.67
792.217	26539.2
792.549	26460.56
792.882	26242.71
793.214	26139.89
793.546	26182.83
793.879	26045.66
794.211	25955.04
794.543	26000.69
794.875	25849.28
795.207	25792.78
795.539	25672.33
795.871	25727.25
796.203	25397.76
796.535	25362.29
796.867	25388.27
797.198	25299.46
797.53	25289.97
797.862	25110.09
798.193	25064.21
798.525	24851.11
798.856	24916.87
799.188	24737.44
799.519	24653.83
799.85	24534.51
800.182	24546.94
800.513	24505.58
800.844	24260.17
801.175	24305.14
801.506	24301.97
801.837	24150.11
802.168	24123.22
802.499	23986.95
802.83	24051.36
803.161	23950.34
803.491	23798.94
803.822	23935.88
804.153	23770.01
804.483	23497.25
804.814	23487.98
805.145	23309.68
805.475	23408.21
805.805	23279.18
806.136	23240.53
806.466	23271.49
806.796	23322.79
807.126	23022.91
807.457	22986.08
807.787	23028.34
808.117	22853.42
808.447	22692.98
808.777	22856.81
809.107	22624.5
809.436	22652.07
809.766	22475.58
810.096	22544.05
810.426	22373.21
810.755	22474.68
811.085	22334.34
811.414	22285.3
811.744	22087.57
812.073	22170.5
812.403	22091.18
812.732	21881.7
813.061	21923.73
813.39	21865.43
813.719	21833.11
814.049	21980.91
814.378	21729.16
814.707	21670.4
815.036	21721.48
815.365	21633.57
815.693	21342.28
816.022	21339.57
816.351	21282.62
816.68	21238.78
817.008	21312
817.337	21140.48
817.665	21099.35
817.994	21158.1
818.322	21048.73
818.651	20979.35
818.979	20788.62
819.307	21036.75
819.636	20913.36
819.964	20733.03
820.292	20854.38
820.62	20800.37
820.948	20706.36
821.276	20723.54
821.604	20708.17
821.932	20704.78
822.259	20771.67
822.587	20735.29
822.915	20594.5
823.243	20792.01
823.57	20669.75
823.898	20683.09
824.225	20601.28
824.553	20603.31
824.88	20595.63
825.207	20748.85
825.535	20534.39
825.862	20692.8
826.189	20599.7
826.516	20585.69
826.843	20655.97
827.17	20636.53
827.497	20740.71
827.824	20647.83
828.151	20776.64
828.478	20601.51
828.805	20671.34
829.131	20535.52
829.458	20574.39
829.785	20443.09
830.111	20519.02
830.438	20640.6
830.764	20422.3
831.09	20632.92
831.417	20494.16
831.743	20498.23
832.069	20470.89
832.395	20304.56
832.722	20427.95
833.048	20356.77
833.374	20315.64
833.7	20291.46
834.026	20399.93
834.351	20435.63
834.677	20290.33
835.003	20405.13
835.329	20258.24
835.654	20300.27
835.98	20157.9
836.306	20162.65
836.631	20187.73
836.956	20188.18
837.282	20117
837.607	20029.77
837.932	19950
838.258	19952.26
838.583	19929.21
838.908	19926.04
839.233	19859.38
839.558	19816.89
839.883	19770.79
840.208	19677.69
840.533	19735.54
840.858	19743
841.182	19603.57
841.507	19674.07
841.832	19539.84
842.156	19498.26
842.481	19508.2
842.805	19460.97
843.13	19350.69
843.454	19397.02
843.778	19291.94
844.103	19233.63
844.427	19177.14
844.751	19159.28
845.075	19209.68
845.399	19107.76
845.723	18915.67
846.047	19016.69
846.371	18877.71
846.695	18841.55
847.019	18731.72
847.343	18532.63
847.666	18598.62
847.99	18435.69
848.313	18402.47
848.637	18305.3
848.96	18269.82
849.284	18273.66
849.607	18083.38
849.931	18079.99
850.254	17938.53
850.577	17824.4
850.9	17733.56
851.223	17717.29
851.546	17625.31
851.869	17477.52
852.192	17548.71
852.515	17387.13
852.838	17351.2
853.161	17396.84
853.483	17329.5
853.806	17209.28
854.129	17130.41
854.451	17125.44
854.774	17022.84
855.096	16938.55
855.419	16940.36
855.741	16881.6
856.063	16806.58
856.385	16773.58
856.708	16712.12
857.03	16563.42
857.352	16716.86
857.674	16565.68
857.996	16493.14
858.318	16354.39
858.64	16448.4
858.961	16378.34
859.283	16261.06
859.605	16256.99
859.926	16328.17
860.248	16249.76
860.57	16140.61
860.891	16163.43
861.212	15989.65
861.534	15991.91
861.855	15978.8
862.176	15983.77
862.498	15986.03
862.819	15974.28
863.14	15950.1
863.461	15760.73
863.782	15766.15
864.103	15801.86
864.424	15733.39
864.745	15773.38
865.065	15673.73
865.386	15681.18
865.707	15602.32
866.027	15640.51
866.348	15607.74
866.668	15606.38
866.989	15498.59
867.309	15424.47
867.63	15451.36
867.95	15379.95
868.27	15302.66
868.59	15476.9
868.91	15346.5
869.23	15265.83
869.55	15203.91
869.87	15356.22
870.19	15226.73
870.51	15243.91
870.83	15246.17
871.15	15088.66
871.469	15184.25
871.789	15137.92
872.109	15133.18
872.428	15082.1
872.748	15100.18
873.067	15031.48
873.386	15033.74
873.706	14918.72
874.025	14906.97
874.344	14919.85
874.663	14985.61
874.982	14884.14
875.301	14835.33
875.62	14828.1
875.939	14717.14
876.258	14704.71
876.577	14678.72
876.896	14693.41
877.214	14636.01
877.533	14616.13
877.852	14600.31
878.17	14606.18
878.489	14581.1
878.807	14690.7
879.125	14584.04
879.444	14507.88
879.762	14435.34
880.08	14454.55
880.398	14331.16
880.716	14454.78
881.034	14316.02
881.352	14348.34
881.67	14296.81
881.988	14282.58
882.306	14209.13
882.624	14173.2
882.941	14133.43
883.259	14087.1
883.577	14006.43
883.894	14025.86
884.212	14051.85
884.529	14026.76
884.846	13948.8
885.164	13921.23
885.481	13921.46
885.798	13944.73
886.115	13821.8
886.432	13773.44
886.75	13688.92
887.067	13787.67
887.383	13640.56
887.7	13698.41
888.017	13605.53
888.334	13647.34
888.651	13502.94
888.967	13546.55
889.284	13407.35
889.6	13505.65
889.917	13369.38
890.233	13409.15
890.55	13342.71
890.866	13346.78
891.182	13287.12
891.498	13189.5
891.815	13148.59
892.131	13143.4
892.447	13173.68
892.763	12984.76
893.079	12928.26
893.395	12944.76
893.71	12853.24
894.026	12865.66
894.342	12829.28
894.657	12789.96
894.973	12791.77
895.289	12759.23
895.604	12730.07
895.92	12640.13
896.235	12620.93
896.55	12600.59
896.865	12596.52
897.181	12468.16
897.496	12479.69
897.811	12380.48
898.126	12332.57
898.441	12293.7
898.756	12339.58
899.071	12197.89
899.386	12232.69
899.7	12086.02
900.015	12071.79
900.33	11952.69
900.644	12000.38
900.959	11990.66
901.273	11919.25
901.588	11869.76
901.902	11930.1
902.216	11747.28
902.531	11720.38
902.845	11677.9
903.159	11643.78
903.473	11573.04
903.787	11491.24
904.101	11497.79
904.415	11452.37
904.729	11395.65
905.042	11345.48
905.356	11328.53
905.67	11226.39
905.984	11207.18
906.297	11273.62
906.611	11065.71
906.924	11175.09
907.237	11045.15
907.551	11070.01
907.864	11020.74
908.177	10980.29
908.491	10917.02
908.804	10867.3
909.117	10740.97
909.43	10748.66
909.743	10768.77
910.056	10723.12
910.368	10605.16
910.681	10588.44
910.994	10553.63
911.307	10511.6
911.619	10392.51
911.932	10468.21
912.244	10365.62
912.557	10330.14
912.869	10350.7
913.181	10227.54
913.494	10284.94
913.806	10161.33
914.118	10156.58
914.43	10003.37
914.742	10059.41
915.054	9973.54
915.366	9924.27
915.678	9935.57
915.99	9828.91
916.302	9791.4
916.613	9765.41
916.925	9754.79
917.236	9734
917.548	9635.69
917.859	9627.56
918.171	9589.59
918.482	9555.92
918.794	9426.88
919.105	9493.78
919.416	9356.83
919.727	9379.43
920.038	9342.14
920.349	9192.77
920.66	9266.89
920.971	9237.06
921.282	9169.72
921.593	9055.6
921.903	9101.47
922.214	9069.38
922.525	9054.92
922.835	8954.13
923.146	8912.1
923.456	8844.08
923.767	8885.43
924.077	8877.75
924.387	8775.6
924.697	8685.89
925.008	8771.76
925.318	8659.67
925.628	8698.32
925.938	8658.09
926.248	8577.87
926.558	8525.67
926.867	8450.41
927.177	8418.1
927.487	8353.47
927.796	8340.59
928.106	8326.35
928.416	8265.56
928.725	8286.12
929.034	8230.53
929.344	8244.32
929.653	8129.74
929.962	8020.82
930.271	8043.64
930.581	7986.47
930.89	8030.31
931.199	7961.84
931.508	7921.16
931.817	7904.44
932.125	7885.46
932.434	7888.62
932.743	7787.38
933.051	7718.46
933.36	7675.97
933.669	7680.72
933.977	7684.78
934.286	7638.01
934.594	7575.63
934.902	7492.02
935.21	7518.91
935.519	7481.85
935.827	7469.87
936.135	7454.96
936.443	7279.14
936.751	7341.97
937.059	7329.31
937.367	7244.34
937.674	7294.96
937.982	7210.45
938.29	7109.43
938.597	7187.17
938.905	7087.06
939.213	7065.82
939.52	7040.96
939.827	7029.43
940.135	7033.95
940.442	6951.02
940.749	6921.41
941.056	6923.45
941.363	6840.96
941.67	6798.48
941.977	6789.44
942.284	6733.85
942.591	6753.96
942.898	6674.64
943.205	6709.44
943.511	6645.94
943.818	6623.79
944.125	6545.6
944.431	6552.38
944.738	6560.52
945.044	6522.78
945.35	6461.31
945.657	6444.36
945.963	6384.03
946.269	6393.52
946.575	6443.23
946.881	6327.08
947.187	6350.36
947.493	6246.86
947.799	6240.3
948.105	6233.97
948.41	6160.53
948.716	6155.33
949.022	6177.7
949.327	6055.9
949.633	6134.32
949.938	6090.93
950.244	6075.56
950.549	5978.61
950.854	5933.42
951.16	5964.83
951.465	5920.99
951.77	5909.01
952.075	5838.96
952.38	5812.97
952.685	5813.87
952.99	5809.35
953.294	5771.61
953.599	5709.02
953.904	5711.95
954.209	5615.69
954.513	5653.88
954.818	5589.92
955.122	5625.85
955.426	5534.11
955.731	5566.42
956.035	5474.67
956.339	5543.82
956.643	5479.87
956.948	5450.72
957.252	5429.48
957.556	5430.83
957.86	5342.02
958.163	5321
958.467	5317.61
958.771	5259.08
959.075	5332.98
959.378	5286.65
959.682	5217.5
959.985	5225.64
960.289	5167.11
960.592	5116.26
960.896	5117.85
961.199	5159.88
961.502	5075.81
961.805	5066.55
962.108	5047.79
962.411	4989.04
962.714	4963.05
963.017	4953.56
963.32	4977.96
963.623	4945.19
963.926	4901.81
964.228	4890.73
964.531	4888.93
964.833	4833.11
965.136	4807.57
965.438	4817.97
965.741	4800.34
966.043	4730.29
966.345	4735.03
966.648	4667.01
966.95	4702.72
967.252	4660.91
967.554	4625.43
967.856	4580.91
968.158	4560.8
968.46	4545.43
968.761	4552.89
969.063	4507.24
969.365	4474.7
969.666	4504.75
969.968	4481.7
970.269	4438.32
970.571	4455.49
970.872	4406.9
971.174	4402.16
971.475	4390.63
971.776	4359.9
972.077	4317.87
972.378	4329.39
972.679	4305.21
972.98	4294.14
973.281	4230.19
973.582	4272.22
973.883	4235.16
974.183	4171.88
974.484	4174.82
974.785	4147.7
975.085	4120.81
975.386	4153.35
975.686	4086.69
975.986	4099.79
976.287	4076.29
976.587	4057.76
976.887	4024.77
977.187	3976.18
977.487	4011.21
977.787	4039
978.087	3963.3
978.387	3930.53
978.687	3936.63
978.987	3902.74
979.286	3883.53
979.586	3896.86
979.885	3867.94
980.185	3805.34
980.484	3795.62
980.784	3784.55
981.083	3782.97
981.382	3796.07
981.682	3729.86
981.981	3754.49
982.28	3680.14
982.579	3675.85
982.878	3647.83
983.177	3688.28
983.475	3643.53
983.774	3615.74
984.073	3594.27
984.372	3552.46
984.67	3566.02
984.969	3544.33
985.267	3589.98
985.566	3512.01
985.864	3496.19
986.162	3446.93
986.461	3486.25
986.759	3454.61
987.057	3409.87
987.355	3399.25
987.653	3423.65
987.951	3414.84
988.249	3384.56
988.547	3370.55
988.844	3335.52
989.142	3317.44
989.44	3301.85
989.737	3277.89
990.035	3270.44
990.332	3289.65
990.63	3259.82
990.927	3265.46
991.224	3212.36
991.521	3223.43
991.819	3182.53
992.116	3169.2
992.413	3156.09
992.71	3168.74
993.006	3137.33
993.303	3116.54
993.6	3126.94
993.897	3069.76
994.193	3049.88
994.49	3032.93
994.787	3048.97
995.083	3033.15
995.379	2985.7
995.676	2975.76
995.972	2996.77
996.268	2980.73
996.565	2923.55
996.861	2942.99
997.157	2913.61
997.453	2901.86
997.749	2903.21
998.044	2870.9
998.34	2851.01
998.636	2811.69
998.932	2775.31
999.227	2814.4
999.523	2778.25
999.818	2766.04
1000.114	2787.29
1000.409	2750.22
1000.704	2720.85
1001	2735.54
1001.295	2698.93
1001.59	2678.59
1001.885	2652.6
1002.18	2644.24
1002.475	2623.22
1002.77	2621.19
1003.065	2568.08
1003.359	2566.05
1003.654	2584.35
1003.949	2539.38
1004.243	2566.5
1004.538	2507.52
1004.832	2520.63
1005.127	2492.15
1005.421	2489.89
1005.715	2443.57
1006.009	2437.69
1006.304	2426.17
1006.598	2405.15
1006.892	2429.1
1007.186	2401.98
1007.48	2384.13
1007.773	2383.23
1008.067	2339.84
1008.361	2335.32
1008.655	2323.79
1008.948	2332.16
1009.242	2304.59
1009.535	2282.89
1009.829	2259.84
1010.122	2254.87
1010.415	2227.3
1010.708	2225.72
1011.001	2211.26
1011.295	2201.99
1011.588	2193.4
1011.881	2201.76
1012.173	2149.11
1012.466	2147.75
1012.759	2138.94
1013.052	2156.12
1013.344	2135.78
1013.637	2120.18
1013.93	2089.45
1014.222	2056.46
1014.514	2074.08
1014.807	2058.49
1015.099	2018.04
1015.391	2024.59
1015.683	1997.48
1015.976	2021.66
1016.268	1967.19
1016.56	1981.66
1016.851	1960.87
1017.143	1930.81
1017.435	1947.08
1017.727	1932.39
1018.018	1908.21
1018.31	1888.55
1018.602	1895.33
1018.893	1867.31
1019.185	1856.01
1019.476	1826.41
1019.767	1867.54
1020.058	1821.44
1020.35	1797.03
1020.641	1797.93
1020.932	1776.92
1021.223	1752.28
1021.514	1776.01
1021.804	1758.61
1022.095	1721.32
1022.386	1701.89
1022.677	1735.79
1022.967	1719.97
1023.258	1665.96
1023.548	1678.61
1023.839	1681.33
1024.129	1639.07
1024.419	1624.6
1024.709	1603.59
1025	1608.33
1025.29	1618.95
1025.58	1596.58
1025.87	1560.2
1026.16	1571.95
1026.449	1569.69
1026.739	1587.54
1027.029	1554.55
1027.319	1521.78
1027.608	1511.16
1027.898	1554.78
1028.187	1476.13
1028.477	1469.35
1028.766	1486.75
1029.055	1448.56
1029.344	1466.87
1029.634	1431.39
1029.923	1448.11
1030.212	1425.51
1030.501	1400.66
1030.79	1406.08
1031.078	1383.71
1031.367	1383.25
1031.656	1373.99
1031.945	1379.86
1032.233	1361.33
1032.522	1347.1
1032.81	1337.38
1033.099	1344.61
1033.387	1335.57
1033.675	1317.27
1033.963	1302.8
1034.251	1296.25
1034.54	1272.07
1034.828	1276.36
1035.116	1265.07
1035.403	1237.72
1035.691	1270.04
1035.979	1238.85
1036.267	1211.51
1036.554	1242.02
1036.842	1230.94
1037.129	1188.46
1037.417	1212.64
1037.704	1200.89
1037.992	1191.62
1038.279	1153.88
1038.566	1139.87
1038.853	1139.87
1039.14	1139.87
