Data from white_steel_sheet_FLMS001491_069.txt Node
Date: Tue Feb 07 10:58:17 GMT 2017
User: dcchb
Spectrometer: FLMS00149
Trigger mode: 0
Integration Time (sec): 2.000000E-2
Scans to average: 10
Electric dark correction enabled: true
Nonlinearity correction enabled: false
Boxcar width: 0
XAxis mode: Wavelengths
Number of Pixels in Spectrum: 2048
>>>>>Begin Spectral Data<<<<<
341.393	-10.34
341.776	-10.34
342.16	-10.34
342.543	-51.92
342.927	-68.42
343.31	-67.74
343.693	-67.06
344.077	-70.68
344.46	-64.8
344.843	-69.77
345.226	-42.2
345.61	-26.61
345.993	-25.25
346.376	-2.66
346.759	8.19
347.142	28.98
347.525	49.55
347.908	69.21
348.291	68.76
348.674	101.75
349.057	110.34
349.44	133.61
349.823	150.79
350.206	183.55
350.588	181.29
350.971	215.87
351.354	226.72
351.737	213.38
352.119	249.99
352.502	265.13
352.884	276.66
353.267	290.44
353.65	302.2
354.032	293.38
354.414	312.82
354.797	330.44
355.179	319.37
355.562	314.85
355.944	348.07
356.326	332.48
356.709	335.64
357.091	337.67
357.473	355.53
357.855	355.75
358.238	349.43
358.62	364.11
359.002	335.41
359.384	350.56
359.766	339.48
360.148	343.32
360.53	341.74
360.912	328.86
361.294	338.8
361.676	335.41
362.057	355.53
362.439	337.9
362.821	347.62
363.203	309.2
363.584	341.29
363.966	332.25
364.348	327.51
364.729	341.06
365.111	337.9
365.493	318.92
365.874	330.22
366.256	314.17
366.637	296.77
367.019	327.51
367.4	327.05
367.781	325.47
368.163	329.09
368.544	340.39
368.925	311.91
369.306	313.72
369.688	329.77
370.069	323.44
370.45	326.6
370.831	329.77
371.212	315.3
371.593	324.12
371.974	325.92
372.355	327.96
372.736	311.01
373.117	325.47
373.498	327.73
373.879	320.73
374.26	311.23
374.641	324.57
375.021	336.54
375.402	330.67
375.783	337.67
376.163	357.56
376.544	339.03
376.925	340.84
377.305	322.53
377.686	354.62
378.066	325.02
378.447	338.13
378.827	329.54
379.208	351.91
379.588	348.75
379.968	351.23
380.349	358.47
380.729	352.36
381.109	373.15
381.489	356.43
381.87	339.03
382.25	351.23
382.63	346.26
383.01	359.6
383.39	378.13
383.77	366.37
384.15	377.22
384.53	367.5
384.91	388.75
385.29	362.76
385.67	386.94
386.049	380.16
386.429	403.89
386.809	383.78
387.189	397.33
387.568	398.24
387.948	387.39
388.328	384
388.707	419.03
389.087	408.86
389.466	403.21
389.846	389.65
390.225	407.28
390.605	400.5
390.984	410.44
391.363	438.01
391.743	422.64
392.122	424.9
392.501	427.39
392.881	450.67
393.26	444.79
393.639	450.44
394.018	455.86
394.397	464.9
394.776	489.76
395.155	478.46
395.534	474.85
395.913	461.97
396.292	473.94
396.671	473.72
397.05	481.63
397.429	494.51
397.808	508.97
398.186	476.65
398.565	510.33
398.944	534.51
399.323	497.44
399.701	525.47
400.08	538.57
400.458	549.87
400.837	551
401.215	557.56
401.594	571.11
401.972	571.11
402.351	562.75
402.729	590.78
403.107	609.53
403.486	592.81
403.864	611.79
404.242	627.38
404.62	611.79
404.999	635.07
405.377	624.22
405.755	659.93
406.133	657.89
406.511	663.77
406.889	660.6
407.267	710.55
407.645	704.9
408.023	715.07
408.401	718.46
408.779	731.56
409.156	759.81
409.534	751.45
409.912	756.42
410.29	776.08
410.667	793.26
411.045	786.93
411.422	814.27
411.8	811.79
412.178	841.62
412.555	843.42
412.933	844.1
413.31	872.35
413.687	882.97
414.065	926.13
414.442	915.74
414.819	887.26
415.197	912.12
415.574	928.85
415.951	948.51
416.328	960.03
416.705	998.45
417.082	965.68
417.46	992.35
417.837	968.39
418.214	989.63
418.591	1022.63
418.967	1007.04
419.344	1026.92
419.721	1044.1
420.098	1036.64
420.475	1076.41
420.852	1078.45
421.228	1083.42
421.605	1099.01
421.982	1107.37
422.358	1115.51
422.735	1140.59
423.111	1110.99
423.488	1146.47
423.864	1163.64
424.241	1203.64
424.617	1179.46
424.994	1209.29
425.37	1220.14
425.746	1228.05
426.123	1222.17
426.499	1245
426.875	1256.75
427.251	1259.68
427.627	1293.58
428.003	1279.57
428.379	1320.7
428.756	1351.43
429.132	1355.28
429.507	1352.79
429.883	1404.09
430.259	1412.67
430.635	1420.36
431.011	1450.64
431.387	1494.93
431.763	1463.97
432.138	1508.94
432.514	1536.51
432.89	1518.89
433.265	1566.34
433.641	1623.52
434.016	1606.79
434.392	1640.69
434.767	1648.6
435.143	1662.84
435.518	1665.32
435.894	1691.76
436.269	1713.91
436.644	1746.23
437.02	1762.95
437.395	1791.65
437.77	1794.13
438.145	1793.91
438.52	1839.78
438.895	1852.21
439.271	1888.14
439.646	1908.03
440.021	1937.63
440.395	1901.25
440.77	1930.63
441.145	1957.52
441.52	1972.66
441.895	1957.97
442.27	1986.9
442.645	2018.99
443.019	2041.13
443.394	2043.17
443.769	2083.62
444.143	2071.41
444.518	2142.15
444.892	2088.36
445.267	2116.16
445.641	2141.24
446.016	2134.92
446.39	2174.01
446.764	2187.12
447.139	2184.86
447.513	2211.07
447.887	2247
448.262	2236.61
448.636	2247
449.01	2284.06
449.384	2324.74
449.758	2327
450.132	2354.34
450.506	2387.56
450.88	2375.14
451.254	2416.04
451.628	2415.81
452.002	2506.43
452.376	2499.65
452.75	2490.61
453.123	2540.55
453.497	2603.15
453.871	2595.47
454.244	2650.61
454.618	2677.27
454.992	2658.97
455.365	2676.14
455.739	2741
456.112	2774.22
456.486	2789.14
456.859	2819.42
457.232	2879.75
457.606	2895.12
457.979	2916.36
458.352	2955.91
458.725	3009.02
459.099	3028.23
459.472	3068.9
459.845	3105.06
460.218	3144.38
460.591	3169.92
460.964	3176.92
461.337	3289.46
461.71	3300.99
462.083	3323.58
462.456	3341.44
462.829	3355.67
463.201	3406.52
463.574	3421.89
463.947	3506.63
464.32	3534.65
464.692	3572.62
465.065	3624.82
465.438	3673.18
465.81	3719.28
466.183	3730.58
466.555	3843.57
466.928	3850.12
467.3	3896.45
467.672	3941.87
468.045	4045.6
468.417	4012.38
468.789	4034.75
469.161	4103.23
469.534	4164.24
469.906	4301.19
470.278	4335.76
470.65	4304.8
471.022	4405.59
471.394	4528.75
471.766	4518.13
472.138	4596.32
472.51	4705.47
472.882	4774.62
473.253	4780.5
473.625	4863.21
473.997	5011.9
474.369	5025.69
474.74	5070.88
475.112	5178.23
475.484	5219.58
475.855	5330.54
476.227	5402.85
476.598	5545.22
476.97	5573.7
477.341	5716.52
477.713	5770.07
478.084	5808.27
478.455	5975.04
478.827	6026.79
479.198	6146.11
479.569	6184.98
479.94	6370.28
480.311	6405.99
480.682	6559.66
481.053	6675.59
481.424	6794
481.795	6876.03
482.166	7011.17
482.537	7018.18
482.908	7208.91
483.279	7247.1
483.65	7455
484.021	7527.09
484.391	7678.72
484.762	7759.85
485.133	7865.84
485.503	7951.26
485.874	8114.19
486.244	8188.09
486.615	8339.5
486.985	8426.28
487.356	8599.15
487.726	8619.49
488.097	8831.69
488.467	8785.14
488.837	9098.35
489.207	9157.78
489.578	9300.6
489.948	9347.83
490.318	9474.16
490.688	9584.66
491.058	9732.68
491.428	9851.32
491.798	9878.21
492.168	10154.14
492.538	10172.22
492.908	10238.88
493.278	10440.46
493.648	10374.7
494.017	10634.13
494.387	10699.66
494.757	10743.05
495.126	10936.27
495.496	10956.15
495.866	11004.96
496.235	11153.44
496.605	11320.89
496.974	11309.59
497.344	11435.24
497.713	11546.87
498.082	11609.92
498.452	11794.77
498.821	11821.67
499.19	11940.53
499.559	12025.95
499.928	12122.68
500.298	12219.4
500.667	12344.36
501.036	12311.37
501.405	12528.99
501.774	12497.58
502.143	12706.16
502.512	12690.8
502.88	12793.17
503.249	12800.17
503.618	12952.48
503.987	12956.55
504.356	13065.93
504.724	13146.6
505.093	13333.27
505.462	13242.19
505.83	13373.04
506.199	13492.58
506.567	13754.72
506.936	13684.89
507.304	13899.35
507.672	13960.82
508.041	14102.51
508.409	14155.84
508.777	14219.34
509.145	14380.7
509.514	14432.9
509.882	14553.57
510.25	14543.85
510.618	14624.08
510.986	14706.34
511.354	14934.13
511.722	15077.85
512.09	15225.42
512.458	15250.95
512.826	15351.07
513.193	15507.45
513.561	15569.14
513.929	15676.25
514.297	15877.61
514.664	15951.05
515.032	16023.36
515.4	16290.48
515.767	16255.22
516.135	16363.69
516.502	16299.74
516.869	16563.46
517.237	16685.72
517.604	16727.98
517.972	16936.56
518.339	16971.14
518.706	17123.9
519.073	17257.68
519.44	17331.58
519.808	17588.52
520.175	17630.78
520.542	17816.31
520.909	17964.78
521.276	17932.01
521.643	18122.74
522.009	18201.61
522.376	18396.18
522.743	18529.96
523.11	18783.07
523.477	18929.28
523.843	18978.77
524.21	19212.88
524.577	19389.83
524.943	19512.54
525.31	19616.72
525.676	19788.46
526.043	19995.46
526.409	19930.38
526.776	20184.61
527.142	20334.44
527.508	20480.87
527.874	20664.15
528.241	20749.79
528.607	20861.43
528.973	21063.46
529.339	21054.42
529.705	21339.38
530.071	21500.28
530.437	21601.07
530.803	21703.67
531.169	21734.63
531.535	21796.55
531.901	22027.27
532.267	22154.28
532.632	22218.46
532.998	22365.34
533.364	22534.15
533.73	22570.99
534.095	22742.06
534.461	22709.74
534.826	22826.57
535.192	23029.73
535.557	23204.64
535.923	23179.33
536.288	23307.69
536.653	23363.74
537.019	23425.43
537.384	23611.41
537.749	23594.46
538.114	23848.02
538.479	23774.35
538.845	23858.64
539.21	23923.5
539.575	24007.56
539.94	24218.4
540.305	24314.9
540.67	24281.9
541.034	24398.74
541.399	24533.65
541.764	24611.61
542.129	24758.28
542.494	24794.88
542.858	24846.86
543.223	24869.46
543.587	25160.75
543.952	25094.09
544.316	25200.52
544.681	25207.3
545.045	25408.2
545.41	25507.41
545.774	25513.06
546.138	25649.33
546.503	25650.91
546.867	25731.81
547.231	25911.47
547.595	26005.47
547.959	26085.02
548.324	26171.35
548.688	26063.78
549.052	26332.25
549.416	26325.01
549.779	26403.88
550.143	26459.02
550.507	26634.61
550.871	26738.79
551.235	26610.66
551.599	27106.24
551.962	27060.81
552.326	27110.76
552.689	27216.74
553.053	27133.58
553.417	27209.96
553.78	27649.95
554.143	27450.18
554.507	27695.6
554.87	27779.89
555.234	28062.37
555.597	27947.34
555.96	28035.93
556.323	28169.03
556.686	28236.83
557.05	28388.24
557.413	28552.3
557.776	28573.32
558.139	28903.25
558.502	28887.21
558.865	28993.87
559.228	29203.36
559.59	29144.6
559.953	29267.08
560.316	29500.3
560.679	29496.23
561.041	29706.17
561.404	29997.91
561.767	30100.06
562.129	29915.2
562.492	30396.09
562.854	30350.44
563.217	30371.24
563.579	30536.88
563.941	30760.83
564.304	30835.18
564.666	31083.53
565.028	31045.57
565.39	31225.22
565.753	31362.85
566.115	31441.94
566.477	31651.88
566.839	31634.48
567.201	31918.99
567.563	31838.77
567.925	32165.99
568.287	32175.26
568.648	32182.04
569.01	32356.72
569.372	32496.6
569.734	32383.16
570.095	32768.46
570.457	32833.32
570.819	32966.2
571.18	32964.84
571.542	33088.45
571.903	33168.68
572.265	33258.39
572.626	33338.84
572.987	33396.92
573.349	33391.95
573.71	33591.72
574.071	33663.13
574.432	33861.54
574.794	34096.56
575.155	33917.81
575.516	33961.2
575.877	33977.69
576.238	34216.78
576.599	34351.7
576.96	34208.65
577.32	34339.27
577.681	34418.36
578.042	34604.57
578.403	34462.65
578.763	34473.05
579.124	34665.81
579.485	34750.33
579.845	34859.03
580.206	34723.21
580.566	34791.23
580.927	34708.97
581.287	34969.53
581.648	34787.84
582.008	34937.22
582.368	34792.59
582.728	34901.06
583.089	34894.96
583.449	34907.61
583.809	34947.16
584.169	35167.04
584.529	35047.5
584.889	35150.09
585.249	34934.51
585.609	34966.37
585.969	35188.51
586.329	34903.77
586.688	35012.7
587.048	34972.24
587.408	35004.33
587.768	35019.02
588.127	34961.62
588.487	34894.51
588.846	35298.34
589.206	34902.87
589.565	34993.94
589.925	35212.92
590.284	35161.62
590.643	35096.53
591.003	35150.77
591.362	35243.42
591.721	35127.49
592.08	35134.73
592.44	35174.27
592.799	35166.36
593.158	35133.14
593.517	35023.32
593.876	35207.04
594.235	35122.97
594.593	35075.74
594.952	35183.31
595.311	34922.98
595.67	35202.52
596.029	35448.62
596.387	35264.89
596.746	35322.29
597.104	35086.37
597.463	35156.42
597.822	35274.38
598.18	35347.38
598.538	35207.04
598.897	35433.25
599.255	35196.65
599.613	35569.29
599.972	35416.98
600.33	35458.33
600.688	35326.81
601.046	35518.22
601.404	35475.96
601.762	35480.48
602.12	35518.67
602.478	35606.58
602.836	35610.87
603.194	35413.36
603.552	35594.15
603.91	35460.59
604.268	35471.21
604.625	35391.89
604.983	35552.12
605.341	35302.86
605.698	35647.25
606.056	35699
606.413	35630.08
606.771	35775.39
607.128	35834.14
607.485	35756.4
607.843	35742.17
608.2	35872.79
608.557	35887.93
608.914	35760.25
609.272	35922.05
609.629	35910.75
609.986	36016.96
610.343	35919.79
610.7	36242.72
611.057	36111.88
611.414	36176.28
611.771	36165.89
612.127	36298.09
612.484	36124.3
612.841	36411.3
613.198	36268.48
613.554	36339.21
613.911	36528.59
614.267	36420.12
614.624	36431.64
614.98	36505.99
615.337	36821.24
615.693	36677.51
616.05	36546.44
616.406	36803.83
616.762	36661.47
617.118	36605.87
617.475	36479.1
617.831	36818.75
618.187	36659.66
618.543	36801.35
618.899	36928.13
619.255	36900.33
619.611	36953.89
619.967	37000.89
620.323	37060.1
620.678	36913.21
621.034	36873.21
621.39	36842.03
621.746	36864.62
622.101	37261
622.457	37025.07
622.812	36966.99
623.168	37143.49
623.523	37164.95
623.879	37173.32
624.234	37049.93
624.589	37176.48
624.945	37119.08
625.3	37158.4
625.655	37192.52
626.01	37234.56
626.365	37087.67
626.72	36994.56
627.075	37129.02
627.43	37091.96
627.785	37042.47
628.14	37054.45
628.495	37050.16
628.85	37020.1
629.205	36816.26
629.559	37034.56
629.914	36953.89
630.269	36992.3
630.623	36793.67
630.978	36759.99
631.332	36931.51
631.687	37001.57
632.041	36716.61
632.396	36853.78
632.75	36786.66
633.104	36835.02
633.459	36536.95
633.813	36592.09
634.167	36616.95
634.521	36571.52
634.875	36486.78
635.229	36621.47
635.583	36275.03
635.937	36318.42
636.291	36255.83
636.645	36324.07
636.999	36283.17
637.352	36322.27
637.706	36022.61
638.06	36210.18
638.413	36056.74
638.767	35969.05
639.121	36035.72
639.474	35846.12
639.828	35917.08
640.181	35930.64
640.534	35892.45
640.888	35773.35
641.241	35410.88
641.594	35594.15
641.947	35685.9
642.301	35585.11
642.654	35541.49
643.007	35519.8
643.36	35459.24
643.713	35344.21
644.066	35469.63
644.419	35281.39
644.771	35111.68
645.124	34682.76
645.477	34628.98
645.83	34332.71
646.182	34388.76
646.535	34129.78
646.888	34216.78
647.24	34111.48
647.593	34363.22
647.945	34221.98
648.298	34067.41
648.65	33879.62
649.002	33805.5
649.355	34065.38
649.707	33894.76
650.059	33977.92
650.411	34428.08
650.763	34435.31
651.115	34777
651.467	34664.91
651.819	34634.85
652.171	34636.89
652.523	34494.06
652.875	34392.6
653.227	34429.89
653.578	34539.26
653.93	34459.72
654.282	34316.44
654.633	34246.84
654.985	34215.65
655.337	34296.56
655.688	34260.4
656.039	34397.34
656.391	33909.9
656.742	34142.44
657.094	34175.88
657.445	34213.85
657.796	34054.75
658.147	33975.66
658.498	33956.9
658.849	33992.16
659.2	33988.99
659.551	33821.99
659.902	33798.72
660.253	33793.74
660.604	33845.27
660.955	33667.65
661.306	33729.11
661.656	33719.4
662.007	33622.9
662.358	33505.84
662.708	33531.6
663.059	33456.13
663.409	33283.02
663.76	33500.87
664.11	33403.02
664.461	33417.71
664.811	33435.79
665.161	33364.6
665.511	33022.24
665.862	33039.41
666.212	33130.94
666.562	33045.06
666.912	32885.52
667.262	33106.53
667.612	32930.49
667.962	32850.49
668.312	32808.69
668.662	32808.46
669.011	32764.17
669.361	32592.65
669.711	32424.74
670.06	32302.71
670.41	32224.75
670.76	32203.73
671.109	32290.05
671.459	32224.52
671.808	32117.18
672.157	32175.26
672.507	31727.81
672.856	31830.86
673.205	31959.22
673.554	32049.16
673.904	31829.05
674.253	31881.25
674.602	31674.25
674.951	31299.35
675.3	31020.71
675.649	31618.66
675.998	31464.77
676.346	31570.98
676.695	31627.47
677.044	31270.87
677.393	31428.61
677.741	31388.84
678.09	31294.83
678.438	31237.43
678.787	31317.88
679.135	31337.09
679.484	31086.7
679.832	31296.18
680.181	31091.44
680.529	31162.17
680.877	31114.49
681.225	31146.13
681.573	31347.71
681.922	31104.32
682.27	31138.67
682.618	31233.81
682.966	31053.03
683.314	31206.24
683.661	31219.8
684.009	31012.57
684.357	30944.78
684.705	30921.96
685.053	31053.93
685.4	30902.52
685.748	30992.46
686.095	30998.34
686.443	30720.83
686.79	30841.28
687.138	31003.08
687.485	30930.99
687.832	30883.76
688.18	30933.25
688.527	30747.5
688.874	30822.97
689.221	30915.4
689.568	30692.58
689.915	30763.54
690.262	30625.01
690.609	30691.68
690.956	30530.78
691.303	30524.23
691.65	30534.39
691.997	30497.33
692.344	30355.19
692.69	30365.81
693.037	30468.86
693.383	30113.84
693.73	30209.21
694.077	30137.8
694.423	30260.96
694.769	30138.02
695.116	30126.95
695.462	30136.44
695.808	29942.32
696.155	30046.05
696.501	29761.08
696.847	29916.11
697.193	29617.81
697.539	29714.08
697.885	29580.75
698.231	29457.14
698.577	29461.65
698.923	29459.85
699.269	29354.09
699.614	29315.22
699.96	29128.1
700.306	29196.8
700.651	29073.87
700.997	29001.1
701.342	28967.88
701.688	28888.34
702.033	28727.44
702.379	28672.75
702.724	28654.9
703.069	28820.54
703.415	28440.21
703.76	28393.21
704.105	28450.38
704.45	28324.51
704.795	28201.35
705.14	28128.81
705.485	28000.9
705.83	27889.94
706.175	28034.12
706.52	27919.32
706.865	27774.47
707.209	27870.74
707.554	27684.98
707.899	27717.97
708.243	27592.33
708.588	27553.91
708.932	27432.1
709.277	27341.26
709.621	27452.89
709.966	27181.49
710.31	27306.01
710.654	26990.31
710.998	27111.66
711.342	27003.41
711.687	27135.84
712.031	26844.77
712.375	26863.08
712.719	26892
713.063	26750.77
713.407	26816.3
713.75	26725.68
714.094	26707.15
714.438	26492.92
714.782	26587.83
715.125	26479.36
715.469	26602.97
715.812	26455.63
716.156	26197.56
716.499	26266.03
716.843	26322.53
717.186	26116.43
717.53	26106.94
717.873	26256.77
718.216	26049.54
718.559	26048.64
718.902	25829.89
719.246	25878.92
719.589	25783.33
719.932	25742.2
720.275	25693.39
720.617	25726.61
720.96	25680.74
721.303	25613.17
721.646	25592.6
721.989	25471.03
722.331	25488.43
722.674	25474.87
723.016	25360.75
723.359	25350.35
723.701	25280.3
724.044	25253.63
724.386	25136.12
724.729	25306.96
725.071	25088.44
725.413	25161.88
725.755	25124.59
726.097	24991.26
726.439	24906.97
726.782	24848.22
727.124	24948.78
727.465	24740.42
727.807	24783.59
728.149	24714.89
728.491	24657.26
728.833	24633.99
729.175	24602.35
729.516	24528
729.858	24490.03
730.199	24525.51
730.541	24504.95
730.882	24476.25
731.224	24505.17
731.565	24274.45
731.906	24375.69
732.248	24376.59
732.589	24156.26
732.93	24191.28
733.271	24201.91
733.612	24128.91
733.953	24170.95
734.294	24058.18
734.635	23882.14
734.976	24037.39
735.317	23999.65
735.658	23858.41
735.999	23739.32
736.339	23735.25
736.68	23847.34
737.021	23749.26
737.361	23665.87
737.702	23707.23
738.042	23577.06
738.383	23412.77
738.723	23548.14
739.063	23594.24
739.404	23475.6
739.744	23410.97
740.084	23344.08
740.424	23361.93
740.764	23353.57
741.104	23394.24
741.444	23240.35
741.784	23128.26
742.124	23202.84
742.464	23185.44
742.804	23028.15
743.143	23022.28
743.483	23003.75
743.823	22922.62
744.162	22967.59
744.502	22965.1
744.841	22844.2
745.181	22880.58
745.52	22867.48
745.86	22823.19
746.199	22684.88
746.538	22677.65
746.877	22623.42
747.216	22659.35
747.556	22659.8
747.895	22631.33
748.234	22524.44
748.573	22477.43
748.911	22491.44
749.25	22424.78
749.589	22258
749.928	22309.98
750.267	22303.2
750.605	22171.22
750.944	22227.49
751.283	22062.75
751.621	22129.42
751.96	21916.32
752.298	21843.55
752.636	21968.74
752.975	21811.69
753.313	21800.16
753.651	21729.43
753.989	21872.7
754.327	21810.78
754.666	21538.02
755.004	21695.76
755.342	21704.34
755.679	21522.65
756.017	21528.08
756.355	21460.28
756.693	21297.12
757.031	21420.51
757.368	21309.33
757.706	21178.03
758.044	21248.54
758.381	21180.97
758.719	21053.29
759.056	20911.6
759.394	20987.53
759.731	20833.18
760.068	20807.19
760.405	20599.29
760.743	20654.2
761.08	20733.97
761.417	20529.91
761.754	20603.81
762.091	20469.12
762.428	20411.72
762.765	20230.03
763.102	20207.21
763.438	20204.95
763.775	20089.25
764.112	20130.37
764.449	20143.48
764.785	20088.79
765.122	19956.59
765.458	19892.41
765.795	19854.68
766.131	19777.39
766.467	19725.19
766.804	19563.16
767.14	19531.52
767.476	19401.35
767.812	19400.9
768.148	19374.69
768.485	19186.67
768.821	19142.6
769.157	19177.86
769.492	19129.27
769.828	18964.08
770.164	18863.97
770.5	18832.1
770.836	18818.09
771.171	18620.13
771.507	18626.69
771.842	18527.25
772.178	18613.58
772.513	18541.04
772.849	18405.9
773.184	18376.3
773.519	18355.28
773.855	18186.92
774.19	18028.28
774.525	18110.09
774.86	18135.62
775.195	18041.39
775.53	17954.16
775.865	17763.43
776.2	17718.91
776.535	17634.4
776.87	17604.79
777.205	17562.76
777.539	17444.57
777.874	17493.38
778.209	17306.49
778.543	17313.95
778.878	17153.5
779.212	17167.51
779.547	17097.91
779.881	17069.44
780.215	16952.38
780.55	17008.65
780.884	16883.91
781.218	16796.9
781.552	16841.42
781.886	16671.71
782.22	16582.22
782.554	16569.34
782.888	16419.74
783.222	16292.96
783.556	16333.19
783.889	16266.75
784.223	16135
784.557	16174.09
784.89	16206.86
785.224	16104.94
785.557	15998.96
785.891	15919.41
786.224	15875.12
786.558	15895.23
786.891	15786.53
787.224	15652.3
787.557	15724.61
787.891	15591.06
788.224	15587.9
788.557	15589.03
788.89	15480.1
789.223	15520.1
789.556	15359.43
789.888	15238.75
790.221	15242.14
790.554	15166.44
790.887	15114.69
791.219	15077.17
791.552	15065.42
791.884	14961.7
792.217	14922.15
792.549	14811.87
792.882	14698.88
793.214	14652.55
793.546	14795.6
793.879	14667.69
794.211	14477.19
794.543	14562.61
794.875	14483.74
795.207	14553.35
795.539	14403.29
795.871	14451.43
796.203	14373.92
796.535	14287.82
796.867	14276.07
797.198	14183.86
797.53	14149.06
797.862	14011.67
798.193	14056.18
798.525	13987.26
798.856	14020.03
799.188	13833.37
799.519	13834.49
799.85	13723.31
800.182	13811.22
800.513	13760.6
800.844	13593.6
801.175	13769.86
801.506	13621.17
801.837	13569.42
802.168	13538.01
802.499	13508.4
802.83	13426.14
803.161	13365.13
803.491	13393.38
803.822	13317.22
804.153	13265.92
804.483	13153.16
804.814	13119.94
805.145	13178.24
805.475	13117.9
805.805	13016.89
806.136	13049.2
806.466	12994.29
806.796	12946.83
807.126	12914.07
807.457	12869.55
807.787	12813.73
808.117	12812.15
808.447	12717.01
808.777	12736.9
809.107	12670.46
809.436	12589.33
809.766	12543
810.096	12523.34
810.426	12547.52
810.755	12570.57
811.085	12547.3
811.414	12422.33
811.744	12333.29
812.073	12294.42
812.403	12398.6
812.732	12246.74
813.061	12292.84
813.39	12190.92
813.719	12155.67
814.049	12226.85
814.378	12165.84
814.707	12167.65
815.036	12120.42
815.365	12005.62
815.693	11920.2
816.022	11970.14
816.351	11961.32
816.68	11782.35
817.008	11932.17
817.337	11767.88
817.665	11726.75
817.994	11797.49
818.322	11747.32
818.651	11613.54
818.979	11602.24
819.307	11634.55
819.636	11738.96
819.964	11584.38
820.292	11677.04
820.62	11651.73
820.948	11548.68
821.276	11646.98
821.604	11473.2
821.932	11561.79
822.259	11542.35
822.587	11506.19
822.915	11486.31
823.243	11570.37
823.57	11485.63
823.898	11435.46
824.225	11473.43
824.553	11418.29
824.88	11513.2
825.207	11462.13
825.535	11461.9
825.862	11530.15
826.189	11433.2
826.516	11545.97
826.843	11486.76
827.17	11491.28
827.497	11524.95
827.824	11505.06
828.151	11548.91
828.478	11434.78
828.805	11453.54
829.131	11397.5
829.458	11386.42
829.785	11408.8
830.111	11352.3
830.438	11455.8
830.764	11413.09
831.09	11459.64
831.417	11369.7
831.743	11391.17
832.069	11359.53
832.395	11263.26
832.722	11388.68
833.048	11371.51
833.374	11264.62
833.7	11231.17
834.026	11326.09
834.351	11361.57
834.677	11298.74
835.003	11311.4
835.329	11292.87
835.654	11216.48
835.98	11270.49
836.306	11195.02
836.631	11193.66
836.956	11260.55
837.282	11187.33
837.607	11103.49
837.932	11078.64
838.258	11135.13
838.583	11109.37
838.908	11015.81
839.233	11051.52
839.558	11048.35
839.883	10971.07
840.208	10962.93
840.533	10889.04
840.858	10971.52
841.182	10965.64
841.507	10963.84
841.832	10878.87
842.156	10865.76
842.481	10878.19
842.805	10843.84
843.13	10783.05
843.454	10759.55
843.778	10768.59
844.103	10724.07
844.427	10692.88
844.751	10706.67
845.075	10624.86
845.399	10651.08
845.723	10459.67
846.047	10597.52
846.371	10428.03
846.695	10458.76
847.019	10437.52
847.343	10400.01
847.666	10313.46
847.99	10203.86
848.313	10263.97
848.637	10174.7
848.96	10178.09
849.284	10187.13
849.607	10118.21
849.931	10056.29
850.254	10011.77
850.577	9921.15
850.9	9784.66
851.223	9881.83
851.546	9854.71
851.869	9749.63
852.192	9840.7
852.515	9699.69
852.838	9739.91
853.161	9590.31
853.483	9573.14
853.806	9527.72
854.129	9517.32
854.451	9487.04
854.774	9456.98
855.096	9448.62
855.419	9430.99
855.741	9388.51
856.063	9318.46
856.385	9348.74
856.708	9301.73
857.03	9335.86
857.352	9315.29
857.674	9245.24
857.996	9218.57
858.318	9143.32
858.64	9191.91
858.961	9150.1
859.283	9045.47
859.605	9044.11
859.926	9075.52
860.248	9029.65
860.57	8979.48
860.891	8925.47
861.212	8960.72
861.534	8904.23
861.855	8894.29
862.176	8892.7
862.498	8933.38
862.819	8896.09
863.14	8830.33
863.461	8785.14
863.782	8748.53
864.103	8812.48
864.424	8748.08
864.745	8740.39
865.065	8727.51
865.386	8738.36
865.707	8754.4
866.027	8755.53
866.348	8633.05
866.668	8642.32
866.989	8694.74
867.309	8628.3
867.63	8694.74
867.95	8582.66
868.27	8510.12
868.59	8574.75
868.91	8562.32
869.23	8535.88
869.55	8525.93
869.87	8488.65
870.19	8455.65
870.51	8510.79
870.83	8459.5
871.15	8388.99
871.469	8450.68
871.789	8427.63
872.109	8401.42
872.428	8291.36
872.748	8418.59
873.067	8324.58
873.386	8353.06
873.706	8326.84
874.025	8235.77
874.344	8231.7
874.663	8298.82
874.982	8250.46
875.301	8307.63
875.62	8205.94
875.939	8166.4
876.258	8215.21
876.577	8158.71
876.896	8224.25
877.214	8112.39
877.533	8173.85
877.852	8159.39
878.17	8111.93
878.489	8177.69
878.807	8146.28
879.125	8101.54
879.444	8094.76
879.762	8079.17
880.08	8044.36
880.398	8016.57
880.716	8036.68
881.034	7975.44
881.352	8006.63
881.67	7945.84
881.988	7956.46
882.306	7940.86
882.624	7917.59
882.941	7875.33
883.259	7776.12
883.577	7879.62
883.894	7848.66
884.212	7767.54
884.529	7791.49
884.846	7795.11
885.164	7802.11
885.481	7749.46
885.798	7692.74
886.115	7657.93
886.432	7713.3
886.75	7595.34
887.067	7639.63
887.383	7614.55
887.7	7569.35
888.017	7574.55
888.334	7583.36
888.651	7530.93
888.967	7555.34
889.284	7482.8
889.6	7472.4
889.917	7468.33
890.233	7479.63
890.55	7381.33
890.866	7412.97
891.182	7373.65
891.498	7355.57
891.815	7289.36
892.131	7348.11
892.447	7349.24
892.763	7302.46
893.079	7245.74
893.395	7239.87
893.71	7224.73
894.026	7192.18
894.342	7209.81
894.657	7118.51
894.973	7087.55
895.289	7080.32
895.604	7109.25
895.92	7037.16
896.235	6968.91
896.55	6983.83
896.865	6949.48
897.181	6940.66
897.496	6996.48
897.811	6906.99
898.126	6843.72
898.441	6861.57
898.756	6867.22
899.071	6812.98
899.386	6853.44
899.7	6766.21
900.015	6716.72
900.33	6749.03
900.644	6660.9
900.959	6685.08
901.273	6631.29
901.588	6668.58
901.902	6602.37
902.216	6568.92
902.531	6561.24
902.845	6543.61
903.159	6514.69
903.473	6499.77
903.787	6469.26
904.101	6424.75
904.415	6414.13
904.729	6368.02
905.042	6357.86
905.356	6333
905.67	6316.95
905.984	6328.7
906.297	6253.23
906.611	6249.84
906.924	6219.33
907.237	6210.29
907.551	6197.63
907.864	6120.8
908.177	6131.42
908.491	6103.62
908.804	6029.05
909.117	6010.07
909.43	5948.83
909.743	5981.59
910.056	5962.61
910.368	5962.16
910.681	5891.43
910.994	5913.8
911.307	5824.99
911.619	5787.25
911.932	5795.38
912.244	5790.64
912.557	5803.52
912.869	5744.54
913.181	5739.11
913.494	5742.28
913.806	5713.13
914.118	5702.73
914.43	5675.39
914.742	5660.7
915.054	5613.47
915.366	5589.74
915.678	5519.23
915.99	5546.13
916.302	5500.93
916.613	5462.29
916.925	5421.16
917.236	5463.87
917.548	5412.8
917.859	5446.92
918.171	5421.38
918.482	5324.66
918.794	5321.27
919.105	5338
919.416	5256.19
919.727	5273.59
920.038	5267.94
920.349	5248.28
920.66	5229.3
920.971	5195.85
921.282	5170.32
921.593	5102.97
921.903	5085.57
922.214	5105.91
922.525	5075.86
922.835	5083.54
923.146	5050.32
923.456	5006.7
923.767	4965.8
924.077	4983.2
924.387	4976.2
924.697	4947.05
925.008	4883.32
925.318	4890.55
925.628	4903.2
925.938	4807.16
926.248	4855.07
926.558	4800.83
926.867	4764.45
927.177	4766.94
927.487	4730.55
927.796	4727.16
928.106	4733.49
928.416	4701.4
928.725	4625.7
929.034	4667.5
929.344	4623.89
929.653	4655.75
929.962	4576.89
930.271	4589.54
930.581	4543.67
930.89	4473.16
931.199	4475.87
931.508	4479.03
931.817	4493.27
932.125	4481.75
932.434	4469.77
932.743	4428.87
933.051	4420.73
933.36	4397.23
933.669	4358.81
933.977	4305.71
934.286	4324.01
934.594	4290.11
934.902	4296.21
935.21	4265.71
935.519	4253.05
935.827	4180.06
936.135	4214.18
936.443	4196.56
936.751	4183
937.059	4143
937.367	4155.65
937.674	4117.46
937.982	4131.02
938.29	4082.44
938.597	4099.84
938.905	4039.05
939.213	4068.65
939.52	4031.59
939.827	3982.55
940.135	4008.09
940.442	3952.72
940.749	3940.29
941.056	3946.85
941.363	3913.4
941.67	3879.05
941.977	3854.19
942.284	3874.08
942.591	3826.17
942.898	3791.37
943.205	3838.37
943.511	3796.57
943.818	3771.71
944.125	3739.62
944.431	3752.5
944.738	3748.21
945.044	3734.87
945.35	3714.08
945.657	3683.12
945.963	3675.44
946.269	3688.32
946.575	3675.67
946.881	3637.25
947.187	3616.23
947.493	3562.9
947.799	3561.54
948.105	3545.5
948.41	3546.63
948.716	3530.13
949.022	3493.52
949.327	3512.51
949.633	3472.28
949.938	3468.21
950.244	3450.36
950.549	3445.84
950.854	3387.54
951.16	3375.33
951.465	3401.32
951.77	3353.19
952.075	3332.62
952.38	3355.22
952.685	3363.58
952.99	3321.78
953.294	3302.57
953.599	3328.33
953.904	3260.99
954.209	3246.07
954.513	3251.95
954.818	3281.78
955.122	3224.15
955.426	3181.44
955.731	3182.57
956.035	3177.83
956.339	3225.96
956.643	3159.07
956.948	3149.35
957.252	3136.7
957.556	3122.69
957.86	3071.84
958.163	3082.91
958.467	3079.07
958.771	3051.28
959.075	3042.91
959.378	3032.07
959.682	3021.67
959.985	3007.44
960.289	3004.5
960.592	2963.59
960.896	3009.02
961.199	2919.08
961.502	2955.23
961.805	2941.9
962.108	2870.72
962.411	2865.97
962.714	2922.01
963.017	2871.85
963.32	2873.43
963.623	2853.99
963.926	2881.79
964.228	2857.38
964.531	2837.04
964.833	2863.48
965.136	2785.97
965.438	2816.25
965.741	2776.48
966.043	2750.49
966.345	2753.43
966.648	2736.71
966.95	2694.9
967.252	2714.11
967.554	2716.37
967.856	2691.29
968.158	2658.97
968.46	2652.19
968.761	2661
969.063	2625.52
969.365	2634.34
969.666	2623.26
969.968	2605.64
970.269	2611.51
970.571	2616.26
970.872	2571.29
971.174	2575.36
971.475	2536.94
971.776	2525.87
972.077	2541.68
972.378	2539.2
972.679	2509.37
972.98	2512.76
973.281	2512.76
973.582	2495.13
973.883	2524.06
974.183	2438.64
974.484	2463.04
974.785	2454
975.085	2435.92
975.386	2455.81
975.686	2407.45
975.986	2418.98
976.287	2380.56
976.587	2355.47
976.887	2362.93
977.187	2381.01
977.487	2335.59
977.787	2331.97
978.087	2326.32
978.387	2308.7
978.687	2322.26
978.987	2320.22
979.286	2274.35
979.586	2295.36
979.885	2261.69
980.185	2262.6
980.484	2240.22
980.784	2237.06
981.083	2225.76
981.382	2196.83
981.682	2225.31
981.981	2220.79
982.28	2213.56
982.579	2146.89
982.878	2153.67
983.177	2190.51
983.475	2152.09
983.774	2157.97
984.073	2152.09
984.372	2145.54
984.67	2109.15
984.969	2109.83
985.267	2113.9
985.566	2093.11
985.864	2089.72
986.162	2076.84
986.461	2065.99
986.759	2041.36
987.057	2032.32
987.355	2036.61
987.653	2019.89
987.951	2043.17
988.249	2013.34
988.547	2024.64
988.844	1995.71
989.142	2008.14
989.44	1970.63
989.737	1970.85
990.035	1962.04
990.332	1929.05
990.63	1929.27
990.927	1926.79
991.224	1892.66
991.521	1924.07
991.819	1890.4
992.116	1886.11
992.413	1900.57
992.71	1891.31
993.006	1878.65
993.303	1862.83
993.6	1854.47
993.897	1845.66
994.193	1830.06
994.49	1842.04
994.787	1823.74
995.083	1823.29
995.379	1818.09
995.676	1774.47
995.972	1808.37
996.268	1767.92
996.565	1764.3
996.861	1761.59
997.157	1760.24
997.453	1748.03
997.749	1753.23
998.044	1718.88
998.34	1716.62
998.636	1697.19
998.932	1720.92
999.227	1680.24
999.523	1708.94
999.818	1668.26
1000.114	1675.94
1000.409	1650.41
1000.704	1647.47
1001	1615.38
1001.295	1647.92
1001.59	1651.31
1001.885	1616.51
1002.18	1598.88
1002.475	1620.58
1002.77	1593.01
1003.065	1599.11
1003.359	1596.85
1003.654	1565.44
1003.949	1555.95
1004.243	1572.9
1004.538	1552.11
1004.832	1543.97
1005.127	1490.41
1005.421	1520.92
1005.715	1493.8
1006.009	1530.64
1006.304	1506.91
1006.598	1494.71
1006.892	1476.18
1007.186	1484.09
1007.48	1458.78
1007.773	1459.45
1008.067	1464.42
1008.361	1437.31
1008.655	1408.83
1008.948	1410.87
1009.242	1438.44
1009.535	1423.3
1009.829	1416.52
1010.122	1424.43
1010.415	1395.73
1010.708	1381.49
1011.001	1364.99
1011.295	1379
1011.588	1350.08
1011.881	1363.86
1012.173	1357.08
1012.466	1323.19
1012.759	1323.64
1013.052	1321.83
1013.344	1338.78
1013.637	1305.78
1013.93	1310.3
1014.222	1255.84
1014.514	1288.61
1014.807	1269.63
1015.099	1268.5
1015.391	1248.84
1015.683	1272.34
1015.976	1269.85
1016.268	1254.71
1016.56	1237.31
1016.851	1240.93
1017.143	1207.71
1017.435	1192.79
1017.727	1207.93
1018.018	1200.93
1018.31	1197.77
1018.602	1181.49
1018.893	1179.69
1019.185	1206.58
1019.476	1187.6
1019.767	1163.42
1020.058	1123.64
1020.35	1135.39
1020.641	1133.13
1020.932	1127.48
1021.223	1113.93
1021.514	1137.88
1021.804	1090.88
1022.095	1106.69
1022.386	1099.01
1022.677	1111.21
1022.967	1096.07
1023.258	1085.45
1023.548	1075.06
1023.839	1042.74
1024.129	1069.18
1024.419	1066.47
1024.709	1036.64
1025	1038.22
1025.29	1048.39
1025.58	1035.51
1025.87	988.96
1026.16	1003.65
1026.449	1009.3
1026.739	990.76
1027.029	990.09
1027.319	956.87
1027.608	967.71
1027.898	968.62
1028.187	963.42
1028.477	972.91
1028.766	949.86
1029.055	946.7
1029.344	981.27
1029.634	953.93
1029.923	956.64
1030.212	951.67
1030.501	929.98
1030.79	937.21
1031.078	934.27
1031.367	895.4
1031.656	890.65
1031.945	897.21
1032.233	899.69
1032.522	883.42
1032.81	900.6
1033.099	892.46
1033.387	876.64
1033.675	870.32
1033.963	853.59
1034.251	863.31
1034.54	865.12
1034.828	838.9
1035.116	838.45
1035.403	851.33
1035.691	839.36
1035.979	847.72
1036.267	821.96
1036.554	829.41
1036.842	813.82
1037.129	780.37
1037.417	807.27
1037.704	798.68
1037.992	803.88
1038.279	783.09
1038.566	780.15
1038.853	780.15
1039.14	780.15
