Data from white_wall_FLMS001491_039.txt Node
Date: Tue Feb 07 11:04:18 GMT 2017
User: dcchb
Spectrometer: FLMS00149
Trigger mode: 0
Integration Time (sec): 2.000000E-2
Scans to average: 10
Electric dark correction enabled: true
Nonlinearity correction enabled: false
Boxcar width: 0
XAxis mode: Wavelengths
Number of Pixels in Spectrum: 2048
>>>>>Begin Spectral Data<<<<<
341.393	-28.8
341.776	-28.8
342.16	-28.8
342.543	-34.9
342.927	-57.72
343.31	-73.09
343.693	-54.11
344.077	-61.11
344.46	-61.57
344.843	-36.48
345.226	-55.24
345.61	-36.93
345.993	-13.66
346.376	10.3
346.759	-13.21
347.142	38.32
347.525	40.8
347.908	45.55
348.291	73.8
348.674	102.72
349.057	93.91
349.44	149.73
349.823	157.64
350.206	154.93
350.588	201.93
350.971	235.6
351.354	249.39
351.737	260.69
352.119	274.02
352.502	269.5
352.884	293.9
353.267	297.75
353.65	311.31
354.032	321.93
354.414	311.53
354.797	317.18
355.179	353.11
355.562	333
355.944	328.25
356.326	359.67
356.709	355.37
357.091	349.72
357.473	342.49
357.855	350.17
358.238	355.37
358.62	349.72
359.002	370.74
359.384	368.93
359.766	356.5
360.148	351.08
360.53	352.43
360.912	359.44
361.294	340.01
361.676	340.46
362.057	346.78
362.439	347.91
362.821	358.99
363.203	355.15
363.584	358.31
363.966	367.58
364.348	344.52
364.729	343.17
365.111	348.59
365.493	323.73
365.874	347.01
366.256	336.84
366.637	344.07
367.019	360.12
367.4	340.91
367.781	353.34
368.163	347.01
368.544	322.38
368.925	329.16
369.306	341.81
369.688	332.32
370.069	316.05
370.45	342.04
370.831	363.51
371.212	346.11
371.593	346.78
371.974	360.57
372.355	337.07
372.736	332.32
373.117	344.07
373.498	340.68
373.879	323.06
374.26	345.43
374.641	346.11
375.021	346.56
375.402	352.89
375.783	362.38
376.163	354.47
376.544	348.37
376.925	339.33
377.305	356.28
377.686	349.95
378.066	350.17
378.447	370.06
378.827	349.5
379.208	356.5
379.588	369.38
379.968	357.18
380.349	360.8
380.729	374.13
381.109	363.28
381.489	362.15
381.87	371.87
382.25	361.25
382.63	377.74
383.01	383.17
383.39	378.65
383.77	391.08
384.15	392.21
384.53	380.23
384.91	391.76
385.29	411.19
385.67	399.44
386.049	391.53
386.429	395.37
386.809	407.8
387.189	407.57
387.568	418.87
387.948	433.56
388.328	405.77
388.707	447.12
389.087	419.1
389.466	411.42
389.846	416.61
390.225	429.72
390.605	430.4
390.984	452.54
391.363	438.76
391.743	450.74
392.122	472.43
392.501	490.28
392.881	460.68
393.26	470.62
393.639	487.57
394.018	488.7
394.397	489.61
394.776	489.83
395.155	495.48
395.534	523.5
395.913	528.7
396.292	534.12
396.671	519.66
397.05	559.21
397.429	538.64
397.808	546.55
398.186	546.55
398.565	542.03
398.944	571.19
399.323	577.74
399.701	589.26
400.08	587
400.458	613.22
400.837	616.83
401.215	626.78
401.594	640.34
401.972	644.4
402.351	658.87
402.729	676.04
403.107	700.45
403.486	685.98
403.864	704.06
404.242	708.13
404.62	734.57
404.999	709.71
405.377	750.39
405.755	735.25
406.133	768.92
406.511	782.25
406.889	797.85
407.267	820.44
407.645	845.53
408.023	855.7
408.401	835.59
408.779	870.61
409.156	869.03
409.534	879.88
409.912	912.87
410.29	911.97
410.667	929.14
411.045	933.21
411.422	972.98
411.8	958.52
412.178	997.84
412.555	976.6
412.933	994
413.31	1027.9
413.687	1036.03
414.065	1074.9
414.442	1071.06
414.819	1092.53
415.197	1109.25
415.574	1135.69
415.951	1131.17
416.328	1123.49
416.705	1156.71
417.082	1161.68
417.46	1191.96
417.837	1174.56
418.214	1205.97
418.591	1252.3
418.967	1247.33
419.344	1236.48
419.721	1296.14
420.098	1260.88
420.475	1290.71
420.852	1308.79
421.228	1327.1
421.605	1318.96
421.982	1357.83
422.358	1353.09
422.735	1380.43
423.111	1386.98
423.488	1405.97
423.864	1387.44
424.241	1445.96
424.617	1454.55
424.994	1459.52
425.37	1422.01
425.746	1483.93
426.123	1502.01
426.499	1531.61
426.875	1526.41
427.251	1556.47
427.627	1597.37
428.003	1579.97
428.379	1625.17
428.756	1618.39
429.132	1663.59
429.507	1674.66
429.883	1699.07
430.259	1751.04
430.635	1761.44
431.011	1787.88
431.387	1798.5
431.763	1830.81
432.138	1871.26
432.514	1897.93
432.89	1879.85
433.265	1915.11
433.641	1921.66
434.016	1969.11
434.392	1984.48
434.767	2057.93
435.143	2053.18
435.518	2061.99
435.894	2106.74
436.269	2156.45
436.644	2149
437.02	2172.27
437.395	2172.05
437.77	2212.5
438.145	2221.99
438.52	2288.88
438.895	2266.51
439.271	2268.09
439.646	2331.59
440.021	2367.52
440.395	2400.97
440.77	2338.37
441.145	2428.09
441.52	2446.84
441.895	2457.46
442.27	2459.27
442.645	2458.37
443.019	2540.63
443.394	2519.16
443.769	2534.75
444.143	2555.77
444.518	2566.84
444.892	2589.89
445.267	2608.65
445.641	2634.63
446.016	2681.19
446.39	2668.76
446.764	2670.34
447.139	2692.49
447.513	2768.19
447.887	2747.17
448.262	2766.16
448.636	2777.23
449.01	2817
449.384	2831.92
449.758	2838.02
450.132	2884.57
450.506	2926.83
450.88	2897.68
451.254	2991.46
451.628	3002.53
452.002	3022.65
452.376	3028.75
452.75	3083.44
453.123	3110.33
453.497	3243.21
453.871	3199.37
454.244	3291.57
454.618	3278.46
454.992	3342.19
455.365	3363.43
455.739	3421.73
456.112	3473.71
456.486	3495.85
456.859	3530.2
457.232	3585.57
457.606	3596.87
457.979	3629.86
458.352	3703.08
458.725	3760.71
459.099	3787.82
459.472	3877.09
459.845	3921.83
460.218	3884.32
460.591	3968.38
460.964	3975.84
461.337	4073.01
461.71	4128.83
462.083	4205.67
462.456	4210.41
462.829	4263.74
463.201	4293.57
463.574	4341.93
463.947	4430.52
464.32	4460.8
464.692	4541.25
465.065	4576.5
465.438	4579.44
465.81	4708.25
466.183	4733.56
466.555	4837.74
466.928	4897.63
467.3	4911.64
467.672	4981.01
468.045	5095.59
468.417	5155.7
468.789	5164.06
469.161	5245.64
469.534	5374.9
469.906	5416.26
470.278	5461.68
470.65	5543.26
471.022	5625.29
471.394	5787.55
471.766	5843.36
472.138	5880.42
472.51	6010.59
472.882	6141.66
473.253	6178.72
473.625	6333.07
473.997	6432.5
474.369	6424.36
474.74	6525.15
475.112	6693.06
475.484	6746.84
475.855	6870.23
476.227	6951.13
476.598	7147.28
476.97	7258.47
477.341	7362.87
477.713	7562.64
478.084	7621.4
478.455	7817.55
478.827	7775.74
479.198	8145.45
479.569	8091.44
479.94	8334.15
480.311	8385.44
480.682	8634.48
481.053	8792.44
481.424	8958.76
481.795	9035.82
482.166	9201.24
482.537	9303.39
482.908	9482.59
483.279	9616.6
483.65	9743.15
484.021	9930.26
484.391	10089.13
484.762	10199.86
485.133	10351.27
485.503	10472.39
485.874	10678.94
486.244	10796.45
486.615	10951.48
486.985	11196.22
487.356	11339.94
487.726	11403.44
488.097	11669.88
488.467	11800.72
488.837	11945.58
489.207	12112.13
489.578	12270.54
489.948	12456.07
490.318	12688.16
490.688	12630.76
491.058	12897.42
491.428	13074.81
491.798	13202.27
492.168	13446.55
492.538	13522.48
492.908	13678.41
493.278	13781.91
493.648	13878.86
494.017	14152.3
494.387	14259.41
494.757	14387.77
495.126	14508.22
495.496	14558.84
495.866	14680.65
496.235	14884.03
496.605	15025.27
496.974	15099.39
497.344	15292.83
497.713	15450.12
498.082	15505.26
498.452	15642.2
498.821	15810.11
499.19	15945.02
499.559	15945.02
499.928	16090.1
500.298	16240.83
500.667	16434.05
501.036	16434.95
501.405	16602.4
501.774	16643.76
502.143	16784.77
502.512	16984.54
502.88	17120.35
503.249	17146.79
503.618	17386.79
503.987	17434.47
504.356	17520.12
504.724	17692.54
505.093	17853.22
505.462	17934.57
505.83	18112.42
506.199	18246.65
506.567	18479.87
506.936	18387.44
507.304	18544.05
507.672	18804.83
508.041	18920.31
508.409	18972.74
508.777	19189.45
509.145	19243.24
509.514	19277.13
509.882	19459.28
510.25	19719.61
510.618	19681.42
510.986	19895.65
511.354	19989.88
511.722	20267.84
512.09	20395.75
512.458	20511
512.826	20696.08
513.193	20790.09
513.561	20897.88
513.929	20967.94
514.297	21280.02
514.664	21425.55
515.032	21474.82
515.4	21591.2
515.767	21806.79
516.135	22003.39
516.502	21874.81
516.869	22278.64
517.237	22488.12
517.604	22338.07
517.972	22714.78
518.339	22772.18
518.706	22972.18
519.073	22951.84
519.44	23201.1
519.808	23491.03
520.175	23505.5
520.542	23852.38
520.909	23858.03
521.276	24026.16
521.643	24322.43
522.009	24454.17
522.376	24577.79
522.743	24891.22
523.11	25076.53
523.477	25277.2
523.843	25428.61
524.21	25682.16
524.577	25688.49
524.943	25881.71
525.31	26093.9
525.676	26386.1
526.043	26464.29
526.409	26709.03
526.776	26932.98
527.142	27094.1
527.508	27224.95
527.874	27408.45
528.241	27638.04
528.607	27600.08
528.973	27959.84
529.339	28065.15
529.705	28191.7
530.071	28442.54
530.437	28574.29
530.803	28663.78
531.169	28837.11
531.535	28988.74
531.901	29075.29
532.267	29102.41
532.632	29454.49
532.998	29550.54
533.364	29757.31
533.73	29777.42
534.095	30066.91
534.461	30183.06
534.826	30353.91
535.192	30369.95
535.557	30683.61
535.923	30719.09
536.288	30912.31
536.653	31026.88
537.019	30991.18
537.384	31232.53
537.749	31411.96
538.114	31436.36
538.479	31368.79
538.845	31653.98
539.21	31674.55
539.575	31693.53
539.94	31880.42
540.305	31997.7
540.67	32135.78
541.034	32236.12
541.399	32344.81
541.764	32532.61
542.129	32702.09
542.494	32760.17
542.858	32899.15
543.223	32952.48
543.587	33146.37
543.952	33175.07
544.316	33369.87
544.681	33333.49
545.045	33490.09
545.41	33723.99
545.774	33920.37
546.138	33929.86
546.503	34085.56
546.867	34127.59
547.231	34342.5
547.595	34607.58
547.959	34610.06
548.324	34661.14
548.688	34923.05
549.052	35015.93
549.416	35112.2
549.779	35054.8
550.143	35201.69
550.507	35505.86
550.871	35681.67
551.235	35713.31
551.599	36026.75
551.962	36054.77
552.326	36113.53
552.689	36479.39
553.053	36276.01
553.417	36450.24
553.78	36963.22
554.143	36814.3
554.507	36999.61
554.87	37252.03
555.234	37575.41
555.597	37486.37
555.96	37779.92
556.323	37964.55
556.686	37944.67
557.05	38313.92
557.413	38318.44
557.776	38541.49
558.139	38826.9
558.502	38727.92
558.865	38963.4
559.228	39183.96
559.59	39344.63
559.953	39590.05
560.316	39870.27
560.679	39966.99
561.041	40108.45
561.404	40335.56
561.767	40497.59
562.129	40485.62
562.492	40911.14
562.854	40943.01
563.217	40924.02
563.579	41168.99
563.941	41347.06
564.304	41540.96
564.666	41901.17
565.028	41934.84
565.39	42084.67
565.753	42333.93
566.115	42273.59
566.477	42616.63
566.839	42708.16
567.201	42895.04
567.563	42998.77
567.925	43250.97
568.287	43269.5
568.648	43375.94
569.01	43750.16
569.372	43914.9
569.734	43734.34
570.095	44027.9
570.457	44240.77
570.819	44360.09
571.18	44430.82
571.542	44624.04
571.903	44614.77
572.265	44875.56
572.626	44972.73
572.987	45046.17
573.349	45113.74
573.71	45330.01
574.071	45380.63
574.432	45421.08
574.794	45745.14
575.155	45642.99
575.516	45649.1
575.877	45913.72
576.238	45942.87
576.599	46069.88
576.96	46051.8
577.32	46161.4
577.681	46207.95
578.042	46396.2
578.403	46413.6
578.763	46489.75
579.124	46487.94
579.485	46760.25
579.845	46722.06
580.206	46716.41
580.566	46746.47
580.927	46774.94
581.287	46889.06
581.648	46899.23
582.008	47067.14
582.368	46927.93
582.728	47074.14
583.089	46985.11
583.449	47004.54
583.809	46935.62
584.169	47128.83
584.529	47082.5
584.889	47483.17
585.249	46986.01
585.609	47034.82
585.969	47286.79
586.329	47153.46
586.688	47261.71
587.048	47157.08
587.408	47054.03
587.768	47044.54
588.127	47051.09
588.487	47073.69
588.846	47465.77
589.206	47015.61
589.565	47184.65
589.925	47282.5
590.284	47144.42
590.643	47160.24
591.003	47377.86
591.362	47319.11
591.721	47240.01
592.08	47327.47
592.44	47337.64
592.799	47284.76
593.158	47300.8
593.517	47258.55
593.876	47437.52
594.235	47140.13
594.593	47340.58
594.952	47372.21
595.311	47321.14
595.67	47379.22
596.029	47697.4
596.387	47514.81
596.746	47658.76
597.104	47548.26
597.463	47615.15
597.822	47718.65
598.18	47467.58
598.538	47486.11
598.897	47813.79
599.255	47568.14
599.613	48092.87
599.972	47780.11
600.33	47934.01
600.688	47740.57
601.046	47877.96
601.404	47944.86
601.762	47827.34
602.12	47974.46
602.478	48184.17
602.836	47983.5
603.194	47759.32
603.552	47847.91
603.91	47809.94
604.268	47993.89
604.625	48031.41
604.983	48223.27
605.341	47962.03
605.698	48201.8
606.056	48324.73
606.413	48177.84
606.771	48400.66
607.128	48388.46
607.485	48298.52
607.843	48374.45
608.2	48460.77
608.557	48596.82
608.914	48390.72
609.272	48674.33
609.629	48703.25
609.986	48879.75
610.343	48624.39
610.7	48959.74
611.057	48888.11
611.414	48771.5
611.771	48901.67
612.127	48955
612.484	49021.89
612.841	49067.76
613.198	48991.83
613.554	49015.11
613.911	49248.55
614.267	49290.58
614.624	49232.5
614.98	49153.41
615.337	49431.37
615.693	49281.77
616.05	49376.68
616.406	49439.51
616.762	49361.32
617.118	49422.1
617.475	49458.26
617.831	49530.8
618.187	49519.73
618.543	49597.92
618.899	49692.38
619.255	49683.34
619.611	49645.38
619.967	49750.91
620.323	49890.11
620.678	49681.98
621.034	49589.33
621.39	49611.7
621.746	49598.15
622.101	49956.1
622.457	49562.44
622.812	49849.66
623.168	49802.21
623.523	49846.27
623.879	50010.79
624.234	49665.04
624.589	49775.77
624.945	49873.62
625.3	49922.88
625.655	49902.77
626.01	50004.91
626.365	49919.94
626.72	49885.37
627.075	49782.55
627.43	49815.54
627.785	49671.14
628.14	49770.57
628.495	49757.24
628.85	49875.88
629.205	49553.4
629.559	49870.91
629.914	49719.05
630.269	49822.32
630.623	49702.78
630.978	49570.8
631.332	49783.9
631.687	49745.71
632.041	49659.39
632.396	49782.09
632.75	49512.5
633.104	49540.52
633.459	49458.04
633.813	49392.27
634.167	49414.87
634.521	49387.3
634.875	49491.93
635.229	49465.72
635.583	49194.09
635.937	49231.38
636.291	49253.3
636.645	49092.4
636.999	49066.41
637.352	49151.38
637.706	48876.81
638.06	49093.75
638.413	49054.88
638.767	48919.74
639.121	49035.9
639.474	48762.01
639.828	48718.62
640.181	48893.98
640.534	48889.46
640.888	48777.83
641.241	48471.39
641.594	48606.08
641.947	48547.33
642.301	48534.44
642.654	48527.21
643.007	48521.34
643.36	48481.56
643.713	48381.23
644.066	48495.8
644.419	48215.13
644.771	48052.42
645.124	47621.93
645.477	47495.6
645.83	47324.98
646.182	47258.09
646.535	47185.55
646.888	47245.21
647.24	47091.09
647.593	47243.4
647.945	47079.34
648.298	46887.26
648.65	46905.79
649.002	46723.19
649.355	46922.96
649.707	46721.38
650.059	46988.72
650.411	47351.65
650.763	47442.04
651.115	47690.85
651.467	47742.37
651.819	47626.45
652.171	47480.46
652.523	47441.59
652.875	47473.23
653.227	47444.53
653.578	47571.31
653.93	47410.63
654.282	47323.4
654.633	47217.87
654.985	47235.04
655.337	47251.09
655.688	47310.3
656.039	47319.33
656.391	47067.59
656.742	46984.88
657.094	47110.53
657.445	47154.37
657.796	47061.49
658.147	46817.88
658.498	46883.87
658.849	46918.22
659.2	46878.89
659.551	46741.27
659.902	46896.97
660.253	46791.21
660.604	46774.26
660.955	46634.83
661.306	46829.86
661.656	46660.14
662.007	46795.05
662.358	46753.02
662.708	46635.74
663.059	46747.6
663.409	46441.39
663.76	46684.1
664.11	46750.76
664.461	46721.84
664.811	46607.49
665.161	46541.95
665.511	46399.36
665.862	46507.38
666.212	46474.84
666.562	46570.88
666.912	46496.76
667.262	46357.33
667.612	46405.01
667.962	46349.87
668.312	46354.39
668.662	46542.41
669.011	46352.81
669.361	46285.46
669.711	46221.74
670.06	46224.22
670.41	46126.15
670.76	46130.67
671.109	46233.94
671.459	46216.54
671.808	46114.39
672.157	46111.46
672.507	45896.32
672.856	45967.96
673.205	46028.75
673.554	46150.78
673.904	45913.95
674.253	46095.64
674.602	46013.83
674.951	45276.45
675.3	45274.19
675.649	45662.43
675.998	45620.17
676.346	45681.86
676.695	45829.43
677.044	45424.47
677.393	45540.17
677.741	45626.05
678.09	45399.16
678.438	45410.01
678.787	45551.47
679.135	45463.56
679.484	45348.77
679.832	45464.47
680.181	45080.98
680.529	45273.74
680.877	45113.29
681.225	45046.4
681.573	45271.25
681.922	44965.5
682.27	44949.68
682.618	44891.15
682.966	44807.54
683.314	44968.89
683.661	44714.88
684.009	44547.88
684.357	44266.08
684.705	44262.24
685.053	44344.72
685.4	44223.82
685.748	43913.32
686.095	43938.63
686.443	43861.8
686.79	43807.34
687.138	43841.23
687.485	43865.19
687.832	43655.02
688.18	43750.16
688.527	43419.78
688.874	43562.37
689.221	43326.9
689.568	43064.08
689.915	43054.59
690.262	42960.13
690.609	42855.5
690.956	42837.42
691.303	42802.39
691.65	42681.49
691.997	42513.59
692.344	42367.37
692.69	42318.11
693.037	42404.44
693.383	42033.6
693.73	42119.25
694.077	41843.32
694.423	41882.87
694.769	41669.54
695.116	41719.26
695.462	41591.58
695.808	41372.15
696.155	41588.19
696.501	41262.54
696.847	41262.77
697.193	41004.02
697.539	41117.24
697.885	40800.86
698.231	40821.65
698.577	40524.26
698.923	40638.38
699.269	40406.97
699.614	40299.18
699.96	40097.6
700.306	40197.26
700.651	39954.33
700.997	39863.49
701.342	39857.38
701.688	39719.76
702.033	39632.08
702.379	39580.33
702.724	39450.84
703.069	39485.64
703.415	39030.74
703.76	39128.82
704.105	39067.8
704.45	38935.37
704.795	38837.52
705.14	38712.33
705.485	38706.23
705.83	38479.12
706.175	38605.44
706.52	38458.32
706.865	38312.79
707.209	38342.85
707.554	38113.48
707.899	38218.56
708.243	38143.08
708.588	37980.37
708.932	37717.33
709.277	37672.13
709.621	37778.34
709.966	37559.59
710.31	37448.86
710.654	37254.06
710.998	37474.62
711.342	37435.08
711.687	37258.81
712.031	37204.35
712.375	37003
712.719	37059.94
713.063	37028.08
713.407	37070.56
713.75	36703.34
714.094	36855.2
714.438	36556.68
714.782	36607.3
715.125	36516.46
715.469	36576.79
715.812	36416.12
716.156	36262.68
716.499	36249.34
716.843	36331.6
717.186	35970.93
717.53	36172.06
717.873	36203.24
718.216	36118.73
718.559	36052.29
718.902	35795.34
719.246	35761.45
719.589	35685.29
719.932	35562.81
720.275	35525.29
720.617	35473.77
720.96	35394.45
721.303	35393.32
721.646	35311.29
721.989	35211.18
722.331	35177.51
722.674	35250.73
723.016	35067.23
723.359	34989.26
723.701	35064.52
724.044	34856.61
724.386	34740.68
724.729	34763.51
725.071	34671.08
725.413	34619.56
725.755	34628.14
726.097	34539.56
726.439	34281.26
726.782	34308.83
727.124	34475.83
727.465	34242.39
727.807	34318.77
728.149	34210.08
728.491	34079.23
728.833	34124.2
729.175	34044.43
729.516	33909.74
729.858	33837.88
730.199	33989.06
730.541	33763.31
730.882	33746.58
731.224	33725.57
731.565	33453.03
731.906	33699.35
732.248	33600.37
732.589	33456.87
732.93	33347.72
733.271	33328.97
733.612	33312.92
733.953	33298.23
734.294	33158.13
734.635	33137.56
734.976	33276.31
735.317	33085.13
735.658	33041.29
735.999	33105.92
736.339	32982.76
736.68	32976.89
737.021	32957.23
737.361	32747.29
737.702	33003.1
738.042	32780.06
738.383	32748.87
738.723	32724.46
739.063	32423.68
739.404	32683.56
739.744	32373.29
740.084	32265.04
740.424	32347.98
740.764	32381.65
741.104	32383
741.444	32082
741.784	32082.22
742.124	32195.66
742.464	32007.87
742.804	32067.53
743.143	32028.89
743.483	31969.23
743.823	31867.76
744.162	31796.35
744.502	31735.56
744.841	31750.03
745.181	31881.1
745.52	31652.4
745.86	31677.03
746.199	31499.41
746.538	31508
746.877	31487.66
747.216	31568.34
747.556	31380.32
747.895	31367.89
748.234	31229.59
748.573	31341
748.911	31142.81
749.25	31100.78
749.589	31042.47
749.928	31060.78
750.267	30880.22
750.605	30851.07
750.944	30858.52
751.283	30673.44
751.621	30782.59
751.96	30569.49
752.298	30652.43
752.636	30594.58
752.975	30376.96
753.313	30294.02
753.651	30406.56
753.989	30251.99
754.327	30162.27
754.666	30085.21
755.004	30060.35
755.342	30106.23
755.679	30007.93
756.017	29831.43
756.355	29847.25
756.693	29717.54
757.031	29635.51
757.368	29688.39
757.706	29585.56
758.044	29423.99
758.381	29557.32
758.719	29276.65
759.056	29348.51
759.394	29294.72
759.731	29109.87
760.068	28938.8
760.405	28916.2
760.743	28827.17
761.08	28767.51
761.417	28624.01
761.754	28672.82
762.091	28573.61
762.428	28520.28
762.765	28480.51
763.102	28389.21
763.438	28247.07
763.775	28004.59
764.112	28047.3
764.449	28092.95
764.785	27966.85
765.122	27757.36
765.458	27636.69
765.795	27614.54
766.131	27585.84
766.467	27536.35
766.804	27413.87
767.14	27259.75
767.476	27268.11
767.812	27159.19
768.148	27168.23
768.485	26920.32
768.821	26791.29
769.157	26852.3
769.492	26671.29
769.828	26813.89
770.164	26463.61
770.5	26372.99
770.836	26398.08
771.171	26094.58
771.507	26254.35
771.842	25935.04
772.178	25989.5
772.513	25697.53
772.849	25822.27
773.184	25633.8
773.519	25625.22
773.855	25447.37
774.19	25428.39
774.525	25275.85
774.86	25237.43
775.195	25100.03
775.53	25083.76
775.865	24947.72
776.2	24743.66
776.535	24649.2
776.87	24745.01
777.205	24582.31
777.539	24539.37
777.874	24540.72
778.209	24401.52
778.543	24244.01
778.878	24060.51
779.212	24067.29
779.547	23918.14
779.881	24025.48
780.215	23804.25
780.55	23780.52
780.884	23858.26
781.218	23588.21
781.552	23541.66
781.886	23456.91
782.22	23391.15
782.554	23273.19
782.888	22983.25
783.222	22971.5
783.556	22891.73
783.889	22899.41
784.223	22743.48
784.557	22698.51
784.89	22643.83
785.224	22563.83
785.557	22478.86
785.891	22326.32
786.224	22297.85
786.558	22231.86
786.891	21984.86
787.224	22016.27
787.557	22059.89
787.891	21933.11
788.224	21888.59
788.557	21854.69
788.89	21748.71
789.223	21789.61
789.556	21601.14
789.888	21574.02
790.221	21463.74
790.554	21226.69
790.887	21255.39
791.219	21118.22
791.552	21166.58
791.884	21050.42
792.217	20978.11
792.549	20780.15
792.882	20760.03
793.214	20659.92
793.546	20710.54
793.879	20718.68
794.211	20479.14
794.543	20582.86
794.875	20384.68
795.207	20459.25
795.539	20315.07
795.871	20211.35
796.203	20180.16
796.535	20096.55
796.867	19961.41
797.198	19902.88
797.53	19970.45
797.862	19915.08
798.193	19801.41
798.525	19693.17
798.856	19813.17
799.188	19525.94
799.519	19433.97
799.85	19364.36
800.182	19437.36
800.513	19366.62
800.844	19096.8
801.175	19285.5
801.506	19170.02
801.837	19130.02
802.168	18975.22
802.499	18895.22
802.83	18924.38
803.161	18803.7
803.491	18830.82
803.822	18787.88
804.153	18671.95
804.483	18542.92
804.814	18442.81
805.145	18441.22
805.475	18467.44
805.805	18335.46
806.136	18474.67
806.466	18428.57
806.796	18306.54
807.126	18154
807.457	18240.33
807.787	18134.57
808.117	18053.21
808.447	18023.38
808.777	17988.58
809.107	18030.84
809.436	17907.9
809.766	17836.27
810.096	17707.01
810.426	17690.06
810.755	17741.13
811.085	17658.65
811.414	17606.44
811.744	17544.3
812.073	17511.08
812.403	17435.15
812.732	17299.33
813.061	17321.25
813.39	17142.05
813.719	17239.22
814.049	17312.89
814.378	17199.22
814.707	17096.63
815.036	17112.9
815.365	17024.54
815.693	16812.11
816.022	16827.93
816.351	16719.24
816.68	16745.45
817.008	16829.29
817.337	16582.74
817.665	16601.95
817.994	16719.24
818.322	16582.52
818.651	16526.02
818.979	16460.71
819.307	16530.77
819.636	16430.66
819.964	16285.12
820.292	16433.82
820.62	16417.32
820.948	16279.7
821.276	16459.81
821.604	16339.58
821.932	16378.45
822.259	16344.1
822.587	16334.61
822.915	16216.2
823.243	16382.52
823.57	16201.74
823.898	16315.18
824.225	16200.15
824.553	16187.95
824.88	16241.51
825.207	16329.64
825.535	16232.92
825.862	16262.98
826.189	16163.09
826.516	16227.95
826.843	16275.63
827.17	16236.54
827.497	16332.35
827.824	16251.9
828.151	16208.74
828.478	16300.26
828.805	16271.11
829.131	16163.77
829.458	16120.61
829.785	16102.98
830.111	16177.1
830.438	16257.1
830.764	16159.02
831.09	16151.79
831.417	16058.46
831.743	16077.9
832.069	16131
832.395	16055.3
832.722	16102.3
833.048	16047.61
833.374	16052.13
833.7	16003.1
834.026	15964.23
834.351	15992.93
834.677	15983.66
835.003	15993.38
835.329	16028.18
835.654	15847.62
835.98	15877.68
836.306	15812.14
836.631	15886.72
836.956	15839.48
837.282	15841.07
837.607	15734.18
837.932	15751.35
838.258	15693.5
838.583	15687.4
838.908	15556.78
839.233	15628.42
839.558	15563.33
839.883	15567.85
840.208	15498.48
840.533	15528.98
840.858	15502.54
841.182	15503.45
841.507	15410.12
841.832	15324.7
842.156	15361.08
842.481	15347.29
842.805	15363.11
843.13	15316.11
843.454	15329.22
843.778	15228.65
844.103	15250.8
844.427	15140.75
844.751	15204.7
845.075	15091.03
845.399	15017.59
845.723	14865.27
846.047	14966.06
846.371	14781.89
846.695	14846.74
847.019	14735.56
847.343	14628.44
847.666	14513.87
847.99	14539.41
848.313	14502.57
848.637	14421.67
848.96	14349.13
849.284	14303.25
849.607	14266.19
849.931	14211.05
850.254	14084.28
850.577	14057.84
850.9	14047.67
851.223	13980.78
851.546	13895.13
851.869	13807.9
852.192	13847.9
852.515	13744.4
852.838	13646.1
853.161	13682.93
853.483	13562.26
853.806	13536.72
854.129	13469.83
854.451	13454.24
854.774	13355.71
855.096	13285.88
855.419	13336.73
855.741	13213.56
856.063	13161.59
856.385	13124.08
856.708	13113.23
857.03	13058.77
857.352	13143.74
857.674	13033.23
857.996	13009.05
858.318	12922.05
858.64	12914.36
858.961	12879.34
859.283	12752.56
859.605	12855.83
859.926	12783.29
860.248	12774.25
860.57	12678.89
860.891	12703.3
861.212	12588.72
861.534	12641.83
861.855	12550.31
862.176	12522.51
862.498	12533.81
862.819	12543.53
863.14	12532.45
863.461	12438.67
863.782	12366.13
864.103	12397.99
864.424	12403.87
864.745	12364.77
865.065	12318.22
865.386	12280.03
865.707	12223.31
866.027	12229.64
866.348	12195.29
866.668	12168.39
866.989	12219.92
867.309	12059.7
867.63	12104.67
867.95	12145.12
868.27	12049.98
868.59	12016.76
868.91	12012.01
869.23	11963.2
869.55	11925.01
869.87	11993.71
870.19	11970.21
870.51	11982.18
870.83	11951.45
871.15	11901.28
871.469	11880.72
871.789	11894.28
872.109	11812.7
872.428	11807.5
872.748	11850.89
873.067	11774.96
873.386	11786.94
873.706	11793.72
874.025	11723.21
874.344	11696.77
874.663	11767.73
874.982	11682.53
875.301	11671.23
875.62	11703.77
875.939	11602.99
876.258	11571.57
876.577	11596.43
876.896	11522.54
877.214	11480.96
877.533	11565.92
877.852	11471.92
878.17	11431.69
878.489	11500.84
878.807	11472.37
879.125	11442.76
879.444	11445.48
879.762	11394.4
880.08	11346.27
880.398	11285.71
880.716	11301.52
881.034	11315.99
881.352	11254.07
881.67	11248.64
881.988	11253.39
882.306	11220.62
882.624	11202.09
882.941	11193.28
883.259	11108.08
883.577	11132.94
883.894	11111.02
884.212	11057.01
884.529	11023.11
884.846	11048.2
885.164	11025.15
885.481	10942.44
885.798	10982.66
886.115	10908.31
886.432	10915.55
886.75	10763.23
887.067	10851.37
887.383	10764.14
887.7	10847.3
888.017	10717.81
888.334	10696.12
888.651	10691.6
888.967	10742.44
889.284	10662.22
889.6	10585.84
889.917	10517.14
890.233	10565.05
890.55	10471.04
890.866	10481.43
891.182	10470.13
891.498	10386.52
891.815	10306.97
892.131	10294.55
892.447	10286.86
892.763	10398.72
893.079	10221.78
893.395	10205.06
893.71	10220.88
894.026	10182.68
894.342	10105.85
894.657	10124.83
894.973	10082.57
895.289	10029.69
895.604	10059.98
895.92	9973.65
896.235	9893.88
896.55	9863.6
896.865	9873.31
897.181	9883.94
897.496	9877.61
897.811	9797.61
898.126	9731.17
898.441	9720.78
898.756	9694.11
899.071	9680.78
899.386	9698.4
899.7	9610.04
900.015	9486.66
900.33	9507
900.644	9438.97
900.959	9487.79
901.273	9457.96
901.588	9377.06
901.902	9327.79
902.216	9312.88
902.531	9308.36
902.845	9308.13
903.159	9189.04
903.473	9236.95
903.787	9169.38
904.101	9017.97
904.415	9133.22
904.729	9059.32
905.042	9044.64
905.356	8970.51
905.67	9027.46
905.984	8986.11
906.297	8953.56
906.611	8816.84
906.924	8829.73
907.237	8775.04
907.551	8764.19
907.864	8806.22
908.177	8715.38
908.491	8644.19
908.804	8558.77
909.117	8561.94
909.43	8486.01
909.743	8469.06
910.056	8486.46
910.368	8340.92
910.681	8414.14
910.994	8396.74
911.307	8366.01
911.619	8290.53
911.932	8256.41
912.244	8260.02
912.557	8216.41
912.869	8202.4
913.181	8152.68
913.494	8137.54
913.806	8039.92
914.118	8057.09
914.43	7926.25
914.742	7988.39
915.054	7928.28
915.366	7956.08
915.678	7902.29
915.99	7811.9
916.302	7772.35
916.613	7797.44
916.925	7733.94
917.236	7685.12
917.548	7679.93
917.859	7715.63
918.171	7579.59
918.482	7492.36
918.794	7505.47
919.105	7476.99
919.416	7482.19
919.727	7470.67
920.038	7379.37
920.349	7395.19
920.66	7375.75
920.971	7302.99
921.282	7317.45
921.593	7256.66
921.903	7195.64
922.214	7210.11
922.525	7156.1
922.835	7173.72
923.146	7112.26
923.456	7060.96
923.767	6993.84
924.077	7097.57
924.387	6997.23
924.697	6929.66
925.008	6909.78
925.318	6854.86
925.628	6844.01
925.938	6810.12
926.248	6813.51
926.558	6766.28
926.867	6782.1
927.177	6736.67
927.487	6688.09
927.796	6648.31
928.106	6613.06
928.416	6612.38
928.725	6592.5
929.034	6515.21
929.344	6559.5
929.653	6484.48
929.962	6482.67
930.271	6365.61
930.581	6371.71
930.89	6349.79
931.199	6310.7
931.508	6323.35
931.817	6302.33
932.125	6314.76
932.434	6244.48
932.743	6231.83
933.051	6167.2
933.36	6151.6
933.669	6129.91
933.977	6129.46
934.286	6117.25
934.594	6122.23
934.902	6059.63
935.21	5988.22
935.519	5951.16
935.827	5951.16
936.135	5903.47
936.443	5891.27
936.751	5879.52
937.059	5827.54
937.367	5833.19
937.674	5785.96
937.982	5744.16
938.29	5747.09
938.597	5719.07
938.905	5675.68
939.213	5671.84
939.52	5647.66
939.827	5651.05
940.135	5578.74
940.442	5572.41
940.749	5543.48
941.056	5524.28
941.363	5480.43
941.67	5486.54
941.977	5457.16
942.284	5414.22
942.591	5413.09
942.898	5351.85
943.205	5372.64
943.511	5337.84
943.818	5328.12
944.125	5278.18
944.431	5236.37
944.738	5232.98
945.044	5251.06
945.35	5202.48
945.657	5153.89
945.963	5087.9
946.269	5108.92
946.575	5126.77
946.881	5082.25
947.187	5064.4
947.493	5007.23
947.799	4985.31
948.105	5051.29
948.41	4982.37
948.716	4948.7
949.022	4889.94
949.327	4937.85
949.633	4836.38
949.938	4827.34
950.244	4842.49
950.549	4800.45
950.854	4800.68
951.16	4759.32
951.465	4747.12
951.77	4708.48
952.075	4764.52
952.38	4714.35
952.685	4660.12
952.99	4658.76
953.294	4629.38
953.599	4595.26
953.904	4586.67
954.209	4562.72
954.513	4526.56
954.818	4575.15
955.122	4541.7
955.426	4493.34
955.731	4486.11
956.035	4458.77
956.339	4440.69
956.643	4443.85
956.948	4371.31
957.252	4369.73
957.556	4364.53
957.86	4336.96
958.163	4297.64
958.467	4310.3
958.771	4245.89
959.075	4237.76
959.378	4269.62
959.682	4262.84
959.985	4232.56
960.289	4207.93
960.592	4156.4
960.896	4096.74
961.199	4148.49
961.502	4171.77
961.805	4076.86
962.108	4126.12
962.411	4065.78
962.714	4043.86
963.017	4042.51
963.32	4080.47
963.623	3985.56
963.926	3965.45
964.228	3981.04
964.531	3961.38
964.833	3940.81
965.136	3874.15
965.438	3883.41
965.741	3857.65
966.043	3867.37
966.345	3838.67
966.648	3805.22
966.95	3793.47
967.252	3799.8
967.554	3766.36
967.856	3752.34
968.158	3727.71
968.46	3684.32
968.761	3722.52
969.063	3683.65
969.365	3651.78
969.666	3625.57
969.968	3646.13
970.269	3621.5
970.571	3604.55
970.872	3585.34
971.174	3534.5
971.475	3538.57
971.776	3553.03
972.077	3556.19
972.378	3498.11
972.679	3524.78
972.98	3572.24
973.281	3480.94
973.582	3497.44
973.883	3450.21
974.183	3435.29
974.484	3382.86
974.785	3406.14
975.085	3420.15
975.386	3357.1
975.686	3364.56
975.986	3362.52
976.287	3346.93
976.587	3317.33
976.887	3338.12
977.187	3309.42
977.487	3249.31
977.787	3216.31
978.087	3282.07
978.387	3199.59
978.687	3234.62
978.987	3186.03
979.286	3209.08
979.586	3220.83
979.885	3149.2
980.185	3122.3
980.484	3092.7
980.784	3153.26
981.083	3118.24
981.382	3096.99
981.682	3078.46
981.981	3057.9
982.28	3034.85
982.579	3020.61
982.878	3034.17
983.177	3024.68
983.475	2977
983.774	2966.6
984.073	2963.67
984.372	2961.86
984.67	2950.11
984.969	2920.5
985.267	2943.33
985.566	2914.4
985.864	2888.41
986.162	2893.61
986.461	2857
986.759	2825.59
987.057	2856.1
987.355	2839.15
987.653	2799.83
987.951	2792.37
988.249	2800.05
988.547	2760.28
988.844	2758.02
989.142	2754.63
989.44	2748.53
989.737	2701.98
990.035	2664.46
990.332	2659.94
990.63	2643.9
990.927	2677.12
991.224	2646.39
991.521	2639.15
991.819	2610.91
992.116	2579.27
992.413	2593.73
992.71	2607.29
993.006	2561.64
993.303	2535.43
993.6	2556.67
993.897	2516.22
994.193	2568.87
994.49	2511.47
994.787	2517.12
995.083	2519.83
995.379	2479.84
995.676	2461.08
995.972	2483.9
996.268	2438.26
996.565	2417.24
996.861	2398.48
997.157	2378.37
997.453	2390.8
997.749	2373.17
998.044	2379.73
998.34	2359.84
998.636	2364.36
998.932	2330.01
999.227	2333.4
999.523	2314.42
999.818	2300.86
1000.114	2280.07
1000.409	2265.38
1000.704	2257.92
1001	2238.94
1001.295	2225.83
1001.59	2244.59
1001.885	2220.41
1002.18	2212.72
1002.475	2193.97
1002.77	2212.72
1003.065	2180.18
1003.359	2165.72
1003.654	2143.35
1003.949	2128.43
1004.243	2130.01
1004.538	2099.73
1004.832	2102.67
1005.127	2104.03
1005.421	2081.65
1005.715	2045.27
1006.009	2069.68
1006.304	2024.48
1006.598	2021.99
1006.892	2002.33
1007.186	1989.91
1007.48	1981.32
1007.773	2014.09
1008.067	1964.37
1008.361	1940.64
1008.655	1924.82
1008.948	1949.68
1009.242	1946.97
1009.535	1903.58
1009.829	1897.03
1010.122	1883.02
1010.415	1856.35
1010.708	1854.77
1011.001	1869.91
1011.295	1873.75
1011.588	1834.66
1011.881	1806.86
1012.173	1819.97
1012.466	1808.22
1012.759	1797.14
1013.052	1787.2
1013.344	1771.61
1013.637	1777.26
1013.93	1736.8
1014.222	1741.78
1014.514	1733.41
1014.807	1713.3
1015.099	1703.13
1015.391	1697.71
1015.683	1703.36
1015.976	1683.47
1016.268	1685.96
1016.56	1647.09
1016.851	1656.13
1017.143	1638.05
1017.435	1619.75
1017.727	1617.71
1018.018	1619.97
1018.31	1588.33
1018.602	1599.41
1018.893	1593.31
1019.185	1580.2
1019.476	1597.83
1019.767	1540.2
1020.058	1558.73
1020.35	1509.24
1020.641	1514.44
1020.932	1521.22
1021.223	1527.54
1021.514	1491.16
1021.804	1460.2
1022.095	1433.54
1022.386	1475.79
1022.677	1452.97
1022.967	1455
1023.258	1412.07
1023.548	1406.87
1023.839	1393.99
1024.129	1424.04
1024.419	1406.87
1024.709	1384.05
1025	1342.92
1025.29	1370.71
1025.58	1353.54
1025.87	1363.71
1026.16	1338.85
1026.449	1323.48
1026.739	1315.57
1027.029	1352.63
1027.319	1325.06
1027.608	1313.54
1027.898	1305.4
1028.187	1279.42
1028.477	1285.74
1028.766	1237.38
1029.055	1259.08
1029.344	1251.17
1029.634	1221.56
1029.923	1230.6
1030.212	1229.25
1030.501	1208.68
1030.79	1209.36
1031.078	1206.2
1031.367	1195.12
1031.656	1175.46
1031.945	1196.48
1032.233	1169.59
1032.522	1187.89
1032.81	1167.55
1033.099	1140.89
1033.387	1137.72
1033.675	1123.26
1033.963	1117.39
1034.251	1145.41
1034.54	1109.48
1034.828	1092.08
1035.116	1111.96
1035.403	1110.83
1035.691	1048.24
1035.979	1073.77
1036.267	1081.91
1036.554	1074
1036.842	1043.72
1037.129	1025.86
1037.417	1034.9
1037.704	1031.29
1037.992	996.03
1038.279	1018.86
1038.566	1006.2
1038.853	1006.2
1039.14	1006.2
