Data from White_reflection_standard_FLMS001491_050.txt Node
Date: Tue Feb 07 10:32:05 GMT 2017
User: dcchb
Spectrometer: FLMS00149
Trigger mode: 0
Integration Time (sec): 2.000000E-2
Scans to average: 10
Electric dark correction enabled: true
Nonlinearity correction enabled: false
Boxcar width: 0
XAxis mode: Wavelengths
Number of Pixels in Spectrum: 2048
>>>>>Begin Spectral Data<<<<<
341.393	-20.14
341.776	-20.14
342.16	-20.14
342.543	-66.69
342.927	-65.56
343.31	-59.46
343.693	-54.49
344.077	-74.6
344.46	-42.06
344.843	-64.43
345.226	-33.47
345.61	-40.71
345.993	-17.65
346.376	-0.25
346.759	16.69
347.142	8.33
347.525	36.58
347.908	49.69
348.291	70.03
348.674	96.01
349.057	109.8
349.44	131.72
349.823	140.98
350.206	155
350.588	245.62
350.971	254.88
351.354	274.77
351.737	303.92
352.119	297.82
352.502	310.02
352.884	314.31
353.267	345.73
353.65	325.39
354.032	335.33
354.414	348.66
354.797	361.77
355.179	373.75
355.562	374.88
355.944	381.2
356.326	367.42
356.709	391.15
357.091	383.46
357.473	409.45
357.855	411.49
358.238	404.71
358.62	385.05
359.002	385.95
359.384	404.03
359.766	418.04
360.148	403.12
360.53	398.15
360.912	405.38
361.294	397.25
361.676	428.44
362.057	404.03
362.439	416.01
362.821	425.5
363.203	405.16
363.584	401.32
363.966	409
364.348	427.53
364.729	409.45
365.111	393.18
365.493	416.68
365.874	431.15
366.256	409.9
366.637	410.81
367.019	433.41
367.4	409.23
367.781	403.35
368.163	415.33
368.544	441.54
368.925	423.01
369.306	425.27
369.688	421.2
370.069	436.57
370.45	401.77
370.831	438.6
371.212	423.24
371.593	448.55
371.974	445.84
372.355	443.58
372.736	448.55
373.117	444.25
373.498	452.39
373.879	423.46
374.26	423.92
374.641	437.47
375.021	436.57
375.402	459.17
375.783	472.95
376.163	480.19
376.544	502.56
376.925	479.28
377.305	507.3
377.686	495.33
378.066	494.42
378.447	499.85
378.827	503.91
379.208	512.27
379.588	522.67
379.968	498.26
380.349	526.96
380.729	553.63
381.109	545.49
381.489	532.61
381.87	544.82
382.25	558.38
382.63	560.86
383.01	538.26
383.39	552.27
383.77	566.28
384.15	565.15
384.53	569.22
384.91	603.35
385.29	593.85
385.67	601.09
386.049	624.14
386.429	599.5
386.809	599.05
387.189	629.11
387.568	627.98
387.948	619.84
388.328	641.99
388.707	656
389.087	666.85
389.466	683.57
389.846	686.73
390.225	684.02
390.605	686.73
390.984	707.98
391.363	690.8
391.743	723.79
392.122	716.79
392.501	706.17
392.881	745.49
393.26	741.2
393.639	757.24
394.018	779.84
394.397	773.28
394.776	774.41
395.155	800.63
395.534	795.43
395.913	803.57
396.292	807.63
396.671	833.62
397.05	826.62
397.429	858.71
397.808	832.04
398.186	841.08
398.565	856.45
398.944	876.78
399.323	879.04
399.701	874.98
400.08	880.85
400.458	914.07
400.837	897.12
401.215	928.76
401.594	919.72
401.972	926.5
402.351	971.25
402.729	960.85
403.107	992.49
403.486	986.61
403.864	992.94
404.242	979.61
404.62	1013.5
404.999	1037.46
405.377	1060.28
405.755	1033.16
406.133	1046.05
406.511	1099.15
406.889	1086.04
407.267	1081.98
407.645	1109.1
408.023	1141.64
408.401	1142.09
408.779	1195.65
409.156	1193.16
409.534	1201.75
409.912	1206.95
410.29	1259.15
410.667	1281.75
411.045	1279.03
411.422	1262.31
411.8	1305.25
412.178	1301.63
412.555	1338.92
412.933	1334.85
413.31	1364.23
413.687	1398.13
414.065	1383.66
414.442	1403.32
414.819	1441.74
415.197	1455.3
415.574	1480.84
415.951	1496.43
416.328	1506.37
416.705	1521.29
417.082	1517.9
417.46	1556.09
417.837	1566.94
418.214	1575.07
418.591	1622.08
418.967	1587.27
419.344	1617.33
419.721	1684.45
420.098	1668.18
420.475	1713.82
420.852	1715.86
421.228	1682.87
421.605	1699.14
421.982	1776.2
422.358	1782.52
422.735	1824.78
423.111	1827.04
423.488	1856.42
423.864	1847.83
424.241	1866.59
424.617	1892.35
424.994	1919.24
425.37	1950.88
425.746	1967.83
426.123	1983.2
426.499	2016.87
426.875	2029.75
427.251	2083.53
427.627	2135.28
428.003	2130.09
428.379	2113.81
428.756	2161.5
429.132	2188.16
429.507	2224.77
429.883	2279.46
430.259	2275.84
430.635	2344.99
431.011	2358.33
431.387	2423.64
431.763	2432.22
432.138	2450.98
432.514	2481.04
432.89	2481.94
433.265	2592.45
433.641	2597.19
434.016	2614.59
434.392	2671.31
434.767	2706.34
435.143	2699.56
435.518	2789.05
435.894	2779.56
436.269	2810.75
436.644	2850.07
437.02	2911.99
437.395	2906.79
437.77	2937.07
438.145	3002.38
438.52	3064.75
438.895	3050.29
439.271	3080.79
439.646	3148.82
440.021	3141.58
440.395	3162.37
440.77	3148.36
441.145	3234.69
441.52	3270.85
441.895	3263.16
442.27	3300.45
442.645	3306.33
443.019	3356.95
443.394	3348.58
443.769	3412.99
444.143	3407.34
444.518	3455.25
444.892	3467
445.267	3488.24
445.641	3549.03
446.016	3540.9
446.39	3579.99
446.764	3616.37
447.139	3613.66
447.513	3633.55
447.887	3705.64
448.262	3693.89
448.636	3749.7
449.01	3797.39
449.384	3807.33
449.758	3845.75
450.132	3907.67
450.506	3917.83
450.88	3916.03
451.254	3957.61
451.628	4010.04
452.002	4104.72
452.376	4087.32
452.75	4147.66
453.123	4211.16
453.497	4216.36
453.871	4263.59
454.244	4322.8
454.618	4408.44
454.992	4458.61
455.365	4503.81
455.739	4595.78
456.112	4623.35
456.486	4700.64
456.859	4728.43
457.232	4791.71
457.606	4810.69
457.979	4871.03
458.352	4962.55
458.725	5068.54
459.099	5064.47
459.472	5152.6
459.845	5257.69
460.218	5266.5
460.591	5323.22
460.964	5326.16
461.337	5477.57
461.71	5618.13
462.083	5679.6
462.456	5620.61
462.829	5699.71
463.201	5815.64
463.574	5818.8
463.947	5958.01
464.32	6068.74
464.692	6141.51
465.065	6153.26
465.438	6245.01
465.81	6316.87
466.183	6391.89
466.555	6561.16
466.928	6581.72
467.3	6531.78
467.672	6695.61
468.045	6836.63
468.417	6843.63
468.789	6941.48
469.161	7035.49
469.534	7178.09
469.906	7291.76
470.278	7372.89
470.65	7424.64
471.022	7623.5
471.394	7734.01
471.766	7835.47
472.138	7947.11
472.51	8103.71
472.882	8202.24
473.253	8374.44
473.625	8478.39
473.997	8573.76
474.369	8643.81
474.74	8747.09
475.112	8947.53
475.484	9171.48
475.855	9171.48
476.227	9339.84
476.598	9568.53
476.97	9644.46
477.341	9915.64
477.713	10081.06
478.084	10078.8
478.455	10408.51
478.827	10509.75
479.198	10802.85
479.569	10845.79
479.94	11103.86
480.311	11220.02
480.682	11478.54
481.053	11754.92
481.424	11892.31
481.795	12081.91
482.166	12226.09
482.537	12374.79
482.908	12696.36
483.279	12726.42
483.65	13057.93
484.021	13274.65
484.391	13426.06
484.762	13575.89
485.133	13721.42
485.503	14004.12
485.874	14182.2
486.244	14353.04
486.615	14680.04
486.985	14847.72
487.356	14975.4
487.726	15231.89
488.097	15573.12
488.467	15571.99
488.837	15928.59
489.207	16129.04
489.578	16272.31
489.948	16437.96
490.318	16701.68
490.688	16771.73
491.058	17122.01
491.428	17298.95
491.798	17398.16
492.168	17754.76
492.538	17882.44
492.908	17997.24
493.278	18367.17
493.648	18472.25
494.017	18507.28
494.387	18733.72
494.757	19011.22
495.126	19090.77
495.496	19178.22
495.866	19376.19
496.235	19492.34
496.605	19788.83
496.974	19885.78
497.344	20022.95
497.713	20206.22
498.082	20426.55
498.452	20604.63
498.821	20612.31
499.19	20821.35
499.559	21010.27
499.928	21206.19
500.298	21280.77
500.667	21455.23
501.036	21455.45
501.405	21777.48
501.774	21725.95
502.143	21967.98
502.512	22075.78
502.88	22238.26
503.249	22367.29
503.618	22568.64
503.987	22588.08
504.356	22760.28
504.724	23040.72
505.093	23176.99
505.462	23193.94
505.83	23428.73
506.199	23571.1
506.567	23867.37
506.936	23880.7
507.304	24090.41
507.672	24275.72
508.041	24474.36
508.409	24667.12
508.777	24744.86
509.145	24964.51
509.514	25100.33
509.882	25295.13
510.25	25276.14
510.618	25489.02
510.986	25713.42
511.354	25848.11
511.722	26117.93
512.09	26372.61
512.458	26355.21
512.826	26723.56
513.193	26943.44
513.561	26945.03
513.929	27038.13
514.297	27362.87
514.664	27595.63
515.032	27794.04
515.4	27907.03
515.767	28126.01
516.135	28247.14
516.502	28184.99
516.869	28703.85
517.237	28824.3
517.604	28847.35
517.972	29166.44
518.339	29418.18
518.706	29379.54
519.073	29603.49
519.44	29927.55
519.808	30235.79
520.175	30292.73
520.542	30675.32
520.909	30876
521.276	30872.83
521.643	31181.52
522.009	31352.37
522.376	31760.94
522.743	31865.57
523.11	32219.01
523.477	32458.78
523.843	32779
524.21	32995.04
524.577	33204.97
524.943	33305.54
525.31	33603.16
525.676	33869.14
526.043	34069.81
526.409	34344.38
526.776	34740.98
527.142	34752.05
527.508	34972.61
527.874	35317.69
528.241	35563.78
528.607	35660.73
528.973	35990.21
529.339	35955.41
529.705	36416.64
530.071	36621.38
530.437	36747.93
530.803	37071.31
531.169	37296.84
531.535	37201.71
531.901	37356.73
532.267	37562.83
532.632	37949.71
532.998	38054.11
533.364	38260.43
533.73	38344.95
534.095	38563.93
534.461	38754.21
534.826	38840.53
535.192	39080.75
535.557	39383.79
535.923	39365.26
536.288	39495.43
536.653	39846.83
537.019	39600.29
537.384	40046.6
537.749	40162.76
538.114	40342.19
538.479	40374.73
538.845	40513.48
539.21	40576.76
539.575	40775.4
539.94	40943.3
540.305	41208.15
540.67	40942.62
541.034	41399.11
541.399	41523.17
541.764	41554.81
542.129	41762.49
542.494	41846.78
542.858	42007.68
543.223	41972.43
543.587	42410.61
543.952	42297.62
544.316	42501.68
544.681	42402.7
545.045	42937.15
545.41	42884.04
545.774	43041.55
546.138	43147.54
546.503	43226.86
546.867	43520.64
547.231	43737.13
547.595	43830.46
547.959	43911.13
548.324	43948.19
548.688	44128.08
549.052	44221.86
549.416	44413.72
549.779	44396.77
550.143	44564.68
550.507	44927.6
550.871	44888.28
551.235	44923.76
551.599	45321.49
551.962	45473.8
552.326	45475.84
552.689	45784.3
553.053	45601.48
553.417	45773.68
553.78	46339.32
554.143	46199.21
554.507	46374.57
554.87	46571.4
555.234	46780.89
555.597	46673.77
555.96	46880.1
556.323	47104.27
556.686	47216.13
557.05	47396.92
557.413	47614.09
557.776	47614.76
558.139	47911.25
558.502	47982.89
558.865	48100.18
559.228	48562.08
559.59	48561.63
559.953	48727.05
560.316	48901.06
560.679	48976.31
561.041	49258.56
561.404	49304.89
561.767	49685.44
562.129	49556.41
562.492	49987.58
562.854	49989.39
563.217	50031.2
563.579	50161.36
563.941	50437.97
564.304	50606.32
564.666	50711.86
565.028	50819.65
565.39	50878.18
565.753	51145.75
566.115	51284.05
566.477	51441.33
566.839	51475.68
567.201	51731.04
567.563	51730.81
567.925	52001.77
568.287	52002.22
568.648	52092.84
569.01	52286.05
569.372	52431.36
569.734	52345.26
570.095	52569.89
570.457	52772.6
570.819	52825.02
571.18	52902.31
571.542	53001.74
571.903	53039.26
572.265	53127.84
572.626	53176.43
572.987	53332.13
573.349	53482.18
573.71	53470.66
574.071	53576.64
574.432	53672.23
574.794	53854.83
575.155	53771.21
575.516	53780.48
575.877	53987.7
576.238	54029.74
576.599	54070.41
576.96	54047.36
577.32	54079.68
577.681	54293.91
578.042	54169.85
578.403	54261.14
578.763	54290.3
579.124	54368.94
579.485	54472.21
579.845	54618.2
580.206	54456.84
580.566	54508.6
580.927	54536.39
581.287	54603.28
581.648	54557.18
582.008	54689.16
582.368	54636.5
582.728	54734.35
583.089	54706.56
583.449	54694.35
583.809	54743.84
584.169	54805.31
584.529	54692.09
584.889	54900.68
585.249	54782.03
585.609	54713.79
585.969	54872.2
586.329	54781.13
586.688	54790.85
587.048	54849.83
587.408	54736.16
587.768	54726.44
588.127	54827.23
588.487	54732.77
588.846	54961.24
589.206	54769.15
589.565	54810.06
589.925	54865.42
590.284	54825.42
590.643	54846.89
591.003	54893.67
591.362	55018.64
591.721	54961.69
592.08	54907.23
592.44	54996.94
592.799	55095.02
593.158	54952.88
593.517	54943.61
593.876	55036.72
594.235	54944.97
594.593	54971.86
594.952	55083.5
595.311	54920.34
595.67	55035.13
596.029	55197.16
596.387	55188.35
596.746	55153.1
597.104	55123.72
597.463	55035.36
597.822	55217.5
598.18	55124.17
598.538	55130.05
598.897	55281.46
599.255	54996.27
599.613	55405.07
599.972	55311.51
600.33	55387.89
600.688	55122.59
601.046	55345.86
601.404	55453.43
601.762	55387.89
602.12	55515.12
602.478	55467.67
602.836	55525.97
603.194	55419.31
603.552	55405.52
603.91	55371.4
604.268	55569.58
604.625	55415.92
604.983	55613.2
605.341	55473.99
605.698	55585.63
606.056	55608.45
606.413	55671.5
606.771	55677.83
607.128	55738.17
607.485	55654.33
607.843	55681.9
608.2	55822.91
608.557	55892.29
608.914	55787.88
609.272	55927.99
609.629	55942.46
609.986	56017.71
610.343	55968.44
610.7	56104.49
611.057	56096.58
611.414	55991.49
611.771	56065.39
612.127	56213.41
612.484	56163.92
612.841	56301.77
613.198	56224.26
613.554	56105.39
613.911	56259.96
614.267	56273.75
614.624	56250.24
614.98	56239.4
615.337	56447.3
615.693	56323.01
616.05	56306.06
616.406	56458.83
616.762	56303.35
617.118	56392.84
617.475	56367.3
617.831	56490.01
618.187	56545.15
618.543	56487.3
618.899	56663.11
619.255	56586.05
619.611	56505.38
619.967	56612.95
620.323	56614.75
620.678	56554.42
621.034	56561.2
621.39	56532.5
621.746	56453.4
622.101	56725.03
622.457	56508.09
622.812	56612.49
623.168	56645.26
623.523	56571.59
623.879	56693.85
624.234	56551.03
624.589	56684.81
624.945	56619.5
625.3	56639.16
625.655	56576.11
626.01	56652.04
626.365	56597.58
626.72	56683.23
627.075	56598.48
627.43	56624.02
627.785	56525.94
628.14	56606.17
628.495	56559.61
628.85	56500.41
629.205	56425.61
629.559	56708.31
629.914	56466.51
630.269	56440.07
630.623	56461.31
630.978	56371.14
631.332	56481.88
631.687	56475.77
632.041	56334.99
632.396	56422.67
632.75	56235.56
633.104	56312.62
633.459	56128.44
633.813	56173.86
634.167	56229.91
634.521	56227.65
634.875	56168.21
635.229	56124.82
635.583	55926.64
635.937	55958.27
636.291	55916.47
636.645	55931.38
636.999	55903.81
637.352	55929.8
637.706	55718.28
638.06	55943.36
638.413	55867.2
638.767	55785.17
639.121	55778.17
639.474	55635.57
639.828	55626.53
640.181	55677.15
640.534	55655.23
640.888	55549.47
641.241	55426.76
641.594	55497.95
641.947	55548.79
642.301	55361.45
642.654	55488.46
643.007	55412.07
643.36	55422.7
643.713	55265.19
644.066	55352.64
644.419	55131.4
644.771	55063.61
645.124	54732.32
645.477	54660
645.83	54518.09
646.182	54363.51
646.535	54278.77
646.888	54355.38
647.24	54184.54
647.593	54285.1
647.945	54288.04
648.298	54121.26
648.65	54073.35
649.002	53961.94
649.355	54008.95
649.707	54065.22
650.059	54090.53
650.411	54511.08
650.763	54539.78
651.115	54747.23
651.467	54663.85
651.819	54669.49
652.171	54561.47
652.523	54512.89
652.875	54497.75
653.227	54406.22
653.578	54587.46
653.93	54450.97
654.282	54283.97
654.633	54289.62
654.985	54300.92
655.337	54293.69
655.688	54291.43
656.039	54409.84
656.391	54085.1
656.742	54171.43
657.094	54175.5
657.445	54183.41
657.796	54087.82
658.147	54069.51
658.498	54071.77
658.849	54104.76
659.2	54143.18
659.551	53947.03
659.902	54016.63
660.253	53986.8
660.604	54035.16
660.955	53823.87
661.306	54060.47
661.656	53831.1
662.007	53893.02
662.358	53869.29
662.708	53853.02
663.059	53799.46
663.409	53592.69
663.76	53917.65
664.11	53917.42
664.461	53822.06
664.811	53866.8
665.161	53739.35
665.511	53629.3
665.862	53679.69
666.212	53784.77
666.562	53747.49
666.912	53632.91
667.262	53686.7
667.612	53508.62
667.962	53583.65
668.312	53530.32
668.662	53631.33
669.011	53616.64
669.361	53537.77
669.711	53498.68
670.06	53315.18
670.41	53439.7
670.76	53327.38
671.109	53439.02
671.459	53339.13
671.808	53344.56
672.157	53407.16
672.507	53230.89
672.856	53323.32
673.205	53251.68
673.554	53318.34
673.904	53226.37
674.253	53358.34
674.602	53164
674.951	52752.48
675.3	52544.8
675.649	53032.25
675.998	53040.84
676.346	52960.61
676.695	53105.92
677.044	52882.42
677.393	52975.53
677.741	52930.11
678.09	52903.44
678.438	52881.75
678.787	52860.95
679.135	52838.13
679.484	52628.64
679.832	52782.54
680.181	52660.96
680.529	52671.13
680.877	52515.2
681.225	52542.55
681.573	52674.97
681.922	52482.21
682.27	52371.7
682.618	52420.97
682.966	52238.6
683.314	52364.47
683.661	52159.96
684.009	52005.38
684.357	51983.69
684.705	51875.9
685.053	51985.95
685.4	51939.4
685.748	51668.44
686.095	51757.48
686.443	51656.01
686.79	51595.23
687.138	51679.06
687.485	51591.61
687.832	51496.47
688.18	51440.88
688.527	51281.11
688.874	51263.71
689.221	51195.24
689.568	51042.7
689.915	50991.17
690.262	50829.82
690.609	50848.35
690.956	50705.53
691.303	50690.84
691.65	50541.92
691.997	50466.22
692.344	50251.98
692.69	50172.21
693.037	50396.39
693.383	49892.9
693.73	50109.16
694.077	49975.61
694.423	49905.55
694.769	49767.48
695.116	49595.73
695.462	49580.81
695.808	49481.16
696.155	49501.5
696.501	49261.95
696.847	49282.52
697.193	48935.86
697.539	49186.02
697.885	48911
698.231	48746.71
698.577	48684.79
698.923	48533.61
699.269	48450.22
699.614	48411.58
699.96	48203.9
700.306	48222.88
700.651	47982.21
700.997	47894.98
701.342	47839.84
701.688	47801.65
702.033	47713.97
702.379	47730.24
702.724	47482.79
703.069	47522.11
703.415	47106.76
703.76	47138.39
704.105	47066.53
704.45	47043.48
704.795	46774.11
705.14	46737.27
705.485	46548.8
705.83	46547.67
706.175	46455.7
706.52	46410.05
706.865	46172.32
707.209	46092.09
707.554	45970.51
707.899	46256.38
708.243	45876.73
708.588	45829.05
708.932	45437.65
709.277	45490.53
709.621	45489.17
709.966	45219.8
710.31	45341.83
710.654	44916.98
710.998	45051.67
711.342	45004.44
711.687	45000.37
712.031	44805.57
712.375	44589.99
712.719	44588.4
713.063	44514.73
713.407	44715.63
713.75	44480.61
714.094	44420.05
714.438	44112.48
714.782	44227.74
715.125	43991.81
715.469	44037.68
715.812	43815.99
716.156	43705.49
716.499	43614.42
716.843	43688.54
717.186	43424.82
717.53	43507.08
717.873	43670.24
718.216	43406.29
718.559	43221.89
718.902	42893.99
719.246	43109.12
719.589	42913.87
719.932	42734.22
720.275	42755.23
720.617	42909.35
720.96	42713.88
721.303	42622.81
721.646	42557.27
721.989	42226.88
722.331	42390.95
722.674	42326.32
723.016	42351.17
723.359	42173.33
723.701	42269.82
724.044	41992.77
724.386	41750.29
724.729	42049.49
725.071	41804.3
725.413	41759.55
725.755	41749.38
726.097	41558.2
726.439	41417.41
726.782	41519.56
727.124	41598.2
727.465	41259.23
727.807	41336.29
728.149	41113.92
728.491	41087.7
728.833	41190.3
729.175	40987.82
729.516	41016.07
729.858	40928.16
730.199	40916.86
730.541	40732.46
730.882	40678.9
731.224	40850.42
731.565	40454.05
731.906	40525.01
732.248	40432.58
732.589	40168.41
732.93	40170.44
733.271	40297.22
733.612	40298.8
733.953	40315.75
734.294	40115.75
734.635	39999.15
734.976	40040.05
735.317	39915.08
735.658	39765.03
735.999	39768.19
736.339	39655.88
736.68	39658.14
737.021	39558.48
737.361	39353.51
737.702	39736.33
738.042	39339.28
738.383	39211.37
738.723	39349.45
739.063	39078.72
739.404	39277.81
739.744	38998.95
740.084	38969.34
740.424	38904.49
740.764	38823.58
741.104	39007.08
741.444	38749.91
741.784	38680.76
742.124	38791.72
742.464	38677.82
742.804	38565.29
743.143	38591.5
743.483	38398.28
743.823	38331.39
744.162	38179.08
744.502	38128.23
744.841	38278.29
745.181	38229.93
745.52	37951.97
745.86	38006.43
746.199	38077.16
746.538	37863.61
746.877	37958.3
747.216	37859.54
747.556	37760.33
747.895	37703.84
748.234	37553.33
748.573	37465.88
748.911	37452.09
749.25	37415.94
749.589	37160.35
749.928	37257.07
750.267	37387.69
750.605	37074.7
750.944	37049.17
751.283	36929.4
751.621	36852.11
751.96	36723.75
752.298	36683.98
752.636	36628.39
752.975	36491.67
753.313	36400.14
753.651	36460.93
753.989	36371.22
754.327	36283.99
754.666	36022.3
755.004	36156.99
755.342	36068.63
755.679	35965.35
756.017	35686.94
756.355	35878.35
756.693	35710.67
757.031	35641.97
757.368	35300.51
757.706	35332.15
758.044	35267.97
758.381	35330.57
758.719	35054.87
759.056	35155.88
759.394	34975.32
759.731	34777.36
760.068	34701.43
760.405	34602.68
760.743	34436.58
761.08	34588.21
761.417	34308.45
761.754	34248.11
762.091	34063.93
762.428	34084.95
762.765	33875.01
763.102	33736.94
763.438	33753.66
763.775	33595.47
764.112	33660.78
764.449	33693.78
764.785	33382.82
765.122	33179.89
765.458	33051.53
765.795	33028.48
766.131	32823.29
766.467	32809.96
766.804	32680.24
767.14	32582.62
767.476	32476.63
767.812	32311.21
768.148	32461.49
768.485	32150.76
768.821	31962.07
769.157	31960.71
769.492	31864.44
769.828	31852.47
770.164	31543.32
770.5	31539.26
770.836	31439.15
771.171	31274.4
771.507	31150.57
771.842	31023.56
772.178	30996.44
772.513	30988.99
772.849	30701.99
773.184	30641.43
773.519	30672.16
773.855	30512.39
774.19	30395.33
774.525	30208.67
774.86	30179.74
775.195	30070.82
775.53	29983.36
775.865	29861.33
776.2	29738.62
776.535	29479.87
776.87	29387.45
777.205	29248.69
777.539	29243.72
777.874	29298.41
778.209	28884.86
778.543	28978.64
778.878	28791.53
779.212	28643.06
779.547	28599.45
779.881	28733.45
780.215	28459.56
780.55	28400.81
780.884	28157.42
781.218	28134.6
781.552	28076.75
781.886	27968.73
782.22	27864.1
782.554	27855.96
782.888	27470.66
783.222	27431.34
783.556	27322.64
783.889	27265.7
784.223	27048.98
784.557	27045.59
784.89	27083.33
785.224	26848.08
785.557	26691.7
785.891	26675.65
786.224	26593.85
786.558	26493.74
786.891	26287.19
787.224	26202.45
787.557	26142.11
787.891	26098.49
788.224	26047.42
788.557	26014.2
788.89	25903.92
789.223	25858.95
789.556	25566.98
789.888	25486.99
790.221	25541
790.554	25368.12
790.887	25331.28
791.219	25117.73
791.552	25179.87
791.884	25037.05
792.217	25030.5
792.549	24866.44
792.882	24713.45
793.214	24603.62
793.546	24692.43
793.879	24383.06
794.211	24377.41
794.543	24378.54
794.875	24342.83
795.207	24270.75
795.539	24065.33
795.871	24084.31
796.203	23906.46
796.535	23807.71
796.867	23766.35
797.198	23830.08
797.53	23637.99
797.862	23494.04
798.193	23435.06
798.525	23454.04
798.856	23472.57
799.188	23195.29
799.519	23195.29
799.85	23008.86
800.182	22983.32
800.513	22965.47
800.844	22786.27
801.175	23035.3
801.506	22834.4
801.837	22619.72
802.168	22612.26
802.499	22468.99
802.83	22496.1
803.161	22368.2
803.491	22416.11
803.822	22417.46
804.153	22305.6
804.483	22009.79
804.814	22046.62
805.145	21996
805.475	21953.29
805.805	21835.78
806.136	21831.04
806.466	21721.66
806.796	21773.64
807.126	21610.7
807.457	21557.37
807.787	21529.58
808.117	21370.48
808.447	21348.11
808.777	21351.73
809.107	21211.84
809.436	21166.87
809.766	21233.99
810.096	21156.7
810.426	21001.91
810.755	21069.25
811.085	20888.46
811.414	20930.27
811.744	20642.14
812.073	20667.22
812.403	20555.36
812.732	20594.23
813.061	20584.97
813.39	20415.25
813.719	20288.93
814.049	20403.73
814.378	20347.23
814.707	20334.58
815.036	20263.39
815.365	20113.57
815.693	19900.01
816.022	19982.5
816.351	19946.11
816.68	19810.52
817.008	19880.35
817.337	19688.04
817.665	19744.09
817.994	19727.59
818.322	19774.14
818.651	19647.59
818.979	19486.47
819.307	19601.49
819.636	19554.94
819.964	19400.59
820.292	19490.53
820.62	19399.24
820.948	19449.18
821.276	19425
821.604	19404.43
821.932	19350.88
822.259	19444.21
822.587	19313.81
822.915	19328.05
823.243	19400.37
823.57	19391.33
823.898	19308.39
824.225	19260.48
824.553	19198.56
824.88	19231.56
825.207	19367.15
825.535	19296.41
825.862	19376.41
826.189	19207.38
826.516	19311.1
826.843	19334.6
827.17	19281.72
827.497	19230.43
827.824	19197.89
828.151	19222.29
828.478	19293.93
828.805	19366.47
829.131	19223.65
829.458	19184.78
829.785	19065.46
830.111	19155.85
830.438	19275.4
830.764	19236.75
831.09	19205.57
831.417	19066.82
831.743	19188.39
832.069	19168.73
832.395	19130.32
832.722	19112.46
833.048	19063.65
833.374	18993.14
833.7	18972.81
834.026	18890.55
834.351	18978.68
834.677	19003.54
835.003	18943.43
835.329	18967.83
835.654	18980.94
835.98	18861.85
836.306	18848.29
836.631	18762.64
836.956	18860.94
837.282	18742.53
837.607	18687.62
837.932	18624.57
838.258	18611.46
838.583	18672.25
838.908	18565.81
839.233	18564.68
839.558	18574.62
839.883	18520.16
840.208	18344.57
840.533	18372.6
840.858	18426.15
841.182	18395.42
841.507	18363.78
841.832	18234.97
842.156	18262.54
842.481	18218.25
842.805	18215.54
843.13	18175.99
843.454	18097.8
843.778	18002.66
844.103	17940.74
844.427	17943
844.751	17905.04
845.075	17914.08
845.399	17813.74
845.723	17751.37
846.047	17721.99
846.371	17525.61
846.695	17589.11
847.019	17391.6
847.343	17382.11
847.666	17280.87
847.99	17224.83
848.313	17204.27
848.637	17071.84
848.96	16977.15
849.284	16986.19
849.607	16916.59
849.931	16746.65
850.254	16642.47
850.577	16596.82
850.9	16626.43
851.223	16539.88
851.546	16373.55
851.869	16288.36
852.192	16473.21
852.515	16225.08
852.838	16163.16
853.161	16173.56
853.483	16040.91
853.806	15994.13
854.129	15965.2
854.451	15880.91
854.774	15881.59
855.096	15826.45
855.419	15803.17
855.741	15734.47
856.063	15655.61
856.385	15583.52
856.708	15608.37
857.03	15472.56
857.352	15477.76
857.674	15441.6
857.996	15376.29
858.318	15309.85
858.64	15278.67
858.961	15177.88
859.283	15263.07
859.605	15127.48
859.926	15169.74
860.248	15131.78
860.57	14936.75
860.891	15000.26
861.212	14940.14
861.534	14884.1
861.855	14905.34
862.176	14920.71
862.498	14879.58
862.819	14828.28
863.14	14790.54
863.461	14777.44
863.782	14687.04
864.103	14657.21
864.424	14650.43
864.745	14691.56
865.065	14578.57
865.386	14609.08
865.707	14560.72
866.027	14564.56
866.348	14469.87
866.668	14429.65
866.989	14384.23
867.309	14299.03
867.63	14311.91
867.95	14338.13
868.27	14266.26
868.59	14318.47
868.91	14308.75
869.23	14229.65
869.55	14241.86
869.87	14248.41
870.19	14127.06
870.51	14191.24
870.83	14178.36
871.15	13981.53
871.469	14039.38
871.789	14174.06
872.109	14094.06
872.428	14028.3
872.748	14096.55
873.067	14003.67
873.386	13999.15
873.706	13951.7
874.025	13827.4
874.344	13814.3
874.663	13895.43
874.982	13886.61
875.301	13803.68
875.62	13715.54
875.939	13654.3
876.258	13748.76
876.577	13704.24
876.896	13720.97
877.214	13584.25
877.533	13633.06
877.852	13544.47
878.17	13717.13
878.489	13536.79
878.807	13618.82
879.125	13521.42
879.444	13548.32
879.762	13454.76
880.08	13491.14
880.398	13408.21
880.716	13371.6
881.034	13381.77
881.352	13356
881.67	13344.93
881.988	13316.68
882.306	13275.78
882.624	13191.04
882.941	13177.93
883.259	13081.44
883.577	13125.95
883.894	13033.53
884.212	13101.55
884.529	13060.19
884.846	12989.23
885.164	13000.31
885.481	12998.95
885.798	12944.94
886.115	12797.38
886.432	12916.92
886.75	12765.74
887.067	12760.31
887.383	12780.65
887.7	12766.64
888.017	12645.51
888.334	12652.52
888.651	12655.91
888.967	12615.23
889.284	12600.09
889.6	12562.58
889.917	12348.57
890.233	12424.96
890.55	12359.42
890.866	12415.24
891.182	12383.15
891.498	12323.04
891.815	12270.38
892.131	12262.7
892.447	12174.79
892.763	12161.91
893.079	12105.42
893.395	12085.3
893.71	12019.32
894.026	11975.7
894.342	12017.06
894.657	11867.68
894.973	11950.84
895.289	11889.15
895.604	11910.17
895.92	11766.44
896.235	11666.11
896.55	11717.86
896.865	11765.09
897.181	11587.69
897.496	11627.46
897.811	11568.71
898.126	11480.57
898.441	11456.62
898.756	11412.33
899.071	11440.8
899.386	11404.87
899.7	11283.74
900.015	11220.92
900.33	11228.6
900.644	11188.6
900.959	11160.81
901.273	11168.04
901.588	11049.4
901.902	10981.83
902.216	10948.38
902.531	10923.98
902.845	10892.79
903.159	10808.95
903.473	10792.23
903.787	10767.6
904.101	10645.34
904.415	10734.15
904.729	10663.42
905.042	10519.92
905.356	10598.56
905.67	10481.05
905.984	10457.1
906.297	10517.44
906.611	10386.37
906.924	10375.07
907.237	10359.02
907.551	10277.89
907.864	10278.57
908.177	10225.24
908.491	10187.73
908.804	10049.43
909.117	10097.79
909.43	10015.75
909.743	9987.96
910.056	9958.81
910.368	9936.66
910.681	9845.59
910.994	9857.79
911.307	9807.85
911.619	9723.33
911.932	9749.09
912.244	9660.73
912.557	9643.33
912.869	9621.87
913.181	9537.12
913.494	9553.39
913.806	9509.55
914.118	9415.09
914.43	9390.91
914.742	9384.36
915.054	9303.68
915.366	9298.48
915.678	9201.99
915.99	9185.72
916.302	9119.96
916.613	9093.07
916.925	9081.09
917.236	9065.5
917.548	8988.21
917.859	8935.1
918.171	8961.54
918.482	8872.73
918.794	8886.29
919.105	8813.07
919.416	8684.94
919.727	8718.61
920.038	8760.19
920.349	8706.18
920.66	8639.52
920.971	8644.72
921.282	8510.26
921.593	8431.39
921.903	8468.68
922.214	8433.42
922.525	8406.3
922.835	8393.42
923.146	8267.78
923.456	8262.35
923.767	8268.91
924.077	8252.64
924.387	8206.76
924.697	8102.81
925.008	8117.27
925.318	8101.23
925.628	8096.03
925.938	8087.22
926.248	7932.64
926.558	7878.18
926.867	7903.94
927.177	7885.41
927.487	7798.18
927.796	7759.54
928.106	7746.43
928.416	7688.13
928.725	7710.73
929.034	7668.02
929.344	7671.41
929.653	7641.58
929.962	7535.82
930.271	7531.75
930.581	7535.37
930.89	7462.15
931.199	7423.51
931.508	7388.93
931.817	7423.28
932.125	7350.06
932.434	7263.96
932.743	7217.18
933.051	7197.52
933.36	7180.8
933.669	7163.4
933.977	7098.32
934.286	7121.14
934.594	7091.99
934.902	7052.67
935.21	6995.27
935.519	7015.83
935.827	6983.52
936.135	6897.42
936.443	6815.16
936.751	6872.33
937.059	6889.73
937.367	6805.67
937.674	6676.86
937.982	6754.37
938.29	6700.81
938.597	6684.09
938.905	6675.73
939.213	6594.83
939.52	6516.41
939.827	6527.48
940.135	6482.06
940.442	6465.34
940.749	6451.55
941.056	6487.94
941.363	6402.52
941.67	6407.49
941.977	6358.45
942.284	6296.53
942.591	6293.14
942.898	6234.61
943.205	6244.33
943.511	6219.92
943.818	6258.34
944.125	6158.91
944.431	6147.38
944.738	6086.82
945.044	6109.64
945.35	5992.13
945.657	6027.84
945.963	6029.87
946.269	5976.31
946.575	5942.41
946.881	5901.96
947.187	5836.65
947.493	5851.12
947.799	5879.59
948.105	5829.87
948.41	5796.2
948.716	5830.55
949.022	5699.93
949.327	5742.65
949.633	5612.48
949.938	5657.9
950.244	5680.27
950.549	5588.75
950.854	5517.57
951.16	5534.97
951.465	5506.49
951.77	5530.67
952.075	5470.34
952.38	5416.55
952.685	5457.23
952.99	5359.38
953.294	5395.54
953.599	5383.78
953.904	5362.09
954.209	5338.14
954.513	5348.31
954.818	5216.11
955.122	5277.8
955.426	5212.26
955.731	5199.61
956.035	5196.9
956.339	5068.09
956.643	5108.54
956.948	5116.22
957.252	5093.4
957.556	5077.58
957.86	5042.33
958.163	5067.41
958.467	4971.14
958.771	4944.47
959.075	4934.98
959.378	4954.64
959.682	4879.17
959.985	4890.46
960.289	4836.23
960.592	4824.25
960.896	4801.65
961.199	4781.09
961.502	4826.51
961.805	4716.46
962.108	4691.37
962.411	4710.58
962.714	4639.85
963.017	4678.72
963.32	4671.26
963.623	4640.53
963.926	4604.14
964.228	4571.38
964.531	4518.5
964.833	4549.68
965.136	4552.85
965.438	4497.25
965.741	4453.64
966.043	4412.29
966.345	4452.06
966.648	4394.66
966.95	4374.09
967.252	4347.65
967.554	4355.79
967.856	4327.09
968.158	4296.36
968.46	4316.92
968.761	4273.08
969.063	4234.21
969.365	4254.55
969.666	4191.95
969.968	4145.85
970.269	4193.08
970.571	4188.34
970.872	4172.52
971.174	4122.8
971.475	4132.07
971.776	4120.09
972.077	4053.65
972.378	4080.54
972.679	4009.36
972.98	4034.22
973.281	3988.34
973.582	3949.47
973.883	3949.7
974.183	3939.3
974.484	3948.79
974.785	3944.5
975.085	3905.41
975.386	3884.84
975.686	3827.44
975.986	3832.19
976.287	3821.57
976.587	3748.35
976.887	3776.6
977.187	3789.25
977.487	3791.96
977.787	3733.88
978.087	3725.3
978.387	3673.55
978.687	3693.43
978.987	3646.88
979.286	3650.05
979.586	3670.38
979.885	3614.79
980.185	3595.13
980.484	3617.05
980.784	3543.16
981.083	3513.78
981.382	3511.07
981.682	3537.05
981.981	3509.26
982.28	3458.86
982.579	3472.42
982.878	3476.04
983.177	3402.82
983.475	3460.22
983.774	3386.32
984.073	3375.02
984.372	3389.49
984.67	3395.36
984.969	3344.52
985.267	3351.97
985.566	3365.08
985.864	3313.78
986.162	3287.57
986.461	3256.38
986.759	3273.33
987.057	3203.5
987.355	3183.39
987.653	3204.86
987.951	3204.63
988.249	3134.13
988.547	3152.43
988.844	3140
989.142	3142.49
989.44	3149.04
989.737	3078.76
990.035	3096.39
990.332	3035.6
990.63	3053.68
990.927	3074.02
991.224	3007.35
991.521	3007.12
991.819	2966.22
992.116	2995.15
992.413	2975.71
992.71	2926.22
993.006	2924.87
993.303	2939.78
993.6	2941.36
993.897	2913.57
994.193	2885.09
994.49	2861.14
994.787	2842.38
995.083	2809.39
995.379	2849.61
995.676	2813.68
995.972	2805.55
996.268	2785.66
996.565	2826.11
996.861	2787.7
997.157	2758.54
997.453	2727.36
997.749	2712.89
998.044	2648.94
998.34	2706.57
998.636	2659.79
998.932	2674.03
999.227	2655.04
999.523	2648.72
999.818	2615.72
1000.114	2602.16
1000.409	2578.89
1000.704	2552.67
1001	2546.57
1001.295	2528.94
1001.59	2523.52
1001.885	2508.15
1002.18	2474.71
1002.475	2479.23
1002.77	2497.31
1003.065	2431.77
1003.359	2436.29
1003.654	2435.61
1003.949	2420.02
1004.243	2401.94
1004.538	2413.24
1004.832	2417.08
1005.127	2343.19
1005.421	2352.23
1005.715	2300.93
1006.009	2332.34
1006.304	2309.97
1006.598	2285.56
1006.892	2252.34
1007.186	2257.31
1007.48	2273.36
1007.773	2244.21
1008.067	2212.12
1008.361	2178.45
1008.655	2222.74
1008.948	2177.54
1009.242	2190.2
1009.535	2148.16
1009.829	2153.14
1010.122	2166.02
1010.415	2118.79
1010.708	2111.1
1011.001	2109.07
1011.295	2082.4
1011.588	2052.8
1011.881	2059.58
1012.173	2040.14
1012.466	2026.13
1012.759	2037.66
1013.052	2024.33
1013.344	1999.47
1013.637	1998.34
1013.93	1985.91
1014.222	1947.94
1014.514	1964.21
1014.807	1919.92
1015.099	1906.59
1015.391	1885.8
1015.683	1898.68
1015.976	1883.76
1016.268	1908.62
1016.56	1844.22
1016.851	1860.26
1017.143	1830.43
1017.435	1846.25
1017.727	1813.48
1018.018	1791.56
1018.31	1773.26
1018.602	1787.27
1018.893	1795.63
1019.185	1750.21
1019.476	1771.68
1019.767	1711.57
1020.058	1709.76
1020.35	1714.73
1020.641	1682.64
1020.932	1675.63
1021.223	1693.03
1021.514	1613.26
1021.804	1657.56
1022.095	1642.41
1022.386	1627.73
1022.677	1616.88
1022.967	1609.65
1023.258	1591.79
1023.548	1568.74
1023.839	1574.85
1024.129	1576.2
1024.419	1580.5
1024.709	1557.22
1025	1551.12
1025.29	1510.89
1025.58	1485.58
1025.87	1488.52
1026.16	1479.71
1026.449	1479.03
1026.739	1468.41
1027.029	1453.94
1027.319	1453.27
1027.608	1447.17
1027.898	1425.25
1028.187	1390.67
1028.477	1432.25
1028.766	1410.56
1029.055	1377.11
1029.344	1380.5
1029.634	1392.25
1029.923	1384.57
1030.212	1382.53
1030.501	1368.3
1030.79	1323.78
1031.078	1331.01
1031.367	1289.2
1031.656	1330.56
1031.945	1293.27
1032.233	1273.84
1032.522	1258.7
1032.81	1272.93
1033.099	1253.95
1033.387	1231.58
1033.675	1264.12
1033.963	1221.18
1034.251	1232.71
1034.54	1228.19
1034.828	1220.73
1035.116	1202.88
1035.403	1200.39
1035.691	1174.86
1035.979	1173.5
1036.267	1200.62
1036.554	1159.49
1036.842	1123.56
1037.129	1135.99
1037.417	1107.74
1037.704	1128.53
1037.992	1110
1038.279	1119.26
1038.566	1107.74
1038.853	1107.74
1039.14	1107.74
