Data from white_wall_FLMS001491_037.txt Node
Date: Tue Feb 07 11:04:18 GMT 2017
User: dcchb
Spectrometer: FLMS00149
Trigger mode: 0
Integration Time (sec): 2.000000E-2
Scans to average: 10
Electric dark correction enabled: true
Nonlinearity correction enabled: false
Boxcar width: 0
XAxis mode: Wavelengths
Number of Pixels in Spectrum: 2048
>>>>>Begin Spectral Data<<<<<
341.393	-15.31
341.776	-15.31
342.16	-15.31
342.543	-75.42
342.927	-68.87
343.31	-51.02
343.693	-72.71
344.077	-50.79
344.46	-54.18
344.843	-70.68
345.226	-38.81
345.61	-34.52
345.993	-27.29
346.376	-11.92
346.759	10.45
347.142	18.81
347.525	28.08
347.908	73.5
348.291	89.77
348.674	88.64
349.057	102.65
349.44	144.91
349.823	131.58
350.206	162.54
350.588	208.64
350.971	215.19
351.354	248.19
351.737	261.97
352.119	271.24
352.502	282.08
352.884	284.34
353.267	286.83
353.65	319.82
354.032	317.56
354.414	307.85
354.797	332.48
355.179	340.16
355.562	320.5
355.944	339.71
356.326	351.46
356.709	347.17
357.091	336.32
357.473	377.67
357.855	355.3
358.238	356.66
358.62	337.45
359.002	362.53
359.384	336.32
359.766	355.08
360.148	359.37
360.53	353.95
360.912	347.17
361.294	330.22
361.676	345.13
362.057	351.91
362.439	352.82
362.821	340.16
363.203	342.19
363.584	331.35
363.966	338.58
364.348	354.4
364.729	348.52
365.111	337.22
365.493	342.42
365.874	330.9
366.256	345.36
366.637	307.39
367.019	332.7
367.4	323.21
367.781	334.51
368.163	329.99
368.544	344.91
368.925	335.41
369.306	327.05
369.688	329.77
370.069	327.96
370.45	338.35
370.831	336.77
371.212	327.28
371.593	329.31
371.974	344.68
372.355	345.13
372.736	329.99
373.117	333.16
373.498	342.19
373.879	339.26
374.26	319.14
374.641	344
375.021	342.42
375.402	340.84
375.783	363.44
376.163	346.26
376.544	350.78
376.925	359.37
377.305	359.82
377.686	372.7
378.066	334.28
378.447	347.39
378.827	344
379.208	377.67
379.588	351.01
379.968	371.57
380.349	345.13
380.729	371.35
381.109	365.02
381.489	360.05
381.87	353.72
382.25	379.48
382.63	382.87
383.01	372.02
383.39	379.26
383.77	362.53
384.15	394.62
384.53	404.34
384.91	372.93
385.29	370.22
385.67	377
386.049	389.42
386.429	404.34
386.809	402.98
387.189	405.7
387.568	417.67
387.948	412.7
388.328	416.77
388.707	404.11
389.087	416.77
389.466	441.85
389.846	424.45
390.225	433.04
390.605	429.88
390.984	440.5
391.363	440.95
391.743	428.29
392.122	427.16
392.501	459.25
392.881	459.03
393.26	473.72
393.639	455.64
394.018	471.23
394.397	484.79
394.776	476.65
395.155	501.51
395.534	475.07
395.913	522.75
396.292	508.74
396.671	543.55
397.05	535.64
397.429	530.21
397.808	547.16
398.186	543.77
398.565	556.88
398.944	567.95
399.323	569.76
399.701	584.22
400.08	607.27
400.458	610.89
400.837	619.93
401.215	606.59
401.594	618.35
401.972	616.99
402.351	670.32
402.729	649.3
403.107	666.48
403.486	677.55
403.864	692.24
404.242	696.08
404.62	728.17
404.999	720.72
405.377	737.44
405.755	749.64
406.133	781.96
406.511	785.12
406.889	789.64
407.267	776.53
407.645	849.07
408.023	826.93
408.401	824.44
408.779	856.98
409.156	853.37
409.534	902.86
409.912	908.28
410.29	934.04
410.667	936.53
411.045	944.44
411.422	943.08
411.8	974.95
412.178	998.9
412.555	995.96
412.933	1023.76
413.31	1021.05
413.687	1027.6
414.065	1056.98
414.442	1084.55
414.819	1116.19
415.197	1113.47
415.574	1152.12
415.951	1151.44
416.328	1137.43
416.705	1166.58
417.082	1140.59
417.46	1188.95
417.837	1199.8
418.214	1204.32
418.591	1206.13
418.967	1255.84
419.344	1248.39
419.721	1256.52
420.098	1262.4
420.475	1310.53
420.852	1271.89
421.228	1316.18
421.605	1305.33
421.982	1329.29
422.358	1312.34
422.735	1342.62
423.111	1387.14
423.488	1375.84
423.864	1413.13
424.241	1434.6
424.617	1435.95
424.994	1470.3
425.37	1482.96
425.746	1492.45
426.123	1509.4
426.499	1514.59
426.875	1533.12
427.251	1562.95
427.627	1589.39
428.003	1614.25
428.379	1603.4
428.756	1654.48
429.132	1686.34
429.507	1703.51
429.883	1706
430.259	1707.13
430.635	1752.1
431.011	1745.32
431.387	1786.22
431.763	1839.78
432.138	1846.34
432.514	1891.08
432.89	1897.86
433.265	1968.59
433.641	1914.58
434.016	1941.7
434.392	2017.86
434.767	2014.01
435.143	2046.1
435.518	2045.43
435.894	2065.31
436.269	2115.48
436.644	2142.6
437.02	2191.19
437.395	2208.13
437.77	2201.81
438.145	2240.45
438.52	2251.75
438.895	2288.58
439.271	2280.22
439.646	2369.71
440.021	2336.27
440.395	2390.28
440.77	2342.59
441.145	2394.8
441.52	2448.58
441.895	2431.63
442.27	2454.23
442.645	2443.38
443.019	2474.12
443.394	2516.6
443.769	2537.84
444.143	2529.48
444.518	2584.62
444.892	2579.42
445.267	2595.92
445.641	2610.61
446.016	2660.33
446.39	2671.17
446.764	2718.86
447.139	2678.4
447.513	2748.46
447.887	2747.55
448.262	2760.44
448.636	2810.6
449.01	2799.98
449.384	2819.19
449.758	2870.49
450.132	2945.97
450.506	2936.7
450.88	2960.66
451.254	2946.42
451.628	2964.5
452.002	3027.77
452.376	3025.29
452.75	3037.94
453.123	3120.43
453.497	3200.42
453.871	3188
454.244	3253.3
454.618	3263.02
454.992	3331.72
455.365	3328.33
455.739	3420.98
456.112	3437.93
456.486	3498.04
456.859	3548.66
457.232	3578.27
457.606	3571.04
457.979	3645.38
458.352	3687.64
458.725	3755.44
459.099	3768.77
459.472	3912.72
459.845	3915.66
460.218	3926.05
460.591	3980.74
460.964	3968.99
461.337	4111.13
461.71	4128.99
462.083	4180.74
462.456	4182.55
462.829	4240.17
463.201	4307.29
463.574	4389.55
463.947	4439.94
464.32	4461.41
464.692	4538.02
465.065	4569.2
465.438	4642.42
465.81	4700.27
466.183	4741.63
466.555	4828.4
466.928	4927.84
467.3	4888.06
467.672	5000.6
468.045	5138.23
468.417	5132.58
468.789	5130.09
469.161	5211.22
469.534	5289.63
469.906	5422.29
470.278	5501.61
470.65	5550.19
471.022	5669.51
471.394	5772.56
471.766	5806.91
472.138	5927.13
472.51	6041.48
472.882	6170.06
473.253	6194.24
473.625	6241.47
473.997	6386.78
474.369	6490.96
474.74	6565.08
475.112	6675.36
475.484	6774.12
475.855	6917.84
476.227	6940.66
476.598	7186.31
476.97	7191.05
477.341	7451.39
477.713	7517.37
478.084	7530.93
478.455	7767.31
478.827	7874.43
479.198	8042.33
479.569	8145.15
479.94	8316.67
480.311	8437.8
480.682	8646.16
481.053	8777
481.424	8991.91
481.795	9035.07
482.166	9186.93
482.537	9327.95
482.908	9558.68
483.279	9577.43
483.65	9830.53
484.021	10009.06
484.391	10099.23
484.762	10189.62
485.133	10287.47
485.503	10427.8
485.874	10723.16
486.244	10739.66
486.615	11002.25
486.985	11147.33
487.356	11302.58
487.726	11455.12
488.097	11621.22
488.467	11712.74
488.837	11990.48
489.207	12135.1
489.578	12254.65
489.948	12386.4
490.318	12567.41
490.688	12612.83
491.058	12857.35
491.428	13048.75
491.798	13201.07
492.168	13370.33
492.538	13483.32
492.908	13661.39
493.278	13850.54
493.648	13979.8
494.017	14062.29
494.387	14189.29
494.757	14344.09
495.126	14497.53
495.496	14522.84
495.866	14729.61
496.235	14845.09
496.605	15016.38
496.974	15101.35
497.344	15258.41
497.713	15278.3
498.082	15557.16
498.452	15617.95
498.821	15789.25
499.19	15825.63
499.559	15995.57
499.928	16200.08
500.298	16300.64
500.667	16430.13
501.036	16484.82
501.405	16676.91
501.774	16648.88
502.143	16885.04
502.512	16897.47
502.88	17191.47
503.249	17182.43
503.618	17295.42
503.987	17423.33
504.356	17515.08
504.724	17683.21
505.093	17735.86
505.462	17856.08
505.83	18104.21
506.199	18229.41
506.567	18365.45
506.936	18416.52
507.304	18615.61
507.672	18745.1
508.041	18790.97
508.409	19007.47
508.777	19176.73
509.145	19402.03
509.514	19387.8
509.882	19604.96
510.25	19644.06
510.618	19758.18
510.986	19959.53
511.354	20094.44
511.722	20247.43
512.09	20513.42
512.458	20343.02
512.826	20635.9
513.193	20766.29
513.561	20874.31
513.929	21028.43
514.297	21286.28
514.664	21414.18
515.032	21480.17
515.4	21737.11
515.767	21810.56
516.135	21849.65
516.502	21837.67
516.869	22290.09
517.237	22430.65
517.604	22344.55
517.972	22701.15
518.339	22802.39
518.706	22966.46
519.073	23107.92
519.44	23257.52
519.808	23353.79
520.175	23497.97
520.542	23797.85
520.909	23945.42
521.276	23977.96
521.643	24282.58
522.009	24549.69
522.376	24527.55
522.743	24810.03
523.11	25046.4
523.477	25308.09
523.843	25403.68
524.21	25750.11
524.577	25826.04
524.943	25919.83
525.31	26131.12
525.676	26372.02
526.043	26434.84
526.409	26699.69
526.776	26908.73
527.142	27077.31
527.508	27147.82
527.874	27474.14
528.241	27499.45
528.607	27651.98
528.973	27809.49
529.339	27982.15
529.705	28330.39
530.071	28376.26
530.437	28583.71
530.803	28743.71
531.169	28992.74
531.535	28973.76
531.901	29022.8
532.267	29276.57
532.632	29357.48
532.998	29430.7
533.364	29664.36
533.73	29757.92
534.095	30058.25
534.461	30212.6
534.826	30339.37
535.192	30336.21
535.557	30716.31
535.923	30661.4
536.288	30821.84
536.653	31053.93
537.019	30927.15
537.384	31293.7
537.749	31350.64
538.114	31267.48
538.479	31393.13
538.845	31598.55
539.21	31605.55
539.575	31730.3
539.94	31857.98
540.305	32101.36
540.67	32114.92
541.034	32222.71
541.399	32352.65
541.764	32579.09
542.129	32723.49
542.494	32740.44
542.858	32929.59
543.223	32953.77
543.587	33116.25
543.952	33087.77
544.316	33289.8
544.681	33262.46
545.045	33431.95
545.41	33742.45
545.774	33945.15
546.138	33856.34
546.503	34052.04
546.867	34159.38
547.231	34494.97
547.595	34492.71
547.959	34657.22
548.324	34663.1
548.688	34871.91
549.052	35057.67
549.416	35080.26
549.779	35200.03
550.143	35285
550.507	35459.46
550.871	35599.35
551.235	35633.24
551.599	35915.72
551.962	36012.67
552.326	36042.72
552.689	36397.07
553.053	36341.47
553.417	36422.83
553.78	36984.62
554.143	36825.75
554.507	37022.81
554.87	37316.59
555.234	37575.11
555.597	37411.5
555.96	37666.18
556.323	38012.62
556.686	37835.9
557.05	38207.87
557.413	38361.99
557.776	38436.11
558.139	38855.53
558.502	38860.05
558.865	39055.98
559.228	39258.91
559.59	39340.27
559.953	39500.71
560.316	39905
560.679	39919.91
561.041	40017.76
561.404	40261.6
561.767	40544.08
562.129	40445.77
562.492	40890.51
562.854	40970.05
563.217	40876.72
563.579	41093.21
563.941	41355.13
564.304	41528.46
564.666	41821.33
565.028	41903.36
565.39	42122.34
565.753	42273.75
566.115	42372.73
566.477	42487.53
566.839	42573.17
567.201	42976.78
567.563	42883.22
567.925	43164.12
568.287	43263.78
568.648	43414.28
569.01	43710.09
569.372	43894.95
569.734	43743.54
570.095	44166.13
570.457	44349.4
570.819	44269.85
571.18	44292.45
571.542	44601.6
571.903	44554.82
572.265	44925.43
572.626	44882.94
572.987	44935.82
573.349	45084.52
573.71	45184.86
574.071	45345.53
574.432	45527.45
574.794	45672.75
575.155	45826.42
575.516	45577.39
575.877	45733.77
576.238	45867.33
576.599	46049.02
576.96	46028.22
577.32	46103.93
577.681	46238.16
578.042	46407.88
578.403	46445.16
578.763	46281.1
579.124	46537.36
579.485	46609.9
579.845	46768.77
580.206	46635.44
580.566	46837.47
580.927	46666.85
581.287	46954.75
581.648	46813.29
582.008	46956.34
582.368	46896
582.728	47046.28
583.089	46946.62
583.449	46961.31
583.809	46978.26
584.169	47065.26
584.529	47005.15
584.889	47300.73
585.249	47066.62
585.609	47042.21
585.969	47133.28
586.329	47107.97
586.688	47191.13
587.048	47216.22
587.408	47105.03
587.768	47051.93
588.127	47073.62
588.487	47040.4
588.846	47304.35
589.206	47225.26
589.565	47034.07
589.925	47211.7
590.284	47189.78
590.643	47295.76
591.003	47227.97
591.362	47329.21
591.721	47298.02
592.08	47273.16
592.44	47412.6
592.799	47276.33
593.158	47310.45
593.517	47218.7
593.876	47338.7
594.235	47197.69
594.593	47411.01
594.952	47386.16
595.311	47249.66
595.67	47314.97
596.029	47596.77
596.387	47618.24
596.746	47582.76
597.104	47489.66
597.463	47537.79
597.822	47646.71
598.18	47465.7
598.538	47672.93
598.897	47808.06
599.255	47427.28
599.613	48004.67
599.972	47802.19
600.33	47907.72
600.688	47731.23
601.046	47814.62
601.404	48070.66
601.762	47840.15
602.12	47984.56
602.478	47995.86
602.836	48020.49
603.194	47880.83
603.552	47974.16
603.91	47785.01
604.268	48061.84
604.625	48003.54
604.983	48057.55
605.341	47917.89
605.698	48223.65
606.056	48317.43
606.413	48223.87
606.771	48341.38
607.128	48300.26
607.485	48084.67
607.843	48248.73
608.2	48530.76
608.557	48620.7
608.914	48521.49
609.272	48665.67
609.629	48689.4
609.986	48896.85
610.343	48660.7
610.7	48929.39
611.057	48763.75
611.414	48832.67
611.771	48850.3
612.127	49003.29
612.484	48950.63
612.841	49139.56
613.198	48921.03
613.554	49038.77
613.911	49121.93
614.267	49224.52
614.624	49114.02
614.98	49287.35
615.337	49395.37
615.693	49295.94
616.05	49085.77
616.406	49590.62
616.762	49418.64
617.118	49342.26
617.475	49386.33
617.831	49516.72
618.187	49514.23
618.543	49531.41
618.899	49727.79
619.255	49555.59
619.611	49625.87
619.967	49744.74
620.323	49932.75
620.678	49626.77
621.034	49683.72
621.39	49598.3
621.746	49549.94
622.101	49956.94
622.457	49698.41
622.812	49732.08
623.168	49736.15
623.523	49776.15
623.879	49876.71
624.234	49570.73
624.589	49843.04
624.945	49768.01
625.3	49795.36
625.655	49885.3
626.01	49824.06
626.365	49833.32
626.72	49805.75
627.075	49787.9
627.43	49754.68
627.785	49627
628.14	49820.89
628.495	49811.18
628.85	49729.82
629.205	49685.08
629.559	49767.34
629.914	49671.29
630.269	49755.36
630.623	49751.06
630.978	49535.7
631.332	49821.12
631.687	49828.35
632.041	49667.45
632.396	49676.49
632.75	49504.07
633.104	49546.32
633.459	49343.62
633.813	49460.45
634.167	49486.21
634.521	49358.31
634.875	49499.32
635.229	49383.16
635.583	49108.6
635.937	49198.76
636.291	49174.81
636.645	49150.18
636.999	49189.95
637.352	49263.39
637.706	48805.78
638.06	49147.92
638.413	49110.18
638.767	48914.48
639.121	49016.39
639.474	48747.7
639.828	48771.43
640.181	48754.48
640.534	48751.99
640.888	48768.94
641.241	48537.31
641.594	48560.81
641.947	48768.49
642.301	48506.13
642.654	48486.01
643.007	48581.83
643.36	48426.13
643.713	48345
644.066	48513.58
644.419	48324.21
644.771	48024.33
645.124	47672.02
645.477	47553.61
645.83	47260.28
646.182	47351.13
646.535	47097.35
646.888	47312.26
647.24	47045.15
647.593	47213.96
647.945	47035.43
648.298	46891.7
648.65	46749.34
649.002	46721.31
649.355	46817.81
649.707	46810.58
650.059	46889.67
650.411	47225.71
650.763	47438.36
651.115	47786.82
651.467	47604.23
651.819	47563.55
652.171	47477.45
652.523	47446.72
652.875	47571.69
653.227	47270.23
653.578	47552.03
653.93	47357.91
654.282	47157.01
654.633	47154.07
654.985	47074.98
655.337	47155.88
655.688	47174.18
656.039	47341.41
656.391	46868.88
656.742	47135.54
657.094	47025.94
657.445	47040.4
657.796	46914.76
658.147	47038.59
658.498	46962.44
658.849	46993.62
659.2	46807.64
659.551	46698.94
659.902	46885.83
660.253	46954.98
660.604	46828.2
660.955	46766.96
661.306	46862.55
661.656	46651.94
662.007	46637.7
662.358	46596.57
662.708	46497.82
663.059	46738.04
663.409	46367.42
663.76	46645.84
664.11	46645.16
664.461	46545.5
664.811	46484.71
665.161	46504.82
665.511	46445.16
665.862	46347.31
666.212	46504.37
666.562	46548.21
666.912	46520.87
667.262	46313.87
667.612	46312.29
667.962	46333.75
668.312	46306.64
668.662	46447.2
669.011	46313.19
669.361	46365.39
669.711	46173.31
670.06	46333.08
670.41	46113.65
670.76	46109.58
671.109	46135.79
671.459	46091.27
671.808	46106.19
672.157	46232.06
672.507	45858.51
672.856	45959.75
673.205	46045.4
673.554	46023.71
673.904	45837.95
674.253	46148
674.602	45928.79
674.951	45314.35
675.3	45156.38
675.649	45768.8
675.998	45762.02
676.346	45745.97
676.695	45900.54
677.044	45484.06
677.393	45553.66
677.741	45676.6
678.09	45508.92
678.438	45471.4
678.787	45548.92
679.135	45486.54
679.484	45268.24
679.832	45432.99
680.181	45161.35
680.529	45207.46
680.877	45014.92
681.225	45011.08
681.573	45221.24
681.922	44805.66
682.27	44756.85
682.618	44838.43
682.966	44725.21
683.314	44797.52
683.661	44615.61
684.009	44520.69
684.357	44302.39
684.705	44264.66
685.053	44346.24
685.4	44087.71
685.748	44006.58
686.095	43983.08
686.443	43849.07
686.79	43715.29
687.138	43844.1
687.485	43921.84
687.832	43607.27
688.18	43593.71
688.527	43412.25
688.874	43385.81
689.221	43306.26
689.568	43108.98
689.915	43094.29
690.262	43004.58
690.609	42860.4
690.956	42770.46
691.303	42777.69
691.65	42588.99
691.997	42632.83
692.344	42401.88
692.69	42302.67
693.037	42277.81
693.383	41922.12
693.73	42082.34
694.077	41851.16
694.423	42007.31
694.769	41778.62
695.116	41614.33
695.462	41621.56
695.808	41394.22
696.155	41545.4
696.501	41313.77
696.847	41286.65
697.193	40926.89
697.539	41133.44
697.885	40809.6
698.231	40706.33
698.577	40608.03
698.923	40629.04
699.269	40359.9
699.614	40224.31
699.96	40096.4
700.306	40188.15
700.651	39931.44
700.997	39837.88
701.342	39921.49
701.688	39876.07
702.033	39520.15
702.379	39642.86
702.724	39398.79
703.069	39490.77
703.415	39038.8
703.76	39111.57
704.105	39092.81
704.45	39000.16
704.795	38685.37
705.14	38715.42
705.485	38618.02
705.83	38589.78
706.175	38404.24
706.52	38396.56
706.865	38252.38
707.209	38279.73
707.554	38053.97
707.899	38307.3
708.243	38043.8
708.588	37956.12
708.932	37722.91
709.277	37743.47
709.621	37777.14
709.966	37428.45
710.31	37545.28
710.654	37210.38
710.998	37366.98
711.342	37332.18
711.687	37156.37
712.031	37066.43
712.375	36980.33
712.719	37075.69
713.063	36905.98
713.407	36911.85
713.75	36776.72
714.094	36901.23
714.438	36652.88
714.782	36703.95
715.125	36417.63
715.469	36490.17
715.812	36368.82
716.156	36231.65
716.499	36163.17
716.843	36242.49
717.186	36041.59
717.53	36174.7
717.873	36172.44
718.216	36126.56
718.559	35901.94
718.902	35740.81
719.246	35739
719.589	35637.09
719.932	35433.93
720.275	35559.12
720.617	35602.28
720.96	35452.91
721.303	35439.8
721.646	35484.55
721.989	35176.53
722.331	35420.14
722.674	35048.17
723.016	35073.94
723.359	35054.73
723.701	35040.72
724.044	34790.78
724.386	34620.39
724.729	34793.49
725.071	34674.62
725.413	34717.34
725.755	34600.73
726.097	34415.65
726.439	34352.6
726.782	34374.97
727.124	34472.37
727.465	34290.68
727.807	34252.72
728.149	34161.42
728.491	34038.94
728.833	34187.18
729.175	33880.07
729.516	33894.53
729.858	33826.74
730.199	33996.22
730.541	33725.27
730.882	33799.62
731.224	33764.37
731.565	33542.45
731.906	33578.83
732.248	33582.9
732.589	33389.46
732.93	33318.28
733.271	33444.37
733.612	33377.71
733.953	33357.82
734.294	33262.68
734.635	33170.03
734.976	33174.78
735.317	33010.04
735.658	33072.63
735.999	33039.19
736.339	32885.07
736.68	33114.89
737.021	32845.97
737.361	32646.66
737.702	32779.76
738.042	32793.09
738.383	32666.77
738.723	32689.37
739.063	32538.64
739.404	32661.12
739.744	32393.1
740.084	32331.64
740.424	32430.16
740.764	32257.51
741.104	32399.66
741.444	32163.5
741.784	32057.52
742.124	32154.92
742.464	32119.44
742.804	31935.49
743.143	32009.84
743.483	31888.03
743.823	31702.5
744.162	31864.76
744.502	31907.24
744.841	31766.68
745.181	31801.48
745.52	31549.51
745.86	31587.7
746.199	31513.35
746.538	31520.58
746.877	31528.49
747.216	31547.02
747.556	31440.59
747.895	31356.07
748.234	31256.64
748.573	31213.93
748.911	31130.99
749.25	31154.72
749.589	30987.04
749.928	30973.48
750.267	31053.25
750.605	30939.81
750.944	30818.23
751.283	30744.33
751.621	30759.93
751.96	30491.68
752.298	30649.19
752.636	30568.74
752.975	30365.13
753.313	30174.63
753.651	30405.81
753.989	30215.76
754.327	30166.49
754.666	30003.56
755.004	30157
755.342	30093.05
755.679	29973.28
756.017	29834.07
756.355	29860.51
756.693	29629.79
757.031	29816.67
757.368	29617.58
757.706	29698.94
758.044	29557.02
758.381	29463.46
758.719	29341.43
759.056	29385.05
759.394	29246.07
759.731	29049.91
760.068	28982.35
760.405	28925.85
760.743	28750.49
761.08	28956.36
761.417	28699.19
761.754	28662.35
762.091	28571.96
762.428	28462.13
762.765	28271.63
763.102	28377.16
763.438	28282.02
763.775	28145.08
764.112	28014.69
764.449	28172.65
764.785	27989.15
765.122	27649.95
765.458	27714.36
765.795	27633.68
766.131	27562.27
766.467	27496.51
766.804	27335.83
767.14	27146.91
767.476	27217.42
767.812	27122.28
768.148	27046.8
768.485	26969.52
768.821	26761.16
769.157	26717.09
769.492	26667.15
769.828	26608.4
770.164	26451.56
770.5	26375.86
770.836	26339.02
771.171	26203.21
771.507	26146.26
771.842	25871.92
772.178	25905.36
772.513	25781.53
772.849	25796.44
773.184	25676.44
773.519	25758.93
773.855	25364.36
774.19	25288.43
774.525	25280.3
774.86	25204.59
775.195	25102.9
775.53	25143.58
775.865	24902.23
776.2	24835.56
776.535	24685.28
776.87	24610.93
777.205	24530.03
777.539	24422.69
777.874	24538.85
778.209	24335.69
778.543	24212.98
778.878	24004.4
779.212	24158.29
779.547	24019.31
779.881	23959.65
780.215	23838.53
780.55	23911.07
780.884	23702.48
781.218	23561.02
781.552	23617.74
781.886	23481.47
782.22	23347.47
782.554	23267.47
782.888	23083.97
783.222	23078.32
783.556	22936.18
783.889	22884.43
784.223	22629.74
784.557	22625.9
784.89	22628.16
785.224	22594.49
785.557	22387.26
785.891	22296.87
786.224	22299.36
786.558	22210.77
786.891	22050.78
787.224	22021.62
787.557	21940.95
787.891	21896.2
788.224	21893.72
788.557	21828.18
788.89	21685.36
789.223	21692.59
789.556	21469.1
789.888	21528.98
790.221	21438.81
790.554	21267.97
790.887	21267.75
791.219	21169.44
791.552	21112.95
791.884	20938.04
792.217	20948.66
792.549	20889
792.882	20830.7
793.214	20799.51
793.546	20716.8
793.879	20620.31
794.211	20435
794.543	20460.31
794.875	20437.03
795.207	20433.87
795.539	20335.79
795.871	20351.84
796.203	20113.65
796.535	20035.24
796.867	19937.84
797.198	19966.09
797.53	19988.01
797.862	19810.61
798.193	19827.33
798.525	19703.04
798.856	19671.4
799.188	19537.85
799.519	19513.89
799.85	19421.24
800.182	19392.31
800.513	19285.88
800.844	19095.6
801.175	19297.4
801.506	19221.92
801.837	19053.34
802.168	19034.81
802.499	18890.18
802.83	18838.66
803.161	18834.14
803.491	18835.04
803.822	18814.03
804.153	18746.68
804.483	18520.47
804.814	18581.49
805.145	18502.85
805.475	18413.13
805.805	18436.41
806.136	18434.37
806.466	18280.48
806.796	18313.47
807.126	18153.48
807.457	18138.34
807.787	18036.42
808.117	18196.41
808.447	18016.76
808.777	18061.28
809.107	17927.04
809.436	17963.88
809.766	17844.11
810.096	17760.95
810.426	17720.27
810.755	17709.87
811.085	17701.06
811.414	17612.93
811.744	17528.64
812.073	17521.63
812.403	17480.5
812.732	17374.29
813.061	17378.13
813.39	17237.34
813.719	17235.08
814.049	17321.18
814.378	17163.22
814.707	17035.77
815.036	17144.01
815.365	17017.01
815.693	16845.26
816.022	16889.56
816.351	16814.98
816.68	16707.41
817.008	16778.6
817.337	16677.36
817.665	16662.22
817.994	16548.32
818.322	16586.51
818.651	16553.52
818.979	16502.22
819.307	16496.8
819.636	16390.13
819.964	16289.12
820.292	16319.85
820.62	16331.38
820.948	16372.06
821.276	16448.89
821.604	16331.38
821.932	16382.9
822.259	16389.68
822.587	16353.3
822.915	16260.65
823.243	16299.74
823.57	16245.96
823.898	16302.45
824.225	16187.88
824.553	16263.36
824.88	16230.14
825.207	16267.43
825.535	16166.86
825.862	16214.09
826.189	16122.57
826.516	16287.31
826.843	16274.2
827.17	16353.3
827.497	16290.93
827.824	16240.99
828.151	16258.39
828.478	16219.52
828.805	16228.78
829.131	16203.47
829.458	16193.08
829.785	16071.27
830.111	16173.87
830.438	16226.07
830.764	16128.67
831.09	16205.51
831.417	16021.56
831.743	16118.28
832.069	16071.95
832.395	15996.02
832.722	16121.44
833.048	15989.92
833.374	16094.32
833.7	15945.17
834.026	16014.55
834.351	15995.79
834.677	15897.04
835.003	15876.48
835.329	15897.94
835.654	15917.38
835.98	15824.73
836.306	15839.41
836.631	15829.47
836.956	15875.12
837.282	15828.11
837.607	15686.42
837.932	15631.28
838.258	15693.2
838.583	15727.33
838.908	15602.81
839.233	15710.15
839.558	15576.37
839.883	15586.99
840.208	15505.41
840.533	15497.28
840.858	15486.65
841.182	15517.61
841.507	15389.93
841.832	15358.97
842.156	15297.06
842.481	15380.67
842.805	15281.46
843.13	15297.96
843.454	15255.93
843.778	15236.49
844.103	15074.24
844.427	15112.88
844.751	15056.61
845.075	15065.65
845.399	14968.48
845.723	14991.98
846.047	14897.74
846.371	14793.11
846.695	14777.97
847.019	14631.08
847.343	14686.22
847.666	14568.71
847.99	14525.78
848.313	14510.86
848.637	14399.45
848.96	14408.49
849.284	14337.31
849.607	14232.68
849.931	14229.06
850.254	14114.04
850.577	14048.5
850.9	13951.55
851.223	13955.85
851.546	13877.43
851.869	13789.52
852.192	13851.44
852.515	13662.75
852.838	13680.6
853.161	13661.84
853.483	13519.7
853.806	13428.18
854.129	13492.13
854.451	13480.61
854.774	13336.65
855.096	13333.49
855.419	13376.43
855.741	13294.85
856.063	13199.48
856.385	13162.2
856.708	13117
857.03	13047.4
857.352	13199.71
857.674	13135.76
857.996	12993.16
858.318	12870.68
858.64	12937.8
858.961	12778.7
859.283	12782.55
859.605	12787.52
859.926	12690.8
860.248	12758.82
860.57	12669.78
860.891	12765.6
861.212	12613.28
861.534	12623.23
861.855	12573.51
862.176	12649.22
862.498	12547.3
862.819	12567.64
863.14	12490.35
863.461	12352.27
863.782	12334.42
864.103	12465.94
864.424	12425.04
864.745	12382.33
865.065	12298.94
865.386	12211.71
865.707	12267.3
866.027	12220.98
866.348	12148.89
866.668	12216.91
866.989	12123.81
867.309	12066.86
867.63	12178.49
867.95	12023.47
868.27	12002
868.59	12051.72
868.91	11981.66
869.23	12048.78
869.55	11903.92
869.87	12088.78
870.19	11922.68
870.51	11990.02
870.83	11961.78
871.15	11895.79
871.469	11870.93
871.789	11879.97
872.109	11842.23
872.428	11772.4
872.748	11777.15
873.067	11742.35
873.386	11777.37
873.706	11795.68
874.025	11734.44
874.344	11739.18
874.663	11723.59
874.982	11665.74
875.301	11618.06
875.62	11649.69
875.939	11590.94
876.258	11586.42
876.577	11525.18
876.896	11523.37
877.214	11545.06
877.533	11576.93
877.852	11418.06
878.17	11487.44
878.489	11461.22
878.807	11464.61
879.125	11433.65
879.444	11449.7
879.762	11404.28
880.08	11392.3
880.398	11301
880.716	11330.38
881.034	11294.9
881.352	11261
881.67	11275.92
881.988	11260.33
882.306	11214.22
882.624	11181.01
882.941	11168.35
883.259	11093.55
883.577	11078.86
883.894	11103.27
884.212	11028.69
884.529	11091.06
884.846	11047.45
885.164	11022.37
885.481	10991.86
885.798	10934.91
886.115	10828.25
886.432	10790.51
886.75	10849.26
887.067	10774.69
887.383	10822.82
887.7	10847
888.017	10655.37
888.334	10793.67
888.651	10739.89
888.967	10612.43
889.284	10632.77
889.6	10603.62
889.917	10538.31
890.233	10576.95
890.55	10468.93
890.866	10417.86
891.182	10476.39
891.498	10388.94
891.815	10421.25
892.131	10344.19
892.447	10366.11
892.763	10223.97
893.079	10285.21
893.395	10224.19
893.71	10212.44
894.026	10135.16
894.342	10115.72
894.657	10157.53
894.973	10012.45
895.289	10033.46
895.604	10026.91
895.92	9993.47
896.235	9904.88
896.55	9957.08
896.865	9845.22
897.181	9850.42
897.496	9874.15
897.811	9806.13
898.126	9695.85
898.441	9729.07
898.756	9686.81
899.071	9708.05
899.386	9649.75
899.7	9632.12
900.015	9501.95
900.33	9491.78
900.644	9471.22
900.959	9414.5
901.273	9376.99
901.588	9361.84
901.902	9317.55
902.216	9289.3
902.531	9232.81
902.845	9222.86
903.159	9230.77
903.473	9158.91
903.787	9166.37
904.101	9070.33
904.415	9100.16
904.729	9069.87
905.042	8990.55
905.356	9004.11
905.67	8955.75
905.984	8894.74
906.297	8886.38
906.611	8853.16
906.924	8885.7
907.237	8838.47
907.551	8759.15
907.864	8723.22
908.177	8685.93
908.491	8692.71
908.804	8644.57
909.117	8613.16
909.43	8508.08
909.743	8523
910.056	8449.78
910.368	8423.11
910.681	8416.11
910.994	8348.31
911.307	8356.45
911.619	8272.16
911.932	8287.52
912.244	8230.12
912.557	8224.25
912.869	8188.32
913.181	8145.15
913.494	8051.37
913.806	8028.32
914.118	8018.38
914.43	8001.65
914.742	8021.31
915.054	7886.63
915.366	7894.09
915.678	7867.42
915.99	7769.34
916.302	7766.41
916.613	7752.17
916.925	7696.8
917.236	7725.96
917.548	7636.69
917.859	7637.14
918.171	7625.39
918.482	7504.72
918.794	7518.73
919.105	7508.33
919.416	7458.84
919.727	7391.73
920.038	7416.36
920.349	7368.22
920.66	7322.35
920.971	7300.43
921.282	7268.57
921.593	7189.25
921.903	7188.79
922.214	7198.51
922.525	7154.44
922.835	7080.77
923.146	7068.57
923.456	7053.88
923.767	7004.39
924.077	7031.96
924.387	6953.77
924.697	6961.23
925.008	6970.49
925.318	6911.51
925.628	6867.67
925.938	6874.9
926.248	6801.01
926.558	6746.09
926.867	6743.61
927.177	6703.38
927.487	6689.37
927.796	6586.32
928.106	6640.56
928.416	6584.52
928.725	6572.54
929.034	6516.04
929.344	6525.08
929.653	6506.55
929.962	6412.77
930.271	6460.23
930.581	6384.52
930.89	6376.84
931.199	6347.23
931.508	6336.84
931.817	6320.34
932.125	6241.02
932.434	6274.24
932.743	6155.15
933.051	6170.97
933.36	6139.56
933.669	6112.66
933.977	6126.45
934.286	6102.27
934.594	6046.9
934.902	6034.7
935.21	5987.7
935.519	5982.05
935.827	5935.95
936.135	5909.73
936.443	5886.46
936.751	5852.33
937.059	5819.79
937.367	5782.05
937.674	5756.97
937.982	5754.93
938.29	5748.38
938.597	5707.03
938.905	5651.43
939.213	5675.16
939.52	5590.19
939.827	5580.93
940.135	5600.36
940.442	5586.35
940.749	5546.35
941.056	5493.92
941.363	5499.8
941.67	5498.22
941.977	5442.85
942.284	5435.17
942.591	5420.25
942.898	5362.4
943.205	5361.95
943.511	5279.92
943.818	5315.62
944.125	5262.29
944.431	5285.79
944.738	5205.12
945.044	5220.48
945.35	5187.04
945.657	5120.83
945.963	5137.1
946.269	5086.7
946.575	5122.18
946.881	5019.81
947.187	5029.75
947.493	4977.33
947.799	5002.64
948.105	4921.28
948.41	4949.3
948.716	4943.2
949.022	4936.42
949.327	4931.68
949.633	4867.73
949.938	4874.05
950.244	4861.17
950.549	4807.84
950.854	4781.17
951.16	4795.41
951.465	4739.14
951.77	4755.86
952.075	4699.37
952.38	4684.91
952.685	4691.68
952.99	4615.98
953.294	4630.44
953.599	4602.65
953.904	4559.48
954.209	4567.85
954.513	4548.19
954.818	4570.78
955.122	4520.62
955.426	4506.38
955.731	4420.96
956.035	4462.76
956.339	4409.88
956.643	4411.69
956.948	4371.92
957.252	4338.25
957.556	4324.69
957.86	4314.75
958.163	4335.76
958.467	4285.14
958.771	4321.07
959.075	4248.08
959.378	4224.13
959.682	4219.38
959.985	4205.37
960.289	4196.1
960.592	4201.98
960.896	4157.01
961.199	4108.2
961.502	4073.17
961.805	4106.39
962.108	4064.81
962.411	4074.75
962.714	4015.32
963.017	4035.43
963.32	4030.01
963.623	3987.75
963.926	3971.25
964.228	3956.34
964.531	3976.68
964.833	3917.02
965.136	3870.92
965.438	3882.89
965.741	3851.25
966.043	3842.22
966.345	3827.3
966.648	3809
966.95	3788.88
967.252	3715.44
967.554	3764.03
967.856	3730.35
968.158	3709.79
968.46	3720.64
968.761	3702.11
969.063	3699.17
969.365	3646.74
969.666	3665.5
969.968	3634.31
970.269	3618.49
970.571	3641.09
970.872	3604.93
971.174	3551.83
971.475	3560.64
971.776	3547.99
972.077	3550.47
972.378	3511.15
972.679	3501.21
972.98	3439.06
973.281	3474.99
973.582	3448.55
973.883	3429.8
974.183	3437.48
974.484	3432.96
974.785	3415.33
975.085	3401.1
975.386	3390.02
975.686	3348.44
975.986	3313.19
976.287	3338.73
976.587	3316.35
976.887	3240.88
977.187	3265.51
977.487	3289.01
977.787	3266.64
978.087	3242.91
978.387	3227.54
978.687	3237.49
978.987	3171.27
979.286	3199.75
979.586	3162.69
979.885	3133.53
980.185	3126.08
980.484	3086.75
980.784	3092.86
981.083	3120.65
981.382	3100.09
981.682	3097.6
981.981	3017.83
982.28	3038.62
982.579	2982.35
982.878	3010.37
983.177	2980.32
983.475	3007.44
983.774	2975.8
984.073	2952.97
984.372	2941
984.67	2949.58
984.969	2936.48
985.267	2915.46
985.566	2903.71
985.864	2859.42
986.162	2882.47
986.461	2818.74
986.759	2810.38
987.057	2784.16
987.355	2797.27
987.653	2788.68
987.951	2745.52
988.249	2758.63
988.547	2790.27
988.844	2777.84
989.142	2699.65
989.44	2732.87
989.737	2701
990.035	2682.7
990.332	2630.72
990.63	2651.96
990.927	2683.83
991.224	2660.78
991.521	2597.73
991.819	2637.05
992.116	2657.39
992.413	2613.55
992.71	2598.86
993.006	2542.81
993.303	2583.27
993.6	2557.5
993.897	2550.72
994.193	2536.94
994.49	2493.32
994.787	2499.65
995.083	2490.16
995.379	2477.96
995.676	2469.37
995.972	2409.48
996.268	2470.5
996.565	2430.5
996.861	2417.62
997.157	2392.08
997.453	2393.89
997.749	2366.77
998.044	2367
998.34	2332.88
998.636	2364.97
998.932	2343.95
999.227	2298.98
999.523	2317.96
999.818	2290.62
1000.114	2241.58
1000.409	2284.97
1000.704	2265.08
1001	2219.66
1001.295	2253.1
1001.59	2206.33
1001.885	2195.7
1002.18	2204.29
1002.475	2167.91
1002.77	2148.02
1003.065	2129.27
1003.359	2161.81
1003.654	2154.8
1003.949	2128.81
1004.243	2102.83
1004.538	2127.68
1004.832	2122.03
1005.127	2061.02
1005.421	2068.7
1005.715	2065.09
1006.009	2064.18
1006.304	2047.91
1006.598	2032.55
1006.892	1985.99
1007.186	2011.98
1007.48	1992.09
1007.773	1976.73
1008.067	1954.36
1008.361	1962.04
1008.655	1925.88
1008.948	1955.71
1009.242	1932.44
1009.535	1897.86
1009.829	1897.63
1010.122	1848.14
1010.415	1868.93
1010.708	1904.41
1011.001	1870.74
1011.295	1827.35
1011.588	1837.97
1011.881	1816.28
1012.173	1799.33
1012.466	1818.77
1012.759	1796.17
1013.052	1788.03
1013.344	1780.35
1013.637	1790.97
1013.93	1716.4
1014.222	1720.46
1014.514	1733.57
1014.807	1748.49
1015.099	1700.58
1015.391	1696.28
1015.683	1694.25
1015.976	1684.53
1016.268	1689.73
1016.56	1674.36
1016.851	1623.06
1017.143	1645.66
1017.435	1620.8
1017.727	1636.17
1018.018	1614.93
1018.31	1615.16
1018.602	1563.86
1018.893	1575.38
1019.185	1569.51
1019.476	1558.89
1019.767	1525.89
1020.058	1522.05
1020.35	1529.73
1020.641	1497.19
1020.932	1465.33
1021.223	1486.57
1021.514	1497.42
1021.804	1460.58
1022.095	1463.07
1022.386	1455.16
1022.677	1437.53
1022.967	1455.39
1023.258	1440.92
1023.548	1386.91
1023.839	1378.78
1024.129	1399.34
1024.419	1373.58
1024.709	1387.36
1025	1357.31
1025.29	1355.73
1025.58	1351.89
1025.87	1334.26
1026.16	1321.38
1026.449	1317.08
1026.739	1306.46
1027.029	1303.3
1027.319	1309.63
1027.608	1282.51
1027.898	1283.86
1028.187	1274.83
1028.477	1273.24
1028.766	1272.11
1029.055	1254.26
1029.344	1247.03
1029.634	1221.49
1029.923	1220.82
1030.212	1220.59
1030.501	1210.42
1030.79	1196.64
1031.078	1178.78
1031.367	1190.08
1031.656	1187.6
1031.945	1161.83
1032.233	1151.66
1032.522	1171.55
1032.81	1141.27
1033.099	1114.83
1033.387	1140.82
1033.675	1100.82
1033.963	1138.11
1034.251	1116.86
1034.54	1102.4
1034.828	1080.48
1035.116	1083.87
1035.403	1056.07
1035.691	1077.09
1035.979	1052.23
1036.267	1058.56
1036.554	1045.68
1036.842	1033.93
1037.129	1052.01
1037.417	1049.75
1037.704	1025.57
1037.992	1026.47
1038.279	990.99
1038.566	1014.27
1038.853	1014.27
1039.14	1014.27
