Data from white_poster_card_FLMS001491_00096.txt Node
Date: Wed Feb 08 11:52:18 GMT 2017
User: dcchb
Spectrometer: FLMS00149
Trigger mode: 0
Integration Time (sec): 2.000000E-2
Scans to average: 10
Electric dark correction enabled: true
Nonlinearity correction enabled: false
Boxcar width: 0
XAxis mode: Wavelengths
Number of Pixels in Spectrum: 2048
>>>>>Begin Spectral Data<<<<<
341.393	-12.05
341.776	-12.05
342.16	-12.05
342.543	-57.92
342.927	-48.88
343.31	-70.8
343.693	-73.74
344.077	-46.62
344.46	-44.36
344.843	-74.87
345.226	-59.05
345.61	-31.26
345.993	-18.38
346.376	7.16
346.759	22.53
347.142	18.01
347.525	38.35
347.908	68.18
348.291	60.94
348.674	82.64
349.057	121.28
349.44	115.18
349.823	140.94
350.206	163.99
350.588	190.66
350.971	212.13
351.354	218.68
351.737	231.11
352.119	243.09
352.502	276.08
352.884	273.14
353.267	293.93
353.65	282.63
354.032	301.84
354.414	323.99
354.797	302.07
355.179	335.74
355.562	320.6
355.944	314.05
356.326	323.08
356.709	333.03
357.091	328.51
357.473	349.98
357.855	346.13
358.238	340.26
358.62	338.23
359.002	337.55
359.384	348.17
359.766	317.66
360.148	331.9
360.53	340.49
360.912	338.9
361.294	323.08
361.676	333.71
362.057	330.09
362.439	334.61
362.821	313.37
363.203	329.41
363.584	319.92
363.966	316.98
364.348	316.98
364.729	309.07
365.111	339.13
365.493	310.88
365.874	314.72
366.256	321.73
366.637	315.85
367.019	298.68
367.4	312.69
367.781	312.01
368.163	300.26
368.544	329.19
368.925	326.7
369.306	315.4
369.688	326.02
370.069	322.18
370.45	318.34
370.831	305.23
371.212	324.89
371.593	339.58
371.974	299.81
372.355	316.76
372.736	324.21
373.117	330.77
373.498	332.58
373.879	321.5
374.26	310.66
374.641	299.36
375.021	309.98
375.402	310.2
375.783	342.52
376.163	334.16
376.544	326.93
376.925	332.8
377.305	322.86
377.686	322.86
378.066	322.18
378.447	349.75
378.827	330.99
379.208	336.19
379.588	339.36
379.968	324.89
380.349	319.47
380.729	336.19
381.109	326.25
381.489	356.3
381.87	336.64
382.25	357.89
382.63	349.98
383.01	340.94
383.39	332.35
383.77	339.36
384.15	336.42
384.53	341.39
384.91	339.36
385.29	371.67
385.67	335.29
386.049	358.79
386.429	355.85
386.809	354.5
387.189	344.33
387.568	368.73
387.948	351.11
388.328	351.33
388.707	366.93
389.087	366.93
389.466	372.8
389.846	374.38
390.225	386.81
390.605	386.81
390.984	379.58
391.363	384.33
391.743	382.52
392.122	360.82
392.501	391.78
392.881	380.94
393.26	389.07
393.639	380.94
394.018	426.81
394.397	395.4
394.776	434.27
395.155	400.6
395.534	411.67
395.913	393.82
396.292	419.13
396.671	405.12
397.05	412.12
397.429	421.16
397.808	428.17
398.186	399.24
398.565	427.04
398.944	417.09
399.323	434.95
399.701	430.88
400.08	428.62
400.458	442.63
400.837	433.14
401.215	440.37
401.594	426.81
401.972	411.22
402.351	454.83
402.729	462.74
403.107	451.44
403.486	441.95
403.864	485.79
404.242	477.88
404.62	497.09
404.999	481.05
405.377	476.53
405.755	478.79
406.133	478.11
406.511	490.99
406.889	493.48
407.267	509.97
407.645	505.68
408.023	537.09
408.401	520.37
408.779	525.57
409.156	545
409.534	551.78
409.912	560.82
410.29	568.28
410.667	568.5
411.045	557.88
411.422	604.66
411.8	607.6
412.178	612.34
412.555	631.1
412.933	623.19
413.31	633.36
413.687	673.81
414.065	691.66
414.442	679.46
414.819	718.55
415.197	697.54
415.574	724.66
415.951	724.66
416.328	763.53
416.705	760.14
417.082	764.2
417.46	783.86
417.837	784.32
418.214	845.1
418.591	835.84
418.967	842.85
419.344	834.94
419.721	863.86
420.098	909.51
420.475	898.21
420.852	904.99
421.228	897.31
421.605	924.42
421.982	956.51
422.358	942.96
422.735	965.33
423.111	986.12
423.488	982.5
423.864	973.46
424.241	1019.79
424.617	1027.7
424.994	1047.36
425.37	1056.85
425.746	1044.87
426.123	1074.93
426.499	1105.89
426.875	1096.85
427.251	1129.62
427.627	1126.45
428.003	1155.15
428.379	1191.54
428.756	1224.3
429.132	1203.06
429.507	1228.37
429.883	1230.18
430.259	1280.8
430.635	1272.21
431.011	1321.25
431.387	1336.17
431.763	1353.34
432.138	1356.73
432.514	1366.9
432.89	1383.85
433.265	1418.42
433.641	1461.59
434.016	1457.07
434.392	1484.64
434.767	1478.08
435.143	1463.85
435.518	1528.93
435.894	1528.7
436.269	1498.2
436.644	1587.68
437.02	1585.2
437.395	1602.15
437.77	1618.19
438.145	1649.6
438.52	1659.55
438.895	1671.3
439.271	1666.1
439.646	1708.59
440.021	1709.04
440.395	1742.93
440.77	1720.56
441.145	1733.9
441.52	1767.34
441.895	1747.91
442.27	1790.16
442.645	1801.24
443.019	1827.9
443.394	1815.93
443.769	1877.39
444.143	1820.9
444.518	1906.32
444.892	1905.42
445.267	1886.89
445.641	1883.72
446.016	1921.91
446.39	1924.17
446.764	1949.26
447.139	1934.12
447.513	1949.48
447.887	1970.27
448.262	1968.01
448.636	1970.95
449.01	2010.05
449.384	2008.46
449.758	2039.65
450.132	2085.07
450.506	2088.24
450.88	2116.48
451.254	2103.83
451.628	2090.72
452.002	2154.22
452.376	2169.14
452.75	2175.24
453.123	2204.62
453.497	2218.18
453.871	2245.29
454.244	2286.65
454.618	2324.16
454.992	2296.82
455.365	2299.98
455.739	2370.49
456.112	2408.23
456.486	2378.17
456.859	2444.38
457.232	2521.45
457.606	2493.2
457.979	2514.21
458.352	2543.59
458.725	2575
459.099	2599.64
459.472	2673.98
459.845	2692.97
460.218	2702.91
460.591	2713.3
460.964	2713.98
461.337	2791.95
461.71	2805.05
462.083	2869.46
462.456	2871.49
462.829	2889.57
463.201	2908.33
463.574	2959.17
463.947	2962.79
464.32	3056.35
464.692	3053.86
465.065	3111.49
465.438	3120.07
465.81	3187.87
466.183	3200.98
466.555	3273.97
466.928	3301.99
467.3	3333.18
467.672	3347.86
468.045	3444.36
468.417	3426.96
468.789	3471.02
469.161	3467.63
469.534	3538.37
469.906	3659.49
470.278	3647.74
470.65	3667.63
471.022	3780.62
471.394	3813.61
471.766	3833.5
472.138	3889.54
472.51	3975.19
472.882	4000.5
473.253	4044.57
473.625	4124.11
473.997	4228.74
474.369	4251.12
474.74	4288.4
475.112	4349.87
475.484	4429.87
475.855	4438.46
476.227	4509.19
476.598	4671.67
476.97	4668.06
477.341	4809.07
477.713	4830.31
478.084	4898.33
478.455	5023.3
478.827	4996.86
479.198	5185.33
479.569	5221.04
479.94	5319.11
480.311	5392.78
480.682	5443.18
481.053	5582.83
481.424	5652.66
481.795	5716.16
482.166	5793.68
482.537	5860.57
482.908	6015.82
483.279	6070.73
483.65	6151.41
484.021	6280.44
484.391	6329.93
484.762	6397.5
485.133	6422.36
485.503	6562.69
485.874	6714.78
486.244	6784.16
486.615	6878.39
486.985	6917.94
487.356	7109.35
487.726	7103.7
488.097	7306.86
488.467	7324.03
488.837	7423.69
489.207	7570.13
489.578	7629.56
489.948	7762.44
490.318	7892.83
490.688	7903.45
491.058	8011.47
491.428	8043.56
491.798	8221.41
492.168	8375.08
492.538	8373.72
492.908	8455.07
493.278	8618.91
493.648	8595.86
494.017	8756.31
494.387	8799.47
494.757	8958.11
495.126	9006.47
495.496	8997.88
495.866	9103.64
496.235	9212.57
496.605	9253.92
496.974	9387.25
497.344	9480.13
497.713	9495.27
498.082	9502.73
498.452	9687.36
498.821	9703.18
499.19	9763.29
499.559	9871.08
499.928	9962.83
500.298	10053.68
500.667	10143.17
501.036	10114.01
501.405	10152.2
501.774	10268.36
502.143	10348.81
502.512	10365.53
502.88	10507.9
503.249	10489.82
503.618	10628.35
503.987	10661.8
504.356	10692.08
504.724	10794.45
505.093	10901.56
505.462	10967.78
505.83	10977.27
506.199	11130.26
506.567	11205.74
506.936	11246.64
507.304	11319.63
507.672	11509.91
508.041	11490.02
508.409	11589.91
508.777	11711.26
509.145	11801.43
509.514	11751.48
509.882	11954.87
510.25	11871.93
510.618	12100.4
510.986	12067.41
511.354	12227.86
511.722	12244.81
512.09	12517.79
512.458	12402.99
512.826	12540.84
513.193	12592.82
513.561	12631.91
513.929	12795.75
514.297	12890.89
514.664	12991.9
515.032	13047.72
515.4	13135.86
515.767	13235.29
516.135	13329.97
516.502	13308.96
516.869	13486.35
517.237	13590.98
517.604	13629.18
517.972	13804.31
518.339	13891.54
518.706	13879.79
519.073	13949.39
519.44	14030.07
519.808	14284.07
520.175	14315.71
520.542	14464.41
520.909	14569.94
521.276	14557.74
521.643	14709.83
522.009	14792.76
522.376	14949.37
522.743	15048.8
523.11	15287.89
523.477	15276.82
523.843	15458.73
524.21	15596.58
524.577	15745.96
524.943	15890.81
525.31	15879.06
525.676	16096.91
526.043	16179.16
526.409	16162.67
526.776	16408.76
527.142	16514.75
527.508	16562.43
527.874	16785.7
528.241	16868.86
528.607	16828.41
528.973	17085.81
529.339	17019.82
529.705	17209.87
530.071	17457.1
530.437	17493.48
530.803	17591.78
531.169	17687.83
531.535	17759.24
531.901	17821.83
532.267	18033.81
532.632	17974.15
532.998	18023.41
533.364	18215.95
533.73	18184.99
534.095	18462.72
534.461	18431.76
534.826	18662.49
535.192	18679.44
535.557	18824.07
535.923	18746.1
536.288	18824.97
536.653	18906.78
537.019	18915.14
537.384	19037.62
537.749	19168.69
538.114	19161.23
538.479	19321.46
538.845	19363.49
539.21	19315.35
539.575	19398.74
539.94	19501.34
540.305	19685.97
540.67	19590.15
541.034	19782.91
541.399	19913.53
541.764	19852.29
542.129	20003.02
542.494	20102.68
542.858	20179.51
543.223	20251.83
543.587	20323.91
543.952	20219.06
544.316	20371.82
544.681	20469
545.045	20545.38
545.41	20719.61
545.774	20633.29
546.138	20758.93
546.503	20803
546.867	20878.02
547.231	21083.22
547.595	21014.07
547.959	21130.67
548.324	21179.49
548.688	21139.03
549.052	21344.45
549.416	21312.14
549.779	21352.14
550.143	21483.21
550.507	21619.47
550.871	21725.01
551.235	21728.85
551.599	21889.75
551.962	21920.93
552.326	22050.2
552.689	22197.76
553.053	22118.22
553.417	22132.91
553.78	22434.37
554.143	22325.44
554.507	22513.46
554.87	22674.81
555.234	22760.69
555.597	22679.56
555.96	22840.91
556.323	22962.94
556.686	22957.29
557.05	23174.01
557.413	23276.83
557.776	23294.91
558.139	23509.37
558.502	23438.41
558.865	23575.81
559.228	23745.07
559.59	23799.98
559.953	23899.64
560.316	24115
560.679	24180.76
561.041	24262.12
561.404	24306.18
561.767	24459.17
562.129	24456.91
562.492	24710.24
562.854	24661.43
563.217	24726.96
563.579	24841.99
563.941	25117.69
564.304	25107.74
564.666	25359.49
565.028	25375.53
565.39	25384.35
565.753	25693.72
566.115	25795.86
566.477	25815.52
566.839	25858.46
567.201	26010.32
567.563	26126.25
567.925	26388.61
568.287	26304.55
568.648	26341.16
569.01	26535.73
569.372	26655.95
569.734	26692.11
570.095	26817.76
570.457	26917.19
570.819	26900.24
571.18	26999.67
571.542	27208.48
571.903	27153.79
572.265	27374.35
572.626	27383.62
572.987	27438.08
573.349	27571.63
573.71	27665.87
574.071	27678.75
574.432	27896.6
574.794	27900.89
575.155	28079.42
575.516	27780.67
575.877	27958.97
576.238	28043.94
576.599	28100.66
576.96	28214.1
577.32	28244.84
577.681	28370.03
578.042	28390.6
578.403	28426.3
578.763	28446.41
579.124	28464.04
579.485	28684.15
579.845	28666.75
580.206	28661.77
580.566	28633.53
580.927	28638.72
581.287	28846.4
581.648	28730.7
582.008	28899.28
582.368	28807.76
582.728	28807.76
583.089	28816.12
583.449	28859.96
583.809	28918.72
584.169	29016.34
584.529	28928.43
584.889	28981.99
585.249	28880.3
585.609	28830.36
585.969	29078.26
586.329	28912.39
586.688	29001.2
587.048	29058.83
587.408	28934.99
587.768	28991.94
588.127	28957.13
588.487	28866.06
588.846	29086.62
589.206	28890.24
589.565	28873.75
589.925	29155.09
590.284	29076.45
590.643	29087.3
591.003	29118.71
591.362	29221.99
591.721	29129.78
592.08	29108.32
592.44	29272.15
592.799	29213.17
593.158	29161.2
593.517	29163
593.876	29225.38
594.235	29121.42
594.593	29171.14
594.952	29226.28
595.311	29175.21
595.67	29164.13
596.029	29218.6
596.387	29421.75
596.746	29433.05
597.104	29221.31
597.463	29267.86
597.822	29402.32
598.18	29226.73
598.538	29351.25
598.897	29622.88
599.255	29277.35
599.613	29724.8
599.972	29426.5
600.33	29555.76
600.688	29357.12
601.046	29547.63
601.404	29621.52
601.762	29639.83
602.12	29752.37
602.478	29720.28
602.836	29769.54
603.194	29565.71
603.552	29632.37
603.91	29600.96
604.268	29897.22
604.625	29718.47
604.983	29858.58
605.341	29667.17
605.698	29973.83
606.056	30044.34
606.413	29752.14
606.771	30012.25
607.128	29959.82
607.485	29894.96
607.843	29961.85
608.2	30145.58
608.557	30184.67
608.914	30015.86
609.272	30181.06
609.629	30192.81
609.986	30241.39
610.343	30136.76
610.7	30470.54
611.057	30398.23
611.414	30451.78
611.771	30421.28
612.127	30606.81
612.484	30618.11
612.841	30630.54
613.198	30494.49
613.554	30526.58
613.911	30613.81
614.267	30653.59
614.624	30509.86
614.98	30722.29
615.337	30782.4
615.693	30773.13
616.05	30712.34
616.406	30997.98
616.762	30695.85
617.118	30791.66
617.475	30789.63
617.831	30852.45
618.187	30819.46
618.543	31006.35
618.899	31039.11
619.255	31110.52
619.611	31140.35
619.967	31144.65
620.323	31100.58
620.678	31005.22
621.034	30893.35
621.39	30843.64
621.746	30915.73
622.101	31220.35
622.457	31060.81
622.812	31045.44
623.168	31183.29
623.523	31230.97
623.879	31210.41
624.234	30862.85
624.589	31173.8
624.945	31191.2
625.3	31203.18
625.655	31227.36
626.01	31185.32
626.365	31235.94
626.72	31204.98
627.075	31052.22
627.43	31116.63
627.785	31099.9
628.14	31044.08
628.495	31040.47
628.85	31038.21
629.205	30960.7
629.559	31127.7
629.914	30976.52
630.269	31051.54
630.623	30932
630.978	30867.37
631.332	30957.99
631.687	30919.79
632.041	30937.42
632.396	30854.03
632.75	30677.77
633.104	30820.81
633.459	30628.95
633.813	30671.67
634.167	30608.16
634.521	30634.38
634.875	30581.95
635.229	30448.85
635.583	30222.19
635.937	30393.25
636.291	30376.31
636.645	30324.78
636.999	30173.37
637.352	30256.31
637.706	30018.35
638.06	30370.2
638.413	30149.19
638.767	30026.03
639.121	30236.42
639.474	30041.17
639.828	29949.88
640.181	30032.13
640.534	29942.42
640.888	29826.94
641.241	29864.91
641.594	29858.35
641.947	29823.1
642.301	29706.72
642.654	29739.49
643.007	29749.43
643.36	29661.97
643.713	29856.55
644.066	29714.63
644.419	29634.4
644.771	29365.71
645.124	29032.16
645.477	29058.6
645.83	28855.44
646.182	28814.54
646.535	28607.99
646.888	28700.64
647.24	28504.04
647.593	28630.36
647.945	28666.29
648.298	28454.55
648.65	28346.75
649.002	28271.73
649.355	28447.54
649.707	28360.99
650.059	28381.56
650.411	28799.17
650.763	28777.03
651.115	29110.12
651.467	29084.81
651.819	28985.38
652.171	28833.52
652.523	28835.33
652.875	28947.42
653.227	28725.95
653.578	28901.77
653.93	28845.95
654.282	28635.11
654.633	28632.17
654.985	28557.82
655.337	28603.7
655.688	28518.05
656.039	28771.83
656.391	28473.53
656.742	28512.17
657.094	28506.98
657.445	28585.62
657.796	28500.87
658.147	28427.2
658.498	28524.6
658.849	28429.01
659.2	28374.78
659.551	28344.95
659.902	28410.48
660.253	28384.72
660.604	28405.96
660.955	28228.34
661.306	28420.88
661.656	28219.98
662.007	28277.6
662.358	28248.45
662.708	28187.44
663.059	28348.79
663.409	28054.56
663.76	28261.56
664.11	28084.16
664.461	28087.78
664.811	28169.13
665.161	28081.45
665.511	28133.88
665.862	27994.45
666.212	28085.07
666.562	28090.94
666.912	28163.26
667.262	28129.13
667.612	28039.87
667.962	28076.48
668.312	27942.25
668.662	28152.86
669.011	28019.08
669.361	28034.22
669.711	27918.29
670.06	28000.78
670.41	27845.07
670.76	27954.67
671.109	27913.32
671.459	27904.28
671.808	27820.89
672.157	27817.73
672.507	27692.08
672.856	27682.37
673.205	27646.66
673.554	27797.84
673.904	27610.5
674.253	27856.37
674.602	27783.38
674.951	27308.82
675.3	27104.3
675.649	27473.56
675.998	27463.84
676.346	27537.74
676.695	27664.29
677.044	27423.16
677.393	27530.05
677.741	27577.74
678.09	27394.24
678.438	27353.56
678.787	27375.25
679.135	27376.84
679.484	27191.08
679.832	27357.18
680.181	27176.39
680.529	27245.54
680.877	27178.2
681.225	27094.36
681.573	27244.86
681.922	27060.46
682.27	27098.88
682.618	27090.52
682.966	26951.99
683.314	26999.67
683.661	26929.39
684.009	26784.31
684.357	26746.34
684.705	26656.86
685.053	26791.09
685.4	26744.31
685.748	26390.2
686.095	26505.22
686.443	26413.25
686.79	26353.36
687.138	26368.73
687.485	26332.8
687.832	26251.22
688.18	26179.81
688.527	26111.79
688.874	26007.16
689.221	26032.47
689.568	25925.35
689.915	25973.94
690.262	25867.95
690.609	25832.47
690.956	25768.97
691.303	25687.16
691.65	25500.28
691.997	25543.44
692.344	25463.21
692.69	25392.71
693.037	25343.67
693.383	25072.26
693.73	25272.71
694.077	25106.39
694.423	25018.25
694.769	25018.93
695.116	24935.32
695.462	24798.83
695.808	24721.09
696.155	24781.65
696.501	24580.07
696.847	24568.77
697.193	24498.49
697.539	24652.16
697.885	24385.28
698.231	24310.02
698.577	24324.49
698.923	24252.85
699.269	24139.86
699.614	24006.08
699.96	23993.2
700.306	23875.46
700.651	23832.98
700.997	23835.69
701.342	23776.71
701.688	23772.41
702.033	23650.61
702.379	23633.43
702.724	23484.28
703.069	23548.91
703.415	23270.73
703.76	23273.89
704.105	23362.48
704.45	23208.81
704.795	23105.54
705.14	23076.61
705.485	23064.63
705.83	22881.59
706.175	22913.68
706.52	22976.5
706.865	22834.81
707.209	22810.4
707.554	22713.23
707.899	22711.2
708.243	22657.86
708.588	22532.44
708.932	22362.05
709.277	22515.04
709.621	22466.91
709.966	22344.2
710.31	22329.06
710.654	22134.04
710.998	22159.57
711.342	22150.53
711.687	22119.35
712.031	22038.67
712.375	21792.58
712.719	21987.83
713.063	21900.82
713.407	21949.41
713.75	21810.2
714.094	21789.19
714.438	21694.95
714.782	21795.74
715.125	21508.74
715.469	21714.39
715.812	21564.33
716.156	21448.4
716.499	21351.01
716.843	21477.33
717.186	21214.29
717.53	21402.08
717.873	21411.57
718.216	21311.69
718.559	21158.47
718.902	21048.42
719.246	21092.03
719.589	21081.63
719.932	20976.1
720.275	21061.52
720.617	20931.81
720.96	20765.49
721.303	20932.26
721.646	20807.97
721.989	20714.41
722.331	20711.25
722.674	20709.22
723.016	20678.71
723.359	20646.62
723.701	20690.23
724.044	20417.02
724.386	20333.63
724.729	20545.38
725.071	20398.94
725.413	20323.69
725.755	20408.21
726.097	20330.69
726.439	20127.99
726.782	20172.05
727.124	20306.29
727.465	20139.51
727.807	20191.26
728.149	20096.35
728.491	20112.39
728.833	20011.61
729.175	19962.79
729.516	19974.09
729.858	19884.6
730.199	19905.17
730.541	19862.91
730.882	19862.91
731.224	19878.73
731.565	19743.59
731.906	19749.69
732.248	19698.17
732.589	19588.57
732.93	19586.76
733.271	19552.18
733.612	19513.54
733.953	19636.48
734.294	19501.11
734.635	19437.16
734.976	19477.16
735.317	19408.01
735.658	19266.09
735.999	19467.89
736.339	19280.55
736.68	19376.37
737.021	19215.7
737.361	19117.62
737.702	19235.81
738.042	19187.67
738.383	19150.16
738.723	19221.8
739.063	19023.16
739.404	19121.91
739.744	19102.48
740.084	19008.7
740.424	19067.22
740.764	18938.64
741.104	19009.6
741.444	18920.56
741.784	18843.73
742.124	18871.3
742.464	18912.65
742.804	18720.79
743.143	18759.44
743.483	18722.83
743.823	18638.99
744.162	18564.41
744.502	18654.35
744.841	18537.97
745.181	18586.56
745.52	18543.17
745.86	18653
746.199	18520.57
746.538	18402.61
746.877	18471.08
747.216	18378.2
747.556	18462.72
747.895	18314.02
748.234	18290.75
748.573	18295.49
748.911	18268.15
749.25	18145.44
749.589	18164.42
749.928	18090.08
750.267	18183.86
750.605	18053.92
750.944	18027.93
751.283	17957.88
751.621	17950.87
751.96	17839.69
752.298	17807.6
752.636	17806.92
752.975	17730.99
753.313	17708.16
753.651	17742.74
753.989	17619.81
754.327	17534.61
754.666	17502.75
755.004	17627.04
755.342	17498.45
755.679	17595.17
756.017	17515.85
756.355	17431.56
756.693	17394.05
757.031	17397.44
757.368	17279.93
757.706	17222.08
758.044	17166.71
758.381	17249.87
758.719	17162.87
759.056	17070.22
759.394	17093.04
759.731	16879.71
760.068	16906.38
760.405	16854.85
760.743	16851.46
761.08	16834.29
761.417	16759.26
761.754	16698.25
762.091	16692.37
762.428	16632.71
762.765	16475.43
763.102	16479.27
763.438	16307.75
763.775	16409.44
764.112	16343.45
764.449	16322.66
764.785	16250.12
765.122	16222.55
765.458	16106.85
765.795	16126.29
766.131	16056
766.467	15990.24
766.804	15965.61
767.14	15871.83
767.476	15928.32
767.812	15783.47
768.148	15711.83
768.485	15643.59
768.821	15645.39
769.157	15558.84
769.492	15521.78
769.828	15501.89
770.164	15286.31
770.5	15324.5
770.836	15292.18
771.171	15237.95
771.507	15301.45
771.842	15122.7
772.178	15142.81
772.513	15032.98
772.849	14986.88
773.184	14974.45
773.519	14841.8
773.855	14718.64
774.19	14831.86
774.525	14780.33
774.86	14718.64
775.195	14727.68
775.53	14646.32
775.865	14550.51
776.2	14467.12
776.535	14362.26
776.87	14405.2
777.205	14265.09
777.539	14241.36
777.874	14335.6
778.209	14100.35
778.543	14064.64
778.878	14008.15
779.212	14012.22
779.547	14006.11
779.881	13951.2
780.215	13911.65
780.55	13810.87
780.884	13721.6
781.218	13674.37
781.552	13719.12
781.886	13669.63
782.22	13629.85
782.554	13508.05
782.888	13351.22
783.222	13318.9
783.556	13289.3
783.889	13297.88
784.223	13194.38
784.557	13204.55
784.89	13237.77
785.224	13099.7
785.557	13010.43
785.891	13021.06
786.224	12939.02
786.558	12975.41
786.891	12879.82
787.224	12737.67
787.557	12709.88
787.891	12703.78
788.224	12651.8
788.557	12725.92
788.89	12622.42
789.223	12600.73
789.556	12499.26
789.888	12538.36
790.221	12384.01
790.554	12385.59
790.887	12360.73
791.219	12346.72
791.552	12312.6
791.884	12208.65
792.217	12195.77
792.549	12132.27
792.882	12012.49
793.214	11964.13
793.546	12028.77
793.879	11950.12
794.211	11832.16
794.543	11943.8
794.875	11851.6
795.207	11804.14
795.539	11727.98
795.871	11797.36
796.203	11693.18
796.535	11617.7
796.867	11604.37
797.198	11549.91
797.53	11538.84
797.862	11445.28
798.193	11484.37
798.525	11407.77
798.856	11350.82
799.188	11318.73
799.519	11233.98
799.85	11171.61
800.182	11183.36
800.513	11182.23
800.844	11161.22
801.175	11121.9
801.506	11137.72
801.837	11090.71
802.168	11074.89
802.499	11033.31
802.83	10998.28
803.161	10906.31
803.491	10930.94
803.822	10903.15
804.153	10834.9
804.483	10759.87
804.814	10743.38
805.145	10703.38
805.475	10776.14
805.805	10617.96
806.136	10678.97
806.466	10651.17
806.796	10627.67
807.126	10501.12
807.457	10515.59
807.787	10489.37
808.117	10421.8
808.447	10485.53
808.777	10367.34
809.107	10409.6
809.436	10413.67
809.766	10366.21
810.096	10337.51
810.426	10283.95
810.755	10271.98
811.085	10220
811.414	10288.02
811.744	10157.63
812.073	10133.67
812.403	10112.21
812.732	10035.82
813.061	10029.72
813.39	10066.11
813.719	9964.64
814.049	9978.65
814.378	9995.82
814.707	9984.3
815.036	9922.38
815.365	9826.34
815.693	9713.8
816.022	9793.12
816.351	9767.81
816.68	9661.14
817.008	9753.57
817.337	9592.22
817.665	9610.07
817.994	9589.96
818.322	9644.87
818.651	9537.31
818.979	9595.16
819.307	9615.5
819.636	9595.61
819.964	9534.82
820.292	9550.86
820.62	9511.54
820.948	9453.01
821.276	9524.65
821.604	9525.33
821.932	9456.63
822.259	9539.34
822.587	9483.07
822.915	9497.76
823.243	9485.78
823.57	9451.21
823.898	9499.57
824.225	9401.94
824.553	9427.7
824.88	9477.19
825.207	9485.33
825.535	9367.14
825.862	9491.66
826.189	9375.73
826.516	9506.57
826.843	9463.64
827.17	9442.17
827.497	9421.6
827.824	9407.14
828.151	9469.51
828.478	9427.93
828.805	9491.43
829.131	9409.85
829.458	9406.46
829.785	9340.02
830.111	9351.1
830.438	9506.35
830.764	9321.49
831.09	9404.43
831.417	9367.59
831.743	9361.94
832.069	9363.07
832.395	9327.82
832.722	9371.89
833.048	9293.7
833.374	9330.98
833.7	9307.03
834.026	9266.13
834.351	9383.64
834.677	9276.97
835.003	9377.76
835.329	9336.86
835.654	9290.98
835.98	9248.73
836.306	9287.37
836.631	9249.18
836.956	9252.57
837.282	9216.41
837.607	9169.86
837.932	9165.34
838.258	9177.54
838.583	9140.48
838.908	9083.31
839.233	9172.8
839.558	9055.96
839.883	9038.34
840.208	9058
840.533	9039.24
840.858	9053.02
841.182	9040.14
841.507	9007.83
841.832	8920.15
842.156	9003.08
842.481	8931.45
842.805	8929.41
843.13	8971.67
843.454	8862.3
843.778	8798.57
844.103	8864.56
844.427	8831.34
844.751	8843.31
845.075	8810.55
845.399	8710.21
845.723	8616.2
846.047	8706.82
846.371	8591.12
846.695	8585.01
847.019	8548.18
847.343	8563.32
847.666	8487.84
847.99	8432.48
848.313	8450.1
848.637	8383.66
848.96	8401.52
849.284	8384.34
849.607	8336.43
849.931	8291.91
850.254	8200.62
850.577	8187.28
850.9	8133.73
851.223	8135.76
851.546	8101.64
851.869	8019.61
852.192	8076.33
852.515	8008.76
852.838	8023
853.161	7943.45
853.483	7946.61
853.806	7859.61
854.129	7840.63
854.451	7840.4
854.774	7852.38
855.096	7833.85
855.419	7797.01
855.741	7746.84
856.063	7645.6
856.385	7628.88
856.708	7685.83
857.03	7608.99
857.352	7614.87
857.674	7538.26
857.996	7592.95
858.318	7512.27
858.64	7577.81
858.961	7444.48
859.283	7474.31
859.605	7452.61
859.926	7513.63
860.248	7399.51
860.57	7411.03
860.891	7405.61
861.212	7416.01
861.534	7375.55
861.855	7352.5
862.176	7316.8
862.498	7316.8
862.819	7276.8
863.14	7362.22
863.461	7286.07
863.782	7226.86
864.103	7258.95
864.424	7266.63
864.745	7223.92
865.065	7241.55
865.386	7196.12
865.707	7216.69
866.027	7205.39
866.348	7146.41
866.668	7142.34
866.989	7157.71
867.309	7083.81
867.63	7128.33
867.95	7115.22
868.27	7011.95
868.59	7096.92
868.91	7030.93
869.23	7030.93
869.55	7010.37
869.87	7034.55
870.19	6936.92
870.51	6973.31
870.83	6970.37
871.15	6987.54
871.469	6988.67
871.789	6957.71
872.109	6938.73
872.428	6891.5
872.748	6897.83
873.067	6902.35
873.386	6875.68
873.706	6917.49
874.025	6844.27
874.344	6838.39
874.663	6835.91
874.982	6853.53
875.301	6813.31
875.62	6824.83
875.939	6756.59
876.258	6803.37
876.577	6798.17
876.896	6821.44
877.214	6771.73
877.533	6731.96
877.852	6783.48
878.17	6795.23
878.489	6719.75
878.807	6750.49
879.125	6708.45
879.444	6735.57
879.762	6616.03
880.08	6631.85
880.398	6674.56
880.716	6657.16
881.034	6603.37
881.352	6575.8
881.67	6582.58
881.988	6585.29
882.306	6549.59
882.624	6531.96
882.941	6494
883.259	6485.18
883.577	6512.75
883.894	6503.49
884.212	6461.68
884.529	6439.76
884.846	6476.14
885.164	6431.85
885.481	6449.93
885.798	6411.51
886.115	6409.25
886.432	6348.24
886.75	6315.92
887.067	6385.07
887.383	6311.63
887.7	6335.13
888.017	6298.52
888.334	6277.96
888.651	6262.82
888.967	6240.22
889.284	6204.51
889.6	6289.03
889.917	6164.74
890.233	6200.22
890.55	6137.85
890.866	6109.15
891.182	6115.02
891.498	6149.15
891.815	6101.24
892.131	6080.67
892.447	6048.81
892.763	6033.22
893.079	6016.04
893.395	5999.77
893.71	5984.18
894.026	5948.93
894.342	5949.15
894.657	5885.65
894.973	5927.23
895.289	5889.27
895.604	5894.46
895.92	5830.28
896.235	5795.26
896.55	5826.22
896.865	5773.79
897.181	5785.77
897.496	5793
897.811	5762.04
898.126	5779.89
898.441	5685.2
898.756	5693.56
899.071	5671.19
899.386	5659.89
899.7	5576.96
900.015	5538.31
900.33	5562.04
900.644	5609.5
900.959	5546.68
901.273	5552.78
901.588	5472.33
901.902	5485.89
902.216	5476.62
902.531	5455.38
902.845	5440.92
903.159	5418.09
903.473	5414.48
903.787	5371.54
904.101	5337.19
904.415	5342.39
904.729	5333.12
905.042	5264.88
905.356	5305.78
905.67	5238.89
905.984	5242.05
906.297	5245.44
906.611	5193.92
906.924	5199.34
907.237	5174.71
907.551	5157.31
907.864	5128.16
908.177	5115.05
908.491	5089.29
908.804	5055.84
909.117	5064.88
909.43	5026.92
909.743	5007.93
910.056	5008.39
910.368	4933.81
910.681	4950.53
910.994	4970.19
911.307	4936.07
911.619	4881.16
911.932	4879.35
912.244	4826.02
912.557	4818.56
912.869	4773.36
913.181	4724.55
913.494	4788.73
913.806	4778.33
914.118	4765.23
914.43	4693.59
914.742	4740.37
915.054	4677.32
915.366	4627.38
915.678	4650.65
915.99	4681.39
916.302	4623.99
916.613	4585.57
916.925	4564.33
917.236	4530.43
917.548	4543.09
917.859	4538.79
918.171	4451.34
918.482	4477.78
918.794	4508.74
919.105	4447.95
919.416	4423.54
919.727	4410.43
920.038	4403.66
920.349	4363.2
920.66	4383.99
920.971	4404.33
921.282	4343.54
921.593	4299.93
921.903	4291.57
922.214	4273.94
922.525	4277.11
922.835	4288.18
923.146	4194.4
923.456	4271
923.767	4245.24
924.077	4200.95
924.387	4130.89
924.697	4122.53
925.008	4104.68
925.318	4113.95
925.628	4096.77
925.938	4116.66
926.248	4062.65
926.558	4039.82
926.867	4036.43
927.177	3996.43
927.487	3989.2
927.796	3949.43
928.106	3980.62
928.416	3938.36
928.725	3928.19
929.034	3877.79
929.344	3901.97
929.653	3912.37
929.962	3852.48
930.271	3826.95
930.581	3856.55
930.89	3869.88
931.199	3777.01
931.508	3795.31
931.817	3783.78
932.125	3780.39
932.434	3730
932.743	3715.31
933.051	3721.19
933.36	3667.18
933.669	3665.6
933.977	3700.85
934.286	3640.06
934.594	3652.94
934.902	3624.24
935.21	3550.8
935.519	3617.46
935.827	3610.46
936.135	3546.73
936.443	3525.26
936.751	3558.25
937.059	3545.6
937.367	3498.37
937.674	3463.57
937.982	3473.96
938.29	3457.69
938.597	3443.23
938.905	3431.03
939.213	3419.73
939.52	3419.27
939.827	3376.11
940.135	3342.21
940.442	3349.45
940.749	3376.56
941.056	3318.71
941.363	3323.68
941.67	3294.08
941.977	3260.18
942.284	3270.13
942.591	3283.68
942.898	3278.04
943.205	3264.93
943.511	3216.34
943.818	3242.56
944.125	3160.75
944.431	3200.98
944.738	3163.46
945.044	3122.56
945.35	3148.77
945.657	3173.18
945.963	3133.41
946.269	3086.85
946.575	3117.36
946.881	3091.15
947.187	3084.82
947.493	3051.15
947.799	3053.86
948.105	3050.24
948.41	2991.26
948.716	2993.07
949.022	3026.52
949.327	2967.99
949.633	2922.11
949.938	2954.2
950.244	2959.4
950.549	2898.61
950.854	2898.61
951.16	2909.68
951.465	2882.11
951.77	2899.97
952.075	2887.76
952.38	2878.72
952.685	2882.11
952.99	2830.59
953.294	2847.09
953.599	2791.49
953.904	2792.4
954.209	2783.81
954.513	2781.1
954.818	2762.57
955.122	2770.25
955.426	2741.78
955.731	2728.22
956.035	2743.59
956.339	2748.78
956.643	2708.56
956.948	2684.6
957.252	2669.69
957.556	2729.8
957.86	2655.68
958.163	2618.84
958.467	2665.62
958.771	2652.29
959.075	2644.15
959.378	2609.8
959.682	2605.74
959.985	2589.69
960.289	2586.3
960.592	2604.83
960.896	2543.14
961.199	2535.46
961.502	2545.4
961.805	2510.6
962.108	2541.78
962.411	2502.91
962.714	2500.65
963.017	2519.86
963.32	2473.31
963.623	2473.31
963.926	2441
964.228	2452.29
964.531	2413.88
964.833	2412.75
965.136	2405.74
965.438	2405.52
965.741	2441
966.043	2382.47
966.345	2374.1
966.648	2372.52
966.95	2330.26
967.252	2346.99
967.554	2318.51
967.856	2325.07
968.158	2350.83
968.46	2336.59
968.761	2274.22
969.063	2283.71
969.365	2252.98
969.666	2280.32
969.968	2199.87
970.269	2207.55
970.571	2218.85
970.872	2201.23
971.174	2231.51
971.475	2207.55
971.776	2189.25
972.077	2187.67
972.378	2222.47
972.679	2179.08
972.98	2162.36
973.281	2159.19
973.582	2149.7
973.883	2110.16
974.183	2114
974.484	2125.75
974.785	2073.77
975.085	2080.78
975.386	2101.34
975.686	2054.34
975.986	2070.38
976.287	2048.46
976.587	2024.51
976.887	2056.15
977.187	2058.18
977.487	2037.84
977.787	2029.71
978.087	1989.93
978.387	2002.81
978.687	2010.72
978.987	1999.88
979.286	1972.08
979.586	1954.68
979.885	1957.39
980.185	1943.83
980.484	1937.73
980.784	1941.12
981.083	1933.44
981.382	1923.72
981.682	1923.72
981.981	1909.03
982.28	1888.69
982.579	1904.51
982.878	1899.99
983.177	1869.26
983.475	1904.74
983.774	1862.25
984.073	1855.93
984.372	1852.76
984.67	1838.53
984.969	1845.98
985.267	1814.57
985.566	1837.17
985.864	1819.54
986.162	1817.73
986.461	1793.78
986.759	1787.68
987.057	1794.01
987.355	1766.66
987.653	1781.58
987.951	1789.71
988.249	1756.49
988.547	1736.83
988.844	1751.97
989.142	1728.92
989.44	1711.07
989.737	1720.56
990.035	1727.57
990.332	1711.3
990.63	1691.41
990.927	1683.05
991.224	1670.17
991.521	1698.87
991.819	1671.07
992.116	1669.04
992.413	1662.94
992.71	1645.99
993.006	1671.75
993.303	1640.34
993.6	1639.43
993.897	1614.35
994.193	1613.67
994.49	1602.37
994.787	1599.21
995.083	1569.15
995.379	1588.81
995.676	1570.96
995.972	1587.23
996.268	1544.07
996.565	1575.48
996.861	1552.2
997.157	1540.91
997.453	1560.79
997.749	1559.21
998.044	1529.15
998.34	1508.36
998.636	1521.47
998.932	1492.55
999.227	1509.27
999.523	1492.32
999.818	1481.92
1000.114	1462.26
1000.409	1454.35
1000.704	1480.12
1001	1464.75
1001.295	1449.61
1001.59	1404.86
1001.885	1448.93
1002.18	1422.49
1002.475	1403.73
1002.77	1418.65
1003.065	1418.65
1003.359	1409.38
1003.654	1406.9
1003.949	1353.34
1004.243	1382.27
1004.538	1349.5
1004.832	1341.36
1005.127	1356.5
1005.421	1341.36
1005.715	1345.88
1006.009	1353.79
1006.304	1336.62
1006.598	1315.6
1006.892	1310.63
1007.186	1321.93
1007.48	1286
1007.773	1277.86
1008.067	1312.66
1008.361	1273.57
1008.655	1273.57
1008.948	1253.46
1009.242	1241.93
1009.535	1255.72
1009.829	1269.73
1010.122	1225.66
1010.415	1243.96
1010.708	1208.94
1011.001	1212.55
1011.295	1218.65
1011.588	1212.1
1011.881	1211.2
1012.173	1210.75
1012.466	1194.93
1012.759	1176.17
1013.052	1194.02
1013.344	1172.55
1013.637	1161.25
1013.93	1134.59
1014.222	1155.38
1014.514	1163.51
1014.807	1149.96
1015.099	1138.2
1015.391	1149.28
1015.683	1135.72
1015.976	1102.05
1016.268	1094.59
1016.56	1079.22
1016.851	1118.54
1017.143	1107.02
1017.435	1096.4
1017.727	1086.91
1018.018	1090.52
1018.31	1051.2
1018.602	1057.3
1018.893	1074.25
1019.185	1087.13
1019.476	1045.33
1019.767	1035.16
1020.058	1047.13
1020.35	1033.8
1020.641	1021.37
1020.932	1016.4
1021.223	1006
1021.514	1005.55
1021.804	979.11
1022.095	1001.71
1022.386	1004.2
1022.677	1011.43
1022.967	969.4
1023.258	965.55
1023.548	951.54
1023.839	951.77
1024.129	952.22
1024.419	955.61
1024.709	971.66
1025	942.05
1025.29	938.21
1025.58	909.06
1025.87	925.78
1026.16	923.52
1026.449	920.36
1026.739	915.84
1027.029	896.85
1027.319	893.92
1027.608	903.63
1027.898	893.92
1028.187	905.44
1028.477	852.56
1028.766	867.7
1029.055	872.9
1029.344	884.2
1029.634	855.27
1029.923	864.77
1030.212	837.87
1030.501	842.17
1030.79	824.77
1031.078	845.1
1031.367	808.27
1031.656	821.83
1031.945	830.42
1032.233	834.26
1032.522	823.64
1032.81	796.29
1033.099	789.51
1033.387	797.2
1033.675	785.22
1033.963	796.29
1034.251	797.42
1034.54	777.08
1034.828	749.74
1035.116	767.37
1035.403	790.87
1035.691	768.72
1035.979	764.88
1036.267	733.47
1036.554	759.01
1036.842	760.14
1037.129	752.68
1037.417	740.7
1037.704	710.42
1037.992	756.29
1038.279	734.15
1038.566	708.39
1038.853	708.39
1039.14	708.39
