Data from White_reflection_standard_FLMS001491_099.txt Node
Date: Tue Feb 07 10:32:15 GMT 2017
User: dcchb
Spectrometer: FLMS00149
Trigger mode: 0
Integration Time (sec): 2.000000E-2
Scans to average: 10
Electric dark correction enabled: true
Nonlinearity correction enabled: false
Boxcar width: 0
XAxis mode: Wavelengths
Number of Pixels in Spectrum: 2048
>>>>>Begin Spectral Data<<<<<
341.393	-22.22
341.776	-22.22
342.16	-22.22
342.543	-44.14
342.927	-66.51
343.31	-71.71
343.693	-81.88
344.077	-66.06
344.46	-61.99
344.843	-77.36
345.226	-36.45
345.61	-37.36
345.993	-33.97
346.376	5.8
346.759	13.94
347.142	53.49
347.525	58.23
347.908	58.01
348.291	70.89
348.674	93.26
349.057	113.15
349.44	113.15
349.823	147.5
350.206	161.06
350.588	226.36
350.971	234.5
351.354	245.8
351.737	266.14
352.119	284.67
352.502	285.35
352.884	295.06
353.267	329.19
353.65	350.2
354.032	354.72
354.414	363.99
354.797	359.69
355.179	381.84
355.562	369.64
355.944	375.29
356.326	376.42
356.709	370.09
357.091	388.62
357.473	397.89
357.855	403.53
358.238	409.64
358.62	391.56
359.002	397.66
359.384	394.5
359.766	401.27
360.148	391.11
360.53	406.92
360.912	388.62
361.294	392.01
361.676	401.73
362.057	386.36
362.439	402.86
362.821	403.76
363.203	387.49
363.584	406.92
363.966	413.93
364.348	383.2
364.729	415.06
365.111	392.91
365.493	399.01
365.874	387.26
366.256	380.71
366.637	404.44
367.019	394.72
367.4	420.94
367.781	420.71
368.163	415.29
368.544	416.64
368.925	418
369.306	434.95
369.688	435.85
370.069	458.22
370.45	429.52
370.831	453.48
371.212	437.88
371.593	440.6
371.974	445.79
372.355	455.96
372.736	441.95
373.117	453.93
373.498	421.61
373.879	450.31
374.26	452.8
374.641	435.85
375.021	426.36
375.402	471.78
375.783	471.56
376.163	488.28
376.544	498.9
376.925	470.88
377.305	470.65
377.686	494.83
378.066	512.91
378.447	505.45
378.827	537.09
379.208	485.11
379.588	523.98
379.968	506.13
380.349	507.71
380.729	516.3
381.109	538.45
381.489	542.97
381.87	517.66
382.25	545.9
382.63	561.72
383.01	579.8
383.39	554.27
383.77	562.4
384.15	561.5
384.53	573.7
384.91	603.53
385.29	581.16
385.67	604.89
386.049	602.17
386.429	608.5
386.809	620.7
387.189	616.86
387.568	612.79
387.948	604.43
388.328	635.84
388.707	644.21
389.087	633.36
389.466	654.83
389.846	691.66
390.225	685.79
390.605	658.9
390.984	699.12
391.363	712.23
391.743	682.4
392.122	710.87
392.501	720.36
392.881	761.72
393.26	734.15
393.639	761.94
394.018	747.71
394.397	779.8
394.776	765.11
395.155	784.32
395.534	777.76
395.913	782.73
396.292	818.66
396.671	820.02
397.05	821.15
397.429	832.22
397.808	829.96
398.186	844.43
398.565	863.86
398.944	860.7
399.323	849.62
399.701	872.22
400.08	900.02
400.458	886.46
400.837	909.06
401.215	900.7
401.594	949.96
401.972	950.64
402.351	960.13
402.729	940.24
403.107	966.01
403.486	976.85
403.864	975.27
404.242	1002.61
404.62	999.45
404.999	1041.26
405.377	1046.91
405.755	1025.21
406.133	1063.18
406.511	1048.49
406.889	1093.01
407.267	1109.73
407.645	1128.94
408.023	1146.57
408.401	1154.93
408.779	1138.43
409.156	1189.95
409.534	1202.61
409.912	1236.51
410.29	1257.07
410.667	1236.06
411.045	1259.56
411.422	1282.83
411.8	1274.25
412.178	1305.21
412.555	1349.27
412.933	1341.14
413.31	1366.45
413.687	1393.11
414.065	1417.52
414.442	1432.21
414.819	1433.11
415.197	1493.9
415.574	1511.53
415.951	1527.35
416.328	1546.1
416.705	1529.15
417.082	1524.64
417.46	1559.44
417.837	1570.06
418.214	1601.47
418.591	1614.8
418.967	1630.39
419.344	1622.26
419.721	1669.72
420.098	1663.16
420.475	1690.05
420.852	1704.07
421.228	1730.73
421.605	1772.09
421.982	1746.1
422.358	1789.49
422.735	1777.51
423.111	1775.7
423.488	1871.74
423.864	1837.62
424.241	1849.37
424.617	1869.71
424.994	1897.05
425.37	1948.13
425.746	1954.23
426.123	1986.32
426.499	2003.27
426.875	2043.27
427.251	2069.03
427.627	2101.34
428.003	2140.89
428.379	2169.82
428.756	2178.63
429.132	2208.01
429.507	2239.87
429.883	2268.34
430.259	2313.31
430.635	2297.95
431.011	2371.17
431.387	2406.65
431.763	2454.33
432.138	2448.9
432.514	2497.26
432.89	2490.71
433.265	2583.36
433.641	2572.52
434.016	2589.92
434.392	2646.64
434.767	2759.4
435.143	2721.89
435.518	2763.92
435.894	2770.25
436.269	2820.42
436.644	2858.39
437.02	2890.02
437.395	2922.34
437.77	2969.57
438.145	2993.3
438.52	3054.99
438.895	3066.97
439.271	3044.37
439.646	3175.89
440.021	3165.72
440.395	3184.7
440.77	3159.17
441.145	3213.4
441.52	3271.71
441.895	3250.92
442.27	3302.89
442.645	3310.8
443.019	3360.74
443.394	3352.84
443.769	3398.26
444.143	3410.24
444.518	3454.53
444.892	3477.58
445.267	3495.66
445.641	3531.59
446.016	3520.06
446.39	3582.21
446.764	3556.45
447.139	3584.02
447.513	3676.44
447.887	3672.15
448.262	3706.95
448.636	3734.97
449.01	3804.35
449.384	3788.76
449.758	3867.4
450.132	3901.07
450.506	3922.76
450.88	3958.24
451.254	3940.39
451.628	4024.23
452.002	4080.27
452.376	4076.66
452.75	4142.87
453.123	4200.95
453.497	4280.27
453.871	4263.32
454.244	4370.66
454.618	4400.72
454.992	4467.83
455.365	4450.89
455.739	4615.4
456.112	4641.39
456.486	4640.03
456.859	4704.44
457.232	4817.88
457.606	4773.36
457.979	4855.62
458.352	4958.67
458.725	5050.64
459.099	5049.06
459.472	5196.85
459.845	5227.81
460.218	5275.5
460.591	5304.65
460.964	5318.21
461.337	5482.5
461.71	5532.44
462.083	5624.64
462.456	5674.81
462.829	5677.52
463.201	5802.71
463.574	5799.55
463.947	5905.99
464.32	6007.68
464.692	6079.32
465.065	6150.5
465.438	6233.89
465.81	6299.2
466.183	6368.12
466.555	6558.4
466.928	6562.92
467.3	6563.6
467.672	6700.54
468.045	6821.22
468.417	6832.52
468.789	6910.48
469.161	7098.27
469.534	7156.13
469.906	7309.79
470.278	7333.75
470.65	7479.05
471.022	7574.65
471.394	7715.66
471.766	7774.87
472.138	7935.09
472.51	8061.19
472.882	8158.58
473.253	8297.79
473.625	8455.3
473.997	8693.49
474.369	8692.58
474.74	8765.12
475.112	8939.36
475.484	9095.74
475.855	9275.62
476.227	9343.86
476.598	9566.01
476.97	9690.97
477.341	9937.52
477.713	10060.91
478.084	10135.71
478.455	10423.84
478.827	10509.03
479.198	10818.85
479.569	10826.99
479.94	11155.79
480.311	11217.71
480.682	11434.21
481.053	11789.68
481.424	11900.18
481.795	12029.67
482.166	12245.94
482.537	12403.67
482.908	12644.12
483.279	12835.98
483.65	13018.57
484.021	13323.87
484.391	13456.52
484.762	13553.92
485.133	13707.82
485.503	13947.13
485.874	14187.8
486.244	14359.55
486.615	14616.27
486.985	14685.64
487.356	15157.95
487.726	15122.92
488.097	15498.5
488.467	15475.23
488.837	15892.39
489.207	16026.17
489.578	16348.2
489.948	16404.47
490.318	16618.7
490.688	16765.82
491.058	17008.75
491.428	17255.97
491.798	17436.76
492.168	17765.56
492.538	17821.61
492.908	18005.33
493.278	18345.66
493.648	18290.97
494.017	18648.93
494.387	18742.71
494.757	18874.46
495.126	19156.04
495.496	19210.72
495.866	19436.03
496.235	19582.24
496.605	19798.5
496.974	19898.16
497.344	20099.74
497.713	20215.44
498.082	20260.87
498.452	20541.54
498.821	20814.07
499.19	20620.63
499.559	21033.27
499.928	21125.25
500.298	21217
500.667	21461.51
501.036	21457.22
501.405	21742.18
501.774	21768.4
502.143	22085.45
502.512	22115.05
502.88	22264.88
503.249	22239.57
503.618	22536.29
503.987	22634.36
504.356	22758.88
504.724	23005.43
505.093	23125.2
505.462	23155.7
505.83	23377.85
506.199	23545.98
506.567	23894.44
506.936	23951.84
507.304	24225.96
507.672	24352.06
508.041	24401.55
508.409	24580.98
508.777	24797.92
509.145	24905.49
509.514	25159.27
509.882	25259.6
510.25	25331.01
510.618	25632.02
510.986	25622.31
511.354	25866.14
511.722	26245.79
512.09	26410.99
512.458	26392.68
512.826	26698.21
513.193	26826.57
513.561	26908.37
513.929	27263.17
514.297	27495.93
514.664	27580.22
515.032	27648.24
515.4	27993.32
515.767	28038.06
516.135	28252.52
516.502	28312.41
516.869	28650.02
517.237	28845.5
517.604	28846.18
517.972	29275.09
518.339	29323
518.706	29417.69
519.073	29702.2
519.44	30016.99
519.808	30184.67
520.175	30213.15
520.542	30627.6
520.909	30923.18
521.276	30905.33
521.643	31244.53
522.009	31456.05
522.376	31678.42
522.743	31872.54
523.11	32288.57
523.477	32540.99
523.843	32670.93
524.21	33128.78
524.577	33291.48
524.943	33433.4
525.31	33587.52
525.676	33963.1
526.043	34242.87
526.409	34206.04
526.776	34727.15
527.142	34885.57
527.508	34968.95
527.874	35264.31
528.241	35523.06
528.607	35549.5
528.973	36008.7
529.339	35960.57
529.705	36434
530.071	36673.54
530.437	36751.51
530.803	37031.72
531.169	37288.21
531.535	37117.6
531.901	37336.35
532.267	37647.08
532.632	37865.15
532.998	38016.78
533.364	38241.41
533.73	38275.76
534.095	38655.41
534.461	38711.23
534.826	39076.42
535.192	39098.34
535.557	39444.54
535.923	39513.92
536.288	39582.62
536.653	39792.78
537.019	39819.22
537.384	39847.24
537.749	40094.02
538.114	40451.07
538.479	40350.73
538.845	40493.33
539.21	40550.05
539.575	40667.56
539.94	40863.26
540.305	41190.48
540.67	41105.06
541.034	41313.19
541.399	41477.93
541.764	41538.27
542.129	41577.37
542.494	41911.6
542.858	42065.72
543.223	42060.97
543.587	42315.2
543.952	42205.6
544.316	42493.73
544.681	42583.22
545.045	42836.77
545.41	42973.71
545.774	43036.54
546.138	43046.71
546.503	43284.44
546.867	43157.66
547.231	43716.97
547.595	43828.61
547.959	43947.7
548.324	43841.26
548.688	44097.53
549.052	44113.57
549.416	44347.46
549.779	44517.63
550.143	44537.06
550.507	44844.4
550.871	44948.58
551.235	45062.93
551.599	45298.4
551.962	45334.78
552.326	45528.22
552.689	45736.81
553.053	45627.66
553.417	45880.98
553.78	46279.16
554.143	46144.25
554.507	46356.68
554.87	46609.55
555.234	46858.13
555.597	46839.15
555.96	46904.68
556.323	47198.46
556.686	47185.36
557.05	47481.84
557.413	47482.75
557.776	47662.4
558.139	47932.45
558.502	48028.05
558.865	48071.89
559.228	48373.8
559.59	48506.68
559.953	48562.27
560.316	49015.59
560.679	49067.34
561.041	49299.65
561.404	49284.51
561.767	49579.42
562.129	49662.13
562.492	49953.87
562.854	49982.57
563.217	50029.35
563.579	50215.11
563.941	50322
564.304	50471.6
564.666	50771.7
565.028	50864.35
565.39	50939.38
565.753	51233.38
566.115	51267.96
566.477	51448.52
566.839	51481.74
567.201	51706.59
567.563	51761.51
567.925	51952.24
568.287	52054.38
568.648	52054.15
569.01	52297.76
569.372	52440.36
569.734	52329.63
570.095	52568.26
570.457	52767.13
570.819	52742.72
571.18	52823.4
571.542	53011.64
571.903	53037.86
572.265	53111.75
572.626	53322.82
572.987	53257.96
573.349	53328.92
573.71	53529.37
574.071	53516.94
574.432	53687.56
574.794	53924.84
575.155	53829.93
575.516	53745.41
575.877	53933.2
576.238	53988.57
576.599	54078.51
576.96	54088.45
577.32	54069.24
577.681	54273.3
578.042	54343.36
578.403	54313.3
578.763	54313.3
579.124	54443.24
579.485	54491.83
579.845	54619.74
580.206	54487.76
580.566	54496.58
580.927	54532.51
581.287	54681.88
581.648	54493.64
582.008	54737.25
582.368	54646.63
582.728	54740.86
583.089	54681.88
583.449	54710.58
583.809	54780.86
584.169	54819.96
584.529	54728.66
584.889	54872.16
585.249	54739.28
585.609	54706.97
585.969	54901.31
586.329	54662.67
586.688	54851.37
587.048	54820.41
587.408	54715.55
587.768	54809.56
588.127	54784.93
588.487	54740.18
588.846	54892.27
589.206	54758.72
589.565	54795.32
589.925	54894.53
590.284	54849.79
590.643	54850.24
591.003	54920.52
591.362	54981.08
591.721	54928.65
592.08	54941.31
592.44	54987.64
592.799	54993.96
593.158	54918.26
593.517	54943.8
593.876	55023.12
594.235	54968.88
594.593	54932.27
594.952	55056.79
595.311	54959.61
595.67	55053.4
596.029	55203
596.387	55186.27
596.746	55147.63
597.104	55048.65
597.463	55055.88
597.822	55226.27
598.18	55072.38
598.538	55151.47
598.897	55324.58
599.255	55011.36
599.613	55410.45
599.972	55246.61
600.33	55320.51
600.688	55209.78
601.046	55314.41
601.404	55406.61
601.762	55410
602.12	55587.85
602.478	55452.48
602.836	55433.05
603.194	55361.19
603.552	55480.28
603.91	55356.67
604.268	55540.62
604.625	55468.75
604.983	55582.2
605.341	55462.88
605.698	55638.47
606.056	55617.9
606.413	55597.56
606.771	55686.6
607.128	55730.22
607.485	55568.41
607.843	55626.49
608.2	55794.39
608.557	55899.7
608.914	55730.22
609.272	55848.4
609.629	55995.97
609.986	56025.8
610.343	55842.53
610.7	56119.81
611.057	56034.16
611.414	56044.11
611.771	56050.21
612.127	56118.91
612.484	56184.21
612.841	56218.34
613.198	56110.77
613.554	56158
613.911	56280.26
614.267	56281.61
614.624	56270.09
614.98	56281.39
615.337	56408.39
615.693	56359.8
616.05	56315.06
616.406	56473.25
616.762	56357.77
617.118	56342.85
617.475	56366.58
617.831	56436.64
618.187	56459.24
618.543	56498.1
618.899	56582.85
619.255	56577.2
619.611	56576.29
619.967	56663.75
620.323	56695.61
620.678	56531.55
621.034	56495.85
621.39	56467.37
621.746	56521.61
622.101	56809.96
622.457	56494.49
622.812	56633.47
623.168	56604.09
623.523	56577.88
623.879	56718.89
624.234	56510.53
624.589	56576.97
624.945	56586.46
625.3	56670.76
625.655	56614.03
626.01	56636.63
626.365	56599.35
626.72	56629.85
627.075	56625.11
627.43	56627.82
627.785	56475.05
628.14	56591.66
628.495	56553.24
628.85	56572
629.205	56487.26
629.559	56628.27
629.914	56484.55
630.269	56487.71
630.623	56378.56
630.978	56390.31
631.332	56544.88
631.687	56450.65
632.041	56283.42
632.396	56400.03
632.75	56302.4
633.104	56330.2
633.459	56182.18
633.813	56200.71
634.167	56199.81
634.521	56162.75
634.875	56125.46
635.229	56165.46
635.583	55986.25
635.937	55944.9
636.291	55915.52
636.645	55981.73
636.999	55878.01
637.352	55942.64
637.706	55809.99
638.06	55875.75
638.413	55830.33
638.767	55730.44
639.121	55745.81
639.474	55579.94
639.828	55636.88
640.181	55674.85
640.534	55595.98
640.888	55601.63
641.241	55487.06
641.594	55476.66
641.947	55546.04
642.301	55430.11
642.654	55395.08
643.007	55402.99
643.36	55288.42
643.713	55169.55
644.066	55321.19
644.419	55156.67
644.771	55044.13
645.124	54725.04
645.477	54731.37
645.83	54426.29
646.182	54342.91
646.535	54290.25
646.888	54380.42
647.24	54249.12
647.593	54358.5
647.945	54325.05
648.298	54135.46
648.65	54043.93
649.002	54009.81
649.355	54096.81
649.707	54095
650.059	54132.52
650.411	54469.46
650.763	54407.09
651.115	54776.34
651.467	54624.71
651.819	54669.9
652.171	54672.39
652.523	54557.14
652.875	54439.4
653.227	54382.91
653.578	54552.39
653.93	54461.77
654.282	54292.97
654.633	54321.66
654.985	54281.44
655.337	54258.16
655.688	54315.34
656.039	54319.86
656.391	54072.41
656.742	54124.61
657.094	54180.2
657.445	54137.94
657.796	54124.16
658.147	54060.43
658.498	54074.44
658.849	54078.96
659.2	54059.98
659.551	54008.9
659.902	54059.3
660.253	53916.7
660.604	53992.86
660.955	53844.39
661.306	53930.71
661.656	53936.14
662.007	53912.86
662.358	53827.67
662.708	53937.27
663.059	53878.51
663.409	53629.48
663.76	53775.01
664.11	53765.07
664.461	53855.91
664.811	53793.54
665.161	53746.09
665.511	53682.36
665.862	53702.7
666.212	53838.97
666.562	53659.76
666.912	53727.1
667.262	53600.1
667.612	53582.7
667.962	53641.23
668.312	53550.61
668.662	53661.34
669.011	53598.75
669.361	53514.91
669.711	53495.47
670.06	53445.98
670.41	53365.76
670.76	53391.29
671.109	53463.38
671.459	53440.56
671.808	53360.56
672.157	53438.3
672.507	53134.58
672.856	53212.77
673.205	53184.75
673.554	53296.83
673.904	53154.69
674.253	53326.66
674.602	53270.17
674.951	52666.57
675.3	52582.5
675.649	53134.13
675.998	53056.16
676.346	53109.72
676.695	53194.69
677.044	52937.07
677.393	52981.81
677.741	53076.27
678.09	52976.39
678.438	52930.52
678.787	52827.01
679.135	52878.54
679.484	52728.26
679.832	52777.75
680.181	52583.63
680.529	52776.62
680.877	52621.14
681.225	52556.97
681.573	52724.42
681.922	52495.5
682.27	52367.59
682.618	52408.72
682.966	52219.57
683.314	52353.13
683.661	52177.31
684.009	52131.44
684.357	51984.33
684.705	52020.71
685.053	51987.94
685.4	51889.41
685.748	51753.82
686.095	51715.18
686.443	51602.19
686.79	51560.16
687.138	51605.8
687.485	51598.35
687.832	51430.44
688.18	51480.38
688.527	51232.48
688.874	51188.41
689.221	51168.3
689.568	51052.82
689.915	50974.18
690.262	50927.4
690.609	50844.69
690.956	50775.77
691.303	50705.26
691.65	50466.63
691.997	50550.69
692.344	50336.68
692.69	50269.34
693.037	50290.81
693.383	49965.62
693.73	50141.44
694.077	49976.92
694.423	49907.77
694.769	49742.12
695.116	49704.39
695.462	49498.06
695.808	49495.58
696.155	49570.15
696.501	49199.54
696.847	49189.14
697.193	48943.28
697.539	49139.65
697.885	48745.09
698.231	48622.38
698.577	48764.07
698.923	48607.01
699.269	48385.55
699.614	48223.07
699.96	48282.05
700.306	48324.99
700.651	48078.89
700.997	47900.82
701.342	47888.16
701.688	47730.2
702.033	47610.65
702.379	47620.37
702.724	47505.8
703.069	47608.62
703.415	47085.7
703.76	47111.23
704.105	47109.2
704.45	46935.42
704.795	46688.19
705.14	46595.31
705.485	46659.04
705.83	46579.27
706.175	46523.23
706.52	46304.25
706.865	46238.04
707.209	46079.4
707.554	45989
707.899	46172.95
708.243	45847.54
708.588	45797.6
708.932	45453.65
709.277	45548.11
709.621	45556.02
709.966	45177.5
710.31	45325.29
710.654	45039.65
710.998	45053.89
711.342	44949.93
711.687	44849.6
712.031	44775.7
712.375	44576.16
712.719	44750.62
713.063	44535.26
713.407	44736.61
713.75	44382.04
714.094	44256.62
714.438	44168.94
714.782	44342.94
715.125	43996.51
715.469	44046.45
715.812	43840.36
716.156	43669.74
716.499	43700.02
716.843	43618.67
717.186	43364.21
717.53	43534.83
717.873	43488.73
718.216	43406.25
718.559	43333.93
718.902	42919.93
719.246	43052.36
719.589	42939.82
719.932	42702.76
720.275	42829.31
720.617	42792.7
720.96	42732.59
721.303	42590
721.646	42568.3
721.989	42389.1
722.331	42461.64
722.674	42396.55
723.016	42367.4
723.359	42259.84
723.701	42099.39
724.044	41939.62
724.386	41791.37
724.729	42004.93
725.071	41839.28
725.413	41837.02
725.755	41555.67
726.097	41600.19
726.439	41459.63
726.782	41516.35
727.124	41656.91
727.465	41303.25
727.807	41261.67
728.149	41148.68
728.491	41096.93
728.833	41140.99
729.175	41022.58
729.516	41039.98
729.858	40867.78
730.199	40884.05
730.541	40686.09
730.882	40786.2
731.224	40770.38
731.565	40410.62
731.906	40585.08
732.248	40545.98
732.589	40286.1
732.93	40096.28
733.271	40159.1
733.612	40234.58
733.953	40212.88
734.294	40128.82
734.635	39899.9
734.976	40038.88
735.317	39929.27
735.658	39794.14
735.999	39638.21
736.339	39611.77
736.68	39669.62
737.021	39475.28
737.361	39340.82
737.702	39733.12
738.042	39443.19
738.383	39194.38
738.723	39407.25
739.063	39093.14
739.404	39228.95
739.744	39084.1
740.084	38987.83
740.424	38989.64
740.764	38791
741.104	38822.64
741.444	38758.01
741.784	38622.87
742.124	38610.89
742.464	38700.61
742.804	38600.04
743.143	38410.9
743.483	38329.32
743.823	38219.94
744.162	38200.05
744.502	38263.33
744.841	38139.49
745.181	38134.97
745.52	38009.55
745.86	38034.41
746.199	38026.73
746.538	37950.57
746.877	37857.01
747.216	37959.84
747.556	37760.52
747.895	37811.36
748.234	37476.91
748.573	37493.18
748.911	37383.81
749.25	37209.57
749.589	37306.07
749.928	37211.83
750.267	37276.24
750.605	37127.09
750.944	37034.44
751.283	36876.02
751.621	36964.38
751.96	36704.28
752.298	36628.8
752.636	36729.59
752.975	36554.9
753.313	36405.75
753.651	36524.62
753.989	36385.41
754.327	36217.73
754.666	35983.39
755.004	36139.54
755.342	35991.07
755.679	36032.88
756.017	35696.62
756.355	35798.99
756.693	35668.6
757.031	35671.53
757.368	35444.87
757.706	35388.83
758.044	35180.7
758.381	35176.86
758.719	35079.68
759.056	35041.49
759.394	34932.8
759.731	34699.36
760.068	34678.79
760.405	34588.85
760.743	34469.53
761.08	34467.72
761.417	34255.98
761.754	34250.55
762.091	34177.11
762.428	33995.65
762.765	33778.48
763.102	33988.19
763.438	33829.32
763.775	33579.39
764.112	33569.44
764.449	33635.66
764.785	33439.5
765.122	33084.03
765.458	33106.63
765.795	33038.83
766.131	33055.56
766.467	32767.66
766.804	32632.97
767.14	32569.02
767.476	32598.39
767.812	32409.25
768.148	32379.64
768.485	32222.58
768.821	32096.26
769.157	32015.81
769.492	31990.27
769.828	31913.44
770.164	31498.76
770.5	31452.44
770.836	31308.26
771.171	31290.86
771.507	31194.14
771.842	31023.75
772.178	30987.14
772.513	30923.18
772.849	30690.2
773.184	30569.52
773.519	30582.85
773.855	30384.89
774.19	30280.04
774.525	30204.33
774.86	30133.37
775.195	30172.02
775.53	29918.01
775.865	29783.55
776.2	29554.41
776.535	29436.22
776.87	29467.4
777.205	29290.91
777.539	29288.88
777.874	29226.96
778.209	29033.06
778.543	28895.67
778.878	28902.22
779.212	28855.22
779.547	28502.46
779.881	28647.76
780.215	28375.45
780.55	28516.47
780.884	28196.02
781.218	28118.06
781.552	28197.15
781.886	28046.2
782.22	27782.7
782.554	27760.33
782.888	27490.28
783.222	27447.12
783.556	27337.06
783.889	27300.23
784.223	27074.47
784.557	27031.31
784.89	27070.18
785.224	26849.17
785.557	26750.86
785.891	26766.01
786.224	26495.5
786.558	26586.8
786.891	26344.32
787.224	26278.79
787.557	26105.46
787.891	26101.16
788.224	26128.51
788.557	26008.74
788.89	26016.42
789.223	25855.07
789.556	25696.65
789.888	25646.26
790.221	25476.1
790.554	25380.05
790.887	25355.65
791.219	25310.45
791.552	25136.44
791.884	25008.09
792.217	24982.1
792.549	24802.44
792.882	24723.35
793.214	24629.56
793.546	24603.12
793.879	24454.65
794.211	24453.75
794.543	24464.82
794.875	24232.29
795.207	24251.72
795.539	24179.18
795.871	24177.15
796.203	23984.84
796.535	23795.24
796.867	23813.54
797.198	23692.19
797.53	23705.07
797.862	23594.79
798.193	23590.5
798.525	23438.86
798.856	23427.79
799.188	23206.78
799.519	23128.81
799.85	23077.97
800.182	22983.96
800.513	23075.25
800.844	22900.34
801.175	22811.98
801.506	22850.63
801.837	22641.37
802.168	22636.85
802.499	22567.7
802.83	22433.92
803.161	22332.22
803.491	22307.14
803.822	22307.14
804.153	22315.73
804.483	22129.52
804.814	21969.07
805.145	21982.4
805.475	21990.99
805.805	21884.78
806.136	21876.87
806.466	21852.24
806.796	21760.49
807.126	21582.41
807.457	21496.99
807.787	21511.68
808.117	21344.68
808.447	21325.02
808.777	21344.68
809.107	21327.96
809.436	21254.51
809.766	21184.68
810.096	21051.81
810.426	20909.89
810.755	20981.07
811.085	20930.9
811.414	20925.03
811.744	20770.23
812.073	20698.37
812.403	20610.91
812.732	20539.5
813.061	20539.95
813.39	20459.96
813.719	20379.73
814.049	20437.13
814.378	20284.59
814.707	20270.81
815.036	20224.93
815.365	20106.75
815.693	19917.6
816.022	20019.29
816.351	19899.29
816.68	19778.62
817.008	19864.49
817.337	19662.92
817.665	19768
817.994	19736.81
818.322	19575.91
818.651	19610.71
818.979	19645.06
819.307	19612.97
819.636	19582.47
819.964	19383.83
820.292	19542.01
820.62	19455.01
820.948	19392.87
821.276	19477.38
821.604	19445.97
821.932	19451.4
822.259	19469.25
822.587	19415.01
822.915	19216.15
823.243	19320.33
823.57	19300.89
823.898	19257.28
824.225	19243.72
824.553	19261.12
824.88	19317.39
825.207	19289.37
825.535	19203.94
825.862	19303.15
826.189	19276.03
826.516	19261.57
826.843	19419.53
827.17	19252.08
827.497	19396.26
827.824	19346.09
828.151	19317.16
828.478	19213.66
828.805	19370.04
829.131	19182.25
829.458	19181.57
829.785	19082.37
830.111	19205.75
830.438	19217.05
830.764	19219.31
831.09	19195.13
831.417	19079.2
831.743	19130.95
832.069	19097.96
832.395	18997.62
832.722	19133.89
833.048	19038.07
833.374	19111.74
833.7	18937.74
834.026	18948.58
834.351	19079.88
834.677	18989.03
835.003	19020.45
835.329	19057.73
835.654	18874.69
835.98	18830.39
836.306	18886.66
836.631	18703.39
836.956	18840.11
837.282	18850.73
837.607	18697.29
837.932	18655.94
838.258	18729.83
838.583	18616.16
838.908	18529.61
839.233	18580.46
839.558	18442.83
839.883	18455.94
840.208	18492.55
840.533	18447.81
840.858	18429.95
841.182	18447.13
841.507	18449.16
841.832	18222.28
842.156	18210.3
842.481	18201.71
842.805	18129.4
843.13	18074.48
843.454	18021.15
843.778	17970.3
844.103	17934.37
844.427	17915.39
844.751	17909.51
845.075	17923.07
845.399	17766.69
845.723	17682.63
846.047	17660.93
846.371	17576.42
846.695	17581.84
847.019	17426.14
847.343	17317.44
847.666	17234.5
847.99	17149.31
848.313	17264.56
848.637	17175.75
848.96	17086.03
849.284	17024.79
849.607	16934.17
849.931	16782.31
850.254	16664.8
850.577	16585.26
850.9	16550.68
851.223	16524.01
851.546	16455.77
851.869	16315.88
852.192	16364.47
852.515	16220.75
852.838	16158.37
853.161	16238.82
853.483	16075.66
853.806	16041.77
854.129	15983.24
854.451	15876.8
854.774	15855.78
855.096	15814.65
855.419	15775.11
855.741	15791.83
856.063	15663.92
856.385	15577.82
856.708	15552.51
857.03	15540.09
857.352	15569.24
857.674	15395.91
857.996	15341.9
858.318	15287.66
858.64	15284.5
858.961	15258.29
859.283	15114.33
859.605	15068.23
859.926	15183.71
860.248	15032.53
860.57	15037.05
860.891	14961.57
861.212	14949.14
861.534	14880.22
861.855	14879.99
862.176	14900.55
862.498	14861.23
862.819	14828.92
863.14	14802.25
863.461	14704.63
863.782	14658.08
864.103	14741.01
864.424	14683.61
864.745	14691.97
865.065	14648.13
865.386	14625.76
865.707	14594.35
866.027	14516.38
866.348	14469.15
866.668	14437.97
866.989	14359.55
867.309	14385.77
867.63	14407.91
867.95	14331.76
868.27	14248.59
868.59	14287.69
868.91	14286.56
869.23	14281.59
869.55	14183.74
869.87	14230.74
870.19	14164.53
870.51	14223.28
870.83	14163.4
871.15	14065.55
871.469	14000.01
871.789	14126.34
872.109	14025.78
872.428	13931.09
872.748	14045.44
873.067	13935.83
873.386	13954.82
873.706	13907.59
874.025	13868.27
874.344	13850.41
874.663	13830.98
874.982	13844.54
875.301	13849.51
875.62	13764.77
875.939	13770.64
876.258	13731.77
876.577	13616.07
876.896	13664.65
877.214	13612
877.533	13568.39
877.852	13660.36
878.17	13683.41
878.489	13602.51
878.807	13558.22
879.125	13617.42
879.444	13554.38
879.762	13448.84
880.08	13449.75
880.398	13344.21
880.716	13384.66
881.034	13387.6
881.352	13394.61
881.67	13307.6
881.988	13299.47
882.306	13266.25
882.624	13186.02
882.941	13164.33
883.259	13101.96
883.577	13155.97
883.894	13129.53
884.212	12992.81
884.529	13157.1
884.846	12984.9
885.164	12963.43
885.481	12993.94
885.798	12976.09
886.115	12870.33
886.432	12940.15
886.75	12816.99
887.067	12786.71
887.383	12780.84
887.7	12672.36
888.017	12665.81
888.334	12658.58
888.651	12634.17
888.967	12571.58
889.284	12516.89
889.6	12525.48
889.917	12458.58
890.233	12395.54
890.55	12362.54
890.866	12371.36
891.182	12401.86
891.498	12324.13
891.815	12280.06
892.131	12176.56
892.447	12180.63
892.763	12120.74
893.079	12108.76
893.395	12060.86
893.71	11987.18
894.026	12003.91
894.342	12005.49
894.657	11856.11
894.973	11858.15
895.289	11857.7
895.604	11860.86
895.92	11741.99
896.235	11713.07
896.55	11766.85
896.865	11697.93
897.181	11635.33
897.496	11609.57
897.811	11542.9
898.126	11518.5
898.441	11477.37
898.756	11431.72
899.071	11396.69
899.386	11408.44
899.7	11266.98
900.015	11304.72
900.33	11087.32
900.644	11157.15
900.959	11119.86
901.273	11067.21
901.588	11050.26
901.902	11019.75
902.216	10954.44
902.531	10897.72
902.845	10854.56
903.159	10812.07
903.473	10784.96
903.787	10784.28
904.101	10708.57
904.415	10666.09
904.729	10537.28
905.042	10567.34
905.356	10555.58
905.67	10545.87
905.984	10461.12
906.297	10485.08
906.611	10398.75
906.924	10373.89
907.237	10341.8
907.551	10336.61
907.864	10245.76
908.177	10211.19
908.491	10152.43
908.804	10091.42
909.117	10099.55
909.43	10031.3
909.743	10047.12
910.056	9974.58
910.368	9910.63
910.681	9837.86
910.994	9809.61
911.307	9801.48
911.619	9696.4
911.932	9806.68
912.244	9653.46
912.557	9646.91
912.869	9566.91
913.181	9542.96
913.494	9512.9
913.806	9514.93
914.118	9451.66
914.43	9358.78
914.742	9368.27
915.054	9286.69
915.366	9343.41
915.678	9239.01
915.99	9250.08
916.302	9212.57
916.613	9105.9
916.925	9154.94
917.236	9068.39
917.548	8989.75
917.859	8992.91
918.171	8914.95
918.482	8900.26
918.794	8896.42
919.105	8796.08
919.416	8755.41
919.727	8721.06
920.038	8762.18
920.349	8632.92
920.66	8692.36
920.971	8631.79
921.282	8618.69
921.593	8471.12
921.903	8474.06
922.214	8434.74
922.525	8445.58
922.835	8317.22
923.146	8296.66
923.456	8312.93
923.767	8233.84
924.077	8243.1
924.387	8174.4
924.697	8079.72
925.008	8089.21
925.318	8077.68
925.628	8083.33
925.938	8024.35
926.248	7917.46
926.558	7866.62
926.867	7895.99
927.177	7814.19
927.487	7843.34
927.796	7702.33
928.106	7803.57
928.416	7714.53
928.725	7717.01
929.034	7666.39
929.344	7622.33
929.653	7646.06
929.962	7573.52
930.271	7491.26
930.581	7524.25
930.89	7443.8
931.199	7439.73
931.508	7399.28
931.817	7381.88
932.125	7388.89
932.434	7314.77
932.743	7230.93
933.051	7208.33
933.36	7157.71
933.669	7115.45
933.977	7132.4
934.286	7155
934.594	7061.44
934.902	7065.96
935.21	7008.33
935.519	6962.91
935.827	6938.96
936.135	6917.04
936.443	6875
936.751	6840.43
937.059	6789.13
937.367	6748.68
937.674	6765.63
937.982	6712.3
938.29	6692.63
938.597	6710.94
938.905	6627.1
939.213	6655.35
939.52	6559.53
939.827	6526.76
940.135	6536.71
940.442	6516.37
940.749	6438.86
941.056	6435.24
941.363	6336.49
941.67	6400.89
941.977	6377.16
942.284	6331.74
942.591	6312.76
942.898	6252.65
943.205	6247
943.511	6203.83
943.818	6166.32
944.125	6149.37
944.431	6111.41
944.738	6117.06
945.044	6073.67
945.35	6049.26
945.657	6052.65
945.963	5977.17
946.269	5909.15
946.575	5900.11
946.881	5875.03
947.187	5861.92
947.493	5888.14
947.799	5848.82
948.105	5816.5
948.41	5787.12
948.716	5771.08
949.022	5753.45
949.327	5679.1
949.633	5644.98
949.938	5691.53
950.244	5677.75
950.549	5553
950.854	5565.21
951.16	5587.58
951.465	5531.31
951.77	5432.1
952.075	5455.61
952.38	5409.05
952.685	5431.65
952.99	5375.38
953.294	5349.85
953.599	5355.95
953.904	5340.35
954.209	5288.83
954.513	5287.25
954.818	5261.26
955.122	5240.02
955.426	5186.01
955.731	5141.94
956.035	5179.23
956.339	5155.27
956.643	5126.8
956.948	5058.1
957.252	5052
957.556	5033.92
957.86	5019.01
958.163	5018.33
958.467	4971.55
958.771	4977.65
959.075	4958.44
959.378	4897.2
959.682	4895.17
959.985	4905.79
960.289	4837.32
960.592	4786.24
960.896	4817.66
961.199	4817.2
961.502	4772.46
961.805	4707.38
962.108	4698.34
962.411	4741.27
962.714	4654.27
963.017	4692.01
963.32	4647.04
963.623	4649.98
963.926	4580.6
964.228	4575.18
964.531	4565.69
964.833	4526.36
965.136	4492.24
965.438	4463.09
965.741	4454.05
966.043	4489.3
966.345	4435.07
966.648	4410.21
966.95	4419.7
967.252	4383.77
967.554	4365.69
967.856	4287.73
968.158	4281.85
968.46	4311
968.761	4297.44
969.063	4274.39
969.365	4247.05
969.666	4217.45
969.968	4152.59
970.269	4161.18
970.571	4195.07
970.872	4181.74
971.174	4123.66
971.475	4093.61
971.776	4117.79
972.077	4080.05
972.378	4059.26
972.679	4042.31
972.98	4028.52
973.281	3964.34
973.582	4008.19
973.883	3949.2
974.183	3980.84
974.484	3934.52
974.785	3927.96
975.085	3910.11
975.386	3904.91
975.686	3867.85
975.986	3830.34
976.287	3845.93
976.587	3758.47
976.887	3787.63
977.187	3748.08
977.487	3732.71
977.787	3690.91
978.087	3721.87
978.387	3664.47
978.687	3692.04
978.987	3652.49
979.286	3615.88
979.586	3633.51
979.885	3618.59
980.185	3581.76
980.484	3580.4
980.784	3599.38
981.083	3549.44
981.382	3534.07
981.682	3568.2
981.981	3488.2
982.28	3487.97
982.579	3443.45
982.878	3446.17
983.177	3439.61
983.475	3409.11
983.774	3412.27
984.073	3389.9
984.372	3346.06
984.67	3382.21
984.969	3365.49
985.267	3301.99
985.566	3305.61
985.864	3333.18
986.162	3249.11
986.461	3266.96
986.759	3261.31
987.057	3239.17
987.355	3193.97
987.653	3200.3
987.951	3204.82
988.249	3175.67
988.547	3121.2
988.844	3155.33
989.142	3138.15
989.44	3101.09
989.737	3097.93
990.035	3095.22
990.332	3122.79
990.63	3069
990.927	3049.34
991.224	2984.26
991.521	2996.69
991.819	2976.57
992.116	2968.44
992.413	2996.46
992.71	2952.85
993.006	2931.83
993.303	2939.74
993.6	2924.37
993.897	2873.53
994.193	2870.59
994.49	2858.39
994.787	2856.35
995.083	2836.69
995.379	2835.11
995.676	2798.73
995.972	2799.4
996.268	2775.68
996.565	2736.81
996.861	2778.39
997.157	2721.89
997.453	2704.94
997.749	2709.46
998.044	2711.04
998.34	2712.85
998.636	2638.73
998.932	2633.08
999.227	2593.31
999.523	2643.25
999.818	2605.96
1000.114	2578.17
1000.409	2577.26
1000.704	2578.17
1001	2565.51
1001.295	2521.67
1001.59	2524.83
1001.885	2545.85
1002.18	2512.86
1002.475	2487.55
1002.77	2482.58
1003.065	2450.26
1003.359	2435.57
1003.654	2439.41
1003.949	2381.34
1004.243	2403.93
1004.538	2371.17
1004.832	2379.53
1005.127	2367.32
1005.421	2328.46
1005.715	2274.67
1006.009	2330.94
1006.304	2287.55
1006.598	2285.07
1006.892	2262.69
1007.186	2267.44
1007.48	2251.85
1007.773	2246.88
1008.067	2205.3
1008.361	2201.45
1008.655	2196.03
1008.948	2188.8
1009.242	2155.13
1009.535	2166.2
1009.829	2136.6
1010.122	2116.48
1010.415	2111.96
1010.708	2051.17
1011.001	2098.63
1011.295	2062.93
1011.588	2083.26
1011.881	2065.86
1012.173	2038.52
1012.466	2037.84
1012.759	2061.34
1013.052	2010.95
1013.344	2003.27
1013.637	1974.57
1013.93	1962.36
1014.222	1946.77
1014.514	1957.39
1014.807	1944.29
1015.099	1926.21
1015.391	1940.22
1015.683	1875.13
1015.976	1890.73
1016.268	1885.53
1016.56	1862.48
1016.851	1852.76
1017.143	1835.14
1017.435	1827.68
1017.727	1821.8
1018.018	1803.95
1018.31	1797.4
1018.602	1782.26
1018.893	1750.39
1019.185	1765.98
1019.476	1740.67
1019.767	1718.3
1020.058	1727.12
1020.35	1692.54
1020.641	1683.73
1020.932	1695.48
1021.223	1655.71
1021.514	1648.7
1021.804	1640.34
1022.095	1633.56
1022.386	1629.72
1022.677	1600.57
1022.967	1607.8
1023.258	1601.92
1023.548	1586.78
1023.839	1573.9
1024.129	1574.13
1024.419	1568.02
1024.709	1559.89
1025	1523.96
1025.29	1491.42
1025.58	1496.39
1025.87	1497.52
1026.16	1487.57
1026.449	1476.73
1026.739	1467.91
1027.029	1450.29
1027.319	1454.58
1027.608	1429.04
1027.898	1405.09
1028.187	1429.27
1028.477	1395.82
1028.766	1439.67
1029.055	1416.62
1029.344	1372.32
1029.634	1346.33
1029.923	1361.25
1030.212	1387.24
1030.501	1335.49
1030.79	1331.42
1031.078	1321.7
1031.367	1301.82
1031.656	1297.07
1031.945	1281.25
1032.233	1289.39
1032.522	1274.02
1032.81	1273.57
1033.099	1277.18
1033.387	1250.52
1033.675	1253.46
1033.963	1238.09
1034.251	1224.98
1034.54	1206.45
1034.828	1209.39
1035.116	1202.16
1035.403	1180.69
1035.691	1177.07
1035.979	1166.9
1036.267	1174.59
1036.554	1163.06
1036.842	1150.41
1037.129	1142.72
1037.417	1133.68
1037.704	1142.05
1037.992	1135.94
1038.279	1117.64
1038.566	1088.71
1038.853	1088.71
1039.14	1088.71
