Data from white_poster_card_FLMS001491_00083.txt Node
Date: Wed Feb 08 11:52:07 GMT 2017
User: dcchb
Spectrometer: FLMS00149
Trigger mode: 0
Integration Time (sec): 2.000000E-2
Scans to average: 10
Electric dark correction enabled: true
Nonlinearity correction enabled: false
Boxcar width: 0
XAxis mode: Wavelengths
Number of Pixels in Spectrum: 2048
>>>>>Begin Spectral Data<<<<<
341.393	-14.25
341.776	-14.25
342.16	-14.25
342.543	-57.87
342.927	-81.59
343.31	-72.78
343.693	-83.18
344.077	-47.47
344.46	-59.45
344.843	-59.9
345.226	-36.4
345.61	-39.34
345.993	-30.07
346.376	-0.24
346.759	15.35
347.142	46.09
347.525	45.41
347.908	45.86
348.291	68.68
348.674	92.19
349.057	115.24
349.44	121.56
349.823	141
350.206	166.08
350.588	174.9
350.971	209.7
351.354	219.64
351.737	251.5
352.119	246.08
352.502	260.77
352.884	287.89
353.267	289.24
353.65	298.74
354.032	296.93
354.414	313.88
354.797	310.71
355.179	325.63
355.562	320.43
355.944	329.69
356.326	325.4
356.709	334.21
357.091	330.82
357.473	347.1
357.855	357.26
358.238	350.94
358.62	339.86
359.002	333.31
359.384	345.97
359.766	339.41
360.148	347.55
360.53	363.82
360.912	339.19
361.294	303.71
361.676	321.33
362.057	322.92
362.439	350.94
362.821	350.71
363.203	347.1
363.584	297.83
363.966	327.21
364.348	321.56
364.729	321.33
365.111	329.02
365.493	334.89
365.874	313.88
366.256	332.41
366.637	291.96
367.019	298.96
367.4	305.29
367.781	309.81
368.163	310.26
368.544	323.14
368.925	284.72
369.306	304.16
369.688	328.79
370.069	304.38
370.45	315.23
370.831	311.39
371.212	315.23
371.593	302.8
371.974	324.95
372.355	311.16
372.736	318.17
373.117	321.56
373.498	325.18
373.879	313.65
374.26	307.32
374.641	314.1
375.021	312.07
375.402	340.09
375.783	336.93
376.163	322.69
376.544	318.4
376.925	329.47
377.305	324.05
377.686	323.14
378.066	319.53
378.447	339.41
378.827	331.28
379.208	321.79
379.588	345.06
379.968	341.67
380.349	366.76
380.729	333.76
381.109	343.71
381.489	340.32
381.87	343.25
382.25	365.4
382.63	342.12
383.01	347.1
383.39	339.41
383.77	358.39
384.15	359.3
384.53	353.87
384.91	370.82
385.29	343.93
385.67	359.98
386.049	353.42
386.429	365.85
386.809	366.3
387.189	360.88
387.568	344.16
387.948	380.99
388.328	378.96
388.707	403.59
389.087	367.66
389.466	396.81
389.846	384.61
390.225	362.24
390.605	386.64
390.984	387.55
391.363	389.13
391.743	382.35
392.122	406.53
392.501	390.71
392.881	429.58
393.26	396.36
393.639	383.48
394.018	399.52
394.397	432.06
394.776	408.11
395.155	421.9
395.534	395
395.913	414.66
396.292	427.09
396.671	420.09
397.05	413.99
397.429	456.02
397.808	434.78
398.186	421.9
398.565	436.81
398.944	438.39
399.323	418.51
399.701	440.2
400.08	434.78
400.458	417.38
400.837	442.91
401.215	451.5
401.594	443.36
401.972	450.37
402.351	469.58
402.729	466.64
403.107	477.26
403.486	458.28
403.864	482.01
404.242	477.26
404.62	480.43
404.999	498.96
405.377	489.01
405.755	472.52
406.133	493.53
406.511	505.74
406.889	506.64
407.267	515
407.645	513.42
408.023	546.86
408.401	517.71
408.779	551.84
409.156	558.39
409.534	562.46
409.912	566.75
410.29	605.62
410.667	595
411.045	591.16
411.422	595.22
411.8	595.45
412.178	652.4
412.555	649.23
412.933	675.9
413.31	669.35
413.687	699.4
414.065	716.8
414.442	714.32
414.819	717.03
415.197	773.75
415.574	771.49
415.951	778.5
416.328	782.56
416.705	794.77
417.082	802
417.46	811.72
417.837	822.34
418.214	844.94
418.591	876.35
418.967	882.45
419.344	870.7
419.721	898.72
420.098	900.08
420.475	925.16
420.852	923.8
421.228	957.93
421.605	966.29
421.982	1000.41
422.358	1007.87
422.735	1060.3
423.111	997.25
423.488	1047.87
423.864	1028.21
424.241	1065.95
424.617	1080.18
424.994	1077.02
425.37	1118.37
425.746	1093.29
426.123	1112.5
426.499	1149.11
426.875	1139.62
427.251	1143.68
427.627	1208.32
428.003	1208.99
428.379	1231.37
428.756	1238.37
429.132	1269.11
429.507	1269.33
429.883	1299.61
430.259	1305.71
430.635	1317.47
431.011	1348.88
431.387	1393.17
431.763	1416.45
432.138	1411.7
432.514	1404.02
432.89	1426.39
433.265	1465.03
433.641	1492.15
434.016	1517.91
434.392	1529.44
434.767	1555.43
435.143	1564.69
435.518	1581.19
435.894	1619.15
436.269	1599.94
436.644	1652.15
437.02	1660.06
437.395	1677.91
437.77	1686.5
438.145	1696.66
438.52	1718.13
438.895	1702.99
439.271	1752.93
439.646	1789.77
440.021	1808.53
440.395	1808.07
440.77	1810.79
441.145	1820.73
441.52	1859.6
441.895	1891.69
442.27	1902.76
442.645	1877.45
443.019	1901.18
443.394	1882.42
443.769	1918.58
444.143	1909.31
444.518	1949.54
444.892	1953.61
445.267	1942.53
445.641	1983.21
446.016	2013.27
446.39	1984.79
446.764	2021.85
447.139	2013.49
447.513	2033.38
447.887	2084.9
448.262	2051.91
448.636	2057.56
449.01	2102.08
449.384	2088.29
449.758	2106.82
450.132	2171.45
450.506	2159.48
450.88	2176.65
451.254	2165.58
451.628	2197.67
452.002	2236.09
452.376	2258.68
452.75	2261.17
453.123	2282.86
453.497	2344.78
453.871	2341.17
454.244	2416.42
454.618	2408.51
454.992	2436.08
455.365	2444.67
455.739	2484.44
456.112	2457.77
456.486	2512.24
456.859	2546.81
457.232	2607.6
457.606	2624.55
457.979	2620.26
458.352	2705
458.725	2743.42
459.099	2712.23
459.472	2768.05
459.845	2784.55
460.218	2804.88
460.591	2853.47
460.964	2844.2
461.337	2916.52
461.71	2958.55
462.083	3006.23
462.456	3004.65
462.829	3024.31
463.201	3081.26
463.574	3075.16
463.947	3142.73
464.32	3182.05
464.692	3239.67
465.065	3230.86
465.438	3292.1
465.81	3315.6
466.183	3332.33
466.555	3446.67
466.928	3449.61
467.3	3454.81
467.672	3486.45
468.045	3554.02
468.417	3591.98
468.789	3634.92
469.161	3692.32
469.534	3719.44
469.906	3799.66
470.278	3819.09
470.65	3877.62
471.022	3922.14
471.394	3987.9
471.766	4023.61
472.138	4065.64
472.51	4151.52
472.882	4200.78
473.253	4232.42
473.625	4351.51
473.997	4409.14
474.369	4426.54
474.74	4489.59
475.112	4541.34
475.484	4673.08
475.855	4699.3
476.227	4761.22
476.598	4882.12
476.97	4884.38
477.341	5028.33
477.713	5078.5
478.084	5096.35
478.455	5234.2
478.827	5267.87
479.198	5399.39
479.569	5442.55
479.94	5620.86
480.311	5640.06
480.682	5730.68
481.053	5828.31
481.424	5985.14
481.795	6006.61
482.166	6102.2
482.537	6179.26
482.908	6301.74
483.279	6367.73
483.65	6425.58
484.021	6615.18
484.391	6754.16
484.762	6706.7
485.133	6809.3
485.503	6884.1
485.874	7003.64
486.244	7110.53
486.615	7258.55
486.985	7324.77
487.356	7466.91
487.726	7472.56
488.097	7661.93
488.467	7725.88
488.837	7868.71
489.207	7934.92
489.578	8091.98
489.948	8190.5
490.318	8219.66
490.688	8285.87
491.058	8402.25
491.428	8516.37
491.798	8625.52
492.168	8754.11
492.538	8832.52
492.908	8889.92
493.278	9098.5
493.648	9064.61
494.017	9178.73
494.387	9251.27
494.757	9344.82
495.126	9467.76
495.496	9466.86
495.866	9583.46
496.235	9658.26
496.605	9775.77
496.974	9858.71
497.344	9957.01
497.713	9992.72
498.082	10033.39
498.452	10216.44
498.821	10166.72
499.19	10241.98
499.559	10368.98
499.928	10457.11
500.298	10498.24
500.667	10632.47
501.036	10616.43
501.405	10727.61
501.774	10686.26
502.143	10857.78
502.512	10919.25
502.88	11002.86
503.249	11134.16
503.618	11179.58
503.987	11185.91
504.356	11300.48
504.724	11437.88
505.093	11433.13
505.462	11495.05
505.83	11586.35
506.199	11624.09
506.567	11803.74
506.936	11819.56
507.304	11948.6
507.672	12032.21
508.041	12155.15
508.409	12188.37
508.777	12282.37
509.145	12338.19
509.514	12361.69
509.882	12466.32
510.25	12568.92
510.618	12726.2
510.986	12739.54
511.354	12835.81
511.722	12856.37
512.09	13026.31
512.458	13056.59
512.826	13203.71
513.193	13227.89
513.561	13338.84
513.929	13443.25
514.297	13596.01
514.664	13631.94
515.032	13767.53
515.4	13793.3
515.767	13923.24
516.135	14018.6
516.502	14008.21
516.869	14284.81
517.237	14342.89
517.604	14306.95
517.972	14479.38
518.339	14552.37
518.706	14556.44
519.073	14689.77
519.44	14867.84
519.808	15018.57
520.175	14958.69
520.542	15153.94
520.909	15410.2
521.276	15371.11
521.643	15437.32
522.009	15578.56
522.376	15762.28
522.743	15827.37
523.11	16084.08
523.477	16076.4
523.843	16252.67
524.21	16433.45
524.577	16591.64
524.943	16602.71
525.31	16732.65
525.676	16777.62
526.043	17030.95
526.409	17112.76
526.776	17336.25
527.142	17345.07
527.508	17432.97
527.874	17647.43
528.241	17749.35
528.607	17828.44
528.973	17947.08
529.339	18015.33
529.705	18121.32
530.071	18283.35
530.437	18336.23
530.803	18486.05
531.169	18675.2
531.535	18644.24
531.901	18774.41
532.267	18848.98
532.632	18918.13
532.998	18963.56
533.364	19099.37
533.73	19236.54
534.095	19398.35
534.461	19385.01
534.826	19544.56
535.192	19618.23
535.557	19720.6
535.923	19792.01
536.288	19792.46
536.653	19918.78
537.019	19892.57
537.384	20054.15
537.749	20132.56
538.114	20075.16
538.479	20236.97
538.845	20448.94
539.21	20382.5
539.575	20462.27
539.94	20534.36
540.305	20760.12
540.67	20729.61
541.034	20713.11
541.399	20917.18
541.764	20925.54
542.129	21092.99
542.494	21115.59
542.858	21188.13
543.223	21182.71
543.587	21399.65
543.952	21558.74
544.316	21415.02
544.681	21522.13
545.045	21552.41
545.41	21705.86
545.774	21858.62
546.138	21856.81
546.503	21893.2
546.867	21955.79
547.231	22112.62
547.595	22161.21
547.959	22260.87
548.324	22333.41
548.688	22326.18
549.052	22496.57
549.416	22522.78
549.779	22571.14
550.143	22548.55
550.507	22827.18
550.871	22916.67
551.235	22790.8
551.599	22998.7
551.962	23176.1
552.326	23071.24
552.689	23352.82
553.053	23234.86
553.417	23275.76
553.78	23709.19
554.143	23583.09
554.507	23757.1
554.87	23876.19
555.234	23938.57
555.597	23931.79
555.96	24029.41
556.323	24180.14
556.686	24218.33
557.05	24369.51
557.413	24448.38
557.776	24580.81
558.139	24636.4
558.502	24684.08
558.865	24837.75
559.228	24892.66
559.59	25062.83
559.953	25092.43
560.316	25407.68
560.679	25437.06
561.041	25526.32
561.404	25708.24
561.767	25885.86
562.129	25770.16
562.492	26003.6
562.854	26075.23
563.217	26106.87
563.579	26244.27
563.941	26358.84
564.304	26542.56
564.666	26725.84
565.028	26696.69
565.39	26875.66
565.753	26985.72
566.115	27077.24
566.477	27085.38
566.839	27343.9
567.201	27520.39
567.563	27477
567.925	27771.01
568.287	27592.93
568.648	27774.85
569.01	27858.46
569.372	28146.82
569.734	28010.77
570.095	28297.55
570.457	28324.66
570.819	28483.98
571.18	28433.36
571.542	28698.89
571.903	28560.59
572.265	28700.47
572.626	28848.04
572.987	28865.67
573.349	28942.28
573.71	29143.85
574.071	29197.18
574.432	29260.01
574.794	29526.44
575.155	29501.13
575.516	29318.54
575.877	29515.37
576.238	29616.83
576.599	29623.84
576.96	29671.52
577.32	29749.26
577.681	29918.97
578.042	29968.01
578.403	29949.48
578.763	30094.79
579.124	30056.14
579.485	30098.86
579.845	30256.37
580.206	30180.21
580.566	30187.89
580.927	30338.85
581.287	30432.86
581.648	30305.63
582.008	30405.06
582.368	30371.39
582.728	30409.13
583.089	30388.79
583.449	30414.55
583.809	30505.4
584.169	30529.58
584.529	30409.13
584.889	30692.06
585.249	30370.49
585.609	30511.5
585.969	30582.91
586.329	30459.07
586.688	30553.53
587.048	30601.89
587.408	30597.6
587.768	30437.6
588.127	30570.03
588.487	30451.39
588.846	30650.48
589.206	30500.2
589.565	30556.92
589.925	30629.24
590.284	30552.18
590.643	30662.91
591.003	30624.49
591.362	30730.93
591.721	30756.01
592.08	30673.53
592.44	30756.92
592.799	30756.92
593.158	30660.2
593.517	30726.41
593.876	30804.6
594.235	30815.22
594.593	30800.76
594.952	30808.44
595.311	30731.83
595.67	30716.92
596.029	31006.18
596.387	30979.96
596.746	30984.26
597.104	30884.15
597.463	31003.46
597.822	30933.64
598.18	30799.4
598.538	30814.09
598.897	31206.4
599.255	30894.54
599.613	31300.63
599.972	31038.27
600.33	31177.02
600.688	31018.15
601.046	31167.53
601.404	31262.89
601.762	31235.32
602.12	31377.47
602.478	31241.65
602.836	31430.57
603.194	31365.49
603.552	31393.96
603.91	31289.56
604.268	31431.25
604.625	31329.33
604.983	31360.74
605.341	31324.59
605.698	31501.3
606.056	31605.03
606.413	31471.47
606.771	31646.16
607.128	31659.72
607.485	31539.04
607.843	31649.55
608.2	31789.66
608.557	31757.57
608.914	31639.15
609.272	31967.73
609.629	31942.65
609.986	31963.44
610.343	32038.69
610.7	32032.82
611.057	32012.7
611.414	32038.24
611.771	31963.67
612.127	32212.92
612.484	32103.77
612.841	32197.11
613.198	32238.46
613.554	32185.35
613.911	32344.45
614.267	32333.37
614.624	32389.19
614.98	32280.49
615.337	32531.56
615.693	32329.98
616.05	32385.12
616.406	32549.64
616.762	32450.43
617.118	32441.39
617.475	32532.01
617.831	32533.37
618.187	32590.09
618.543	32523.88
618.899	32764.55
619.255	32636.19
619.611	32652.01
619.967	32732.46
620.323	32724.32
620.678	32645.91
621.034	32606.59
621.39	32579.47
621.746	32555.74
622.101	32884.77
622.457	32621.28
622.812	32747.6
623.168	32725.45
623.523	32846.81
623.879	32904.88
624.234	32713.93
624.589	32820.37
624.945	32922.51
625.3	32807.48
625.655	32746.7
626.01	32813.36
626.365	32778.11
626.72	32742.63
627.075	32775.85
627.43	32800.03
627.785	32652.91
628.14	32678.22
628.495	32799.58
628.85	32673.48
629.205	32619.69
629.559	32726.81
629.914	32639.58
630.269	32696.08
630.623	32466.48
630.978	32560.49
631.332	32621.28
631.687	32491.11
632.041	32451.56
632.396	32485.46
632.75	32427.38
633.104	32450.43
633.459	32276.88
633.813	32278.01
634.167	32191
634.521	32260.15
634.875	32285.01
635.229	32193.49
635.583	32219.7
635.937	32082.08
636.291	32078.46
636.645	32061.06
636.999	31950.78
637.352	32009.77
637.706	31889.09
638.06	32105.13
638.413	31886.38
638.767	31746.72
639.121	31887.51
639.474	31682.77
639.828	31626.05
640.181	31715.31
640.534	31673.05
640.888	31549.89
641.241	31424.24
641.594	31372.27
641.947	31728.64
642.301	31381.99
642.654	31403
643.007	31422.89
643.36	31367.3
643.713	31339.05
644.066	31359.16
644.419	31199.84
644.771	30935.22
645.124	30719.4
645.477	30683.02
645.83	30504.95
646.182	30328
646.535	30195.58
646.888	30282.58
647.24	29982.02
647.593	30278.29
647.945	30059.53
648.298	30012.76
648.65	29828.81
649.002	29807.79
649.355	29985.19
649.707	29889.37
650.059	30085.52
650.411	30405.74
650.763	30422.24
651.115	30681.21
651.467	30585.4
651.819	30557.15
652.171	30516.7
652.523	30382.46
652.875	30556.02
653.227	30391.05
653.578	30512.86
653.93	30368.23
654.282	30292.97
654.633	30180.66
654.985	30332.3
655.337	30249.36
655.688	30186.31
656.039	30299.08
656.391	29945.87
656.742	30015.69
657.094	30144.5
657.445	30270.15
657.796	30081.91
658.147	30022.7
658.498	30065.41
658.849	30029.7
659.2	29960.78
659.551	29833.78
659.902	29960.1
660.253	29840.33
660.604	30051.63
660.955	29818.18
661.306	29903.38
661.656	29863.16
662.007	29848.47
662.358	29796.94
662.708	29759.2
663.059	29812.99
663.409	29556.27
663.76	29764.63
664.11	29728.47
664.461	29734.35
664.811	29718.3
665.161	29668.81
665.511	29560.79
665.862	29635.36
666.212	29672.65
666.562	29678.75
666.912	29738.64
667.262	29444.18
667.612	29532.99
667.962	29525.99
668.312	29476.95
668.662	29642.37
669.011	29549.04
669.361	29500.91
669.711	29438.53
670.06	29494.8
670.41	29388.82
670.76	29378.65
671.109	29378.2
671.459	29268.14
671.808	29365.77
672.157	29302.49
672.507	29205.55
672.856	29228.82
673.205	29173.68
673.554	29343.85
673.904	29109.28
674.253	29241.02
674.602	29173
674.951	28933.91
675.3	28605.34
675.649	29086.68
675.998	29025.66
676.346	29124.87
676.695	29100.92
677.044	28836.06
677.393	28954.93
677.741	28966.23
678.09	29020.47
678.438	28792
678.787	28914.71
679.135	28979.34
679.484	28728.27
679.832	28795.16
680.181	28620.25
680.529	28770.08
680.877	28579.8
681.225	28604.21
681.573	28745.9
681.922	28414.38
682.27	28392.69
682.618	28439.69
682.966	28380.71
683.314	28475.85
683.661	28329.41
684.009	28242.41
684.357	28132.58
684.705	28083.77
685.053	28150.43
685.4	28153.14
685.748	28069.53
686.095	27933.71
686.443	27730.1
686.79	27772.14
687.138	27827.73
687.485	27822.53
687.832	27710.9
688.18	27667.06
688.527	27546.83
688.874	27559.94
689.221	27512.48
689.568	27346.39
689.915	27391.13
690.262	27357.46
690.609	27142.78
690.956	27164.24
691.303	27212.15
691.65	27067.97
691.997	26995.43
692.344	26851.26
692.69	26803.8
693.037	26782.11
693.383	26659.17
693.73	26675.44
694.077	26605.16
694.423	26487.65
694.769	26406.07
695.116	26325.17
695.462	26330.14
695.808	26254.21
696.155	26181.22
696.501	26028
696.847	26028.91
697.193	25809.02
697.539	25837.05
697.885	25743.26
698.231	25688.8
698.577	25598.18
698.923	25633.66
699.269	25412.2
699.614	25300.11
699.96	25301.92
700.306	25437.96
700.651	25190.96
700.997	25181.47
701.342	25056.73
701.688	25069.61
702.033	24984.19
702.379	24992.55
702.724	24860.35
703.069	24906.9
703.415	24684.76
703.76	24542.62
704.105	24655.61
704.45	24572.9
704.795	24394.82
705.14	24274.6
705.485	24378.78
705.83	24307.82
706.175	24388.5
706.52	24175.62
706.865	24089.07
707.209	24020.6
707.554	24028.96
707.899	24060.6
708.243	23931.11
708.588	23852.47
708.932	23697.44
709.277	23620.16
709.621	23694.73
709.966	23584.68
710.31	23499.71
710.654	23304.01
710.998	23473.94
711.342	23361.86
711.687	23292.25
712.031	23299.26
712.375	23089.32
712.719	23212.71
713.063	23043.9
713.407	23168.19
713.75	23065.82
714.094	23046.61
714.438	22893.62
714.782	22901.76
715.125	22718.03
715.469	22882.77
715.812	22731.82
716.156	22569.79
716.499	22638.94
716.843	22645.94
717.186	22425.84
717.53	22541.77
717.873	22570.24
718.216	22390.81
718.559	22381.09
718.902	22269.46
719.246	22337.7
719.589	22177.03
719.932	22094.09
720.275	22160.53
720.617	22192.17
720.96	22057.71
721.303	22010.03
721.646	22064.26
721.989	21865.17
722.331	21965.28
722.674	21857.72
723.016	21971.16
723.359	21859.98
723.701	21825.63
724.044	21715.57
724.386	21637.16
724.729	21721
725.071	21558.06
725.413	21583.15
725.755	21553.77
726.097	21431.29
726.439	21372.98
726.782	21363.49
727.124	21434.45
727.465	21327.11
727.807	21324.85
728.149	21268.58
728.491	21131.18
728.833	21159.88
729.175	21036.49
729.516	21145.42
729.858	21135.48
730.199	21121.92
730.541	21021.81
730.882	20895.48
731.224	21038.3
731.565	20940.45
731.906	20872.88
732.248	20891.19
732.589	20831.08
732.93	20690.06
733.271	20689.39
733.612	20787.24
733.953	20742.27
734.294	20597.18
734.635	20636.51
734.976	20737.52
735.317	20607.81
735.658	20438.54
735.999	20522.84
736.339	20531.2
736.68	20471.31
737.021	20354.25
737.361	20275.84
737.702	20394.7
738.042	20280.13
738.383	20252.79
738.723	20290.3
739.063	20235.16
739.404	20218.44
739.744	20124.65
740.084	20160.59
740.424	20028.84
740.764	19960.14
741.104	20098.21
741.444	19956.07
741.784	19827.94
742.124	19917.65
742.464	19892.8
742.804	19819.13
743.143	19805.79
743.483	19738.45
743.823	19651.9
744.162	19673.59
744.502	19724.44
744.841	19632.69
745.181	19664.55
745.52	19601.5
745.86	19558.12
746.199	19506.59
746.538	19493.26
746.877	19436.08
747.216	19481.51
747.556	19409.87
747.895	19395.18
748.234	19331.23
748.573	19333.04
748.911	19267.95
749.25	19175.98
749.589	19205.36
749.928	19177.56
750.267	19116.32
750.605	19042.65
750.944	19037.23
751.283	18943.89
751.621	18989.32
751.96	18844.46
752.298	18832.49
752.636	18909.09
752.975	18761.3
753.313	18712.04
753.651	18818.02
753.989	18643.56
754.327	18640.63
754.666	18476.79
755.004	18548.2
755.342	18640.85
755.679	18595.2
756.017	18510.01
756.355	18516.56
756.693	18355.66
757.031	18291.03
757.368	18375.77
757.706	18322.89
758.044	18210.81
758.381	18174.42
758.719	18099.85
759.056	18184.59
759.394	18016.24
759.731	17973.75
760.068	17986.86
760.405	17847.43
760.743	17755.9
761.08	17755.45
761.417	17696.7
761.754	17667.09
762.091	17555.91
762.428	17585.74
762.765	17433.65
763.102	17502.58
763.438	17343.26
763.775	17312.3
764.112	17233.21
764.449	17230.27
764.785	17202.7
765.122	17107.78
765.458	16996.15
765.795	17039.09
766.131	16928.81
766.467	16891.97
766.804	16820.56
767.14	16779.43
767.476	16694.24
767.812	16667.12
768.148	16700.34
768.485	16491.98
768.821	16560.91
769.157	16476.39
769.492	16438.88
769.828	16424.41
770.164	16229.16
770.5	16268.71
770.836	16191.65
771.171	16179
771.507	16048.6
771.842	15960.92
772.178	16000.47
772.513	15931.77
772.849	15861.04
773.184	15739.46
773.519	15688.84
773.855	15685.45
774.19	15545.79
774.525	15608.62
774.86	15540.82
775.195	15515.96
775.53	15447.04
775.865	15309.41
776.2	15182.19
776.535	15111.45
776.87	15256.53
777.205	15075.97
777.539	15091.79
777.874	15017.9
778.209	14861.74
778.543	14904.23
778.878	14857.67
779.212	14819.03
779.547	14675.53
779.881	14699.26
780.215	14673.72
780.55	14705.59
780.884	14577.68
781.218	14512.6
781.552	14494.52
781.886	14397.8
782.22	14282.77
782.554	14253.4
782.888	14116.22
783.222	14181.53
783.556	14013.63
783.889	14051.14
784.223	13919.85
784.557	13918.04
784.89	13908.32
785.224	13838.49
785.557	13722.79
785.891	13784.26
786.224	13649.8
786.558	13632.17
786.891	13519.86
787.224	13480.31
787.557	13483.93
787.891	13435.56
788.224	13390.59
788.557	13386.3
788.89	13402.8
789.223	13325.51
789.556	13244.84
789.888	13127.78
790.221	13124.39
790.554	13045.29
790.887	13050.94
791.219	13031.73
791.552	12876.71
791.884	12863.83
792.217	12845.98
792.549	12804.85
792.882	12671.97
793.214	12671.29
793.546	12676.26
793.879	12555.59
794.211	12483.5
794.543	12597.85
794.875	12567.11
795.207	12542.48
795.539	12400.11
795.871	12520.11
796.203	12328.25
796.535	12280.57
796.867	12250.74
797.198	12184.07
797.53	12210.06
797.862	12138.88
798.193	12232.21
798.525	11986.34
798.856	12013.46
799.188	11894.14
799.519	11954.25
799.85	11847.58
800.182	11850.07
800.513	11863.63
800.844	11788.15
801.175	11810.3
801.506	11801.71
801.837	11720.36
802.168	11703.63
802.499	11605.1
802.83	11557.2
803.161	11515.84
803.491	11581.83
803.822	11478.55
804.153	11482.85
804.483	11356.75
804.814	11371.21
805.145	11287.82
805.475	11317.65
805.805	11343.19
806.136	11276.53
806.466	11231.1
806.796	11247.83
807.126	11142.07
807.457	11066.36
807.787	11115.63
808.117	11068.62
808.447	10970.77
808.777	11042.63
809.107	11058
809.436	10942.3
809.766	10939.59
810.096	10929.64
810.426	10894.61
810.755	10880.15
811.085	10832.02
811.414	10796.31
811.744	10689.65
812.073	10718.35
812.403	10647.84
812.732	10662.76
813.061	10629.99
813.39	10536.43
813.719	10546.15
814.049	10566.26
814.378	10554.28
814.707	10414.18
815.036	10478.81
815.365	10425.02
815.693	10364.46
816.022	10327.85
816.351	10312.94
816.68	10256.67
817.008	10271.13
817.337	10183.9
817.665	10168.31
817.994	10188.64
818.322	10148.65
818.651	10092.83
818.979	10099.61
819.307	10088.76
819.636	10124.47
819.964	10059.38
820.292	10044.92
820.62	10030.91
820.948	9928.54
821.276	10061.87
821.604	9983.45
821.932	10045.6
822.259	10063.9
822.587	10004.02
822.915	9984.58
823.243	10014.41
823.57	9943.45
823.898	9930.12
824.225	9885.38
824.553	9943.23
824.88	9982.55
825.207	9952.27
825.535	9913.17
825.862	9975.99
826.189	9886.05
826.516	9972.15
826.843	9964.24
827.17	9954.75
827.497	9944.81
827.824	9932.61
828.151	10032.26
828.478	9886.73
828.805	9978.25
829.131	9907.75
829.458	9930.57
829.785	9855.55
830.111	9868.43
830.438	9978.03
830.764	9966.5
831.09	9921.53
831.417	9870.91
831.743	9907.07
832.069	9878.82
832.395	9821.87
832.722	9907.97
833.048	9873.62
833.374	9855.09
833.7	9818.94
834.026	9721.54
834.351	9843.12
834.677	9826.62
835.003	9829.56
835.329	9810.35
835.654	9756.57
835.98	9704.36
836.306	9783.23
836.631	9700.3
836.956	9750.69
837.282	9756.34
837.607	9645.16
837.932	9708.66
838.258	9681.99
838.583	9663.23
838.908	9637.25
839.233	9653.52
839.558	9550.92
839.883	9556.57
840.208	9558.15
840.533	9494.88
840.858	9555.67
841.182	9525.61
841.507	9550.02
841.832	9448.55
842.156	9453.07
842.481	9392.28
842.805	9447.65
843.13	9427.76
843.454	9378.95
843.778	9310.02
844.103	9339.4
844.427	9285.62
844.751	9285.39
845.075	9272.28
845.399	9213.3
845.723	9159.75
846.047	9185.96
846.371	9132.18
846.695	9095.79
847.019	9041.56
847.343	9003.82
847.666	8999.3
847.99	8946.42
848.313	8926.98
848.637	8834.33
848.96	8847.89
849.284	8844.5
849.607	8824.84
849.931	8726.31
850.254	8649.48
850.577	8661.91
850.9	8619.42
851.223	8613.09
851.546	8563.38
851.869	8472.08
852.192	8559.76
852.515	8456.94
852.838	8438.41
853.161	8337.17
853.483	8350.95
853.806	8294.46
854.129	8256.04
854.451	8249.49
854.774	8239.32
855.096	8215.82
855.419	8208.81
855.741	8197.06
856.063	8125.2
856.385	8114.12
856.708	8063.28
857.03	8047.46
857.352	8043.62
857.674	8013.33
857.996	7983.96
858.318	7971.3
858.64	7940.79
858.961	7950.74
859.283	7851.76
859.605	7897.63
859.926	7907.57
860.248	7882.26
860.57	7843.85
860.891	7844.75
861.212	7763.4
861.534	7761.14
861.855	7703.96
862.176	7707.13
862.498	7769.5
862.819	7653.12
863.14	7731.76
863.461	7654.93
863.782	7666.45
864.103	7632.55
864.424	7583.74
864.745	7610.63
865.065	7628.71
865.386	7514.59
865.707	7535.15
866.027	7536.96
866.348	7506.68
866.668	7564.98
866.989	7493.12
867.309	7470.98
867.63	7479.79
867.95	7504.65
868.27	7393.46
868.59	7458.09
868.91	7440.69
869.23	7378.77
869.55	7461.48
869.87	7440.69
870.19	7363.41
870.51	7410.41
870.83	7397.31
871.15	7345.78
871.469	7352.11
871.789	7328.15
872.109	7343.07
872.428	7261.49
872.748	7297.2
873.067	7278.66
873.386	7260.81
873.706	7261.49
874.025	7274.14
874.344	7186.92
874.663	7231.89
874.982	7211.55
875.301	7239.12
875.62	7172
875.939	7197.99
876.258	7157.31
876.577	7096.75
876.896	7126.8
877.214	7103.3
877.533	7084.32
877.852	7127.26
878.17	7103.3
878.489	7083.42
878.807	7106.47
879.125	7054.94
879.444	7040.7
879.762	7033.47
880.08	6998.67
880.398	6975.62
880.716	6995.73
881.034	6936.07
881.352	6958.45
881.67	6962.06
881.988	6934.04
882.306	6940.82
882.624	6903.31
882.941	6876.87
883.259	6912.12
883.577	6871.22
883.894	6859.92
884.212	6826.93
884.529	6829.64
884.846	6779.24
885.164	6791.9
885.481	6722.75
885.798	6736.31
886.115	6693.82
886.432	6720.26
886.75	6680.49
887.067	6643.88
887.383	6656.76
887.7	6682.75
888.017	6626.25
888.334	6593.48
888.651	6546.71
888.967	6652.47
889.284	6560.04
889.6	6484.56
889.917	6464
890.233	6501.96
890.55	6429.42
890.866	6475.75
891.182	6508.29
891.498	6454.28
891.815	6405.69
892.131	6374.96
892.447	6327.96
892.763	6376.99
893.079	6344.45
893.395	6252.02
893.71	6284.11
894.026	6232.59
894.342	6278.24
894.657	6180.84
894.973	6227.84
895.289	6223.33
895.604	6165.02
895.92	6120.73
896.235	6156.43
896.55	6129.09
896.865	6102.2
897.181	6052.26
897.496	6107.17
897.811	6060.62
898.126	6022.2
898.441	6000.05
898.756	5996.44
899.071	5965.7
899.386	5984.91
899.7	5852.94
900.015	5845.26
900.33	5868.53
900.644	5855.65
900.959	5816.78
901.273	5821.08
901.588	5726.84
901.902	5723.68
902.216	5721.87
902.531	5735.65
902.845	5721.64
903.159	5676.9
903.473	5673.96
903.787	5632.61
904.101	5632.83
904.415	5648.2
904.729	5548.54
905.042	5570.91
905.356	5534.53
905.67	5530.01
905.984	5536.34
906.297	5533.85
906.611	5485.04
906.924	5445.72
907.237	5471.48
907.551	5401.2
907.864	5389.45
908.177	5353.74
908.491	5354.65
908.804	5308.55
909.117	5312.39
909.43	5248.21
909.743	5246.85
910.056	5261.32
910.368	5218.38
910.681	5214.54
910.994	5179.06
911.307	5163.92
911.619	5164.37
911.932	5167.99
912.244	5103.58
912.557	5078.95
912.869	5027.2
913.181	5068.33
913.494	5032.62
913.806	5003.7
914.118	4945.17
914.43	4965.28
914.742	4926.41
915.054	4956.69
915.366	4927.54
915.678	4900.87
915.99	4840.99
916.302	4868.11
916.613	4832.85
916.925	4823.14
917.236	4771.16
917.548	4799.41
917.859	4781.56
918.171	4730.71
918.482	4767.09
918.794	4705.4
919.105	4717.6
919.416	4627.89
919.727	4627.21
920.038	4620.2
920.349	4589.7
920.66	4598.96
920.971	4579.75
921.282	4563.71
921.593	4545.63
921.903	4535.46
922.214	4526.42
922.525	4471.28
922.835	4485.52
923.146	4425.63
923.456	4432.41
923.767	4411.62
924.077	4376.37
924.387	4370.27
924.697	4386.99
925.008	4320.32
925.318	4338.4
925.628	4320.78
925.938	4308.35
926.248	4302.02
926.558	4299.31
926.867	4206.88
927.177	4194.23
927.487	4172.98
927.796	4172.53
928.106	4161.68
928.416	4172.31
928.725	4099.09
929.034	4157.62
929.344	4107.9
929.653	4128.69
929.962	4071.97
930.271	4049.82
930.581	4058.18
930.89	4024.51
931.199	4012.99
931.508	3981.8
931.817	4015.02
932.125	4002.14
932.434	3966.89
932.743	3938.41
933.051	3918.07
933.36	3889.6
933.669	3863.39
933.977	3881.92
934.286	3848.02
934.594	3859.55
934.902	3823.84
935.21	3798.3
935.519	3762.15
935.827	3791.75
936.135	3783.39
936.443	3748.14
936.751	3718.76
937.059	3694.35
937.367	3667.01
937.674	3690.96
937.982	3676.27
938.29	3614.58
938.597	3654.81
938.905	3643.96
939.213	3597.86
939.52	3597.18
939.827	3593.79
940.135	3569.38
940.442	3544.98
940.749	3534.13
941.056	3496.62
941.363	3486.9
941.67	3489.61
941.977	3471.76
942.284	3459.78
942.591	3409.39
942.898	3452.32
943.205	3424.3
943.511	3420.46
943.818	3378.2
944.125	3377.52
944.431	3344.53
944.738	3331.65
945.044	3303.63
945.35	3294.59
945.657	3334.59
945.963	3290.97
946.269	3277.19
946.575	3289.62
946.881	3229.51
947.187	3260.01
947.493	3198.77
947.799	3195.61
948.105	3206.68
948.41	3151.54
948.716	3167.13
949.022	3107.47
949.327	3118.55
949.633	3076.74
949.938	3094.14
950.244	3107.25
950.549	3085.33
950.854	3065.22
951.16	3046.01
951.465	3017.08
951.77	3008.72
952.075	3006.91
952.38	2986.12
952.685	3036.06
952.99	2967.59
953.294	2963.52
953.599	2956.07
953.904	2932.11
954.209	2963.75
954.513	2957.42
954.818	2921.72
955.122	2893.92
955.426	2895.05
955.731	2880.81
956.035	2848.5
956.339	2845.79
956.643	2850.98
956.948	2823.19
957.252	2824.09
957.556	2795.62
957.86	2815.28
958.163	2757.2
958.467	2767.14
958.771	2760.59
959.075	2754.26
959.378	2735.28
959.682	2766.69
959.985	2743.19
960.289	2692.57
960.592	2700.48
960.896	2695.96
961.199	2645.11
961.502	2678.11
961.805	2642.63
962.108	2596.75
962.411	2628.17
962.714	2583.42
963.017	2620.26
963.32	2570.99
963.623	2589.97
963.926	2593.59
964.228	2523.31
964.531	2559.47
964.833	2543.87
965.136	2517.21
965.438	2500.94
965.741	2499.36
966.043	2475.4
966.345	2494.38
966.648	2468.62
966.95	2484.89
967.252	2461.39
967.554	2422.52
967.856	2443.09
968.158	2422.97
968.46	2416.42
968.761	2428.62
969.063	2371.45
969.365	2374.39
969.666	2408.74
969.968	2365.57
970.269	2381.84
970.571	2353.14
970.872	2345.23
971.174	2365.12
971.475	2327.38
971.776	2302.3
972.077	2288.29
972.378	2313.15
972.679	2285.12
972.98	2282.41
973.281	2290.77
973.582	2266.37
973.883	2218.01
974.183	2237.89
974.484	2200.15
974.785	2217.55
975.085	2238.57
975.386	2216.65
975.686	2165.58
975.986	2191.79
976.287	2161.51
976.587	2152.02
976.887	2168.52
977.187	2161.06
977.487	2118.12
977.787	2129.87
978.087	2115.41
978.387	2094.62
978.687	2090.55
978.987	2116.99
979.286	2071.57
979.586	2037.67
979.885	2042.87
980.185	2058.69
980.484	2024.34
980.784	2033.15
981.083	2045.13
981.382	2028.18
981.682	2004.45
981.981	2016.66
982.28	2020.95
982.579	1964.68
982.878	1982.08
983.177	1967.17
983.475	1979.59
983.774	1953.15
984.073	1954.51
984.372	1915.87
984.67	1936.88
984.969	1912.48
985.267	1923.33
985.566	1930.33
985.864	1883.55
986.162	1905.7
986.461	1867.73
986.759	1914.96
987.057	1888.3
987.355	1857.11
987.653	1874.06
987.951	1827.28
988.249	1806.94
988.547	1825.7
988.844	1833.38
989.142	1838.81
989.44	1812.37
989.737	1795.42
990.035	1785.93
990.332	1803.55
990.63	1767.4
990.927	1734.86
991.224	1783.67
991.521	1760.17
991.819	1751.35
992.116	1742.76
992.413	1724.46
992.71	1734.4
993.006	1718.36
993.303	1688.53
993.6	1687.63
993.897	1670.9
994.193	1666.83
994.49	1677
994.787	1671.58
995.083	1669.77
995.379	1617.57
995.676	1625.71
995.972	1610.79
996.268	1608.76
996.565	1639.04
996.861	1637
997.157	1604.69
997.453	1601.07
997.749	1608.31
998.044	1571.7
998.34	1570.11
998.636	1537.12
998.932	1540.96
999.227	1558.81
999.523	1583.45
999.818	1549.32
1000.114	1526.73
1000.409	1530.57
1000.704	1512.49
1001	1528.08
1001.295	1507.74
1001.59	1524.47
1001.885	1536.67
1002.18	1493.28
1002.475	1480.17
1002.77	1459.83
1003.065	1464.81
1003.359	1447.86
1003.654	1449.21
1003.949	1448.31
1004.243	1413.73
1004.538	1423.45
1004.832	1430.91
1005.127	1378.48
1005.421	1415.32
1005.715	1388.65
1006.009	1398.37
1006.304	1391.14
1006.598	1395.43
1006.892	1388.65
1007.186	1381.64
1007.48	1380.51
1007.773	1358.14
1008.067	1359.95
1008.361	1341.19
1008.655	1347.97
1008.948	1327.63
1009.242	1310.01
1009.535	1306.39
1009.829	1287.64
1010.122	1282.66
1010.415	1281.31
1010.708	1282.66
1011.001	1314.98
1011.295	1265.49
1011.588	1252.61
1011.881	1256.68
1012.173	1241.99
1012.466	1277.01
1012.759	1228.88
1013.052	1235.43
1013.344	1234.3
1013.637	1225.49
1013.93	1203.34
1014.222	1186.85
1014.514	1216.9
1014.807	1197.92
1015.099	1192.27
1015.391	1193.63
1015.683	1166.28
1015.976	1193.85
1016.268	1170.58
1016.56	1138.49
1016.851	1145.27
1017.143	1139.16
1017.435	1120.86
1017.727	1124.7
1018.018	1126.74
1018.31	1097.13
1018.602	1134.65
1018.893	1092.61
1019.185	1095.55
1019.476	1079.28
1019.767	1097.81
1020.058	1085.61
1020.35	1074.08
1020.641	1059.17
1020.932	1070.47
1021.223	1050.13
1021.514	1065.49
1021.804	1028.66
1022.095	1033.41
1022.386	1014.65
1022.677	1016.68
1022.967	1009.68
1023.258	1011.94
1023.548	1002.45
1023.839	1015.78
1024.129	1007.42
1024.419	959.06
1024.709	976.23
1025	967.87
1025.29	987.53
1025.58	938.72
1025.87	952.73
1026.16	962.67
1026.449	949.79
1026.739	931.49
1027.029	945.05
1027.319	950.92
1027.608	909.57
1027.898	937.59
1028.187	910.7
1028.477	890.58
1028.766	907.53
1029.055	881.32
1029.344	887.65
1029.634	876.12
1029.923	885.39
1030.212	871.83
1030.501	883.35
1030.79	890.13
1031.078	843.35
1031.367	843.35
1031.656	847.65
1031.945	848.1
1032.233	847.87
1032.522	844.48
1032.81	837.03
1033.099	820.53
1033.387	834.99
1033.675	817.59
1033.963	793.64
1034.251	791.83
1034.54	811.49
1034.828	808.78
1035.116	788.67
1035.403	783.92
1035.691	786.86
1035.979	763.81
1036.267	792.51
1036.554	778.5
1036.842	748.21
1037.129	767.88
1037.417	750.93
1037.704	758.38
1037.992	746.41
1038.279	733.53
1038.566	746.41
1038.853	746.41
1039.14	746.41
