Data from White_reflection_standard_FLMS001491_084.txt Node
Date: Tue Feb 07 10:32:12 GMT 2017
User: dcchb
Spectrometer: FLMS00149
Trigger mode: 0
Integration Time (sec): 2.000000E-2
Scans to average: 10
Electric dark correction enabled: true
Nonlinearity correction enabled: false
Boxcar width: 0
XAxis mode: Wavelengths
Number of Pixels in Spectrum: 2048
>>>>>Begin Spectral Data<<<<<
341.393	-3.16
341.776	-3.16
342.16	-3.16
342.543	-43.84
342.927	-61.69
343.31	-66.66
343.693	-71.64
344.077	-79.77
344.46	-57.85
344.843	-50.39
345.226	-30.96
345.61	-43.16
345.993	-7.23
346.376	-13.11
346.759	-3.16
347.142	35.48
347.525	56.27
347.908	42.71
348.291	72.77
348.674	94.46
349.057	122.26
349.44	146.21
349.823	124.74
350.206	190.28
350.588	239.99
350.971	239.54
351.354	272.31
351.737	265.53
352.119	302.59
352.502	284.29
352.884	316.15
353.267	317.28
353.65	333.1
354.032	332.42
354.414	364.96
354.797	372.65
355.179	366.32
355.562	348.24
355.944	368.13
356.326	352.76
356.709	389.37
357.091	378.52
357.473	397.28
357.855	398.41
358.238	395.47
358.62	381.23
359.002	389.82
359.384	397.28
359.766	408.8
360.148	395.7
360.53	403.83
360.912	405.64
361.294	401.8
361.676	415.58
362.057	404.96
362.439	430.27
362.821	424.17
363.203	428.24
363.584	384.17
363.966	408.58
364.348	420.78
364.729	406.77
365.111	391.85
365.493	403.61
365.874	396.15
366.256	407.22
366.637	414.23
367.019	399.76
367.4	406.77
367.781	386.88
368.163	428.92
368.544	413.55
368.925	427.79
369.306	418.97
369.688	420.1
370.069	442.02
370.45	432.31
370.831	428.01
371.212	425.3
371.593	431.4
371.974	447.9
372.355	443.15
372.736	427.79
373.117	470.5
373.498	434.79
373.879	424.85
374.26	451.74
374.641	445.64
375.021	431.4
375.402	452.42
375.783	485.41
376.163	501.46
376.544	481.57
376.925	484.51
377.305	484.28
377.686	500.33
378.066	496.03
378.447	504.62
378.827	508.69
379.208	545.75
379.588	522.47
379.968	513.88
380.349	527.44
380.729	528.57
381.109	544.17
381.489	540.1
381.87	542.58
382.25	556.6
382.63	558.4
383.01	540.55
383.39	566.99
383.77	568.8
384.15	579.87
384.53	554.11
384.91	587.33
385.29	595.69
385.67	595.24
386.049	601.79
386.429	614.9
386.809	624.16
387.189	625.29
387.568	627.78
387.948	641.57
388.328	641.57
388.707	648.8
389.087	645.18
389.466	675.24
389.846	678.85
390.225	697.83
390.605	680.89
390.984	697.16
391.363	704.84
391.743	721.34
392.122	733.54
392.501	735.35
392.881	743.71
393.26	748
393.639	776.48
394.018	766.53
394.397	764.27
394.776	776.7
395.155	792.75
395.534	779.19
395.913	829.58
396.292	804.72
396.671	812.63
397.05	820.09
397.429	849.24
397.808	839.07
398.186	842.24
398.565	867.1
398.944	891.05
399.323	896.47
399.701	863.48
400.08	900.09
400.458	906.87
400.837	919.07
401.215	922.24
401.594	928.34
401.972	953.2
402.351	947.09
402.729	962.69
403.107	971.95
403.486	969.92
403.864	967.21
404.242	987.09
404.62	1032.52
404.999	1038.16
405.377	1053.53
405.755	1048.33
406.133	1057.83
406.511	1105.51
406.889	1094.43
407.267	1128.56
407.645	1143.47
408.023	1149.8
408.401	1142.57
408.779	1166.52
409.156	1177.37
409.534	1178.73
409.912	1212.4
410.29	1220.53
410.667	1239.74
411.045	1284.94
411.422	1280.19
411.8	1310.02
412.178	1320.64
412.555	1340.76
412.933	1338.5
413.31	1390.7
413.687	1390.7
414.065	1387.53
414.442	1396.8
414.819	1432.28
415.197	1468.89
415.574	1480.41
415.951	1485.16
416.328	1501.2
416.705	1515.44
417.082	1533.97
417.46	1577.36
417.837	1590.01
418.214	1618.71
418.591	1631.82
418.967	1619.39
419.344	1659.39
419.721	1656
420.098	1649.9
420.475	1683.12
420.852	1714.31
421.228	1738.71
421.605	1752.27
421.982	1769.22
422.358	1802.66
422.735	1801.31
423.111	1785.72
423.488	1848.99
423.864	1853.51
424.241	1887.41
424.617	1903.45
424.994	1907.97
425.37	1945.71
425.746	1932.83
426.123	1998.14
426.499	2039.04
426.875	2022.77
427.251	2053.73
427.627	2128.31
428.003	2115.42
428.379	2156.55
428.756	2160.62
429.132	2214.18
429.507	2215.31
429.883	2280.17
430.259	2289.43
430.635	2342.31
431.011	2373.95
431.387	2411.01
431.763	2464.34
432.138	2472.03
432.514	2502.99
432.89	2528.07
433.265	2558.8
433.641	2639.03
434.016	2651.68
434.392	2665.47
434.767	2736.88
435.143	2723.09
435.518	2759.25
435.894	2807.84
436.269	2841.51
436.644	2854.39
437.02	2914.95
437.395	2914.05
437.77	2959.47
438.145	2998.11
438.52	3018.9
438.895	3085.12
439.271	3057.77
439.646	3172.35
440.021	3152.46
440.395	3179.13
440.77	3172.57
441.145	3192.23
441.52	3271.78
441.895	3279.01
442.27	3337.09
442.645	3335.96
443.019	3372.34
443.394	3363.53
443.769	3399.01
444.143	3375.28
444.518	3450.3
444.892	3430.64
445.267	3469.74
445.641	3551.77
446.016	3577.08
446.39	3580.92
446.764	3574.6
447.139	3590.41
447.513	3668.6
447.887	3700.92
448.262	3692.11
448.636	3709.96
449.01	3771.88
449.384	3782.5
449.758	3851.65
450.132	3899.33
450.506	3884.42
450.88	3962.83
451.254	3933.68
451.628	4029.05
452.002	4088.71
452.376	4094.13
452.75	4109.72
453.123	4190.17
453.497	4251.64
453.871	4291.64
454.244	4400.79
454.618	4402.6
454.992	4455.25
455.365	4513.1
455.739	4605.98
456.112	4645.98
456.486	4707.22
456.859	4706.54
457.232	4822.02
457.606	4835.58
457.979	4927.1
458.352	4991.51
458.725	5011.62
459.099	5064.27
459.472	5174.1
459.845	5209.81
460.218	5271.5
460.591	5322.35
460.964	5332.52
461.337	5513.3
461.71	5591.04
462.083	5643.92
462.456	5650.92
462.829	5659.51
463.201	5804.59
463.574	5836.91
463.947	5891.82
464.32	6040.52
464.692	6076.9
465.065	6098.6
465.438	6235.54
465.81	6333.84
466.183	6339.72
466.555	6546.72
466.928	6568.19
467.3	6542.88
467.672	6685.93
468.045	6808.63
468.417	6849.31
468.789	6879.37
469.161	6954.17
469.534	7184.9
469.906	7323.42
470.278	7411.33
470.65	7429.64
471.022	7534.04
471.394	7767.71
471.766	7797.08
472.138	7950.98
472.51	8088.37
472.882	8195.94
473.253	8286.56
473.625	8407.24
473.997	8617.85
474.369	8711.41
474.74	8781.92
475.112	8977.17
475.484	9100.55
475.855	9250.38
476.227	9343.03
476.598	9630.93
476.97	9725.39
477.341	9896.24
477.713	10042.9
478.084	10131.94
478.455	10428.43
478.827	10501.64
479.198	10771.69
479.569	10818.47
479.94	11178.01
480.311	11303.88
480.682	11507.27
481.053	11738.67
481.424	11966.92
481.795	12090.76
482.166	12215.95
482.537	12390.63
482.908	12675.82
483.279	12813.22
483.65	13088.92
484.021	13270.39
484.391	13497.27
484.762	13633.31
485.133	13711.28
485.503	13902.01
485.874	14190.14
486.244	14299.96
486.615	14614.53
486.985	14847.97
487.356	15116.66
487.726	15208.19
488.097	15467.84
488.467	15499.93
488.837	15934.5
489.207	16100.59
489.578	16369.74
489.948	16521.15
490.318	16705.55
490.688	16755.94
491.058	17076.84
491.428	17358.41
491.798	17396.6
492.168	17752.98
492.538	17829.36
492.908	18161.56
493.278	18242.91
493.648	18361.78
494.017	18521.09
494.387	18792.05
494.757	18910.92
495.126	19132.38
495.496	19223.45
495.866	19371.92
496.235	19530.56
496.605	19753.6
496.974	19919.02
497.344	20127.83
497.713	20189.53
498.082	20418.9
498.452	20611.66
498.821	20622.96
499.19	20751.77
499.559	21013.46
499.928	21154.02
500.298	21342.72
500.667	21491.41
501.036	21436.95
501.405	21808.24
501.774	21810.05
502.143	21955.81
502.512	22117.38
502.88	22298.17
503.249	22384.27
503.618	22573.19
503.987	22568.45
504.356	22873.52
504.724	22915.1
505.093	23028.77
505.462	23231.71
505.83	23333.85
506.199	23685.25
506.567	23845.02
506.936	23848.41
507.304	24115.75
507.672	24336.99
508.041	24369.98
508.409	24583.99
508.777	24772.46
509.145	25024.43
509.514	25086.8
509.882	25274.36
510.25	25375.15
510.618	25582.6
510.986	25672.09
511.354	25802.26
511.722	26169.48
512.09	26359.98
512.458	26394.56
512.826	26537.38
513.193	26777.38
513.561	27013.75
513.929	27179.17
514.297	27376.68
514.664	27585.72
515.032	27771.25
515.4	27970.56
515.767	28059.6
516.135	28265.02
516.502	28163.33
516.869	28658
517.237	28927.15
517.604	28877.66
517.972	29169.63
518.339	29413.01
518.706	29502.5
519.073	29542.73
519.44	29940.46
519.808	30169.38
520.175	30333.67
520.542	30636.26
520.909	30758.06
521.276	30909.7
521.643	31251.16
522.009	31420.64
522.376	31795.32
522.743	32031.47
523.11	32207.06
523.477	32461.07
523.843	32713.04
524.21	33015.86
524.577	33174.49
524.943	33512.79
525.31	33615.84
525.676	33980.35
526.043	34157.75
526.409	34305.99
526.776	34717.05
527.142	34713.89
527.508	35232.97
527.874	35333.53
528.241	35494.66
528.607	35696.01
528.973	35868.21
529.339	35969.45
529.705	36425.93
530.071	36695.53
530.437	36705.7
530.803	37013.94
531.169	37142.53
531.535	37281.28
531.901	37490.54
532.267	37525.57
532.632	37883.07
532.998	37919.23
533.364	38171.88
533.73	38429.27
534.095	38591.98
534.461	38786.78
534.826	38836.49
535.192	39094.79
535.557	39311.06
535.923	39450.71
536.288	39536.81
536.653	39765.96
537.019	39622.01
537.384	40022.68
537.749	40186.51
538.114	40308.77
538.479	40343.8
538.845	40467.64
539.21	40625.82
539.575	40658.59
539.94	40899.04
540.305	41054.97
540.67	41044.12
541.034	41263.32
541.399	41502.19
541.764	41553.03
542.129	41802.97
542.494	41772.23
542.858	41881.84
543.223	41989.63
543.587	42318.89
543.952	42305.33
544.316	42516.4
544.681	42574.02
545.045	42804.3
545.41	42962.94
545.774	43048.59
546.138	43034.57
546.503	43291.29
546.867	43303.72
547.231	43644.73
547.595	43831.39
547.959	43943.93
548.324	43937.6
548.688	43973.98
549.052	44242.45
549.416	44416.23
549.779	44377.59
550.143	44524.48
550.507	44864.58
550.871	44999.72
551.235	44834.53
551.599	45299.83
551.962	45499.37
552.326	45496.88
552.689	45740.94
553.053	45556.32
553.417	45728.06
553.78	46304.77
554.143	46169.41
554.507	46370.08
554.87	46415.73
555.234	46897.75
555.597	46581.83
555.96	46775.49
556.323	47140.91
556.686	47118.08
557.05	47460.67
557.413	47478.98
557.776	47567.56
558.139	48041.67
558.502	48062.01
558.865	48116.02
559.228	48402.34
559.59	48502.68
559.953	48665.16
560.316	49024.47
560.679	48956
561.041	49132.72
561.404	49457.91
561.767	49496.78
562.129	49555.99
562.492	49933.38
562.854	49923.43
563.217	50002.08
563.579	50059.47
563.941	50394.61
564.304	50539.24
564.666	50794.82
565.028	50805.9
565.39	50890.87
565.753	51202.04
566.115	51173.57
566.477	51379.44
566.839	51507.57
567.201	51658.75
567.563	51811.52
567.925	51968.8
568.287	52027.78
568.648	52037.95
569.01	52257.38
569.372	52402.69
569.734	52287.21
570.095	52659.18
570.457	52699.63
570.819	52826.63
571.18	52778.73
571.542	52983.47
571.903	52950.25
572.265	53147.3
572.626	53233.85
572.987	53267.75
573.349	53354.08
573.71	53418.71
574.071	53491.25
574.432	53629.78
574.794	53853.95
575.155	53786.38
575.516	53745.48
575.877	53957.68
576.238	53986.6
576.599	54026.15
576.96	54157.9
577.32	54114.96
577.681	54240.16
578.042	54369.64
578.403	54252.13
578.763	54324.67
579.124	54361.73
579.485	54495.74
579.845	54573.71
580.206	54508.17
580.566	54450.55
580.927	54584.55
581.287	54639.24
581.648	54585.68
582.008	54733.7
582.368	54657.55
582.728	54757.43
583.089	54629.98
583.449	54724.44
583.809	54710.2
584.169	54787.26
584.529	54686.47
584.889	54949.52
585.249	54780.48
585.609	54669.52
585.969	54850.31
586.329	54803.3
586.688	54820.71
587.048	54757.66
587.408	54762.85
587.768	54829.29
588.127	54829.29
588.487	54787.26
588.846	54956.3
589.206	54775.06
589.565	54754.72
589.925	54920.14
590.284	54856.64
590.643	54867.71
591.003	54925.79
591.362	54988.38
591.721	54920.36
592.08	54936.86
592.44	54986.58
592.799	55047.82
593.158	54977.99
593.517	54910.87
593.876	55082.62
594.235	54903.64
594.593	54976.41
594.952	55071.55
595.311	54970.53
595.67	55019.12
596.029	55193.35
596.387	55221.15
596.746	55209.4
597.104	55095.05
597.463	55069.29
597.822	55176.4
598.18	55126.01
598.538	55019.12
598.897	55288.72
599.255	55000.81
599.613	55474.93
599.972	55223.63
600.33	55310.64
600.688	55285.78
601.046	55302.95
601.404	55415.27
601.762	55368.94
602.12	55525.09
602.478	55413.23
602.836	55511.99
603.194	55306.57
603.552	55496.62
603.91	55434.25
604.268	55525.09
604.625	55387.92
604.983	55556.73
605.341	55394.7
605.698	55613.45
606.056	55612.78
606.413	55624.3
606.771	55733.45
607.128	55716.05
607.485	55581.14
607.843	55615.26
608.2	55774.13
608.557	55874.92
608.914	55765.99
609.272	55925.99
609.629	55996.27
609.986	56043.5
610.343	55922.37
610.7	56147
611.057	56063.84
611.414	56075.59
611.771	56075.81
612.127	56157.39
612.484	56130.28
612.841	56219.54
613.198	56129.37
613.554	56134.12
613.911	56246.66
614.267	56324.39
614.624	56248.69
614.98	56212.08
615.337	56395.58
615.693	56351.74
616.05	56258.63
616.406	56500.21
616.762	56324.62
617.118	56403.49
617.475	56368.91
617.831	56456.82
618.187	56423.83
618.543	56552.86
618.899	56663.37
619.255	56589.25
619.611	56551.51
619.967	56620.88
620.323	56593.31
620.678	56557.61
621.034	56531.39
621.39	56540.21
621.746	56477.16
622.101	56748.11
622.457	56509.93
622.812	56631.05
623.168	56660.43
623.523	56644.39
623.879	56690.49
624.234	56509.02
624.589	56604.16
624.945	56669.02
625.3	56627.89
625.655	56683.03
626.01	56653.43
626.365	56698.62
626.72	56626.31
627.075	56594.67
627.43	56600.55
627.785	56509.25
628.14	56579.3
628.495	56617.04
628.85	56607.78
629.205	56451.62
629.559	56646.19
629.914	56445.3
630.269	56485.75
630.623	56448.01
630.978	56310.84
631.332	56503.15
631.687	56472.41
632.041	56343.83
632.396	56369.59
632.75	56334.11
633.104	56312.19
633.459	56166.88
633.813	56208.01
634.167	56159.2
634.521	56131.63
634.875	56172.53
635.229	56093.44
635.583	55943.84
635.937	55982.71
636.291	55934.12
636.645	55866.55
636.999	55907
637.352	55963.95
637.706	55712.66
638.06	55941.35
638.413	55788.14
638.767	55706.78
639.121	55828.81
639.474	55641.93
639.828	55622.49
640.181	55611.87
640.534	55647.35
640.888	55544.3
641.241	55433.34
641.594	55415.04
641.947	55573.45
642.301	55410.52
642.654	55446.45
643.007	55408.03
643.36	55316.29
643.713	55297.08
644.066	55418.88
644.419	55216.63
644.771	54994.94
645.124	54724.89
645.477	54668.62
645.83	54502.07
646.182	54340.27
646.535	54318.12
646.888	54356.54
647.24	54279.48
647.593	54319.7
647.945	54286.48
648.298	54206.94
648.65	54000.39
649.002	54013.95
649.355	54110.22
649.707	54014.17
650.059	54058.92
650.411	54500.49
650.763	54504.33
651.115	54779.35
651.467	54700.71
651.819	54633.59
652.171	54579.13
652.523	54509.98
652.875	54497.32
653.227	54350.89
653.578	54564.67
653.93	54434.73
654.282	54301.17
654.633	54258.46
654.985	54313.83
655.337	54293.04
655.688	54257.1
656.039	54338.23
656.391	54091.46
656.742	54136.88
657.094	54015.75
657.445	54274.96
657.796	54121.29
658.147	54083.32
658.498	54015.98
658.849	54117.45
659.2	54024.79
659.551	54038.81
659.902	54117.45
660.253	53876.55
660.604	54131.23
660.955	53908.19
661.306	54139.14
661.656	53932.37
662.007	53889.66
662.358	53846.04
662.708	53948.64
663.059	53868.87
663.409	53638.82
663.76	53938.47
664.11	53777.57
664.461	53844.91
664.811	53808.98
665.161	53691.7
665.511	53735.31
665.862	53693.73
666.212	53772.6
666.562	53694.18
666.912	53608.76
667.262	53658.02
667.612	53671.36
667.962	53657.8
668.312	53578.03
668.662	53694.41
669.011	53656.44
669.361	53566.05
669.711	53470.68
670.06	53469.1
670.41	53332.38
670.76	53427.3
671.109	53486.73
671.459	53313.17
671.808	53246.96
672.157	53372.16
672.507	53170.81
672.856	53185.04
673.205	53270.69
673.554	53363.12
673.904	53182.33
674.253	53434.53
674.602	53164.7
674.951	52779.86
675.3	52608.56
675.649	53101.2
675.998	53121.77
676.346	53052.62
676.695	53141.2
677.044	52937.14
677.393	52931.04
677.741	52989.57
678.09	52868.21
678.438	52809.01
678.787	52892.17
679.135	52889.23
679.484	52653.53
679.832	52747.31
680.181	52653.53
680.529	52713.19
680.877	52642.01
681.225	52486.53
681.573	52833.87
681.922	52431.84
682.27	52387.78
682.618	52397.49
682.966	52293.09
683.314	52336.48
683.661	52256.03
684.009	52095.58
684.357	51895.36
684.705	51938.3
685.053	52046.99
685.4	51918.41
685.748	51792.31
686.095	51704.4
686.443	51644.52
686.79	51590.28
687.138	51623.05
687.485	51562.71
687.832	51520.68
688.18	51554.35
688.527	51286.34
688.874	51273
689.221	51140.8
689.568	51038.66
689.915	50971.99
690.262	50987.36
690.609	50903.52
690.956	50827.82
691.303	50669.85
691.65	50602.51
691.997	50559.57
692.344	50244.1
692.69	50281.84
693.037	50207.49
693.383	50066.03
693.73	50070.55
694.077	49903.77
694.423	49931.79
694.769	49788.97
695.116	49523.22
695.462	49568.87
695.808	49394.86
696.155	49589.43
696.501	49148.09
696.847	49290.46
697.193	48966.85
697.539	49142.21
697.885	48857.25
698.231	48741.77
698.577	48659.96
698.923	48613.64
699.269	48495.9
699.614	48333.87
699.96	48231.5
700.306	48170.26
700.651	48005.52
700.997	47982.92
701.342	47822.25
701.688	47796.26
702.033	47623.15
702.379	47593.78
702.724	47341.58
703.069	47621.35
703.415	46989.05
703.76	47196.27
704.105	47141.81
704.45	46964.64
704.795	46706.34
705.14	46650.52
705.485	46638.55
705.83	46452.11
706.175	46518.55
706.52	46295.73
706.865	46232.91
707.209	46021.61
707.554	45979.58
707.899	46103.42
708.243	45875.63
708.588	45881.28
708.932	45473.15
709.277	45479.93
709.621	45534.17
709.966	45269.09
710.31	45334.4
710.654	44890.57
710.998	45046.5
711.342	45060.74
711.687	44877.92
712.031	44791.14
712.375	44634.76
712.719	44792.49
713.063	44451.94
713.407	44697.81
713.75	44270.02
714.094	44364.71
714.438	44243.81
714.782	44195.22
715.125	43929.92
715.469	44082.23
715.812	43800.43
716.156	43688.57
716.499	43537.16
716.843	43638.4
717.186	43569.93
717.53	43729.7
717.873	43468.69
718.216	43435.24
718.559	43209.03
718.902	43071.18
719.246	43052.43
719.589	42864.86
719.932	42736.73
720.275	42713.91
720.617	42846.11
720.96	42721.81
721.303	42662.38
721.646	42729.27
721.989	42357.53
722.331	42554.14
722.674	42428.26
723.016	42333.12
723.359	42236.86
723.701	42278.21
724.044	41968.16
724.386	41845.45
724.729	42044.77
725.071	41756.19
725.413	41717.1
725.755	41749.41
726.097	41433.94
726.439	41282.3
726.782	41543.77
727.124	41555.29
727.465	41276.65
727.807	41199.82
728.149	41270.55
728.491	41067.85
728.833	41125.25
729.175	40893.16
729.516	40791.7
729.858	40949.21
730.199	40873.5
730.541	40732.94
730.882	40719.38
731.224	40802.54
731.565	40567.75
731.906	40567.07
732.248	40541.98
732.589	40307.64
732.93	40151.71
733.271	40237.36
733.612	40291.37
733.953	40333.85
734.294	39915.79
734.635	39936.8
734.976	39954.43
735.317	39724.61
735.658	39715.11
735.999	39673.99
736.339	39600.77
736.68	39714.66
737.021	39527.55
737.361	39277.39
737.702	39586.98
738.042	39308.34
738.383	39317.16
738.723	39248.69
739.063	39197.84
739.404	39180.89
739.744	39147.22
740.084	38976.38
740.424	38936.38
740.764	38914.68
741.104	38992.87
741.444	38696.84
741.784	38718.76
742.124	38761.69
742.464	38609.38
742.804	38520.57
743.143	38391.08
743.483	38485.99
743.823	38224.08
744.162	38194.7
744.502	38196.06
744.841	37986.57
745.181	38165.1
745.52	38003.97
745.86	38076.29
746.199	37882.17
746.538	37889.85
746.877	37852.34
747.216	37770.08
747.556	37759.46
747.895	37663.19
748.234	37561.27
748.573	37434.72
748.911	37441.73
749.25	37374.61
749.589	37215.97
749.928	37247.61
750.267	37389.53
750.605	37099.14
750.944	37009.65
751.283	36785.93
751.621	36915.87
751.96	36643.78
752.298	36822.31
752.636	36648.3
752.975	36417.12
753.313	36305.71
753.651	36579.83
753.989	36281.76
754.327	36336.9
754.666	36136.45
755.004	36058.03
755.342	36129.45
755.679	35982.78
756.017	35583.92
756.355	35813.3
756.693	35545.73
757.031	35642.9
757.368	35419.41
757.706	35524.49
758.044	35357.94
758.381	35187.1
758.719	35105.29
759.056	35050.15
759.394	34922.7
759.731	34817.84
760.068	34619.2
760.405	34548.92
760.743	34398.19
761.08	34500.11
761.417	34252.88
761.754	34183.06
762.091	34025.32
762.428	33944.87
762.765	33826.46
763.102	33998.2
763.438	33673.24
763.775	33612
764.112	33562.51
764.449	33621.04
764.785	33471.44
765.122	33174.72
765.458	32928.63
765.795	33085.68
766.131	33010.43
766.467	32941.05
766.804	32758.91
767.14	32526.6
767.476	32501.52
767.812	32333.16
768.148	32259.72
768.485	32184.24
768.821	31898.37
769.157	31968.42
769.492	31900.86
769.828	31875.55
770.164	31528.66
770.5	31475.78
770.836	31377.71
771.171	31192.17
771.507	31222.23
771.842	30958.06
772.178	30894.1
772.513	30838.51
772.849	30838.96
773.184	30811.62
773.519	30619.99
773.855	30565.75
774.19	30336.83
774.525	30268.81
774.86	30197.85
775.195	30161.01
775.53	30059.1
775.865	29800.35
776.2	29589.73
776.535	29454.37
776.87	29452.33
777.205	29323.75
777.539	29216.41
777.874	29206.69
778.209	28976.19
778.543	28832.46
778.878	28739.58
779.212	28790.88
779.547	28561.73
779.881	28697.55
780.215	28412.59
780.55	28390.89
780.884	28146.83
781.218	28177.11
781.552	28150.9
781.886	27993.84
782.22	27776.9
782.554	27725.82
782.888	27475.44
783.222	27324.25
783.556	27395.89
783.889	27197.93
784.223	27141.43
784.557	26969.01
784.89	27081.1
785.224	26757.49
785.557	26741.9
785.891	26762.91
786.224	26662.58
786.558	26585.97
786.891	26358.18
787.224	26162.93
787.557	26195.47
787.891	26187.79
788.224	26026.66
788.557	26105.08
788.89	25909.83
789.223	25859.43
789.556	25690.85
789.888	25617.63
790.221	25542.83
790.554	25352.78
790.887	25263.52
791.219	25238.66
791.552	25175.61
791.884	24995.73
792.217	25052.67
792.549	24860.14
792.882	24755.73
793.214	24534.04
793.546	24647.49
793.879	24501.05
794.211	24377.89
794.543	24505.34
794.875	24185.58
795.207	24324.78
795.539	24203.88
795.871	24060.84
796.203	23862.88
796.535	23744.46
796.867	23840.5
797.198	23701.75
797.53	23728.42
797.862	23535.65
798.193	23669.66
798.525	23443.45
798.856	23387.41
799.188	23184.7
799.519	23217.24
799.85	22986.06
800.182	23089.56
800.513	22995.33
800.844	22732.74
801.175	22985.38
801.506	22810.47
801.837	22724.6
802.168	22601.44
802.499	22566.86
802.83	22491.16
803.161	22429.24
803.491	22397.6
803.822	22364.38
804.153	22162.36
804.483	22079.19
804.814	22029.93
805.145	21949.03
805.475	21978.63
805.805	21835.13
806.136	21868.35
806.466	21826.77
806.796	21743.84
807.126	21588.13
807.457	21585.2
807.787	21535.7
808.117	21379.1
808.447	21441.02
808.777	21421.36
809.107	21221.59
809.436	21088.49
809.766	21174.13
810.096	21134.59
810.426	20982.5
810.755	20988.15
811.085	20986.79
811.414	20950.64
811.744	20783.86
812.073	20654.82
812.403	20704.09
812.732	20575.5
813.061	20565.79
813.39	20419.12
813.719	20367.83
814.049	20478.56
814.378	20299.58
814.707	20271.78
815.036	20322.86
815.365	20105.01
815.693	20032.02
816.022	20042.86
816.351	20006.93
816.68	19827.28
817.008	19837.22
817.337	19648.07
817.665	19692.82
817.994	19727.62
818.322	19653.72
818.651	19632.25
818.979	19542.54
819.307	19623.66
819.636	19585.25
819.964	19496.89
820.292	19490.56
820.62	19506.61
820.948	19373.73
821.276	19495.08
821.604	19273.39
821.932	19407.63
822.259	19284.24
822.587	19277.01
822.915	19321.75
823.243	19366.04
823.57	19345.48
823.898	19317.91
824.225	19256.44
824.553	19215.77
824.88	19303.22
825.207	19295.54
825.535	19313.16
825.862	19346.84
826.189	19219.61
826.516	19273.39
826.843	19387.51
827.17	19253.28
827.497	19303.67
827.824	19276.33
828.151	19396.33
828.478	19214.41
828.805	19288.98
829.131	19168.31
829.458	19282.43
829.785	19142.1
830.111	19203.11
830.438	19240.17
830.764	19169.44
831.09	19178.03
831.417	18931.71
831.743	19213.96
832.069	19119.72
832.395	19051.93
832.722	19066.39
833.048	18993.17
833.374	19095.54
833.7	18993.4
834.026	18963.57
834.351	19042.44
834.677	18998.82
835.003	19046.28
835.329	19060.52
835.654	18927.64
835.98	18905.27
836.306	18852.16
836.631	18806.06
836.956	18751.6
837.282	18889.9
837.607	18689
837.932	18603.13
838.258	18679.51
838.583	18667.31
838.908	18657.81
839.233	18626.85
839.558	18507.99
839.883	18416.01
840.208	18363.81
840.533	18369.91
840.858	18359.07
841.182	18393.87
841.507	18391.61
841.832	18241.33
842.156	18194.32
842.481	18212.4
842.805	18212.18
843.13	18134.21
843.454	18140.54
843.778	18056.47
844.103	17940.77
844.427	17975.8
844.751	17913.2
845.075	17868.68
845.399	17780.55
845.723	17741.91
846.047	17667.78
846.371	17576.26
846.695	17566.77
847.019	17424.17
847.343	17353.22
847.666	17287
847.99	17188.25
848.313	17252.2
848.637	17091.08
848.96	17081.36
849.284	17034.35
849.607	16887.47
849.931	16811.54
850.254	16725.89
850.577	16527.48
850.9	16541.26
851.223	16451.54
851.546	16456.74
851.869	16287.03
852.192	16402.96
852.515	16312.34
852.838	16144.66
853.161	16130.88
853.483	16091.33
853.806	16026.47
854.129	16034.38
854.451	15903.54
854.774	15901.5
855.096	15807.04
855.419	15765.24
855.741	15726.82
856.063	15682.53
856.385	15656.09
856.708	15531.57
857.03	15575.18
857.352	15530.21
857.674	15430.33
857.996	15409.76
858.318	15332.48
858.64	15304.68
858.961	15268.07
859.283	15272.59
859.605	15170.9
859.926	15132.71
860.248	15090.68
860.57	14990.34
860.891	15050.23
861.212	14960.74
861.534	14880.29
861.855	14838.71
862.176	14923.9
862.498	14956.44
862.819	14934.07
863.14	14758.26
863.461	14775.88
863.782	14738.6
864.103	14641.65
864.424	14574.31
864.745	14617.02
865.065	14609.33
865.386	14549
865.707	14597.58
866.027	14507.87
866.348	14520.52
866.668	14485.49
866.989	14359.17
867.309	14362.79
867.63	14343.8
867.95	14350.13
868.27	14338.38
868.59	14286.4
868.91	14293.86
869.23	14225.39
869.55	14067.65
869.87	14266.29
870.19	14189.68
870.51	14165.73
870.83	14127.76
871.15	14054.77
871.469	14086.86
871.789	14116.69
872.109	14045.05
872.428	13935.45
872.748	13970.25
873.067	14009.8
873.386	13944.04
873.706	13869.47
874.025	13879.86
874.344	13840.54
874.663	13889.13
874.982	13889.8
875.301	13780.43
875.62	13809.81
875.939	13722.35
876.258	13690.04
876.577	13648.45
876.896	13621.34
877.214	13592.86
877.533	13620.43
877.852	13570.94
878.17	13641.9
878.489	13612.07
878.807	13641
879.125	13542.92
879.444	13524.16
879.762	13459.08
880.08	13477.16
880.398	13411.62
880.716	13446.88
881.034	13374.79
881.352	13380.44
881.67	13213.89
881.988	13329.37
882.306	13276.94
882.624	13209.82
882.941	13170.05
883.259	13145.87
883.577	13116.04
883.894	13109.49
884.212	13048.7
884.529	13053.22
884.846	12987.91
885.164	12977.51
885.481	12930.51
885.798	12981.35
886.115	12988.59
886.432	12836.95
886.75	12838.31
887.067	12808.93
887.383	12779.32
887.7	12792.43
888.017	12636.73
888.334	12659.1
888.651	12633.11
888.967	12643.96
889.284	12517.64
889.6	12505.43
889.917	12496.17
890.233	12443.97
890.55	12471.76
890.866	12435.83
891.182	12382.05
891.498	12297.98
891.815	12271.77
892.131	12146.8
892.447	12122.39
892.763	12093.02
893.079	12075.39
893.395	11977.54
893.71	12037.88
894.026	12055.5
894.342	11961.95
894.657	11906.35
894.973	11871.78
895.289	11893.47
895.604	11947.03
895.92	11735.28
896.235	11653.48
896.55	11674.95
896.865	11611.9
897.181	11575.74
897.496	11654.16
897.811	11509.08
898.126	11504.33
898.441	11487.38
898.756	11375.07
899.071	11308.86
899.386	11400.15
899.7	11222.98
900.015	11256.2
900.33	11185.02
900.644	11171.23
900.959	11132.81
901.273	11074.74
901.588	11038.81
901.902	10985.7
902.216	10909.77
902.531	10971.01
902.845	10871.13
903.159	10869.32
903.473	10766.72
903.787	10704.35
904.101	10731.47
904.415	10678.14
904.729	10662.54
905.042	10480.63
905.356	10613.51
905.67	10535.99
905.984	10526.05
906.297	10484.24
906.611	10361.08
906.924	10371.93
907.237	10329.22
907.551	10302.33
907.864	10241.99
908.177	10214.87
908.491	10185.04
908.804	10159.96
909.117	10098.27
909.43	10056.23
909.743	9980.98
910.056	9980.08
910.368	9952.28
910.681	9909.8
910.994	9872.28
911.307	9771.49
911.619	9647.43
911.932	9723.13
912.244	9642.68
912.557	9665.73
912.869	9595.91
913.181	9514.33
913.494	9539.18
913.806	9437.04
914.118	9453.76
914.43	9410.83
914.742	9367.21
915.054	9305.52
915.366	9227.1
915.678	9232.98
915.99	9214.67
916.302	9132.87
916.613	9074.56
916.925	9112.75
917.236	9049.71
917.548	9030.95
917.859	9026.43
918.171	8955.7
918.482	8834.8
918.794	8810.16
919.105	8883.38
919.416	8810.39
919.727	8721.8
920.038	8718.87
920.349	8650.62
920.66	8628.25
920.971	8629.83
921.282	8617.17
921.593	8520.23
921.903	8406.56
922.214	8426.22
922.525	8401.59
922.835	8371.76
923.146	8321.36
923.456	8296.96
923.767	8291.99
924.077	8213.12
924.387	8251.76
924.697	8162.5
925.008	8163.85
925.318	8074.82
925.628	8103.52
925.938	8075.27
926.248	7946.91
926.558	7959.79
926.867	7897.65
927.177	7889.74
927.487	7809.06
927.796	7713.24
928.106	7758.44
928.416	7731.77
928.725	7740.36
929.034	7701.27
929.344	7689.06
929.653	7630.99
929.962	7554.15
930.271	7519.58
930.581	7531.78
930.89	7515.96
931.199	7434.83
931.508	7356.87
931.817	7396.42
932.125	7302.18
932.434	7298.11
932.743	7245.91
933.051	7167.27
933.36	7131.11
933.669	7140.15
933.977	7117.78
934.286	7144.44
934.594	7090.44
934.902	7003.43
935.21	7012.7
935.519	6994.62
935.827	6963.21
936.135	6913.04
936.443	6845.02
936.751	6792.82
937.059	6811.12
937.367	6831.68
937.674	6801.86
937.982	6716.43
938.29	6718.47
938.597	6706.04
938.905	6603.44
939.213	6606.83
939.52	6567.06
939.827	6584.46
940.135	6441.64
940.442	6514.63
940.749	6473.28
941.056	6432.6
941.363	6393.5
941.67	6381.3
941.977	6357.57
942.284	6286.84
942.591	6319.38
942.898	6284.35
943.205	6271.02
943.511	6201.87
943.818	6159.61
944.125	6112.16
944.431	6091.14
944.738	6142.89
945.044	6080.52
945.35	6049.56
945.657	6064.02
945.963	5970.92
946.269	5941.76
946.575	5932.05
946.881	5929.56
947.187	5857.02
947.493	5836.68
947.799	5864.7
948.105	5741.32
948.41	5777.25
948.716	5807.76
949.022	5734.99
949.327	5693.86
949.633	5645.5
949.938	5657.25
950.244	5612.96
950.549	5596.69
950.854	5600.53
951.16	5549.23
951.465	5502.23
951.77	5548.78
952.075	5452.06
952.38	5450.93
952.685	5480.76
952.99	5396.69
953.294	5360.31
953.599	5376.36
953.904	5355.11
954.209	5268.11
954.513	5292.29
954.818	5259.07
955.122	5249.81
955.426	5227.89
955.731	5188.11
956.035	5156.25
956.339	5193.54
956.643	5134.78
956.948	5071.96
957.252	5073.31
957.556	5010.26
957.86	5043.48
958.163	5011.39
958.467	5030.15
958.771	5008.23
959.075	4938.85
959.378	4906.31
959.682	4928.01
959.985	4857.95
960.289	4855.92
960.592	4824.28
960.896	4825.18
961.199	4784.96
961.502	4819.53
961.805	4763.49
962.108	4691.63
962.411	4686.88
962.714	4650.27
963.017	4653.89
963.32	4658.86
963.623	4606.21
963.926	4613.66
964.228	4578.18
964.531	4566.66
964.833	4556.72
965.136	4507
965.438	4525.53
965.741	4470.16
966.043	4437.4
966.345	4460.22
966.648	4417.51
966.95	4403.73
967.252	4377.96
967.554	4363.05
967.856	4354.69
968.158	4290.28
968.46	4328.7
968.761	4299.32
969.063	4239.21
969.365	4235.59
969.666	4173.68
969.968	4145.88
970.269	4196.27
970.571	4186.1
970.872	4145.65
971.174	4130.74
971.475	4122.83
971.776	4076.95
972.077	4060.91
972.378	4025.43
972.679	3992.21
972.98	3986.11
973.281	3935.49
973.582	3950.86
973.883	3970.07
974.183	3976.62
974.484	3958.09
974.785	3895.94
975.085	3897.3
975.386	3895.26
975.686	3858.88
975.986	3819.56
976.287	3793.35
976.587	3742.5
976.887	3783.4
977.187	3798.54
977.487	3771.88
977.787	3737.75
978.087	3703.41
978.387	3679.45
978.687	3686
978.987	3643.52
979.286	3652.56
979.586	3663.41
979.885	3623.86
980.185	3614.14
980.484	3582.96
980.784	3603.52
981.083	3545.22
981.382	3519.46
981.682	3546.8
981.981	3515.39
982.28	3509.96
982.579	3490.98
982.878	3480.36
983.177	3446.92
983.475	3429.06
983.774	3360.14
984.073	3399.23
984.372	3388.39
984.67	3353.36
984.969	3366.47
985.267	3325.34
985.566	3327.6
985.864	3266.58
986.162	3276.3
986.461	3281.5
986.759	3244.66
987.057	3266.35
987.355	3217.54
987.653	3179.8
987.951	3212.8
988.249	3146.81
988.547	3138
988.844	3147.04
989.142	3124.66
989.44	3100.71
989.737	3063.65
990.035	3113.59
990.332	3095.51
990.63	3057.77
990.927	3024.55
991.224	3029.52
991.521	3010.77
991.819	2998.57
992.116	3005.12
992.413	2983.42
992.71	2975.97
993.006	2963.54
993.303	2930.32
993.6	2935.06
993.897	2908.17
994.193	2913.14
994.49	2856.2
994.787	2834.5
995.083	2832.69
995.379	2798.34
995.676	2828.4
995.972	2825.91
996.268	2790.21
996.565	2776.2
996.861	2758.12
997.157	2747.95
997.453	2764.67
997.749	2713.6
998.044	2689.65
998.34	2702.53
998.636	2654.39
998.932	2637.44
999.227	2620.95
999.523	2648.07
999.818	2618.91
1000.114	2612.13
1000.409	2565.13
1000.704	2549.09
1001	2544.79
1001.295	2503.89
1001.59	2524.68
1001.885	2515.64
1002.18	2500.5
1002.475	2490.33
1002.77	2465.47
1003.065	2473.38
1003.359	2443.33
1003.654	2424.12
1003.949	2447.62
1004.243	2432.25
1004.538	2347.51
1004.832	2358.13
1005.127	2371.92
1005.421	2349.99
1005.715	2346.38
1006.009	2295.08
1006.304	2291.92
1006.598	2288.53
1006.892	2274.97
1007.186	2256.89
1007.48	2239.94
1007.773	2203.11
1008.067	2226.83
1008.361	2230.22
1008.655	2199.94
1008.948	2195.65
1009.242	2194.29
1009.535	2124.24
1009.829	2154.97
1010.122	2086.05
1010.415	2122.88
1010.708	2106.84
1011.001	2080.17
1011.295	2107.06
1011.588	2107.29
1011.881	2071.13
1012.173	2041.53
1012.466	2030.23
1012.759	2025.03
1013.052	1999.04
1013.344	2012.38
1013.637	1971.25
1013.93	1968.99
1014.222	1954.75
1014.514	1957.69
1014.807	1960.85
1015.099	1921.76
1015.391	1934.41
1015.683	1892.15
1015.976	1909.33
1016.268	1874.3
1016.56	1846.05
1016.851	1840.4
1017.143	1836.11
1017.435	1809.22
1017.727	1806.51
1018.018	1805.15
1018.31	1824.13
1018.602	1764.93
1018.893	1774.19
1019.185	1754.98
1019.476	1744.13
1019.767	1693.29
1020.058	1692.16
1020.35	1708.66
1020.641	1677.02
1020.932	1676.79
1021.223	1666.85
1021.514	1667.75
1021.804	1653.06
1022.095	1644.7
1022.386	1619.17
1022.677	1627.98
1022.967	1605.38
1023.258	1599.73
1023.548	1590.24
1023.839	1591.14
1024.129	1563.35
1024.419	1574.87
1024.709	1523.12
1025	1534.87
1025.29	1503.92
1025.58	1513.63
1025.87	1485.16
1026.16	1529.9
1026.449	1488.77
1026.739	1468.21
1027.029	1453.97
1027.319	1438.15
1027.608	1440.64
1027.898	1455.1
1028.187	1417.14
1028.477	1422.34
1028.766	1408.1
1029.055	1387.31
1029.344	1376.23
1029.634	1387.53
1029.923	1353.41
1030.212	1362.9
1030.501	1374.2
1030.79	1330.59
1031.078	1319.06
1031.367	1322.9
1031.656	1332.85
1031.945	1298.95
1032.233	1280.42
1032.522	1289.23
1032.81	1291.72
1033.099	1270.7
1033.387	1269.12
1033.675	1274.99
1033.963	1227.99
1034.251	1229.57
1034.54	1208.78
1034.828	1242.68
1035.116	1203.13
1035.403	1201.78
1035.691	1199.06
1035.979	1172.62
1036.267	1149.8
1036.554	1160.42
1036.842	1140.53
1037.129	1123.81
1037.417	1144.83
1037.704	1157.71
1037.992	1085.62
1038.279	1109.35
1038.566	1107.77
1038.853	1107.77
1039.14	1107.77
