Data from whiteboard_FLMS001491_00063.txt Node
Date: Wed Feb 08 11:27:29 GMT 2017
User: dcchb
Spectrometer: FLMS00149
Trigger mode: 0
Integration Time (sec): 2.000000E-2
Scans to average: 10
Electric dark correction enabled: true
Nonlinearity correction enabled: false
Boxcar width: 0
XAxis mode: Wavelengths
Number of Pixels in Spectrum: 2048
>>>>>Begin Spectral Data<<<<<
341.393	-21.34
341.776	-21.34
342.16	-21.34
342.543	-50.72
342.927	-58.85
343.31	-54.11
343.693	-56.82
344.077	-64.05
344.46	-68.35
344.843	-59.76
345.226	-43.26
345.61	-24.96
345.993	-24.51
346.376	-11.85
346.759	-1.91
347.142	25.66
347.525	65.21
347.908	46
348.291	76.96
348.674	93.23
349.057	102.5
349.44	122.61
349.823	137.52
350.206	175.04
350.588	224.53
350.971	228.37
351.354	278.76
351.737	269.5
352.119	271.98
352.502	285.09
352.884	288.71
353.267	309.95
353.65	322.38
354.032	324.64
354.414	347.24
354.797	331.19
355.179	349.5
355.562	340.01
355.944	363.73
356.326	367.12
356.709	371.87
357.091	361.7
357.473	382.94
357.855	382.94
358.238	388.37
358.62	376.39
359.002	371.42
359.384	387.91
359.766	383.17
360.148	384.07
360.53	363.28
360.912	359.89
361.294	365.99
361.676	383.39
362.057	394.02
362.439	358.31
362.821	365.99
363.203	377.74
363.584	359.44
363.966	380.68
364.348	358.08
364.729	373.9
365.111	356.5
365.493	385.43
365.874	362.6
366.256	368.7
366.637	351.76
367.019	374.13
367.4	393.11
367.781	377.07
368.163	373.9
368.544	365.32
368.925	361.93
369.306	398.53
369.688	362.6
370.069	382.26
370.45	387.69
370.831	380.23
371.212	389.95
371.593	389.27
371.974	372.77
372.355	403.05
372.736	400.34
373.117	396.05
373.498	384.52
373.879	386.78
374.26	390.17
374.641	403.73
375.021	389.04
375.402	389.5
375.783	392.89
376.163	421.81
376.544	405.31
376.925	409.83
377.305	393.56
377.686	410.29
378.066	392.89
378.447	413.68
378.827	424.97
379.208	407.35
379.588	437.18
379.968	428.36
380.349	429.27
380.729	460.68
381.109	428.36
381.489	438.31
381.87	449.38
382.25	459.32
382.63	434.01
383.01	462.26
383.39	466.1
383.77	463.62
384.15	440.79
384.53	468.59
384.91	493.22
385.29	483.5
385.67	507.01
386.049	496.39
386.429	498.87
386.809	505.2
387.189	491.19
387.568	489.15
387.948	528.02
388.328	535.48
388.707	539.55
389.087	535.25
389.466	529.83
389.846	536.16
390.225	550.62
390.605	557.63
390.984	572.99
391.363	563.5
391.743	571.41
392.122	582.94
392.501	594.69
392.881	583.84
393.26	602.82
393.639	618.19
394.018	625.65
394.397	607.57
394.776	628.81
395.155	625.65
395.534	623.16
395.913	672.43
396.292	661.58
396.671	687.57
397.05	672.43
397.429	677.17
397.808	704.06
398.186	704.06
398.565	719.66
398.944	736.15
399.323	737.51
399.701	757.85
400.08	762.37
400.458	763.04
400.837	800.56
401.215	794
401.594	791.97
401.972	806.43
402.351	844.17
402.729	857.73
403.107	878.97
403.486	893.21
403.864	872.65
404.242	912.87
404.62	910.16
404.999	948.58
405.377	958.29
405.755	962.14
406.133	996.94
406.511	991.29
406.889	1018.41
407.267	1033.32
407.645	1098.86
408.023	1089.59
408.401	1097.05
408.779	1084.62
409.156	1156.93
409.534	1184.73
409.912	1205.52
410.29	1215.91
410.667	1260.21
411.045	1294.78
411.422	1263.14
411.8	1297.95
412.178	1335.23
412.555	1354.22
412.933	1385.18
413.31	1412.52
413.687	1443.93
414.065	1471.73
414.442	1469.02
414.819	1528.67
415.197	1510.82
415.574	1565.51
415.951	1550.82
416.328	1589.46
416.705	1622.68
417.082	1629.24
417.46	1655.68
417.837	1655.22
418.214	1721.89
418.591	1734.09
418.967	1739.29
419.344	1758.5
419.721	1786.97
420.098	1800.53
420.475	1816.8
420.852	1845.28
421.228	1905.16
421.605	1874.43
421.982	1897.7
422.358	1918.04
422.735	1953.97
423.111	1976.8
423.488	1995.78
423.864	2029.23
424.241	2056.57
424.617	2084.14
424.994	2062.67
425.37	2121.43
425.746	2153.06
426.123	2182.22
426.499	2220.63
426.875	2230.8
427.251	2283
427.627	2344.02
428.003	2373.4
428.379	2419.27
428.756	2386.05
429.132	2467.86
429.507	2525.48
429.883	2550.34
430.259	2591.25
430.635	2619.49
431.011	2577.23
431.387	2702.43
431.763	2736.78
432.138	2777.68
432.514	2781.3
432.89	2822.88
433.265	2884.12
433.641	2897
434.016	2951.24
434.392	2999.6
434.767	3043.44
435.143	3031.91
435.518	3102.87
435.894	3134.06
436.269	3207.95
436.644	3269.87
437.02	3247.5
437.395	3294.5
437.77	3349.64
438.145	3407.27
438.52	3459.47
438.895	3476.19
439.271	3501.28
439.646	3581.5
440.021	3582.63
440.395	3625.57
440.77	3578.11
441.145	3729.97
441.52	3733.14
441.895	3738.79
442.27	3778.11
442.645	3792.8
443.019	3813.81
443.394	3858.78
443.769	3899.91
444.143	3862.4
444.518	3972.23
444.892	3986.69
445.267	4019.46
445.641	3995.28
446.016	4028.27
446.39	4092.9
446.764	4126.12
447.139	4152.33
447.513	4204.31
447.887	4193.01
448.262	4217.64
448.636	4227.81
449.01	4283.18
449.384	4399.56
449.758	4377.87
450.132	4463.51
450.506	4484.3
450.88	4526.11
451.254	4565.43
451.628	4639.33
452.002	4674.81
452.376	4726.56
452.75	4778.31
453.123	4850.62
453.497	4914.12
453.871	4988.47
454.244	5047.23
454.618	5093.1
454.992	5150.05
455.365	5211.97
455.739	5319.54
456.112	5377.16
456.486	5397.27
456.859	5510.49
457.232	5634.1
457.606	5555.91
457.979	5661.45
458.352	5797.04
458.725	5856.47
459.099	5934.89
459.472	6010.59
459.845	6011.27
460.218	6157.25
460.591	6168.78
460.964	6194.09
461.337	6338.49
461.71	6447.87
462.083	6565.83
462.456	6620.97
462.829	6647.18
463.201	6763.11
463.574	6788.42
463.947	6969.89
464.32	7115.19
464.692	7090.56
465.065	7192.48
465.438	7308.18
465.81	7462.53
466.183	7496.43
466.555	7705.46
466.928	7792.01
467.3	7778.91
467.672	7881.28
468.045	8170.53
468.417	8214.6
468.789	8262.96
469.161	8325.56
469.534	8445.1
469.906	8661.82
470.278	8696.17
470.65	8846
471.022	8992.43
471.394	9217.29
471.766	9272.88
472.138	9388.81
472.51	9555.13
472.882	9669.7
473.253	9818.85
473.625	9986.31
473.997	10144.49
474.369	10271.27
474.74	10393.98
475.112	10612.28
475.484	10697.25
475.855	11038.03
476.227	11082.1
476.598	11299.27
476.97	11417.91
477.341	11708.75
477.713	11886.37
478.084	11943.54
478.455	12310.31
478.827	12480.25
479.198	12781.03
479.569	12848.6
479.94	13242.04
480.311	13437.06
480.682	13693.55
481.053	13994.79
481.424	14193.43
481.795	14343.25
482.166	14559.52
482.537	14855.33
482.908	15159.5
483.279	15285.6
483.65	15531.24
484.021	15895.75
484.391	15972.81
484.762	16199.93
485.133	16362.86
485.503	16560.82
485.874	16930.3
486.244	17104.31
486.615	17458.2
486.985	17643.96
487.356	17966.21
487.726	18204.39
488.097	18565.29
488.467	18486.19
488.837	18978.84
489.207	19190.81
489.578	19507.18
489.948	19575.88
490.318	19901.75
490.688	20026.49
491.058	20428.52
491.428	20634.84
491.798	20791.67
492.168	21217.2
492.538	21242.28
492.908	21542.39
493.278	21902.6
493.648	21939.44
494.017	22267.11
494.387	22397.05
494.757	22646.09
495.126	22778.74
495.496	23036.36
495.866	23183.7
496.235	23536.46
496.605	23667.08
496.974	23816.68
497.344	24078.14
497.713	24216.44
498.082	24481.29
498.452	24597.45
498.821	24536.43
499.19	24831.79
499.559	25048.51
499.928	25279.46
500.298	25504.54
500.667	25649.17
501.036	25778.43
501.405	26161.02
501.774	26092.32
502.143	26324.63
502.512	26497.06
502.88	26758.07
503.249	26886.65
503.618	26957.84
503.987	27208.68
504.356	27316.25
504.724	27640.76
505.093	27511.04
505.462	27722.11
505.83	28024.93
506.199	28291.59
506.567	28582.88
506.936	28693.16
507.304	29079.81
507.672	29119.81
508.041	29290.2
508.409	29477.54
508.777	29823.07
509.145	29947.81
509.514	30076.85
509.882	30304.64
510.25	30366.56
510.618	30529.72
510.986	30627.12
511.354	30985.3
511.722	31264.16
512.09	31615.12
512.458	31491.95
512.826	31920.64
513.193	32014.2
513.561	32110.47
513.929	32441.76
514.297	32764.01
514.664	32907.96
515.032	33092.82
515.4	33301.85
515.767	33517.44
516.135	33916.98
516.502	33600.6
516.869	34280.81
517.237	34330.98
517.604	34337.3
517.972	34767.8
518.339	34956.72
518.706	35261.57
519.073	35419.99
519.44	35777.27
519.808	36104.94
520.175	36103.58
520.542	36603.46
520.909	36774.53
521.276	36911.25
521.643	37268.53
522.009	37550.33
522.376	37809.3
522.743	37878.68
523.11	38339.68
523.477	38800.91
523.843	39015.82
524.21	39435.7
524.577	39699.87
524.943	39917.72
525.31	40087.21
525.676	40418.5
526.043	40615.33
526.409	40766.29
526.776	41362.66
527.142	41312.04
527.508	41640.39
527.874	41982.3
528.241	42075.63
528.607	42235.85
528.973	42598.1
529.339	42510.65
529.705	43091.65
530.071	43361.92
530.437	43426.33
530.803	43704.74
531.169	43978.41
531.535	43945.19
531.901	43975.92
532.267	44227.21
532.632	44582.01
532.998	44632.85
533.364	44843.02
533.73	44930.02
534.095	45360.52
534.461	45383.11
534.826	45746.72
535.192	45900.62
535.557	46246.59
535.923	46067.16
536.288	46318.68
536.653	46604.78
537.019	46530.2
537.384	46683.42
537.749	46909.85
538.114	46969.29
538.479	47094.03
538.845	47457.64
539.21	47437.98
539.575	47675.26
539.94	47712.77
540.305	47979.2
540.67	47974.01
541.034	48259.88
541.399	48465.07
541.764	48458.06
542.129	48645.63
542.494	48887.43
542.858	48905.51
543.223	49056.46
543.587	49274.09
543.952	49376
544.316	49455.55
544.681	49454.42
545.045	49687.18
545.41	49853.28
545.774	50070.67
546.138	50038.36
546.503	50236.77
546.867	50226.15
547.231	50455.75
547.595	50496.43
547.959	50688.74
548.324	50697.33
548.688	50781.62
549.052	50882.18
549.416	50918.11
549.779	50919.01
550.143	51004.66
550.507	51347.25
550.871	51261.6
551.235	51339.34
551.599	51594.93
551.962	51607.36
552.326	51772.78
552.689	51882.6
553.053	51822.27
553.417	51826.56
553.78	52314.46
554.143	52174.12
554.507	52331.18
554.87	52410.05
555.234	52720.77
555.597	52577.05
555.96	52685.07
556.323	52888.91
556.686	52764.39
557.05	53111.05
557.413	53156.02
557.776	53183.36
558.139	53425.16
558.502	53425.84
558.865	53570.24
559.228	53683.46
559.59	53798.03
559.953	53930.01
560.316	54195.31
560.679	54233.96
561.041	54418.81
561.404	54574.06
561.767	54735.64
562.129	54677.33
562.492	55075.06
562.854	55076.87
563.217	55091.79
563.579	55278.67
563.941	55433.02
564.304	55581.04
564.666	55804.99
565.028	55847.92
565.39	55898.77
565.753	56057.86
566.115	56164.98
566.477	56301.02
566.839	56326.78
567.201	56479.32
567.563	56559.32
567.925	56714.12
568.287	56788.01
568.648	56895.58
569.01	56981
569.372	57161.56
569.734	57048.12
570.095	57231.62
570.457	57293.31
570.819	57312.07
571.18	57350.94
571.542	57509.8
571.903	57397.94
572.265	57587.99
572.626	57675.67
572.987	57743.24
573.349	57731.94
573.71	57822.56
574.071	57836.12
574.432	57916.8
574.794	58056.91
575.155	58077.92
575.516	57950.92
575.877	58073.63
576.238	58171.25
576.599	58110.24
576.96	58157.47
577.32	58211.25
577.681	58324.24
578.042	58289.89
578.403	58305.26
578.763	58316.79
579.124	58343
579.485	58391.81
579.845	58474.07
580.206	58424.58
580.566	58415.31
580.927	58483.56
581.287	58597.68
581.648	58467.29
582.008	58630.22
582.368	58533.73
582.728	58655.08
583.089	58638.13
583.449	58654.63
583.809	58716.78
584.169	58764.01
584.529	58775.76
584.889	58949.76
585.249	58840.39
585.609	58808.75
585.969	58945.47
586.329	58943.66
586.688	58979.59
587.048	59050.1
587.408	58991.8
587.768	59053.04
588.127	59087.61
588.487	59118.57
588.846	59280.38
589.206	59124.45
589.565	59193.6
589.925	59281.96
590.284	59287.38
590.643	59315.86
591.003	59276.99
591.362	59424.78
591.721	59299.13
592.08	59374.16
592.44	59400.6
592.799	59437.43
593.158	59367.61
593.517	59392.01
593.876	59426.59
594.235	59328.06
594.593	59288.96
594.952	59333.03
595.311	59275.63
595.67	59359.24
596.029	59502.29
596.387	59355.18
596.746	59404.67
597.104	59253.94
597.463	59255.52
597.822	59297.78
598.18	59114.73
598.538	59164.9
598.897	59267.72
599.255	59072.02
599.613	59401.5
599.972	59185.92
600.33	59291.45
600.688	59094.17
601.046	59124.22
601.404	59269.53
601.762	59136.2
602.12	59269.3
602.478	59135.75
602.836	59203.99
603.194	59170.55
603.552	59209.19
603.91	59122.87
604.268	59245.12
604.625	59162.64
604.983	59299.58
605.341	59148.63
605.698	59293.71
606.056	59364.44
606.413	59297.78
606.771	59383.2
607.128	59446.47
607.485	59408.96
607.843	59448.51
608.2	59609.18
608.557	59693.02
608.914	59650.76
609.272	59751.1
609.629	59801.04
609.986	59900.47
610.343	59783.41
610.7	59989.96
611.057	59960.81
611.414	60015.05
611.771	60041.26
612.127	60107.93
612.484	60081.26
612.841	60273.34
613.198	60215.72
613.554	60247.13
613.911	60409.16
614.267	60348.82
614.624	60404.87
614.98	60419.1
615.337	60592.88
615.693	60518.08
616.05	60576.16
616.406	60635.59
616.762	60549.27
617.118	60552.21
617.475	60573.9
617.831	60645.99
618.187	60627.46
618.543	60646.67
618.899	60759.43
619.255	60692.54
619.611	60674.01
619.967	60743.61
620.323	60757.17
620.678	60602.15
621.034	60500.91
621.39	60554.47
621.746	60528.03
622.101	60701.58
622.457	60453.23
622.812	60559.89
623.168	60500.68
623.523	60474.7
623.879	60496.84
624.234	60354.02
624.589	60427.01
624.945	60370.52
625.3	60365.32
625.655	60301.82
626.01	60288.49
626.365	60324.42
626.72	60218.2
627.075	60170.3
627.43	60163.29
627.785	60155.38
628.14	60149.05
628.495	60158.09
628.85	60094.37
629.205	60085.1
629.559	60187.02
629.914	60058.21
630.269	60038.77
630.623	59983.41
630.978	59897.08
631.332	59948.61
631.687	60083.75
632.041	59964.43
632.396	60048.04
632.75	59887.14
633.104	59985.44
633.459	59812.34
633.813	59826.12
634.167	59839.68
634.521	59822.28
634.875	59918.33
635.229	59898.89
635.583	59812.34
635.937	59836.29
636.291	59863.19
636.645	59922.17
636.999	59835.62
637.352	59909.96
637.706	59824.99
638.06	59889.4
638.413	59803.53
638.767	59812.11
639.121	59842.4
639.474	59698.44
639.828	59742.29
640.181	59782.51
640.534	59789.74
640.888	59656.19
641.241	59716.3
641.594	59782.51
641.947	59792.68
642.301	59675.39
642.654	59738.67
643.007	59741.83
643.36	59667.71
643.713	59608.28
644.066	59693.47
644.419	59559.24
644.771	59473.59
645.124	59259.81
645.477	59182.75
645.83	58957.67
646.182	58816.89
646.535	58733.72
646.888	58777.34
647.24	58662.31
647.593	58641.07
647.945	58619.38
648.298	58459.15
648.65	58448.99
649.002	58322.89
649.355	58524.69
649.707	58370.57
650.059	58535.76
650.411	58733.95
650.763	58613.05
651.115	58862.76
651.467	58780.73
651.819	58744.35
652.171	58667.51
652.523	58611.47
652.875	58598.13
653.227	58498.93
653.578	58630.68
653.93	58549.55
654.282	58401.98
654.633	58314.98
654.985	58319.05
655.337	58308.2
655.688	58343.68
656.039	58345.49
656.391	58089.9
656.742	58113.85
657.094	58124.25
657.445	58225.71
657.796	58154.08
658.147	58107.53
658.498	58054.87
658.849	58111.37
659.2	58086.06
659.551	57931.49
659.902	57975.55
660.253	57997.47
660.604	58014.19
660.955	57856.68
661.306	57997.47
661.656	58059.84
662.007	58077.47
662.358	57955.89
662.708	58016.23
663.059	58023.23
663.409	57921.99
663.76	57982.56
664.11	58024.36
664.461	58012.39
664.811	58055.78
665.161	58033.63
665.511	57934.42
665.862	58018.94
666.212	58081.76
666.562	58018.26
666.912	58055.78
667.262	58029.79
667.612	57966.29
667.962	58040.63
668.312	58036.57
668.662	58191.14
669.011	58047.87
669.361	58046.96
669.711	58026.85
670.06	57976.46
670.41	57983.46
670.76	57976.91
671.109	58002.22
671.459	57917.93
671.808	57872.28
672.157	57935.78
672.507	57797.03
672.856	57806.29
673.205	57824.82
673.554	57867.76
673.904	57741.66
674.253	57916.12
674.602	57791.38
674.951	57390.26
675.3	57270.03
675.649	57653.53
675.998	57602.68
676.346	57656.24
676.695	57660.53
677.044	57444.49
677.393	57566.3
677.741	57601.32
678.09	57396.81
678.438	57356.13
678.787	57422.35
679.135	57350.94
679.484	57094.45
679.832	57198.62
680.181	57025.75
680.529	57100.55
680.877	56999.08
681.225	56924.05
681.573	57068.01
681.922	56846.54
682.27	56708.69
682.618	56711.18
682.966	56623.95
683.314	56662.59
683.661	56583.05
684.009	56360.45
684.357	56334.69
684.705	56361.58
685.053	56321.81
685.4	56246.33
685.748	56196.39
686.095	56155.94
686.443	56025.77
686.79	55994.36
687.138	56021.25
687.485	56003.63
687.832	55870.07
688.18	55917.98
688.527	55805.44
688.874	55764.99
689.221	55709.4
689.568	55609.29
689.915	55511.66
690.262	55539.68
690.609	55563.64
690.956	55438.22
691.303	55391.89
691.65	55228.96
691.997	55176.3
692.344	55068.51
692.69	55064.22
693.037	54995.07
693.383	54856.76
693.73	54945.58
694.077	54813.6
694.423	54806.82
694.769	54730.89
695.116	54677.11
695.462	54635.98
695.808	54576.55
696.155	54562.08
696.501	54338.36
696.847	54354.18
697.193	54221.98
697.539	54354.63
697.885	54193.28
698.231	53966.62
698.577	54016.11
698.923	54052.94
699.269	53935.21
699.614	53734.53
699.96	53695.66
700.306	53749.45
700.651	53522.34
700.997	53384.71
701.342	53412.73
701.688	53358.95
702.033	53241.89
702.379	53264.26
702.724	53204.6
703.069	53170.25
703.415	52809.36
703.76	52906.08
704.105	52934.55
704.45	52769.81
704.795	52549.93
705.14	52521.23
705.485	52497.28
705.83	52291.63
706.175	52289.37
706.52	52242.14
706.865	52077.18
707.209	51951.3
707.554	51907.24
707.899	51852.78
708.243	51713.8
708.588	51670.63
708.932	51384.99
709.277	51395.61
709.621	51397.19
709.966	51214.83
710.31	51201.27
710.654	50824.33
710.998	50860.94
711.342	50863.2
711.687	50598.34
712.031	50423.43
712.375	50350.89
712.719	50420.72
713.063	50421.4
713.407	50314.96
713.75	50047.17
714.094	50077.68
714.438	49979.15
714.782	49975.76
715.125	49835.65
715.469	49835.88
715.812	49674.53
716.156	49517.7
716.499	49479.05
716.843	49438.38
717.186	49192.05
717.53	49353.18
717.873	49305.5
718.216	49246.97
718.559	49021.66
718.902	48865.73
719.246	48873.42
719.589	48745.06
719.932	48549.13
720.275	48581.45
720.617	48591.62
720.96	48464.16
721.303	48505.29
721.646	48614.67
721.989	48280.89
722.331	48335.58
722.674	48249.03
723.016	48188.69
723.359	48033.44
723.701	48126.09
724.044	47950.73
724.386	47641.13
724.729	47973.33
725.071	47748.25
725.413	47800.9
725.755	47733.79
726.097	47609.95
726.439	47485.88
726.782	47493.79
727.124	47601.59
727.465	47446.34
727.807	47383.74
728.149	47292.22
728.491	47179.9
728.833	47262.39
729.175	47110.75
729.516	47190.98
729.858	47043.18
730.199	47186.23
730.541	47007.7
730.882	47041.38
731.224	47122.5
731.565	46867.37
731.906	46945.79
732.248	46927.25
732.589	46750.08
732.93	46595.74
733.271	46752.34
733.612	46706.7
733.953	46607.72
734.294	46384.44
734.635	46373.82
734.976	46570.88
735.317	46282.98
735.658	46203.43
735.999	46259.93
736.339	46095.41
736.68	45991.46
737.021	46013.15
737.361	45833.05
737.702	45965.92
738.042	45837.34
738.383	45582.66
738.723	45711.02
739.063	45497.46
739.404	45590.11
739.744	45309.22
740.084	45187.41
740.424	44977.7
740.764	45010.47
741.104	45049.34
741.444	44722.34
741.784	44739.74
742.124	44891.83
742.464	44562.8
742.804	44553.31
743.143	44379.07
743.483	44472.63
743.823	43993.09
744.162	44183.82
744.502	44069.02
744.841	43808.47
745.181	43999.2
745.52	43744.97
745.86	43707
746.199	43617.06
746.538	43457.52
746.877	43406.22
747.216	43322.83
747.556	43052.1
747.895	43131.65
748.234	42878.55
748.573	42866.57
748.911	42748.38
749.25	42660.7
749.589	42416.86
749.928	42420.25
750.267	42529.4
750.605	42361.27
750.944	42236.98
751.283	41996.54
751.621	42070.43
751.96	41823.21
752.298	41781.4
752.636	41816.65
752.975	41439.49
753.313	41410.34
753.651	41599.26
753.989	41308.87
754.327	41250.79
754.666	41057.58
755.004	41088.76
755.342	40976.45
755.679	40920.63
756.017	40736.01
756.355	40961.31
756.693	40680.64
757.031	40794.53
757.368	40606.52
757.706	40445.39
758.044	40427.09
758.381	40339.63
758.719	40183.93
759.056	40215.34
759.394	40117.72
759.731	40039.75
760.068	40011.05
760.405	39855.8
760.743	39694
761.08	39716.14
761.417	39497.85
761.754	39611.29
762.091	39548.24
762.428	39510.05
762.765	39252.43
763.102	39358.19
763.438	39131.98
763.775	39057.86
764.112	39082.04
764.449	39210.17
764.785	38982.6
765.122	38592.78
765.458	38536.97
765.795	38509.17
766.131	38505.1
766.467	38355.05
766.804	38273.47
767.14	38183.53
767.476	38074.61
767.812	38012.46
768.148	38109.86
768.485	37868.74
768.821	37631.68
769.157	37717.55
769.492	37467.84
769.828	37487.05
770.164	37013.84
770.5	37014.52
770.836	36979.27
771.171	36698.6
771.507	36801.42
771.842	36524.82
772.178	36527.3
772.513	36314.88
772.849	36110.59
773.184	36106.52
773.519	36082.34
773.855	35955.57
774.19	35733.65
774.525	35567.78
774.86	35721
775.195	35448.46
775.53	35339.76
775.865	34922.82
776.2	34939.1
776.535	34575.04
776.87	34638.76
777.205	34482.84
777.539	34381.14
777.874	34426.79
778.209	34027.93
778.543	33836.75
778.878	33573.26
779.212	33567.83
779.547	33330.78
779.881	33490.09
780.215	33112.7
780.55	33256.2
780.884	32879.49
781.218	32874.74
781.552	32599.95
781.886	32440.18
782.22	32192.28
782.554	32190.47
782.888	31996.35
783.222	31769.24
783.556	31583.48
783.889	31563.14
784.223	31114.56
784.557	31065.75
784.89	31109.37
785.224	30960.22
785.557	30904.85
785.891	30658.08
786.224	30570.85
786.558	30511.42
786.891	30135.15
787.224	30010.19
787.557	29962.73
787.891	29819.46
788.224	29836.18
788.557	29724.32
788.89	29520.25
789.223	29473.25
789.556	29208.4
789.888	29247.27
790.221	28991.46
790.554	28824.68
790.887	28757.34
791.219	28720.5
791.552	28589.43
791.884	28549.66
792.217	28412.49
792.549	28252.27
792.882	28029.22
793.214	27788.1
793.546	27980.18
793.879	27831.94
794.211	27641.89
794.543	27688.21
794.875	27600.76
795.207	27577.48
795.539	27339.97
795.871	27400.76
796.203	27283.48
796.535	27033.54
796.867	27063.6
797.198	26905.18
797.53	27006.87
797.862	26726.2
798.193	26886.65
798.525	26602.59
798.856	26683.49
799.188	26452.09
799.519	26331.86
799.85	26199.21
800.182	26279.44
800.513	26245.54
800.844	25922.61
801.175	26142.94
801.506	26154.24
801.837	26088.03
802.168	25922.84
802.499	25943.17
802.83	25855.04
803.161	25654.82
803.491	25722.61
803.822	25742.28
804.153	25593.58
804.483	25490.98
804.814	25352.68
805.145	25417.99
805.475	25420.48
805.805	25265.23
806.136	25465.45
806.466	25430.64
806.796	25473.36
807.126	25153.59
807.457	25166.92
807.787	25157.88
808.117	25095.51
808.447	24890.32
808.777	25025.91
809.107	24964.44
809.436	24845.12
809.766	24909.3
810.096	24871.11
810.426	24797.67
810.755	24726.26
811.085	24729.19
811.414	24675.41
811.744	24599.93
812.073	24515.64
812.403	24544.34
812.732	24420.73
813.061	24472.48
813.39	24226.83
813.719	24252.82
814.049	24387.96
814.378	24115.2
814.707	24099.15
815.036	24054.18
815.365	23916.11
815.693	23897.35
816.022	24011.25
816.351	23738.71
816.68	23544.37
817.008	23545.27
817.337	23329.46
817.665	23368.55
817.994	23342.34
818.322	23296.24
818.651	23220.08
818.979	23178.5
819.307	23331.72
819.636	23170.59
819.964	22954.33
820.292	23103.47
820.62	22973.31
820.948	22802.92
821.276	22940.54
821.604	22875.91
821.932	22846.08
822.259	22816.02
822.587	22773.54
822.915	22566.99
823.243	22779.19
823.57	22617.61
823.898	22727.21
824.225	22517.95
824.553	22615.35
824.88	22519.76
825.207	22582.58
825.535	22434.57
825.862	22490.16
826.189	22397.5
826.516	22430.5
826.843	22428.69
827.17	22344.85
827.497	22418.07
827.824	22213.1
828.151	22254.91
828.478	22055.82
828.805	22081.58
829.131	22008.36
829.458	21975.37
829.785	21902.6
830.111	21846.11
830.438	22035.03
830.764	21979.66
831.09	22015.59
831.417	21760.46
831.743	21776.28
832.069	21675.49
832.395	21586.9
832.722	21725.21
833.048	21573.12
833.374	21525.66
833.7	21585.55
834.026	21496.51
834.351	21533.35
834.677	21406.8
835.003	21432.33
835.329	21468.49
835.654	21370.19
835.98	21251.55
836.306	21325.89
836.631	21101.95
836.956	21196.41
837.282	21246.12
837.607	20950.99
837.932	20867.6
838.258	20858.34
838.583	20844.1
838.908	20742.18
839.233	20772.69
839.558	20726.81
839.883	20711.45
840.208	20633.48
840.533	20671.9
840.858	20638.68
841.182	20698.11
841.507	20562.3
841.832	20464.45
842.156	20451.11
842.481	20485.69
842.805	20356.65
843.13	20350.33
843.454	20300.38
843.778	20182.87
844.103	20196.66
844.427	20163.44
844.751	20117.11
845.075	20060.39
845.399	20051.13
845.723	20024.69
846.047	20002.54
846.371	19897.23
846.695	19914.41
847.019	19674.19
847.343	19677.35
847.666	19588.99
847.99	19624.92
848.313	19534.08
848.637	19460.63
848.96	19473.74
849.284	19478.26
849.607	19424.02
849.931	19443.46
850.254	19280.98
850.577	19145.84
850.9	18963.47
851.223	18960.08
851.546	19022
851.869	18876.69
852.192	18944.49
852.515	18817.49
852.838	18769.13
853.161	18712.86
853.483	18700.43
853.806	18573.2
854.129	18598.28
854.451	18500.21
854.774	18422.69
855.096	18395.58
855.419	18353.99
855.741	18491.39
856.063	18314
856.385	18402.58
856.708	18323.71
857.03	18222.47
857.352	18278.29
857.674	18177.5
857.996	18190.38
858.318	18052.99
858.64	18048.47
858.961	17989.26
859.283	18013.89
859.605	17834.01
859.926	17935.47
860.248	17891.41
860.57	17713.56
860.891	17851.64
861.212	17696.16
861.534	17695.93
861.855	17576.16
862.176	17668.59
862.498	17706.55
862.819	17637.63
863.14	17636.05
863.461	17598.53
863.782	17489.38
864.103	17436.73
864.424	17423.4
864.745	17427.24
865.065	17302.72
865.386	17363.96
865.707	17311.54
866.027	17332.1
866.348	17263.63
866.668	17223.86
866.989	17223.63
867.309	17112.45
867.63	17047.14
867.95	16993.8
868.27	16876.97
868.59	16914.94
868.91	16880.81
869.23	16842.17
869.55	16718.11
869.87	16910.42
870.19	16777.99
870.51	16818.22
870.83	16744.09
871.15	16649.63
871.469	16551.78
871.789	16618.22
872.109	16524.21
872.428	16496.19
872.748	16413.71
873.067	16401.5
873.386	16378.91
873.706	16283.09
874.025	16237.44
874.344	16139.14
874.663	16276.31
874.982	16115.18
875.301	15992.93
875.62	16053.26
875.939	16025.92
876.258	15975.3
876.577	15901.4
876.896	15801.97
877.214	15714.97
877.533	15843.1
877.852	15690.11
878.17	15684.69
878.489	15651.47
878.807	15584.58
879.125	15553.39
879.444	15501.19
879.762	15401.08
880.08	15458.03
880.398	15335.54
880.716	15380.06
881.034	15230.01
881.352	15211.7
881.67	15121.54
881.988	15174.64
882.306	15036.34
882.624	15041.77
882.941	14945.95
883.259	14880.64
883.577	14863.01
883.894	14758.38
884.212	14774.43
884.529	14769
884.846	14692.4
885.164	14652.85
885.481	14575.56
885.798	14575.34
886.115	14434.78
886.432	14426.64
886.75	14365.85
887.067	14312.97
887.383	14282.01
887.7	14297.38
888.017	14136.03
888.334	14221.67
888.651	14145.29
888.967	14005.86
889.284	14041.79
889.6	13948.01
889.917	13854.68
890.233	13884.28
890.55	13757.28
890.866	13837.05
891.182	13778.75
891.498	13728.58
891.815	13721.35
892.131	13610.62
892.447	13695.59
892.763	13611.52
893.079	13548.02
893.395	13483.84
893.71	13571.52
894.026	13571.97
894.342	13426.21
894.657	13369.04
894.973	13355.48
895.289	13411.07
895.604	13346.89
895.92	13243.62
896.235	13155.04
896.55	13221.25
896.865	13105.09
897.181	13058.99
897.496	13050.18
897.811	13050.63
898.126	12978.99
898.441	12937.41
898.756	12882.05
899.071	12865.78
899.386	12901.93
899.7	12822.39
900.015	12694.26
900.33	12660.81
900.644	12690.19
900.959	12735.16
901.273	12689.28
901.588	12616.74
901.902	12553.47
902.216	12572.23
902.531	12577.42
902.845	12476.86
903.159	12374.27
903.473	12377.65
903.787	12356.64
904.101	12291.56
904.415	12234.61
904.729	12260.82
905.042	12162.97
905.356	12190.32
905.67	12143.54
905.984	12161.39
906.297	12085.01
906.611	12035.97
906.924	11994.61
907.237	12012.69
907.551	11975.18
907.864	11910.55
908.177	11899.48
908.491	11925.01
908.804	11744.45
909.117	11694.28
909.43	11641.4
909.743	11677.33
910.056	11621.97
910.368	11627.84
910.681	11515.76
910.994	11547.85
911.307	11456.78
911.619	11368.42
911.932	11380.84
912.244	11221.98
912.557	11265.14
912.869	11249.77
913.181	11169.1
913.494	11214.3
913.806	11113.06
914.118	11143.79
914.43	11076.22
914.742	11003.23
915.054	10885.49
915.366	10882.1
915.678	10938.37
915.99	10845.49
916.302	10816.34
916.613	10800.07
916.925	10753.29
917.236	10683.69
917.548	10636.46
917.859	10615.89
918.171	10537.93
918.482	10550.36
918.794	10511.26
919.105	10462
919.416	10348.1
919.727	10305.84
920.038	10299.97
920.349	10201.21
920.66	10180.88
920.971	10153.53
921.282	10124.38
921.593	9990.82
921.903	10021.78
922.214	10024.95
922.525	9891.17
922.835	9930.94
923.146	9785.86
923.456	9788.8
923.767	9749.48
924.077	9743.37
924.387	9677.16
924.697	9586.32
925.008	9631.74
925.318	9545.41
925.628	9572.98
925.938	9472.42
926.248	9421.12
926.558	9319.43
926.867	9317.62
927.177	9246.44
927.487	9193.33
927.796	9131.64
928.106	9112.2
928.416	9078.08
928.725	9080.79
929.034	8954.02
929.344	9007.57
929.653	8901.14
929.962	8835.15
930.271	8786.56
930.581	8735.49
930.89	8670.18
931.199	8623.18
931.508	8748.37
931.817	8575.72
932.125	8499.56
932.434	8470.64
932.743	8422.28
933.051	8355.61
933.36	8336.18
933.669	8304.77
933.977	8290.3
934.286	8245.33
934.594	8231.1
934.902	8133.25
935.21	8102.96
935.519	8109.97
935.827	7998.56
936.135	8013.93
936.443	7915.17
936.751	7805.12
937.059	7905.46
937.367	7855.06
937.674	7852.12
937.982	7715.86
938.29	7665.24
938.597	7683.99
938.905	7556.31
939.213	7561.28
939.52	7511.12
939.827	7492.59
940.135	7527.84
940.442	7460.27
940.749	7420.27
941.056	7455.3
941.363	7331.91
941.67	7304.57
941.977	7230.67
942.284	7200.39
942.591	7192.25
942.898	7161.52
943.205	7109.09
943.511	7059.38
943.818	7093.27
944.125	7002.88
944.431	7005.59
944.738	6956.1
945.044	6888.99
945.35	6808.08
945.657	6840.63
945.963	6813.06
946.269	6735.54
946.575	6740.74
946.881	6752.49
947.187	6664.13
947.493	6645.83
947.799	6594.08
948.105	6592.95
948.41	6521.09
948.716	6600.63
949.022	6465.95
949.327	6476.12
949.633	6395.89
949.938	6412.61
950.244	6382.33
950.549	6343.46
950.854	6288.78
951.16	6274.31
951.465	6291.26
951.77	6182.56
952.075	6219.62
952.38	6152.51
952.685	6179.85
952.99	6130.81
953.294	6105.73
953.599	6055.56
953.904	6068.22
954.209	6010.82
954.513	6003.36
954.818	5928.78
955.122	5906.41
955.426	5831.61
955.731	5885.17
956.035	5856.02
956.339	5833.65
956.643	5807.43
956.948	5773.76
957.252	5762.24
957.556	5756.81
957.86	5717.04
958.163	5700.54
958.467	5641.11
958.771	5617.61
959.075	5641.56
959.378	5607.66
959.682	5593.43
959.985	5493.99
960.289	5531.28
960.592	5536.93
960.896	5470.27
961.199	5420.78
961.502	5480.89
961.805	5443.15
962.108	5423.71
962.411	5405.41
962.714	5332.19
963.017	5338.97
963.32	5332.87
963.623	5302.59
963.926	5332.87
964.228	5259.2
964.531	5249.93
964.833	5257.62
965.136	5181.01
965.438	5146.21
965.741	5113.89
966.043	5144.85
966.345	5122.93
966.648	5058.75
966.95	5046.32
967.252	5057.62
967.554	5057.85
967.856	4980.11
968.158	4968.58
968.46	4958.19
968.761	4962.93
969.063	4922.03
969.365	4896.95
969.666	4878.87
969.968	4857.17
970.269	4833.22
970.571	4842.26
970.872	4825.76
971.174	4734.24
971.475	4773.56
971.776	4797.29
972.077	4739.21
972.378	4741.25
972.679	4756.16
972.98	4714.35
973.281	4703.73
973.582	4629.16
973.883	4656.95
974.183	4635.94
974.484	4567.46
974.785	4564.98
975.085	4592.32
975.386	4549.61
975.686	4506.22
975.986	4543.96
976.287	4496.73
976.587	4488.37
976.887	4449.73
977.187	4412.21
977.487	4412.89
977.787	4415.83
978.087	4403.18
978.387	4338.54
978.687	4372.44
978.987	4329.73
979.286	4311.88
979.586	4267.13
979.885	4233.69
980.185	4243.18
980.484	4183.97
980.784	4207.47
981.083	4138.55
981.382	4137.65
981.682	4115.05
981.981	4117.76
982.28	4076.4
982.579	4034.82
982.878	4032.11
983.177	4032.34
983.475	4021.49
983.774	3934.49
984.073	3992.34
984.372	3916.86
984.67	3937.2
984.969	3945.56
985.267	3879.8
985.566	3913.02
985.864	3868.95
986.162	3808.84
986.461	3794.6
986.759	3833.25
987.057	3736.98
987.355	3743.76
987.653	3692.91
987.951	3698.79
988.249	3662.18
988.547	3679.58
988.844	3697.88
989.142	3647.71
989.44	3565.91
989.737	3561.84
990.035	3604.78
990.332	3589.64
990.63	3525.68
990.927	3522.07
991.224	3498.79
991.521	3506.25
991.819	3487.49
992.116	3452.92
992.413	3431.22
992.71	3407.04
993.006	3429.19
993.303	3370.43
993.6	3389.42
993.897	3351.68
994.193	3350.32
994.49	3344.45
994.787	3321.4
995.083	3280.72
995.379	3256.09
995.676	3256.54
995.972	3273.94
996.268	3216.77
996.565	3173.38
996.861	3186.71
997.157	3181.51
997.453	3132.25
997.749	3158.01
998.044	3126.37
998.34	3127.05
998.636	3117.11
998.932	3053.15
999.227	2993.49
999.523	3015.87
999.818	3008.18
1000.114	3031.91
1000.409	2977.9
1000.704	2976.55
1001	2967.05
1001.295	2924.34
1001.59	2918.92
1001.885	2891.12
1002.18	2868.53
1002.475	2871.46
1002.77	2841.63
1003.065	2851.58
1003.359	2832.6
1003.654	2795.99
1003.949	2763.44
1004.243	2813.84
1004.538	2739.49
1004.832	2705.37
1005.127	2722.09
1005.421	2687.06
1005.715	2661.98
1006.009	2672.6
1006.304	2647.06
1006.598	2653.16
1006.892	2607.97
1007.186	2617.01
1007.48	2561.19
1007.773	2581.98
1008.067	2529.1
1008.361	2531.59
1008.655	2517.35
1008.948	2504.92
1009.242	2484.36
1009.535	2430.57
1009.829	2446.62
1010.122	2451.14
1010.415	2419.05
1010.708	2388.99
1011.001	2415.43
1011.295	2377.69
1011.588	2403.68
1011.881	2368.88
1012.173	2330.46
1012.466	2351.93
1012.759	2326.62
1013.052	2313.06
1013.344	2288.43
1013.637	2258.37
1013.93	2214.08
1014.222	2243.01
1014.514	2227.19
1014.807	2246.17
1015.099	2196.23
1015.391	2211.82
1015.683	2177.92
1015.976	2159.62
1016.268	2143.8
1016.56	2097.93
1016.851	2149.9
1017.143	2088.89
1017.435	2069.68
1017.727	2041.43
1018.018	2074.42
1018.31	2048.89
1018.602	2042.79
1018.893	2036.01
1019.185	2003.92
1019.476	2016.12
1019.767	1991.26
1020.058	1941.32
1020.35	1951.26
1020.641	1954.2
1020.932	1935.9
1021.223	1946.29
1021.514	1911.72
1021.804	1873.98
1022.095	1874.88
1022.386	1870.36
1022.677	1851.15
1022.967	1840.53
1023.258	1840.76
1023.548	1833.07
1023.839	1760.31
1024.129	1793.53
1024.419	1768.22
1024.709	1739.74
1025	1777.26
1025.29	1743.81
1025.58	1736.8
1025.87	1734.77
1026.16	1689.57
1026.449	1677.6
1026.739	1683.02
1027.029	1668.33
1027.319	1633.53
1027.608	1649.35
1027.898	1650.71
1028.187	1624.04
1028.477	1610.93
1028.766	1614.77
1029.055	1593.08
1029.344	1609.12
1029.634	1561.89
1029.923	1572.06
1030.212	1535.68
1030.501	1541.56
1030.79	1533.87
1031.078	1513.08
1031.367	1511.95
1031.656	1463.59
1031.945	1484.16
1032.233	1486.19
1032.522	1487.09
1032.81	1459.52
1033.099	1443.48
1033.387	1445.06
1033.675	1408.23
1033.963	1407.32
1034.251	1416.14
1034.54	1395.8
1034.828	1365.51
1035.116	1353.99
1035.403	1380.66
1035.691	1338.4
1035.979	1335.69
1036.267	1322.35
1036.554	1288.91
1036.842	1294.1
1037.129	1293.43
1037.417	1298.17
1037.704	1260.88
1037.992	1263.6
1038.279	1235.8
1038.566	1229.47
1038.853	1229.47
1039.14	1229.47
