Data from white_steel_sheet_FLMS001491_058.txt Node
Date: Tue Feb 07 10:58:06 GMT 2017
User: dcchb
Spectrometer: FLMS00149
Trigger mode: 0
Integration Time (sec): 2.000000E-2
Scans to average: 10
Electric dark correction enabled: true
Nonlinearity correction enabled: false
Boxcar width: 0
XAxis mode: Wavelengths
Number of Pixels in Spectrum: 2048
>>>>>Begin Spectral Data<<<<<
341.393	-23.11
341.776	-23.11
342.16	-23.11
342.543	-50.9
342.927	-82.54
343.31	-74.63
343.693	-70.34
344.077	-69.21
344.46	-45.48
344.843	-45.03
345.226	-28.76
345.61	-37.34
345.993	-27.63
346.376	-1.41
346.759	5.59
347.142	31.13
347.525	36.1
347.908	63.22
348.291	62.54
348.674	99.38
349.057	101.86
349.44	125.59
349.823	126.95
350.206	161.07
350.588	190.67
350.971	216.21
351.354	255.98
351.737	234.74
352.119	257.11
352.502	270.9
352.884	272.25
353.267	282.87
353.65	299.82
354.032	325.36
354.414	308.86
354.797	343.21
355.179	320.84
355.562	368.75
355.944	342.53
356.326	359.03
356.709	349.54
357.091	342.08
357.473	349.09
357.855	351.8
358.238	371.46
358.62	339.82
359.002	356.54
359.384	354.51
359.766	351.12
360.148	348.18
360.53	335.08
360.912	358.35
361.294	352.93
361.676	338.47
362.057	348.41
362.439	326.94
362.821	319.26
363.203	342.99
363.584	340.27
363.966	353.15
364.348	361.29
364.729	346.83
365.111	328.75
365.493	341.63
365.874	324
366.256	319.48
366.637	329.88
367.019	346.38
367.4	345.02
367.781	341.86
368.163	316.32
368.544	321.97
368.925	329.43
369.306	346.6
369.688	335.53
370.069	332.36
370.45	342.53
370.831	319.26
371.212	319.71
371.593	325.81
371.974	340.5
372.355	333.49
372.736	321.07
373.117	347.28
373.498	337.11
373.879	333.27
374.26	336.88
374.641	333.27
375.021	326.26
375.402	361.74
375.783	341.86
376.163	366.71
376.544	359.48
376.925	365.58
377.305	339.14
377.686	355.64
378.066	353.83
378.447	354.51
378.827	361.06
379.208	362.42
379.588	352.02
379.968	350.67
380.349	345.7
380.729	345.92
381.109	378.92
381.489	370.1
381.87	389.09
382.25	374.17
382.63	371.01
383.01	397
383.39	379.82
383.77	391.35
384.15	383.66
384.53	384.79
384.91	395.41
385.29	391.57
385.67	377.33
386.049	396.09
386.429	397.67
386.809	403.55
387.189	415.3
387.568	427.05
387.948	406.94
388.328	421.63
388.707	417.11
389.087	423.21
389.466	409.65
389.846	445.13
390.225	439.03
390.605	419.59
390.984	422.98
391.363	425.47
391.743	442.64
392.122	443.77
392.501	446.71
392.881	462.76
393.26	441.51
393.639	481.51
394.018	498.69
394.397	478.8
394.776	476.99
395.155	467.73
395.534	489.2
395.913	496.65
396.292	510.89
396.671	516.09
397.05	526.94
397.429	533.26
397.808	522.64
398.186	546.37
398.565	554.51
398.944	559.02
399.323	528.29
399.701	557.67
400.08	566.26
400.458	574.84
400.837	577.56
401.215	594.05
401.594	597.89
401.972	607.84
402.351	593.15
402.729	616.2
403.107	641.28
403.486	639.25
403.864	657.55
404.242	676.76
404.62	675.41
404.999	663.65
405.377	691
405.755	694.84
406.133	696.65
406.511	733.94
406.889	704.56
407.267	721.96
407.645	738.91
408.023	742.52
408.401	806.25
408.779	785.46
409.156	799.92
409.534	803.76
409.912	821.16
410.29	846.47
410.667	839.7
411.045	871.11
411.422	869.98
411.8	887.15
412.178	914.5
412.555	919.47
412.933	921.5
413.31	957.88
413.687	962.86
414.065	968.96
414.442	1010.09
414.819	995.62
415.197	1008.05
415.574	1018.22
415.951	1002.85
416.328	1024.1
416.705	1018
417.082	1040.82
417.46	1065.68
417.837	1098.45
418.214	1087.37
418.591	1100.48
418.967	1091.67
419.344	1105.68
419.721	1149.29
420.098	1148.39
420.475	1164.66
420.852	1160.82
421.228	1172.34
421.605	1189.06
421.982	1185.45
422.358	1227.03
422.735	1247.59
423.111	1236.75
423.488	1264.32
423.864	1273.58
424.241	1283.07
424.617	1292.34
424.994	1311.77
425.37	1320.59
425.746	1322.39
426.123	1344.99
426.499	1375.73
426.875	1351.77
427.251	1394.26
427.627	1434.26
428.003	1412.79
428.379	1471.32
428.756	1466.35
429.132	1510.19
429.507	1530.3
429.883	1536.17
430.259	1560.35
430.635	1588.15
431.011	1594.25
431.387	1638.54
431.763	1627.7
432.138	1636.28
432.514	1673.35
432.89	1687.13
433.265	1721.71
433.641	1778.43
434.016	1777.75
434.392	1789.05
434.767	1849.39
435.143	1833.12
435.518	1808.71
435.894	1854.58
436.269	1898.65
436.644	1938.2
437.02	1933.45
437.395	1952.21
437.77	1958.99
438.145	1992.89
438.52	2022.94
438.895	2070.4
439.271	2037.63
439.646	2107.91
440.021	2123.05
440.395	2116.5
440.77	2102.94
441.145	2132.54
441.52	2208.25
441.895	2180.45
442.27	2227.46
442.645	2209.6
443.019	2245.76
443.394	2255.03
443.769	2266.32
444.143	2248.25
444.518	2317.62
444.892	2308.36
445.267	2347.23
445.641	2381.12
446.016	2386.32
446.39	2381.12
446.764	2414.57
447.139	2414.57
447.513	2435.13
447.887	2481.23
448.262	2482.36
448.636	2503.15
449.01	2524.62
449.384	2561.68
449.758	2603.26
450.132	2598.07
450.506	2616.82
450.88	2650.72
451.254	2625.19
451.628	2674.22
452.002	2744.05
452.376	2772.53
452.75	2755.8
453.123	2777.72
453.497	2797.61
453.871	2850.72
454.244	2940.21
454.618	2917.38
454.992	2949.47
455.365	3008
455.739	3057.26
456.112	3059.07
456.486	3115.79
456.859	3161.22
457.232	3182.68
457.606	3182.91
457.979	3206.86
458.352	3274.66
458.725	3365.28
459.099	3341.32
459.472	3389.68
459.845	3474.2
460.218	3515.11
460.591	3557.36
460.964	3552.17
461.337	3594.2
461.71	3651.6
462.083	3696.57
462.456	3704.93
462.829	3728.21
463.201	3773.18
463.574	3847.98
463.947	3884.81
464.32	3944.02
464.692	3997.35
465.065	4033.74
465.438	4110.8
465.81	4088.65
466.183	4167.07
466.555	4256.33
466.928	4267.63
467.3	4302.43
467.672	4367.96
468.045	4519.15
468.417	4508.07
468.789	4521.86
469.161	4606.6
469.534	4663.32
469.906	4774.73
470.278	4857.44
470.65	4855.86
471.022	4910.77
471.394	4983.99
471.766	5088.85
472.138	5129.07
472.51	5190.32
472.882	5350.99
473.253	5348.73
473.625	5442.51
473.997	5533.36
474.369	5645.9
474.74	5677.53
475.112	5787.81
475.484	5850.41
475.855	5968.15
476.227	5996.85
476.598	6218.99
476.97	6235.94
477.341	6372.88
477.713	6500.79
478.084	6524.74
478.455	6633.44
478.827	6788.01
479.198	6894.68
479.569	6942.13
479.94	7205.86
480.311	7194.78
480.682	7317.04
481.053	7499.86
481.424	7652.62
481.795	7701.89
482.166	7791.6
482.537	7953.41
482.908	8093.74
483.279	8213.51
483.65	8361.08
484.021	8584.12
484.391	8584.35
484.762	8683.78
485.133	8724.91
485.503	8831.8
485.874	9054.85
486.244	9196.09
486.615	9321.96
486.985	9453.48
487.356	9646.92
487.726	9666.13
488.097	9919
488.467	9956.29
488.837	10168.49
489.207	10276.51
489.578	10376.62
489.948	10536.84
490.318	10688.7
490.688	10713.11
491.058	10864.74
491.428	11021.35
491.798	11214.56
492.168	11361.45
492.538	11471.96
492.908	11552.63
493.278	11651.84
493.648	11817.26
494.017	11968.44
494.387	12010.7
494.757	12185.16
495.126	12236.01
495.496	12372.27
495.866	12468.09
496.235	12468.32
496.605	12706.28
496.974	12744.69
497.344	12883.67
497.713	12941.07
498.082	13118.69
498.452	13169.77
498.821	13260.39
499.19	13348.52
499.559	13448.18
499.928	13682.07
500.298	13717.1
500.667	13841.84
501.036	13769.98
501.405	14021.5
501.774	13957.54
502.143	14130.19
502.512	14174.49
502.88	14356.18
503.249	14414.93
503.618	14525.21
503.987	14616.96
504.356	14706.45
504.724	14785.09
505.093	14821.25
505.462	14979.44
505.83	15082.26
506.199	15215.59
506.567	15369.93
506.936	15366.09
507.304	15612.87
507.672	15608.12
508.041	15791.62
508.409	15881.79
508.777	16070.48
509.145	16147.09
509.514	16200.87
509.882	16339.85
510.25	16403.58
510.618	16538.49
510.986	16627.75
511.354	16774.19
511.722	16976.67
512.09	17136.67
512.458	17200.4
512.826	17393.38
513.193	17397.45
513.561	17455.3
513.929	17695.07
514.297	17751.12
514.664	17954.27
515.032	18015.74
515.4	18135.51
515.767	18255.73
516.135	18493.24
516.502	18283.3
516.869	18747.93
517.237	18723.74
517.604	18727.13
517.972	19088.26
518.339	19180.68
518.706	19211.19
519.073	19313.79
519.44	19451.64
519.808	19667.9
520.175	19680.78
520.542	20028.34
520.909	20123.71
521.276	20240.32
521.643	20481.66
522.009	20592.17
522.376	20746.74
522.743	20784.03
523.11	20940.18
523.477	21242.55
523.843	21487.29
524.21	21628.98
524.577	21788.75
524.943	21861.97
525.31	21991.68
525.676	22267.38
526.043	22389.86
526.409	22524.55
526.776	22793.02
527.142	22838.21
527.508	22948.72
527.874	23104.19
528.241	23254.93
528.607	23406.79
528.973	23666.44
529.339	23583.96
529.705	23939.2
530.071	24088.12
530.437	24244.05
530.803	24320.66
531.169	24460.32
531.535	24579.64
531.901	24689.46
532.267	24791.61
532.632	24891.27
532.998	24971.49
533.364	25238.83
533.73	25310.92
534.095	25517.46
534.461	25564.02
534.826	25710.91
535.192	25835.2
535.557	26067.28
535.923	26085.81
536.288	26173.27
536.653	26297.33
537.019	26247.84
537.384	26509.08
537.749	26550.66
538.114	26704.78
538.479	26662.07
538.845	26931.66
539.21	26925.11
539.575	27088.72
539.94	27143.18
540.305	27367.36
540.67	27260.02
541.034	27417.53
541.399	27515.38
541.764	27570.07
542.129	27700.01
542.494	27818.2
542.858	27880.79
543.223	27958.08
543.587	28050.05
543.952	28212.76
544.316	28237.85
544.681	28305.64
545.045	28451.4
545.41	28687.55
545.774	28690.94
546.138	28688
546.503	28829.69
546.867	28787.89
547.231	29016.81
547.595	29128.22
547.959	29225.84
548.324	29312.39
548.688	29316.23
549.052	29496.12
549.416	29443.01
549.779	29655.66
550.143	29786.73
550.507	29991.02
550.871	29876.45
551.235	30008.65
551.599	30257.23
551.962	30325.25
552.326	30400.95
552.689	30467.62
553.053	30550.1
553.417	30599.36
553.78	30958.45
554.143	30795.74
554.507	31039.35
554.87	31104.44
555.234	31480.47
555.597	31254.49
555.96	31431.89
556.323	31603.18
556.686	31691.31
557.05	31896.05
557.413	32019.89
557.776	32083.62
558.139	32128.82
558.502	32228.47
558.865	32447.23
559.228	32709.14
559.59	32736.71
559.953	32851.06
560.316	33145.74
560.679	33069.58
561.041	33371.04
561.404	33529.01
561.767	33707.53
562.129	33660.75
562.492	33983.91
562.854	33965.15
563.217	34051.03
563.579	34193.39
563.941	34424.12
564.304	34462.54
564.666	34759.93
565.028	34845.58
565.39	34906.6
565.753	35077.44
566.115	35217.1
566.477	35372.35
566.839	35423.87
567.201	35695.73
567.563	35659.34
567.925	35991.99
568.287	36027.92
568.648	36032.67
569.01	36169.61
569.372	36462.71
569.734	36382.04
570.095	36643.5
570.457	36831.74
570.819	36775.93
571.18	36967.79
571.542	37178.85
571.903	37052.75
572.265	37239.87
572.626	37236.7
572.987	37357.83
573.349	37565.28
573.71	37736.13
574.071	37749.01
574.432	37868.1
574.794	38063.35
575.155	38221.31
575.516	37970.47
575.877	38177.47
576.238	38369.1
576.599	38379.05
576.96	38398.03
577.32	38451.36
577.681	38480.29
578.042	38628.76
578.403	38693.39
578.763	38717.8
579.124	38766.16
579.485	38812.03
579.845	38870.56
580.206	38826.49
580.566	38943.55
580.927	38879.83
581.287	39146.03
581.648	39014.06
582.008	39120.95
582.368	39113.94
582.728	39136.99
583.089	38975.19
583.449	39052.7
583.809	39152.59
584.169	39166.37
584.529	39175.41
584.889	39460.15
585.249	39175.41
585.609	39164.56
585.969	39284.56
586.329	39234.39
586.688	39280.04
587.048	39218.8
587.408	39111.91
587.768	39229.65
588.127	39134.96
588.487	39216.99
588.846	39365.91
589.206	39136.99
589.565	39151.46
589.925	39278.23
590.284	39221.96
590.643	39245.01
591.003	39177.44
591.362	39318.91
591.721	39350.1
592.08	39247.27
592.44	39314.84
592.799	39418.34
593.158	39224.67
593.517	39198.01
593.876	39442.75
594.235	39339.25
594.593	39375.41
594.952	39454.95
595.311	39399.59
595.67	39338.34
596.029	39525.91
596.387	39469.41
596.746	39601.84
597.104	39344.67
597.463	39607.94
597.822	39523.88
598.18	39437.55
598.538	39391
598.897	39581.28
599.255	39273.71
599.613	39706.7
599.972	39586.02
600.33	39580.82
600.688	39441.17
601.046	39602.07
601.404	39910.08
601.762	39564.55
602.12	39801.61
602.478	39742.85
602.836	39798.67
603.194	39608.62
603.552	39650.43
603.91	39498.11
604.268	39807.48
604.625	39420.38
604.983	39932
605.341	39642.07
605.698	39736.07
606.056	39977.88
606.413	39913.92
606.771	40002.96
607.128	39997.76
607.485	39874.38
607.843	39956.63
608.2	40169.51
608.557	40335.83
608.914	40123.41
609.272	40252.67
609.629	40302.16
609.986	40411.76
610.343	40255.16
610.7	40591.42
611.057	40375.38
611.414	40497.18
611.771	40549.84
612.127	40634.36
612.484	40613.11
612.841	40726.56
613.198	40642.49
613.554	40730.4
613.911	40844.75
614.267	40798.19
614.624	40906.21
614.98	40874.35
615.337	41138.07
615.693	41044.06
616.05	41012.2
616.406	41167.22
616.762	41173.55
617.118	41250.38
617.475	41060.78
617.831	41185.75
618.187	41297.16
618.543	41209.71
618.899	41483.82
619.255	41509.13
619.611	41313.66
619.967	41562.69
620.323	41580.09
620.678	41429.81
621.034	41388.23
621.39	41382.13
621.746	41276.82
622.101	41794.78
622.457	41531.51
622.812	41494.67
623.168	41634.1
623.523	41550.49
623.879	41740.31
624.234	41378.52
624.589	41604.95
624.945	41672.52
625.3	41688.11
625.655	41621.9
626.01	41550.72
626.365	41649.24
626.72	41632.52
627.075	41625.06
627.43	41587.55
627.785	41437.72
628.14	41566.76
628.495	41602.92
628.85	41479.53
629.205	41274.34
629.559	41612.18
629.914	41374.9
630.269	41468.46
630.623	41368.8
630.978	41157.96
631.332	41484.05
631.687	41361.79
632.041	41275.47
632.396	41167.45
632.75	41133.33
633.104	41162.7
633.459	41107.79
633.813	41114.57
634.167	40946.66
634.521	40947.79
634.875	40898.98
635.229	40964.52
635.583	40743.28
635.937	40766.33
636.291	40689.95
636.645	40677.97
636.999	40510.52
637.352	40843.39
637.706	40442.5
638.06	40535.15
638.413	40371.09
638.767	40377.19
639.121	40489.95
639.474	40266.68
639.828	40219
640.181	40283.86
640.534	40272.1
640.888	40167.25
641.241	39847.48
641.594	39978.33
641.947	40047.25
642.301	39969.51
642.654	39921.61
643.007	39906.01
643.36	39848.61
643.713	39738.33
644.066	39917.76
644.419	39595.51
644.771	39330.43
645.124	38918.92
645.477	38938.13
645.83	38679.38
646.182	38435.09
646.535	38311.48
646.888	38525.48
647.24	38347.86
647.593	38532.72
647.945	38448.2
648.298	38243.46
648.65	38172.73
649.002	38156
649.355	38128.66
649.707	38165.49
650.059	38318.03
650.411	38717.34
650.763	38637.8
651.115	39046.37
651.467	38952.37
651.819	38986.94
652.171	38809.32
652.523	38722.32
652.875	38796.66
653.227	38612.04
653.578	38794.63
653.93	38810.45
654.282	38504.02
654.633	38616.1
654.985	38584.24
655.337	38657.68
655.688	38444.13
656.039	38653.39
656.391	38276.23
656.742	38344.92
657.094	38388.99
657.445	38454.98
657.796	38428.99
658.147	38467.41
658.498	38332.95
658.849	38314.19
659.2	38247.98
659.551	38195.78
659.902	38241.42
660.253	38170.24
660.604	38116
660.955	37816.12
661.306	38041.88
661.656	37941.77
662.007	37865.16
662.358	37922.11
662.708	37878.5
663.059	37809.57
663.409	37537.71
663.76	37809.57
664.11	37666.3
664.461	37625.39
664.811	37579.07
665.161	37445.96
665.511	37399.64
665.862	37275.12
666.212	37223.82
666.562	37343.59
666.912	37193.32
667.262	37024.73
667.612	37084.17
667.962	36989.25
668.312	36874.68
668.662	36886.66
669.011	36785.87
669.361	36673.1
669.711	36709.26
670.06	36526.44
670.41	36396.73
670.76	36204.64
671.109	36490.06
671.459	36307.92
671.808	36282.83
672.157	36179.78
672.507	35892.33
672.856	35958.09
673.205	35908.38
673.554	35963.07
673.904	35719.46
674.253	36021.14
674.602	35810.98
674.951	35222.75
675.3	35089.19
675.649	35559.01
675.998	35540.7
676.346	35546.58
676.695	35579.12
677.044	35274.95
677.393	35404.89
677.741	35437.2
678.09	35316.3
678.438	35211.45
678.787	35343.87
679.135	35212.8
679.484	35121.28
679.832	35186.59
680.181	34919.93
680.529	35085.8
680.877	35101.17
681.225	35076.31
681.573	35336.87
681.922	34971
682.27	34972.81
682.618	35099.13
682.966	34979.36
683.314	34942.53
683.661	34988.63
684.009	34932.36
684.357	34793.83
684.705	34866.37
685.053	34875.64
685.4	34883.09
685.748	34709.77
686.095	34861.4
686.443	34656.89
686.79	34846.48
687.138	34887.39
687.485	34880.83
687.832	34846.48
688.18	34891
688.527	34762.42
688.874	34573.05
689.221	34782.53
689.568	34718.58
689.915	34578.02
690.262	34632.25
690.609	34489.21
690.956	34418.02
691.303	34515.87
691.65	34389.55
691.997	34479.94
692.344	34191.81
692.69	34182.77
693.037	34431.35
693.383	33922.44
693.73	34246.5
694.077	34122.21
694.423	34151.59
694.769	34000.63
695.116	33981.65
695.462	34016.22
695.808	33772.16
696.155	33906.4
696.501	33652.39
696.847	33730.13
697.193	33459.85
697.539	33738.72
697.885	33385.05
698.231	33310.93
698.577	33364.49
698.923	33277.03
699.269	33079.53
699.614	33070.26
699.96	32945.07
700.306	32942.58
700.651	32835.92
700.997	32752.53
701.342	32748.46
701.688	32706.43
702.033	32508.92
702.379	32553.66
702.724	32390.05
703.069	32487
703.415	32068.03
703.76	32082.49
704.105	32182.15
704.45	32109.38
704.795	31935.83
705.14	31773.12
705.485	31797.3
705.83	31670.3
706.175	31739.67
706.52	31642.05
706.865	31584.2
707.209	31482.05
707.554	31321.83
707.899	31350.53
708.243	31210.2
708.588	31177.43
708.932	31105.79
709.277	31065.12
709.621	30957.32
709.966	30866.48
710.31	31034.61
710.654	30643.88
710.998	30785.35
711.342	30742.86
711.687	30721.62
712.031	30450.44
712.375	30438.69
712.719	30321.41
713.063	30289.54
713.407	30387.17
713.75	30258.58
714.094	30230.79
714.438	30144.91
714.782	30119.83
715.125	29834.87
715.469	30009.1
715.812	29897.24
716.156	29795.54
716.499	29866.95
716.843	29596.91
717.186	29603.23
717.53	29686.62
717.873	29571.37
718.216	29599.39
718.559	29505.83
718.902	29299.29
719.246	29291.38
719.589	29314.43
719.932	29165.28
720.275	29097.26
720.617	29154.43
720.96	28930.26
721.303	29090.7
721.646	29001.21
721.989	28779.3
722.331	28963.7
722.674	28833.99
723.016	28680.55
723.359	28765.51
723.701	28843.03
724.044	28604.62
724.386	28450.49
724.729	28533.2
725.071	28535.24
725.413	28394
725.755	28469.03
726.097	28249.6
726.439	28163.27
726.782	28248.47
727.124	28392.19
727.465	28153.55
727.807	28054.12
728.149	28058.87
728.491	27990.62
728.833	28047.34
729.175	27898.87
729.516	27858.19
729.858	27923.28
730.199	27811.19
730.541	27707.01
730.882	27781.59
731.224	27825.2
731.565	27610.52
731.906	27498.88
732.248	27512.21
732.589	27495.94
732.93	27398.55
733.271	27517.86
733.612	27358.77
733.953	27490.52
734.294	27197.87
734.635	27109.06
734.976	27240.58
735.317	27215.95
735.658	27081.94
735.999	26974.83
736.339	27000.82
736.68	27043.3
737.021	27059.12
737.361	26824.77
737.702	26920.82
738.042	26825.23
738.383	26820.26
738.723	26754.95
739.063	26743.87
739.404	26736.19
739.744	26727.15
740.084	26515.18
740.424	26581.84
740.764	26546.36
741.104	26662.52
741.444	26414.39
741.784	26268.18
742.124	26434.73
742.464	26364
742.804	26338.23
743.143	26307.95
743.483	26253.26
743.823	26103.21
744.162	26142.76
744.502	26131.46
744.841	25971.92
745.181	26048.07
745.52	25985.02
745.86	26047.17
746.199	25946.38
746.538	25724.92
746.877	25855.99
747.216	25751.36
747.556	25741.64
747.895	25761.3
748.234	25610.12
748.573	25554.07
748.911	25573.73
749.25	25526.28
749.589	25406.73
749.928	25372.16
750.267	25291.93
750.605	25268.21
750.944	25204.7
751.283	25182.56
751.621	25138.04
751.96	25011.94
752.298	25069.79
752.636	25031.83
752.975	24897.82
753.313	24827.99
753.651	25026.18
753.989	24803.59
754.327	24730.14
754.666	24541.45
755.004	24603.59
755.342	24554.1
755.679	24567.21
756.017	24323.82
756.355	24465.29
756.693	24364.27
757.031	24343.26
757.368	24180.55
757.706	24107.56
758.044	24162.25
758.381	24093.55
758.719	23918.86
759.056	24002.48
759.394	23963.38
759.731	23709.38
760.068	23725.87
760.405	23562.49
760.743	23408.59
761.08	23576.5
761.417	23461.7
761.754	23413.79
762.091	23321.59
762.428	23291.31
762.765	23133.12
763.102	23266.68
763.438	23066
763.775	22924.76
764.112	22867.59
764.449	22976.97
764.785	22750.53
765.122	22666.47
765.458	22585.79
765.795	22563.64
766.131	22450.65
766.467	22422.63
766.804	22379.02
767.14	22136.08
767.476	22158
767.812	22015.64
768.148	22129.31
768.485	21969.31
768.821	21763.89
769.157	21891.57
769.492	21791.01
769.828	21718.69
770.164	21535.65
770.5	21403.9
770.836	21548.98
771.171	21350.79
771.507	21338.14
771.842	21217.46
772.178	21048.2
772.513	21053.4
772.849	20948.77
773.184	20908.55
773.519	20837.59
773.855	20731.6
774.19	20734.54
774.525	20563.02
774.86	20537.93
775.195	20613.19
775.53	20539.52
775.865	20323.25
776.2	20171.16
776.535	20201.9
776.87	20069.25
777.205	20016.59
777.539	19984.28
777.874	19987.44
778.209	19796.71
778.543	19730.05
778.878	19598.3
779.212	19679.65
779.547	19594.68
779.881	19466.1
780.215	19413.9
780.55	19340.45
780.884	19262.49
781.218	19212.77
781.552	19156.05
781.886	19010.74
782.22	19024.3
782.554	18945.66
782.888	18731.65
783.222	18582.51
783.556	18587.93
783.889	18611.43
784.223	18428.39
784.557	18528.72
784.89	18478.78
785.224	18327.15
785.557	18356.3
785.891	18186.81
786.224	18159.92
786.558	18137.32
786.891	17979.36
787.224	17908.85
787.557	17933.48
787.891	17906.59
788.224	17799.48
788.557	17923.99
788.89	17758.12
789.223	17645.13
789.556	17555.64
789.888	17543.66
790.221	17453.27
790.554	17273.39
790.887	17356.1
791.219	17199.94
791.552	17114.97
791.884	17046.27
792.217	16954.3
792.549	16943.23
792.882	16726.96
793.214	16766.96
793.546	16830.69
793.879	16665.95
794.211	16550.92
794.543	16636.57
794.875	16493.52
795.207	16596.57
795.539	16526.97
795.871	16460.08
796.203	16383.02
796.535	16233.87
796.867	16207.88
797.198	16228.9
797.53	16142.12
797.862	16068
798.193	16155.45
798.525	15972.18
798.856	16008.34
799.188	15842.92
799.519	15741.22
799.85	15712.07
800.182	15652.19
800.513	15636.82
800.844	15518.63
801.175	15570.61
801.506	15536.71
801.837	15427.11
802.168	15439.31
802.499	15398.41
802.83	15271.18
803.161	15298.52
803.491	15287.9
803.822	15173.1
804.153	15147.57
804.483	15009.27
804.814	15029.6
805.145	14934.47
805.475	14939.44
805.805	14920.23
806.136	14872.77
806.466	14858.08
806.796	14780.12
807.126	14666
807.457	14703.74
807.787	14629.62
808.117	14558.2
808.447	14592.33
808.777	14528.6
809.107	14586.45
809.436	14479.79
809.766	14440.24
810.096	14296.97
810.426	14273.24
810.755	14237.99
811.085	14283.86
811.414	14158.22
811.744	14126.35
812.073	14106.92
812.403	14120.48
812.732	14151.66
813.061	14113.47
813.39	13918.45
813.719	14003.64
814.049	14027.6
814.378	13921.61
814.707	13777.89
815.036	13883.42
815.365	13754.38
815.693	13649.08
816.022	13652.69
816.351	13618.79
816.68	13499.7
817.008	13631.45
817.337	13520.72
817.665	13448.63
817.994	13502.19
818.322	13422.42
818.651	13366.6
818.979	13304.9
819.307	13350.78
819.636	13297.9
819.964	13241.63
820.292	13311.91
820.62	13303.55
820.948	13250.44
821.276	13250.22
821.604	13219.93
821.932	13213.83
822.259	13270.1
822.587	13160.28
822.915	13205.02
823.243	13193.04
823.57	13102.88
823.898	13188.07
824.225	13134.06
824.553	13013.39
824.88	13073.5
825.207	13165.7
825.535	13068.3
825.862	13136.1
826.189	13116.66
826.516	13138.36
826.843	13147.17
827.17	13199.14
827.497	13164.8
827.824	13155.98
828.151	13147.85
828.478	13179.94
828.805	13214.51
829.131	13109.66
829.458	13100.16
829.785	12975.87
830.111	13103.55
830.438	13105.81
830.764	13078.47
831.09	13062.88
831.417	12973.84
831.743	13003.9
832.069	12989.66
832.395	13000.28
832.722	13056.1
833.048	12889.77
833.374	12944.46
833.7	12943.33
834.026	12960.73
834.351	12950.79
834.677	12924.12
835.003	12979.72
835.329	12925.48
835.654	12887.97
835.98	12880.28
836.306	12831.47
836.631	12821.53
836.956	12766.16
837.282	12830.57
837.607	12714.41
837.932	12729.1
838.258	12656.33
838.583	12749.89
838.908	12534.3
839.233	12669.89
839.558	12607.3
839.883	12608.2
840.208	12598.03
840.533	12551.7
840.858	12471.25
841.182	12578.14
841.507	12579.5
841.832	12501.08
842.156	12384.7
842.481	12532.5
842.805	12433.97
843.13	12379.28
843.454	12347.64
843.778	12314.2
844.103	12314.87
844.427	12285.72
844.751	12204.37
845.075	12188.55
845.399	12214.54
845.723	12085.28
846.047	12101.32
846.371	11933.64
846.695	12014.32
847.019	11885.51
847.343	11906.98
847.666	11814.32
847.99	11790.82
848.313	11752.85
848.637	11651.84
848.96	11657.04
849.284	11616.36
849.607	11618.62
849.931	11479.19
850.254	11469.92
850.577	11335.24
850.9	11322.58
851.223	11373.43
851.546	11222.7
851.869	11158.97
852.192	11199.42
852.515	11111.74
852.838	11058.86
853.161	11101.57
853.483	11034
853.806	10980.45
854.129	10926.89
854.451	10878.3
854.774	10812.09
855.096	10836.04
855.419	10845.31
855.741	10752.43
856.063	10701.13
856.385	10693.9
856.708	10632.21
857.03	10648.48
857.352	10613.45
857.674	10618.87
857.996	10512.89
858.318	10483.51
858.64	10465.21
858.961	10452.1
859.283	10432.21
859.605	10348.82
859.926	10394.02
860.248	10323.51
860.57	10328.26
860.891	10287.36
861.212	10184.31
861.534	10259.33
861.855	10230.41
862.176	10264.08
862.498	10250.97
862.819	10160.13
863.14	10125.55
863.461	10104.08
863.782	10067.02
864.103	10107.93
864.424	10015.05
864.745	9983.64
865.065	9966.24
865.386	9984.54
865.707	9943.64
866.027	10024.31
866.348	9965.56
866.668	9936.63
866.989	9898.67
867.309	9834.94
867.63	9905.45
867.95	9835.17
868.27	9770.53
868.59	9805.56
868.91	9800.82
869.23	9762.17
869.55	9702.97
869.87	9788.84
870.19	9686.24
870.51	9734.83
870.83	9762.4
871.15	9641.27
871.469	9640.82
871.789	9674.04
872.109	9605.79
872.428	9527.6
872.748	9646.02
873.067	9575.51
873.386	9498.9
873.706	9554.27
874.025	9561.27
874.344	9477.66
874.663	9515.63
874.982	9440.37
875.301	9456.19
875.62	9412.13
875.939	9385.01
876.258	9371.67
876.577	9322.64
876.896	9351.34
877.214	9359.25
877.533	9369.87
877.852	9325.57
878.17	9421.84
878.489	9338.46
878.807	9204
879.125	9297.55
879.444	9286.7
879.762	9239.93
880.08	9215.97
880.398	9228.85
880.716	9241.28
881.034	9168.29
881.352	9187.5
881.67	9088.74
881.988	9039.93
882.306	9105.01
882.624	8991.35
882.941	9037.22
883.259	8950.67
883.577	9057.78
883.894	8972.14
884.212	8928.3
884.529	8949.99
884.846	8956.54
885.164	8917
885.481	8903.89
885.798	8876.55
886.115	8797
886.432	8881.29
886.75	8732.14
887.067	8737.57
887.383	8743.67
887.7	8754.52
888.017	8706.38
888.334	8692.82
888.651	8638.13
888.967	8607.17
889.284	8579.38
889.6	8592.03
889.917	8491.47
890.233	8535.09
890.55	8507.29
890.866	8486.5
891.182	8464.13
891.498	8441.53
891.815	8421.19
892.131	8393.85
892.447	8428.2
892.763	8368.54
893.079	8273.85
893.395	8304.81
893.71	8219.61
894.026	8176.23
894.342	8219.61
894.657	8134.64
894.973	8120.41
895.289	8114.76
895.604	8107.98
895.92	8053.29
896.235	8008.32
896.55	8024.59
896.865	8028.66
897.181	8001.54
897.496	8002.22
897.811	7962.22
898.126	7917.48
898.441	7850.81
898.756	7877.48
899.071	7814.2
899.386	7744.6
899.7	7769.46
900.015	7706.63
900.33	7670.25
900.644	7694.43
900.959	7686.97
901.273	7615.79
901.588	7662.11
901.902	7602.68
902.216	7545.96
902.531	7487.66
902.845	7455.79
903.159	7382.57
903.473	7420.99
903.787	7342.8
904.101	7308.68
904.415	7386.64
904.729	7276.59
905.042	7279.75
905.356	7204.73
905.67	7221.67
905.984	7189.13
906.297	7158.17
906.611	7131.51
906.924	7146.87
907.237	7023.26
907.551	7073.66
907.864	7017.84
908.177	6979.87
908.491	7006.09
908.804	6919.76
909.117	6878.18
909.43	6845.41
909.743	6878.41
910.056	6836.6
910.368	6783.72
910.681	6828.69
910.994	6721.8
911.307	6700.78
911.619	6668.92
911.932	6769.93
912.244	6595.25
912.557	6639.09
912.869	6569.49
913.181	6564.29
913.494	6543.73
913.806	6481.81
914.118	6458.76
914.43	6480.23
914.742	6495.82
915.054	6411.07
915.366	6349.38
915.678	6310.29
915.99	6296.73
916.302	6281.13
916.613	6297.41
916.925	6225.32
917.236	6300.12
917.548	6180.12
917.859	6189.16
918.171	6166.79
918.482	6128.37
918.794	6126.11
919.105	6115.26
919.416	6030.97
919.727	6030.29
920.038	6061.48
920.349	5953.23
920.66	5913.91
920.971	5981.93
921.282	5899.22
921.593	5892.22
921.903	5825.55
922.214	5757.76
922.525	5796.63
922.835	5770.64
923.146	5764.31
923.456	5747.81
923.767	5662.17
924.077	5680.25
924.387	5673.24
924.697	5574.03
925.008	5627.37
925.318	5576.52
925.628	5555.73
925.938	5555.96
926.248	5463.98
926.558	5480.93
926.867	5475.05
927.177	5453.36
927.487	5404.32
927.796	5348.96
928.106	5327.94
928.416	5347.6
928.725	5338.56
929.034	5286.13
929.344	5312.57
929.653	5271.9
929.962	5236.19
930.271	5221.5
930.581	5182.18
930.89	5167.27
931.199	5129.3
931.508	5126.59
931.817	5127.49
932.125	5095.85
932.434	5048.62
932.743	5032.58
933.051	4986.48
933.36	5051.79
933.669	4950.77
933.977	4918.91
934.286	4961.39
934.594	4916.88
934.902	4885.92
935.21	4926.59
935.519	4843.66
935.827	4834.84
936.135	4803.21
936.443	4786.03
936.751	4787.84
937.059	4770.21
937.367	4734.96
937.674	4756.2
937.982	4639.82
938.29	4683.21
938.597	4705.81
938.905	4591.01
939.213	4628.3
939.52	4605.92
939.827	4583.33
940.135	4587.39
940.442	4540.39
940.749	4525.25
941.056	4509.66
941.363	4470.33
941.67	4453.16
941.977	4413.84
942.284	4378.13
942.591	4409.77
942.898	4386.72
943.205	4370.68
943.511	4372.26
943.818	4330.23
944.125	4337
944.431	4260.62
944.738	4300.17
945.044	4273.5
945.35	4240.06
945.657	4220.4
945.963	4179.04
946.269	4140.4
946.575	4186.95
946.881	4155.54
947.187	4161.64
947.493	4086.39
947.799	4054.98
948.105	4104.24
948.41	4050.23
948.716	4010.69
949.022	4004.36
949.327	4024.24
949.633	3949.22
949.938	3977.01
950.244	3935.66
950.549	3918.48
950.854	3902.44
951.16	3955.55
951.465	3867.64
951.77	3865.83
952.075	3836.9
952.38	3847.75
952.685	3809.56
952.99	3762.33
953.294	3795.55
953.599	3757.58
953.904	3756.23
954.209	3729.79
954.513	3704.48
954.818	3708.77
955.122	3648.66
955.426	3654.99
955.731	3640.98
956.035	3627.19
956.339	3654.08
956.643	3605.05
956.948	3566.86
957.252	3546.97
957.556	3563.24
957.86	3555.56
958.163	3539.06
958.467	3487.76
958.771	3487.54
959.075	3457.03
959.378	3458.16
959.682	3458.38
959.985	3454.09
960.289	3419.06
960.592	3397.59
960.896	3351.04
961.199	3417.48
961.502	3366.18
961.805	3351.04
962.108	3305.85
962.411	3320.99
962.714	3271.5
963.017	3260.87
963.32	3261.1
963.623	3272.85
963.926	3210.25
964.228	3233.98
964.531	3231.95
964.833	3194.21
965.136	3220.65
965.438	3162.12
965.741	3169.35
966.043	3131.39
966.345	3154.44
966.648	3163.48
966.95	3158.05
967.252	3123.7
967.554	3083.25
967.856	3068.56
968.158	3045.51
968.46	3078.28
968.761	3061.56
969.063	3034.44
969.365	2973.42
969.666	3017.04
969.968	2962.35
970.269	2956.25
970.571	2932.75
970.872	2937.72
971.174	2905.4
971.475	2894.56
971.776	2920.77
972.077	2921.67
972.378	2886.65
972.679	2875.12
972.98	2845.97
973.281	2850.94
973.582	2833.77
973.883	2795.35
974.183	2810.49
974.484	2787.67
974.785	2773.2
975.085	2793.99
975.386	2771.17
975.686	2793.77
975.986	2752.41
976.287	2741.34
976.587	2681.68
976.887	2710.83
977.187	2675.81
977.487	2691.17
977.787	2631.06
978.087	2618.86
978.387	2626.99
978.687	2613.21
978.987	2596.26
979.286	2589.25
979.586	2607.56
979.885	2578.41
980.185	2545.64
980.484	2535.92
980.784	2534.79
981.083	2538.63
981.382	2529.14
981.682	2540.67
981.981	2509.03
982.28	2491.4
982.579	2443.27
982.878	2482.59
983.177	2443.27
983.475	2468.58
983.774	2442.82
984.073	2415.7
984.372	2348.13
984.67	2397.17
984.969	2396.72
985.267	2356.72
985.566	2380.45
985.864	2349.94
986.162	2348.58
986.461	2325.53
986.759	2362.59
987.057	2279.43
987.355	2309.71
987.653	2276.72
987.951	2281.47
988.249	2272.43
988.547	2265.42
988.844	2274.01
989.142	2235.14
989.44	2254.12
989.737	2211.64
990.035	2223.61
990.332	2214.57
990.63	2197.85
990.927	2212.99
991.224	2168.93
991.521	2195.14
991.819	2130.06
992.116	2103.84
992.413	2127.57
992.71	2080.79
993.006	2086.89
993.303	2092.54
993.6	2075.37
993.897	2094.35
994.193	2054.58
994.49	2092.32
994.787	2047.12
995.083	2009.83
995.379	1997.86
995.676	2046.67
995.972	2032.43
996.268	1991.3
996.565	1973.45
996.861	1965.32
997.157	1979.78
997.453	1964.86
997.749	1963.73
998.044	1928.48
998.34	1935.49
998.636	1925.77
998.932	1904.75
999.227	1886.45
999.523	1884.41
999.818	1930.97
1000.114	1921.25
1000.409	1864.08
1000.704	1865.66
1001	1848.71
1001.295	1845.54
1001.59	1844.87
1001.885	1847.13
1002.18	1796.96
1002.475	1807.35
1002.77	1769.61
1003.065	1767.13
1003.359	1777.75
1003.654	1775.94
1003.949	1737.3
1004.243	1758.77
1004.538	1747.92
1004.832	1729.62
1005.127	1717.41
1005.421	1739.78
1005.715	1707.7
1006.009	1671.99
1006.304	1686.68
1006.598	1663.63
1006.892	1646.91
1007.186	1637.64
1007.48	1631.31
1007.773	1625.21
1008.067	1608.94
1008.361	1584.76
1008.655	1615.49
1008.948	1587.7
1009.242	1576.63
1009.535	1575.95
1009.829	1581.6
1010.122	1547.47
1010.415	1552.9
1010.708	1545.21
1011.001	1549.28
1011.295	1517.64
1011.588	1535.5
1011.881	1503.63
1012.173	1526.91
1012.466	1490.3
1012.759	1455.5
1013.052	1504.31
1013.344	1490.3
1013.637	1464.54
1013.93	1469.06
1014.222	1415.05
1014.514	1444.2
1014.807	1441.26
1015.099	1415.73
1015.391	1408.72
1015.683	1421.38
1015.976	1396.74
1016.268	1383.64
1016.56	1375.5
1016.851	1389.29
1017.143	1359.23
1017.435	1366.24
1017.727	1372.11
1018.018	1347.48
1018.31	1333.24
1018.602	1335.28
1018.893	1317.42
1019.185	1312.68
1019.476	1308.84
1019.767	1293.02
1020.058	1271.77
1020.35	1279.91
1020.641	1265.67
1020.932	1243.3
1021.223	1230.42
1021.514	1222.28
1021.804	1217.31
1022.095	1250.08
1022.386	1212.57
1022.677	1215.5
1022.967	1206.92
1023.258	1188.84
1023.548	1181.83
1023.839	1151.33
1024.129	1168.73
1024.419	1182.29
1024.709	1154.26
1025	1134.15
1025.29	1131.44
1025.58	1121.04
1025.87	1116.52
1026.16	1133.02
1026.449	1109.29
1026.739	1125.79
1027.029	1098.45
1027.319	1084.21
1027.608	1068.16
1027.898	1091.44
1028.187	1081.27
1028.477	1065.45
1028.766	1082.17
1029.055	1062.06
1029.344	1037.43
1029.634	1027.04
1029.923	1042.85
1030.212	1019.13
1030.501	1013.93
1030.79	987.04
1031.078	1009.41
1031.367	1012.12
1031.656	998.56
1031.945	985.91
1032.233	984.78
1032.522	997.66
1032.81	986.58
1033.099	960.14
1033.387	940.26
1033.675	940.26
1033.963	928.05
1034.251	923.08
1034.54	943.87
1034.828	926.92
1035.116	924.44
1035.403	927.6
1035.691	930.09
1035.979	889.41
1036.267	910.43
1036.554	885.57
1036.842	872.24
1037.129	880.15
1037.417	895.06
1037.704	882.18
1037.992	853.03
1038.279	876.76
1038.566	869.3
1038.853	869.3
1039.14	869.3
