Data from whiteboard_FLMS001491_00079.txt Node
Date: Wed Feb 08 11:28:04 GMT 2017
User: dcchb
Spectrometer: FLMS00149
Trigger mode: 0
Integration Time (sec): 2.000000E-2
Scans to average: 10
Electric dark correction enabled: true
Nonlinearity correction enabled: false
Boxcar width: 0
XAxis mode: Wavelengths
Number of Pixels in Spectrum: 2048
>>>>>Begin Spectral Data<<<<<
341.393	0.1
341.776	0.1
342.16	0.1
342.543	-57.98
342.927	-55.49
343.31	-79.22
343.693	-83.97
344.077	-55.27
344.46	-59.33
344.843	-54.59
345.226	-60.69
345.61	-31.76
345.993	-28.37
346.376	13.21
346.759	15.47
347.142	48.46
347.525	39.19
347.908	41.68
348.291	74.45
348.674	100.21
349.057	120.55
349.44	130.26
349.823	146.54
350.206	174.33
350.588	237.38
350.971	246.65
351.354	238.51
351.737	262.24
352.119	295.46
352.502	268.79
352.884	300.66
353.267	321.45
353.65	329.13
354.032	336.36
354.414	360.32
354.797	356.93
355.179	342.46
355.562	313.76
355.944	354.67
356.326	368
356.709	363.71
357.091	342.24
357.473	352.41
357.855	384.04
358.238	388.11
358.62	371.16
359.002	386.08
359.384	376.81
359.766	358.06
360.148	368.45
360.53	355.8
360.912	373.87
361.294	373.87
361.676	375.46
362.057	356.02
362.439	363.93
362.821	360.77
363.203	362.8
363.584	362.8
363.966	366.19
364.348	366.64
364.729	360.54
365.111	383.14
365.493	350.6
365.874	364.16
366.256	368.45
366.637	346.53
367.019	376.81
367.4	353.31
367.781	369.81
368.163	355.8
368.544	356.7
368.925	368.22
369.306	364.84
369.688	338.62
370.069	326.64
370.45	374.1
370.831	363.93
371.212	367.32
371.593	365.29
371.974	366.87
372.355	368.45
372.736	370.94
373.117	383.82
373.498	381.78
373.879	371.39
374.26	356.7
374.641	365.51
375.021	363.03
375.402	378.39
375.783	377.72
376.163	388.11
376.544	409.35
376.925	397.6
377.305	380.43
377.686	400.09
378.066	378.85
378.447	402.35
378.827	386.76
379.208	400.99
379.588	426.75
379.968	390.37
380.349	412.97
380.729	413.42
381.109	418.39
381.489	422.46
381.87	398.05
382.25	429.92
382.63	429.01
383.01	426.3
383.39	432.86
383.77	426.75
384.15	425.85
384.53	406.19
384.91	418.84
385.29	432.63
385.67	438.51
386.049	455.91
386.429	455
386.809	439.18
387.189	427.88
387.568	459.75
387.948	458.39
388.328	478.28
388.707	483.93
389.087	464.95
389.466	495.91
389.846	487.77
390.225	508.11
390.605	501.55
390.984	499.75
391.363	497.49
391.743	502.91
392.122	542.01
392.501	522.57
392.881	553.3
393.26	539.97
393.639	531.16
394.018	546.3
394.397	538.39
394.776	573.42
395.155	574.77
395.534	578.61
395.913	606.41
396.292	594.66
396.671	610.48
397.05	640.31
397.429	625.39
397.808	619.29
398.186	642.12
398.565	650.25
398.944	662.91
399.323	662.91
399.701	669.23
400.08	678.95
400.458	698.61
400.837	732.06
401.215	713.98
401.594	736.12
401.972	740.87
402.351	744.26
402.729	734.32
403.107	774.54
403.486	776.58
403.864	807.31
404.242	857.03
404.62	841.21
404.999	846.4
405.377	869.68
405.755	873.3
406.133	886.63
406.511	897.25
406.889	947.87
407.267	928.66
407.645	983.12
408.023	984.48
408.401	1029
408.779	1005.27
409.156	1061.31
409.534	1066.51
409.912	1080.75
410.29	1104.93
410.667	1121.43
411.045	1152.16
411.422	1174.08
411.8	1202.55
412.178	1211.14
412.555	1242.78
412.933	1285.49
413.31	1273.51
413.687	1306.73
414.065	1341.53
414.442	1336.56
414.819	1378.59
415.197	1409.33
415.574	1437.8
415.951	1425.15
416.328	1470.79
416.705	1492.94
417.082	1481.19
417.46	1481.64
417.837	1541.3
418.214	1532.26
418.591	1589.44
418.967	1586.27
419.344	1605.48
419.721	1630.34
420.098	1647.74
420.475	1674.41
420.852	1671.02
421.228	1739.94
421.605	1738.36
421.982	1759.37
422.358	1788.53
422.735	1806.38
423.111	1806.61
423.488	1852.71
423.864	1845.02
424.241	1908.3
424.617	1888.41
424.994	1908.3
425.37	1939.48
425.746	1960.27
426.123	2007.73
426.499	1994.62
426.875	2030.55
427.251	2066.71
427.627	2113.94
428.003	2132.25
428.379	2127.05
428.756	2212.7
429.132	2193.49
429.507	2235.52
429.883	2291.34
430.259	2335.18
430.635	2309.42
431.011	2349.19
431.387	2411.11
431.763	2463.76
432.138	2483.88
432.514	2486.81
432.89	2524.78
433.265	2598
433.641	2636.41
434.016	2664.44
434.392	2725
434.767	2758.44
435.143	2761.38
435.518	2770.87
435.894	2809.52
436.269	2815.39
436.644	2879.8
437.02	2904.2
437.395	2927.71
437.77	2952.79
438.145	3034.14
438.52	3009.96
438.895	3086.8
439.271	3082.05
439.646	3171.54
440.021	3155.5
440.395	3187.81
440.77	3168.6
441.145	3209.05
441.52	3299.22
441.895	3278.2
442.27	3346.45
442.645	3352.78
443.019	3403.4
443.394	3357.98
443.769	3434.36
444.143	3406.11
444.518	3501.7
444.892	3441.36
445.267	3504.87
445.641	3546.9
446.016	3566.78
446.39	3583.96
446.764	3612.66
447.139	3597.52
447.513	3658.76
447.887	3646.78
448.262	3670.51
448.636	3699.89
449.01	3804.52
449.384	3785.99
449.758	3850.62
450.132	3903.5
450.506	3914.12
450.88	3941.46
451.254	3937.17
451.628	3988.47
452.002	4066.21
452.376	4054.23
452.75	4149.59
453.123	4167.9
453.497	4246.54
453.871	4301.91
454.244	4342.36
454.618	4385.52
454.992	4465.74
455.365	4466.87
455.739	4597.72
456.112	4662.35
456.486	4673.65
456.859	4733.99
457.232	4822.57
457.606	4807.88
457.979	4875.68
458.352	4986.18
458.725	5019.85
459.099	5088.33
459.472	5143.69
459.845	5238.15
460.218	5267.76
460.591	5300.75
460.964	5303.69
461.337	5468.88
461.71	5586.62
462.083	5626.17
462.456	5636.11
462.829	5690.12
463.201	5765.6
463.574	5832.94
463.947	5851.92
464.32	6032.93
464.692	6074.74
465.065	6080.62
465.438	6190.44
465.81	6284.68
466.183	6353.15
466.555	6503.43
466.928	6531.9
467.3	6567.84
467.672	6675.86
468.045	6836.53
468.417	6817.55
468.789	6943.87
469.161	6978.9
469.534	7105
469.906	7309.06
470.278	7297.31
470.65	7390.19
471.022	7611.65
471.394	7739.33
471.766	7827.46
472.138	7809.16
472.51	7954.01
472.882	8130.05
473.253	8249.83
473.625	8356.72
473.997	8527.56
474.369	8612.75
474.74	8694.79
475.112	8829.7
475.484	8964.83
475.855	9146.3
476.227	9282.11
476.598	9504.26
476.97	9530.7
477.341	9780.18
477.713	9918.93
478.084	10037.8
478.455	10233.73
478.827	10387.62
479.198	10696.09
479.569	10637.56
479.94	10900.38
480.311	11070.54
480.682	11341.27
481.053	11603.64
481.424	11732.67
481.795	11885.44
482.166	12132.89
482.537	12175.6
482.908	12541.69
483.279	12538.75
483.65	12868.46
484.021	13075.91
484.391	13314.1
484.762	13377.6
485.133	13577.82
485.503	13696.91
485.874	13972.39
486.244	14137.13
486.615	14354.75
486.985	14563.33
487.356	14832.03
487.726	14898.46
488.097	15274.95
488.467	15248.74
488.837	15596.52
489.207	15864.54
489.578	15990.64
489.948	16133.46
490.318	16365.77
490.688	16391.53
491.058	16799.66
491.428	16916.72
491.798	17017.96
492.168	17399.87
492.538	17465.18
492.908	17701.55
493.278	17959.63
493.648	18007.76
494.017	18319.17
494.387	18407.07
494.757	18512.38
495.126	18628.54
495.496	18799.38
495.866	18982.2
496.235	19133.38
496.605	19265.58
496.974	19473.26
497.344	19630.09
497.713	19711.9
498.082	19843.19
498.452	20006.35
498.821	20225.56
499.19	20208.38
499.559	20526.56
499.928	20589.39
500.298	20715.49
500.667	20870.74
501.036	20919.1
501.405	21198.86
501.774	21090.39
502.143	21404.96
502.512	21602.69
502.88	21663.48
503.249	21799.07
503.618	21956.13
503.987	22047.2
504.356	22167.65
504.724	22340.08
505.093	22491.03
505.462	22559.51
505.83	22707.52
506.199	22920.4
506.567	23211.01
506.936	23232.26
507.304	23457.56
507.672	23688.06
508.041	23598.57
508.409	23826.37
508.777	24096.87
509.145	24181.38
509.514	24188.62
509.882	24405.78
510.25	24580.7
510.618	24710.64
510.986	24856.39
511.354	25075.6
511.722	25307
512.09	25446.21
512.458	25507.9
512.826	25873.09
513.193	25904.05
513.561	25921.68
513.929	26233.53
514.297	26476.24
514.664	26529.8
515.032	26737.93
515.4	26952.38
515.767	27044.13
516.135	27238.93
516.502	27151.93
516.869	27692.7
517.237	27672.82
517.604	27630.33
517.972	28029.87
518.339	28272.12
518.706	28321.61
519.073	28528.61
519.44	28639.35
519.808	29058.54
520.175	29018.09
520.542	29404.75
520.909	29511.87
521.276	29620.56
521.643	30025.3
522.009	30292.41
522.376	30424.61
522.743	30572.63
523.11	30858.95
523.477	31101.88
523.843	31299.16
524.21	31594.52
524.577	31912.71
524.943	31889.88
525.31	32138.46
525.676	32449.64
526.043	32660.48
526.409	32835.85
526.776	33196.74
527.142	33246.91
527.508	33378.88
527.874	33760.79
528.241	33797.63
528.607	34061.8
528.973	34286.2
529.339	34401.91
529.705	34678.06
530.071	34973.64
530.437	35027.88
530.803	35374.54
531.169	35500.41
531.535	35465.61
531.901	35765.26
532.267	35927.06
532.632	36103.1
532.998	36403.66
533.364	36459.48
533.73	36546.48
534.095	36785.12
534.461	37103.76
534.826	37241.61
535.192	37277.99
535.557	37605.66
535.923	37530.86
536.288	37765.21
536.653	37962.49
537.019	37823.51
537.384	38093.11
537.749	38251.97
538.114	38244.07
538.479	38410.84
538.845	38628.69
539.21	38543.49
539.575	38809.25
539.94	38781.68
540.305	39220.76
540.67	39159.07
541.034	39417.14
541.399	39607.65
541.764	39661.88
542.129	39687.19
542.494	39812.16
542.858	39932.61
543.223	39972.16
543.587	40265.93
543.952	40173.51
544.316	40382.31
544.681	40488.75
545.045	40741.85
545.41	40966.93
545.774	41015.29
546.138	41157.21
546.503	41215.29
546.867	41152.69
547.231	41692.34
547.595	41781.37
547.959	41676.07
548.324	41862.27
548.688	41979.56
549.052	42173.91
549.416	42212.77
549.779	42292.55
550.143	42457.97
550.507	42828.58
550.871	42931.4
551.235	42880.1
551.599	43312.41
551.962	43273.09
552.326	43426.53
552.689	43691.15
553.053	43483.48
553.417	43602.34
553.78	44212.72
554.143	44034.65
554.507	44285.71
554.87	44517.8
555.234	44789.88
555.597	44536.1
555.96	44835.53
556.323	44948.52
556.686	45126.82
557.05	45289.53
557.413	45374.95
557.776	45554.38
558.139	45771.78
558.502	45868.95
558.865	45973.35
559.228	46326.11
559.59	46376.05
559.953	46484.75
560.316	46916.83
560.679	47075.47
561.041	47039.54
561.404	47297.84
561.767	47638.17
562.129	47508.68
562.492	47889.91
562.854	47910.7
563.217	47885.39
563.579	48049.46
563.941	48409.22
564.304	48586.84
564.666	48663.68
565.028	48794.52
565.39	48869.1
565.753	48994.52
566.115	49150.9
566.477	49295.07
566.839	49366.94
567.201	49577.33
567.563	49772.8
567.925	49993.13
568.287	50076.07
568.648	50044.21
569.01	50339.79
569.372	50439.45
569.734	50402.39
570.095	50593.57
570.457	50699.33
570.819	50934.8
571.18	50906.1
571.542	51050.06
571.903	51080.34
572.265	51266.55
572.626	51330.73
572.987	51429.93
573.349	51532.98
573.71	51674.22
574.071	51717.84
574.432	51745.4
574.794	52031.73
575.155	52000.77
575.516	51901.56
575.877	52027.43
576.238	52120.08
576.599	52255.67
576.96	52247.31
577.32	52323.69
577.681	52441.88
578.042	52516.46
578.403	52449.34
578.763	52565.5
579.124	52579.73
579.485	52728.66
579.845	52797.35
580.206	52754.19
580.566	52732.27
580.927	52860.4
581.287	53013.62
581.648	52773.85
582.008	53007.52
582.368	52885.04
582.728	53097.01
583.089	53027.86
583.449	52989.67
583.809	53004.13
584.169	53053.62
584.529	52942.66
584.889	53328.64
585.249	53009.55
585.609	53065.82
585.969	53300.17
586.329	53158.48
586.688	53114.41
587.048	53214.97
587.408	53162.09
587.768	53151.7
588.127	53150.34
588.487	53143.11
588.846	53367.96
589.206	53045.94
589.565	53094.75
589.925	53296.55
590.284	53246.38
590.643	53276.89
591.003	53311.24
591.362	53380.62
591.721	53331.8
592.08	53345.59
592.44	53433.72
592.799	53407.96
593.158	53334.52
593.517	53413.16
593.876	53360.05
594.235	53452.03
594.593	53433.5
594.952	53499.94
595.311	53332.93
595.67	53390.56
596.029	53545.81
596.387	53496.55
596.746	53503.1
597.104	53422.87
597.463	53334.29
597.822	53541.29
598.18	53386.04
598.538	53388.07
598.897	53540.61
599.255	53422.42
599.613	53786.93
599.972	53594.62
600.33	53785.58
600.688	53531.12
601.046	53734.05
601.404	53838.46
601.762	53782.64
602.12	53824.67
602.478	53835.97
602.836	53815.41
603.194	53663.09
603.552	53702.64
603.91	53666.26
604.268	53844.11
604.625	53749.65
604.983	53792.13
605.341	53687.73
605.698	53806.82
606.056	53861.51
606.413	53785.35
606.771	53958.23
607.128	53950.54
607.485	53858.8
607.843	53951
608.2	54043.65
608.557	54159.13
608.914	54024.67
609.272	54130.65
609.629	54237.09
609.986	54371.78
610.343	54119.13
610.7	54407.03
611.057	54271.89
611.414	54311.44
611.771	54287.03
612.127	54455.39
612.484	54371.55
612.841	54479.8
613.198	54337.65
613.554	54304.89
613.911	54484.77
614.267	54516.63
614.624	54508.95
614.98	54513.92
615.337	54647.02
615.693	54644.54
616.05	54510.3
616.406	54783.07
616.762	54621.94
617.118	54594.14
617.475	54651.54
617.831	54781.03
618.187	54686.8
618.543	54710.98
618.899	54868.71
619.255	54823.74
619.611	54749.62
619.967	54849.73
620.323	54903.06
620.678	54762.73
621.034	54723.41
621.39	54778.09
621.746	54738.55
622.101	54968.6
622.457	54733.35
622.812	54728.38
623.168	54796.17
623.523	54860.58
623.879	54863.74
624.234	54706.01
624.589	54754.37
624.945	54847.24
625.3	54780.58
625.655	54825.32
626.01	54762.95
626.365	54847.24
626.72	54834.82
627.075	54688.83
627.43	54796.17
627.785	54694.25
628.14	54752.33
628.495	54623.3
628.85	54757.76
629.205	54691.32
629.559	54708.49
629.914	54568.38
630.269	54547.82
630.623	54497.87
630.978	54362.74
631.332	54581.04
631.687	54597.31
632.041	54412
632.396	54436.63
632.75	54390.76
633.104	54423.53
633.459	54225.11
633.813	54134.49
634.167	54237.99
634.521	54199.8
634.875	54147.38
635.229	54114.83
635.583	54043.88
635.937	53972.69
636.291	53965.46
636.645	53979.02
636.999	53883.43
637.352	53917.55
637.706	53775.41
638.06	53946.03
638.413	53724.79
638.767	53737.44
639.121	53805.92
639.474	53664.68
639.828	53637.11
640.181	53705.13
640.534	53654.28
640.888	53592.59
641.241	53440.5
641.594	53450.9
641.947	53504.45
642.301	53372.71
642.654	53450.67
643.007	53391.92
643.36	53430.56
643.713	53306.95
644.066	53457
644.419	53258.59
644.771	53021.76
645.124	52681.65
645.477	52612.27
645.83	52415.67
646.182	52329.8
646.535	52323.24
646.888	52414.99
647.24	52205.28
647.593	52300.64
647.945	52274.88
648.298	52214.32
648.65	52047.32
649.002	51893.65
649.355	52114.89
649.707	51904.27
650.059	52081.44
650.411	52433.3
650.763	52462
651.115	52798.26
651.467	52642.33
651.819	52689.33
652.171	52481.2
652.523	52565.04
652.875	52449.12
653.227	52450.25
653.578	52641.88
653.93	52445.95
654.282	52381.77
654.633	52340.19
654.985	52366.86
655.337	52304.71
655.688	52238.73
656.039	52378.38
656.391	52003.03
656.742	52180.2
657.094	52162.34
657.445	52123.25
657.796	52002.12
658.147	51973.2
658.498	51872.63
658.849	52094.55
659.2	51948.79
659.551	51833.31
659.902	51992.63
660.253	51796.7
660.604	51903.14
660.955	51737.27
661.306	51820.66
661.656	51758.74
662.007	51756.7
662.358	51727.33
662.708	51645.75
663.059	51695.24
663.409	51511.29
663.76	51779.3
664.11	51737.72
664.461	51571.4
664.811	51639.87
665.161	51610.04
665.511	51432.42
665.862	51614.33
666.212	51612.98
666.562	51566.43
666.912	51433.77
667.262	51467.22
667.612	51494.56
667.962	51495.02
668.312	51336.38
668.662	51563.49
669.011	51331.18
669.361	51395.58
669.711	51464.06
670.06	51320.56
670.41	51144.06
670.76	51121.47
671.109	51340.67
671.459	51191.75
671.808	51076.72
672.157	51141.81
672.507	50923.73
672.856	50986.55
673.205	51060.68
673.554	51025.88
673.904	50971.64
674.253	51140.22
674.602	50942.71
674.951	50501.6
675.3	50202.62
675.649	50742.49
675.998	50864.07
676.346	50794.92
676.695	50805.32
677.044	50588.6
677.393	50761.25
677.741	50739.78
678.09	50600.58
678.438	50471.09
678.787	50636.28
679.135	50497.08
679.484	50317.87
679.832	50453.46
680.181	50146.12
680.529	50283.75
680.877	50056.86
681.225	50110.87
681.573	50300.7
681.922	49999.69
682.27	49794.95
682.618	49914.27
682.966	49937.99
683.314	49822.97
683.661	49776.42
684.009	49607.16
684.357	49553.6
684.705	49406.03
685.053	49406.03
685.4	49418.01
685.748	49203.1
686.095	49236.32
686.443	49113.84
686.79	49022.09
687.138	49137.34
687.485	49127.17
687.832	48814.86
688.18	48945.93
688.527	48640.4
688.874	48645.6
689.221	48456.9
689.568	48439.73
689.915	48297.13
690.262	48241.54
690.609	48171.26
690.956	48194.09
691.303	48044.49
691.65	47751.61
691.997	47827.54
692.344	47498.28
692.69	47510.71
693.037	47488.12
693.383	47044.74
693.73	47243.38
694.077	47068.69
694.423	46984.85
694.769	46801.58
695.116	46708.7
695.462	46731.75
695.808	46633.67
696.155	46651.08
696.501	46381.93
696.847	46312.55
697.193	45978.1
697.539	46234.36
697.885	45906.91
698.231	45795.05
698.577	45764.77
698.923	45591.67
699.269	45348.29
699.614	45247.72
699.96	45115.97
700.306	45046.15
700.651	44977
700.997	44719.15
701.342	44720.96
701.688	44761.86
702.033	44535.2
702.379	44353.06
702.724	44385.15
703.069	44366.39
703.415	43955.78
703.76	43921.88
704.105	43943.35
704.45	43872.62
704.795	43677.14
705.14	43449.13
705.485	43444.15
705.83	43397.83
706.175	43320.09
706.52	43129.13
706.865	43137.27
707.209	42786.77
707.554	42830.39
707.899	43017.5
708.243	42693.21
708.588	42557.62
708.932	42386.55
709.277	42354.69
709.621	42397.63
709.966	42231.3
710.31	42232.43
710.654	41882.61
710.998	41991.76
711.342	41959.22
711.687	41728.72
712.031	41618.44
712.375	41474.04
712.719	41694.6
713.063	41519.46
713.407	41549.29
713.75	41255.74
714.094	41318.33
714.438	41155.4
714.782	41191.33
715.125	41001.51
715.469	40991.11
715.812	40771.91
716.156	40566.04
716.499	40705.47
716.843	40745.24
717.186	40392.26
717.53	40509.99
717.873	40499.6
718.216	40444.91
718.559	40269.32
718.902	40008.76
719.246	40050.8
719.589	39964.7
719.932	39832.95
720.275	39880.86
720.617	39630.7
720.96	39635.44
721.303	39599.51
721.646	39476.58
721.989	39348.44
722.331	39341.66
722.674	39209.01
723.016	39219.63
723.359	39175.57
723.701	39149.13
724.044	38861.45
724.386	38829.81
724.729	38839.08
725.071	38717.95
725.413	38708.91
725.755	38775.8
726.097	38435.92
726.439	38264.86
726.782	38217.85
727.124	38324.51
727.465	38023.05
727.807	38037.97
728.149	37986.44
728.491	37753.23
728.833	37969.04
729.175	37715.72
729.516	37596.4
729.858	37690.63
730.199	37645.21
730.541	37543.07
730.882	37384.65
731.224	37443.41
731.565	37187.6
731.906	37151.66
732.248	37213.13
732.589	37061.05
732.93	36927.72
733.271	36889.98
733.612	37006.13
733.953	36962.52
734.294	36774.05
734.635	36712.13
734.976	36740.83
735.317	36352.14
735.658	36526.14
735.999	36485.02
736.339	36436.43
736.68	36422.19
737.021	36305.58
737.361	36129.77
737.702	36366.15
738.042	36098.58
738.383	36148.75
738.723	36093.84
739.063	35857.91
739.404	35880.51
739.744	35791.93
740.084	35643.46
740.424	35726.39
740.764	35453.18
741.104	35716
741.444	35366.85
741.784	35351.71
742.124	35377.47
742.464	35328.21
742.804	35221.55
743.143	35079.18
743.483	35037.82
743.823	34909.24
744.162	35001.66
744.502	34998.95
744.841	34718.96
745.181	34986.3
745.52	34811.84
745.86	34853.87
746.199	34618.62
746.538	34633.99
746.877	34502.47
747.216	34553.31
747.556	34516.03
747.895	34448.46
748.234	34325.75
748.573	34376.82
748.911	34292.76
749.25	34225.87
749.589	34017.28
749.928	34033.78
750.267	34208.92
750.605	33987
750.944	33970.96
751.283	33734.81
751.621	33707.01
751.96	33572.55
752.298	33516.96
752.636	33528.71
752.975	33463.63
753.313	33285.78
753.651	33447.58
753.989	33189.51
754.327	33106.35
754.666	33053.92
755.004	32859.8
755.342	32992
755.679	32947.71
756.017	32608.51
756.355	32639.92
756.693	32586.36
757.031	32495.29
757.368	32505.01
757.706	32269.31
758.044	32163.77
758.381	32158.35
758.719	32072.48
759.056	32174.85
759.394	31983.66
759.731	31626.84
760.068	31693.5
760.405	31632.71
760.743	31372.16
761.08	31467.97
761.417	31321.54
761.754	31389.56
762.091	31259.84
762.428	31198.15
762.765	30856.24
763.102	30933.52
763.438	30824.15
763.775	30694.89
764.112	30758.39
764.449	30733.53
764.785	30550.03
765.122	30400.43
765.458	30159.08
765.795	30117.73
766.131	30022.59
766.467	29972.87
766.804	29796.6
767.14	29731.75
767.476	29619.21
767.812	29473.9
768.148	29555.25
768.485	29303.28
768.821	29217.18
769.157	29048.15
769.492	29087.02
769.828	28963.41
770.164	28729.74
770.5	28632.11
770.836	28683.86
771.171	28557.09
771.507	28358.9
771.842	28223.31
772.178	28285.23
772.513	28030.1
772.849	28050.43
773.184	27948.06
773.519	27843.89
773.855	27697
774.19	27591.46
774.525	27448.64
774.86	27544.91
775.195	27418.59
775.53	27308.99
775.865	27022.21
776.2	26905.15
776.535	26753.29
776.87	26759.4
777.205	26635.1
777.539	26530.7
777.874	26634.65
778.209	26307.43
778.543	26326.19
778.878	26118.51
779.212	26039.64
779.547	25830.15
779.881	26009.13
780.215	25885.75
780.55	25844.84
780.884	25481.46
781.218	25471.97
781.552	25497.28
781.886	25314.91
782.22	25151.3
782.554	25239.44
782.888	24860.01
783.222	24917.64
783.556	24815.27
783.889	24627.02
784.223	24448.04
784.557	24590.41
784.89	24488.72
785.224	24340.25
785.557	24183.87
785.891	24106.81
786.224	23974.61
786.558	23974.38
786.891	23732.58
787.224	23686.26
787.557	23649.42
787.891	23601.06
788.224	23526.03
788.557	23389.99
788.89	23280.84
789.223	23299.15
789.556	23131.92
789.888	22961.53
790.221	22955.65
790.554	22836.56
790.887	22785.71
791.219	22716.11
791.552	22627.75
791.884	22501.88
792.217	22374.2
792.549	22402.9
792.882	22188.22
793.214	22099.4
793.546	22128.33
793.879	21969.46
794.211	21930.82
794.543	21929.47
794.875	21892.4
795.207	21884.27
795.539	21670.72
795.871	21607.67
796.203	21554.11
796.535	21370.84
796.867	21275.02
797.198	21281.12
797.53	21317.96
797.862	21097.62
798.193	21277.73
798.525	21024.63
798.856	21120
799.188	20953.22
799.519	20782.15
799.85	20688.59
800.182	20758.88
800.513	20730.4
800.844	20535.83
801.175	20583.06
801.506	20609.27
801.837	20438.43
802.168	20388.49
802.499	20294.71
802.83	20160.7
803.161	20150.08
803.491	20115.95
803.822	20022.85
804.153	19907.37
804.483	19868.5
804.814	19769.97
805.145	19727.26
805.475	19720.48
805.805	19574.27
806.136	19682.97
806.466	19602.75
806.796	19481.39
807.126	19227.39
807.457	19382.64
807.787	19378.8
808.117	19166.6
808.447	19173.38
808.777	19155.75
809.107	19080.5
809.436	19100.84
809.766	19028.3
810.096	19007.28
810.426	18923.22
810.755	18951.69
811.085	18837.12
811.414	18741.3
811.744	18665.6
812.073	18585.6
812.403	18718.48
812.732	18470.35
813.061	18479.16
813.39	18383.34
813.719	18425.15
814.049	18452.72
814.378	18385.15
814.707	18299.73
815.036	18343.12
815.365	18196.46
815.693	18008.21
816.022	18063.13
816.351	18006.63
816.68	17918.5
817.008	17934.54
817.337	17790.82
817.665	17723.93
817.994	17907.65
818.322	17750.82
818.651	17634.66
818.979	17644.38
819.307	17643.25
819.636	17637.83
819.964	17477.61
820.292	17506.76
820.62	17436.7
820.948	17449.13
821.276	17472.86
821.604	17479.41
821.932	17460.66
822.259	17456.59
822.587	17368.46
822.915	17221.34
823.243	17376.14
823.57	17280.1
823.898	17204.39
824.225	17223.83
824.553	17357.16
824.88	17257.72
825.207	17285.29
825.535	17205.75
825.862	17323.26
826.189	17227.44
826.516	17315.8
826.843	17355.12
827.17	17350.6
827.497	17372.75
827.824	17271.96
828.151	17307.67
828.478	17186.54
828.805	17290.27
829.131	17221.11
829.458	17146.31
829.785	17103.6
830.111	17262.7
830.438	17248.01
830.764	17164.62
831.09	17117.61
831.417	17130.95
831.743	17193.55
832.069	17181.57
832.395	17155.81
832.722	17147.22
833.048	17059.09
833.374	17017.05
833.7	16962.59
834.026	17086.88
834.351	16986.09
834.677	16923.04
835.003	16996.71
835.329	16900.45
835.654	16853.89
835.98	16762.82
836.306	16838.3
836.631	16711.52
836.956	16861.58
837.282	16780.67
837.607	16717.4
837.932	16576.39
838.258	16694.35
838.583	16613.45
838.908	16561.92
839.233	16457.75
839.558	16465.65
839.883	16361.93
840.208	16297.07
840.533	16309.73
840.858	16400.8
841.182	16423.85
841.507	16325.77
841.832	16185.66
842.156	16191.09
842.481	16277.41
842.805	16113.12
843.13	16102.5
843.454	16089.85
843.778	15969.4
844.103	15960.13
844.427	15947.48
844.751	15880.36
845.075	15822.06
845.399	15785.9
845.723	15756.97
846.047	15679.69
846.371	15570.99
846.695	15608.73
847.019	15505.91
847.343	15469.75
847.666	15286.02
847.99	15183.43
848.313	15145.69
848.637	15155.18
848.96	15182.07
849.284	15065.47
849.607	14935.75
849.931	14951.34
850.254	14860.73
850.577	14743.67
850.9	14622.09
851.223	14621.64
851.546	14566.95
851.869	14460.28
852.192	14513.39
852.515	14359.27
852.838	14335.09
853.161	14366.73
853.483	14305.03
853.806	14233.4
854.129	14198.37
854.451	14039.5
854.774	14044.48
855.096	14026.62
855.419	13959.05
855.741	13969.22
856.063	13879.51
856.385	13877.47
856.708	13793.41
857.03	13703.47
857.352	13756.12
857.674	13611.49
857.996	13713.86
858.318	13678.84
858.64	13567.2
858.961	13529.69
859.283	13428.22
859.605	13402.91
859.926	13348.9
860.248	13314.78
860.57	13274.78
860.891	13400.88
861.212	13269.58
861.534	13219.86
861.855	13216.93
862.176	13165.85
862.498	13212.86
862.819	13086.08
863.14	13103.71
863.461	13091.96
863.782	12977.38
864.103	12996.14
864.424	12970.38
864.745	13016.48
865.065	12919.53
865.386	12852.64
865.707	12872.98
866.027	12903.04
866.348	12799.99
866.668	12771.51
866.989	12819.65
867.309	12755.47
867.63	12824.85
867.95	12647.45
868.27	12685.87
868.59	12663.04
868.91	12666.88
869.23	12562.71
869.55	12583.5
869.87	12594.34
870.19	12614.23
870.51	12561.35
870.83	12475.48
871.15	12405.2
871.469	12449.49
871.789	12461.01
872.109	12441.58
872.428	12363.39
872.748	12398.19
873.067	12356.16
873.386	12407.23
873.706	12312.77
874.025	12242.71
874.344	12298.76
874.663	12229.83
874.982	12247.91
875.301	12212.66
875.62	12156.16
875.939	12123.62
876.258	12077.3
876.577	12062.15
876.896	12126.56
877.214	11991.65
877.533	12046.34
877.852	11975.38
878.17	12021.25
878.489	12005.88
878.807	12049.5
879.125	11934.47
879.444	11990.07
879.762	11957.3
880.08	11958.2
880.398	11822.16
880.716	11828.04
881.034	11847.47
881.352	11822.61
881.67	11689.96
881.988	11688.15
882.306	11689.06
882.624	11655.39
882.941	11616.97
883.259	11462.62
883.577	11558.67
883.894	11530.87
884.212	11507.37
884.529	11524.32
884.846	11472.57
885.164	11450.42
885.481	11403.87
885.798	11411.32
886.115	11330.42
886.432	11309.63
886.75	11306.92
887.067	11297.2
887.383	11241.16
887.7	11233.25
888.017	11094.95
888.334	11095.85
888.651	11139.02
888.967	11071.22
889.284	11045.46
889.6	11005.23
889.917	10961.84
890.233	11038.45
890.55	10882.98
890.866	10851.11
891.182	10839.59
891.498	10777.67
891.815	10814.28
892.131	10796.2
892.447	10750.78
892.763	10627.84
893.079	10654.96
893.395	10578.58
893.71	10619.93
894.026	10559.14
894.342	10523.89
894.657	10430.56
894.973	10490.9
895.289	10446.6
895.604	10379.71
895.92	10264.91
896.235	10207.51
896.55	10247.06
896.865	10167.97
897.181	10167.74
897.496	10169.1
897.811	10102.88
898.126	10067.18
898.441	10053.17
898.756	9960.74
899.071	9950.12
899.386	9931.82
899.7	9859.05
900.015	9837.35
900.33	9765.27
900.644	9774.98
900.959	9730.46
901.273	9674.42
901.588	9694.76
901.902	9608.89
902.216	9553.75
902.531	9586.97
902.845	9519.4
903.159	9463.8
903.473	9490.7
903.787	9406.63
904.101	9324.15
904.415	9312.17
904.729	9302.91
905.042	9236.24
905.356	9167.99
905.67	9238.05
905.984	9161.89
906.297	9122.34
906.611	9039.41
906.924	9109.69
907.237	9072.18
907.551	8987.89
907.864	8923.48
908.177	8957.15
908.491	8895.01
908.804	8840.54
909.117	8811.17
909.43	8767.55
909.743	8777.27
910.056	8656.59
910.368	8718.51
910.681	8614.34
910.994	8606.43
911.307	8565.75
911.619	8499.08
911.932	8487.33
912.244	8421.57
912.557	8413.66
912.869	8314.68
913.181	8289.6
913.494	8311.97
913.806	8261.8
914.118	8209.15
914.43	8082.6
914.742	8170.28
915.054	8121.24
915.366	8134.35
915.678	8072.43
915.99	7972.32
916.302	7959.21
916.613	7970.96
916.925	7911.3
917.236	7920.57
917.548	7843.28
917.859	7824.07
918.171	7810.97
918.482	7760.8
918.794	7678.77
919.105	7710.18
919.416	7659.56
919.727	7655.04
920.038	7559.67
920.349	7488.72
920.66	7507.25
920.971	7587.24
921.282	7512.44
921.593	7365.1
921.903	7433.8
922.214	7399
922.525	7381.37
922.835	7292.34
923.146	7282.85
923.456	7196.97
923.767	7189.97
924.077	7142.74
924.387	7156.75
924.697	7117.65
925.008	7085.34
925.318	7046.92
925.628	6995.4
925.938	6995.62
926.248	6947.26
926.558	6875.62
926.867	6873.59
927.177	6922.4
927.487	6796.76
927.796	6785.46
928.106	6778.9
928.416	6721.96
928.725	6785.23
929.034	6695.97
929.344	6700.49
929.653	6593.37
929.962	6575.29
930.271	6616.87
930.581	6542.07
930.89	6533.71
931.199	6490.32
931.508	6452.81
931.817	6477.67
932.125	6412.13
932.434	6412.81
932.743	6326.03
933.051	6315.19
933.36	6253.95
933.669	6191.57
933.977	6228.18
934.286	6209.88
934.594	6203.33
934.902	6100.96
935.21	6131.69
935.519	6069.32
935.827	6087.85
936.135	5994.29
936.443	5945.93
936.751	5962.43
937.059	5902.77
937.367	5891.7
937.674	5867.06
937.982	5851.7
938.29	5815.77
938.597	5826.39
938.905	5795.2
939.213	5689.21
939.52	5701.87
939.827	5725.37
940.135	5624.58
940.442	5644.02
940.749	5607.41
941.056	5621.42
941.363	5536.68
941.67	5555.43
941.977	5537.13
942.284	5443.35
942.591	5427.75
942.898	5427.3
943.205	5438.6
943.511	5390.01
943.818	5357.92
944.125	5271.82
944.431	5321.99
944.738	5239.74
945.044	5218.04
945.35	5208.1
945.657	5153.41
945.963	5207.65
946.269	5116.12
946.575	5136.91
946.881	5094.65
947.187	5108.21
947.493	5064.37
947.799	5031.83
948.105	4989.57
948.41	4993.87
948.716	4999.52
949.022	4944.38
949.327	4963.81
949.633	4885.39
949.938	4900.99
950.244	4904.15
950.549	4848.56
950.854	4819.41
951.16	4806.53
951.465	4810.59
951.77	4773.76
952.075	4786.87
952.38	4728.56
952.685	4736.7
952.99	4666.87
953.294	4671.39
953.599	4640.43
953.904	4600.88
954.209	4571.05
954.513	4598.4
954.818	4559.75
955.122	4562.69
955.426	4492.86
955.731	4479.08
956.035	4484.73
956.339	4472.52
956.643	4446.99
956.948	4453.32
957.252	4381.68
957.556	4379.87
957.86	4363.83
958.163	4311.4
958.467	4319.08
958.771	4331.51
959.075	4244.73
959.378	4242.7
959.682	4282.7
959.985	4246.54
960.289	4196.6
960.592	4216.49
960.896	4145.53
961.199	4174.9
961.502	4135.58
961.805	4114.11
962.108	4075.25
962.411	4097.39
962.714	4047.22
963.017	3995.02
963.32	4056.04
963.623	4041.35
963.926	4018.98
964.228	3933.33
964.531	3960.67
964.833	3951.86
965.136	3925.65
965.438	3880
965.741	3850.17
966.043	3875.7
966.345	3821.02
966.648	3848.13
966.95	3809.26
967.252	3771.98
967.554	3782.37
967.856	3765.42
968.158	3719.78
968.46	3719.1
968.761	3720.9
969.063	3670.74
969.365	3644.75
969.666	3651.3
969.968	3646.78
970.269	3594.13
970.571	3581.02
970.872	3593.9
971.174	3591.19
971.475	3561.81
971.776	3529.05
972.077	3527.92
972.378	3516.84
972.679	3496.28
972.98	3505.77
973.281	3484.08
973.582	3460.8
973.883	3450.63
974.183	3395.94
974.484	3398.88
974.785	3385.09
975.085	3403.4
975.386	3382.83
975.686	3360.24
975.986	3356.17
976.287	3348.71
976.587	3322.95
976.887	3331.54
977.187	3303.29
977.487	3296.28
977.787	3231.88
978.087	3233.69
978.387	3273.91
978.687	3204.08
978.987	3190.75
979.286	3194.82
979.586	3196.85
979.885	3152.33
980.185	3136.97
980.484	3159.79
980.784	3134.03
981.083	3127.7
981.382	3081.6
981.682	3089.96
981.981	3044.31
982.28	3010.64
982.579	3012.22
982.878	3024.88
983.177	3015.39
983.475	3001.38
983.774	2988.72
984.073	2971.32
984.372	2950.3
984.67	2950.98
984.969	2888.84
985.267	2936.29
985.566	2870.53
985.864	2905.79
986.162	2874.15
986.461	2878.22
986.759	2864.2
987.057	2799.57
987.355	2820.14
987.653	2800.25
987.951	2794.15
988.249	2778.56
988.547	2747.82
988.844	2735.39
989.142	2739.01
989.44	2753.02
989.737	2721.16
990.035	2694.72
990.332	2690.2
990.63	2649.29
990.927	2669.41
991.224	2642.06
991.521	2647.49
991.819	2584.89
992.116	2607.04
992.413	2603.19
992.71	2605
993.006	2574.95
993.303	2546.02
993.6	2536.08
993.897	2539.02
994.193	2547.6
994.49	2496.3
994.787	2507.6
995.083	2453.37
995.379	2437.55
995.676	2427.83
995.972	2426.48
996.268	2422.41
996.565	2434.84
996.861	2397.32
997.157	2381.05
997.453	2425.8
997.749	2357.33
998.044	2340.38
998.34	2385.12
998.636	2354.16
998.932	2295.18
999.227	2285.01
999.523	2273.49
999.818	2252.47
1000.114	2256.54
1000.409	2227.16
1000.704	2257.89
1001	2240.04
1001.295	2241.62
1001.59	2229.42
1001.885	2195.3
1002.18	2204.11
1002.475	2177.89
1002.77	2168.86
1003.065	2110.55
1003.359	2148.06
1003.654	2110.55
1003.949	2113.94
1004.243	2102.87
1004.538	2080.95
1004.832	2073.72
1005.127	2070.1
1005.421	2036.66
1005.715	2016.54
1006.009	2022.42
1006.304	2006.6
1006.598	1991.46
1006.892	2012.48
1007.186	1945.36
1007.48	1951.01
1007.773	1962.08
1008.067	1953.49
1008.361	1914.62
1008.655	1923.21
1008.948	1876.21
1009.242	1895.42
1009.535	1888.41
1009.829	1888.41
1010.122	1839.15
1010.415	1823.55
1010.708	1835.08
1011.001	1836.66
1011.295	1811.12
1011.588	1806.83
1011.881	1775.87
1012.173	1781.52
1012.466	1792.37
1012.759	1761.18
1013.052	1734.06
1013.344	1746.95
1013.637	1749.88
1013.93	1723.22
1014.222	1683.44
1014.514	1692.71
1014.807	1673.5
1015.099	1668.3
1015.391	1683.67
1015.683	1642.77
1015.976	1649.77
1016.268	1642.54
1016.56	1579.94
1016.851	1618.81
1017.143	1595.09
1017.435	1619.27
1017.727	1564.58
1018.018	1569.1
1018.31	1560.51
1018.602	1542.43
1018.893	1558.48
1019.185	1534.75
1019.476	1530.91
1019.767	1523.45
1020.058	1525.48
1020.35	1515.99
1020.641	1498.59
1020.932	1479.61
1021.223	1463.11
1021.514	1451.59
1021.804	1409.78
1022.095	1420.63
1022.386	1419.72
1022.677	1420.63
1022.967	1422.89
1023.258	1396.9
1023.548	1384.47
1023.839	1367.29
1024.129	1391.25
1024.419	1312.83
1024.709	1359.61
1025	1328.88
1025.29	1355.32
1025.58	1308.54
1025.87	1306.51
1026.16	1278.03
1026.449	1296.56
1026.739	1283.23
1027.029	1285.94
1027.319	1282.55
1027.608	1283.68
1027.898	1260.63
1028.187	1247.75
1028.477	1233.51
1028.766	1205.72
1029.055	1214.53
1029.344	1191.93
1029.634	1210.24
1029.923	1193.74
1030.212	1196
1030.501	1175.89
1030.79	1165.49
1031.078	1163.91
1031.367	1156.68
1031.656	1144.02
1031.945	1128.66
1032.233	1136.11
1032.522	1144.93
1032.81	1134.31
1033.099	1118.04
1033.387	1119.39
1033.675	1096.12
1033.963	1092.05
1034.251	1079.39
1034.54	1094.76
1034.828	1080.75
1035.116	1043.91
1035.403	1070.58
1035.691	1043.24
1035.979	1054.99
1036.267	1018.38
1036.554	1014.31
1036.842	1013.86
1037.129	1019.51
1037.417	1003.91
1037.704	1012.28
1037.992	985.61
1038.279	1006.17
1038.566	973.86
1038.853	973.86
1039.14	973.86
