Data from white_steel_sheet_FLMS001491_091.txt Node
Date: Tue Feb 07 10:58:49 GMT 2017
User: dcchb
Spectrometer: FLMS00149
Trigger mode: 0
Integration Time (sec): 2.000000E-2
Scans to average: 10
Electric dark correction enabled: true
Nonlinearity correction enabled: false
Boxcar width: 0
XAxis mode: Wavelengths
Number of Pixels in Spectrum: 2048
>>>>>Begin Spectral Data<<<<<
341.393	-10.61
341.776	-10.61
342.16	-10.61
342.543	-61.23
342.927	-59.19
343.31	-52.87
343.693	-57.61
344.077	-54.45
344.46	-62.81
344.843	-71.4
345.226	-46.31
345.61	-21
345.993	-12.41
346.376	-6.31
346.759	-11.29
347.142	11.54
347.525	55.61
347.908	71.88
348.291	79.33
348.674	57.41
349.057	120.69
349.44	138.99
349.823	126.56
350.206	177.18
350.588	194.59
350.971	235.94
351.354	233.68
351.737	241.82
352.119	254.02
352.502	254.7
352.884	285.66
353.267	266.9
353.65	303.28
354.032	296.28
354.414	299.44
354.797	327.46
355.179	320.23
355.562	336.73
355.944	315.94
356.326	366.11
356.709	321.81
357.091	343.06
357.473	343.51
357.855	361.13
358.238	345.32
358.62	357.52
359.002	349.38
359.384	362.94
359.766	349.38
360.148	353.68
360.53	356.16
360.912	358.2
361.294	356.61
361.676	344.64
362.057	339.67
362.439	324.75
362.821	338.08
363.203	332.89
363.584	329.05
363.966	323.85
364.348	349.16
364.729	337.86
365.111	323.62
365.493	331.76
365.874	329.95
366.256	326.33
366.637	335.37
367.019	329.05
367.4	320.91
367.781	360.68
368.163	328.14
368.544	322.94
368.925	329.05
369.306	319.78
369.688	319.78
370.069	314.81
370.45	326.33
370.831	325.2
371.212	327.01
371.593	342.15
371.974	332.43
372.355	337.41
372.736	330.85
373.117	354.13
373.498	333.79
373.879	348.71
374.26	343.28
374.641	317.29
375.021	338.99
375.402	330.4
375.783	348.93
376.163	354.36
376.544	319.55
376.925	347.8
377.305	346.67
377.686	345.99
378.066	351.19
378.447	359.55
378.827	369.95
379.208	363.85
379.588	347.12
379.968	345.77
380.349	358.87
380.729	357.52
381.109	344.41
381.489	377.41
381.87	360.23
382.25	366.78
382.63	371.08
383.01	369.5
383.39	367.69
383.77	377.63
384.15	378.76
384.53	390.06
384.91	374.69
385.29	375.37
385.67	385.99
386.049	392.55
386.429	369.04
386.809	402.49
387.189	376.05
387.568	399.1
387.948	394.35
388.328	395.26
388.707	398.2
389.087	415.37
389.466	412.66
389.846	433.45
390.225	416.27
390.605	430.51
390.984	415.37
391.363	419.66
391.743	407.24
392.122	440.91
392.501	444.07
392.881	445.43
393.26	429.16
393.639	448.59
394.018	457.86
394.397	449.95
394.776	464.63
395.155	466.67
395.534	464.41
395.913	489.72
396.292	470.06
396.671	474.8
397.05	485.88
397.429	498.76
397.808	508.25
398.186	508.02
398.565	511.19
398.944	519.55
399.323	517.06
399.701	526.33
400.08	539.89
400.458	529.49
400.837	532.88
401.215	560.23
401.594	575.37
401.972	560
402.351	562.94
402.729	609.72
403.107	598.64
403.486	602.71
403.864	594.8
404.242	589.15
404.62	620.34
404.999	620.11
405.377	613.11
405.755	646.55
406.133	683.84
406.511	666.66
406.889	651.07
407.267	705.08
407.645	678.41
408.023	708.92
408.401	718.19
408.779	708.92
409.156	735.14
409.534	742.14
409.912	741.92
410.29	764.29
410.667	805.87
411.045	792.76
411.422	803.38
411.8	814
412.178	825.76
412.555	819.88
412.933	857.39
413.31	856.49
413.687	859.65
414.065	864.17
414.442	890.84
414.819	905.98
415.197	918.41
415.574	955.47
415.951	931.52
416.328	958.63
416.705	942.81
417.082	943.94
417.46	947.79
417.837	995.24
418.214	992.98
418.591	969.25
418.967	987.11
419.344	1014.9
419.721	1004.96
420.098	1038.18
420.475	1024.17
420.852	1032.53
421.228	1070.27
421.605	1083.83
421.982	1062.59
422.358	1110.49
422.735	1124.05
423.111	1124.73
423.488	1126.31
423.864	1165.63
424.241	1163.6
424.617	1165.18
424.994	1179.19
425.37	1159.98
425.746	1174.22
426.123	1228
426.499	1218.29
426.875	1236.82
427.251	1265.97
427.627	1266.2
428.003	1274.1
428.379	1320.66
428.756	1301.9
429.132	1380.77
429.507	1379.86
429.883	1381.22
430.259	1428.45
430.635	1423.25
431.011	1429.13
431.387	1428
431.763	1472.52
432.138	1463.03
432.514	1490.14
432.89	1504.16
433.265	1540.76
433.641	1554.32
434.016	1586.87
434.392	1587.77
434.767	1616.69
435.143	1632.29
435.518	1654.66
435.894	1665.06
436.269	1682.91
436.644	1721.55
437.02	1710.25
437.395	1709.35
437.77	1744.6
438.145	1775.56
438.52	1798.61
438.895	1823.24
439.271	1852.62
439.646	1847.2
440.021	1851.26
440.395	1867.08
440.77	1884.48
441.145	1924.03
441.52	1933.52
441.895	1926.74
442.27	1953.86
442.645	1989.11
443.019	1990.47
443.394	1987.53
443.769	2004.48
444.143	2001.77
444.518	2085.83
444.892	2032.96
445.267	2044.25
445.641	2093.74
446.016	2092.16
446.39	2110.47
446.764	2151.6
447.139	2136.46
447.513	2151.6
447.887	2171.03
448.262	2189.34
448.636	2211.93
449.01	2197.7
449.384	2277.02
449.758	2252.16
450.132	2293.06
450.506	2294.19
450.88	2325.38
451.254	2324.92
451.628	2351.36
452.002	2403.11
452.376	2427.52
452.75	2416.9
453.123	2437.46
453.497	2509.33
453.871	2521.76
454.244	2559.95
454.618	2586.84
454.992	2578.03
455.365	2595.65
455.739	2700.96
456.112	2687.85
456.486	2688.31
456.859	2741.41
457.232	2831.58
457.606	2826.61
457.979	2817.12
458.352	2915.64
458.725	2947.28
459.099	2938.24
459.472	2998.13
459.845	3022.08
460.218	3046.26
460.591	3060.27
460.964	3130.33
461.337	3172.36
461.71	3189.99
462.083	3274.5
462.456	3246.48
462.829	3295.52
463.201	3332.58
463.574	3357.21
463.947	3396.31
464.32	3460.71
464.692	3518.11
465.065	3572.58
465.438	3596.76
465.81	3607.6
466.183	3644.89
466.555	3709.75
466.928	3815.06
467.3	3765.79
467.672	3813.02
468.045	3926.92
468.417	3946.58
468.789	3955.39
469.161	4001.04
469.534	4067.7
469.906	4126.01
470.278	4190.19
470.65	4262.5
471.022	4320.58
471.394	4377.98
471.766	4452.33
472.138	4446.9
472.51	4603.96
472.882	4613.68
473.253	4688.25
473.625	4762.37
473.997	4836.95
474.369	4893.9
474.74	5000.11
475.112	5033.55
475.484	5088.02
475.855	5181.57
476.227	5197.39
476.598	5386.54
476.97	5401.91
477.341	5532.07
477.713	5701.11
478.084	5629.02
478.455	5836.02
478.827	5851.16
479.198	6042.12
479.569	6015.45
479.94	6187.87
480.311	6232.39
480.682	6404.37
481.053	6521.88
481.424	6659.73
481.795	6717.35
482.166	6786.28
482.537	6885.26
482.908	7039.83
483.279	7134.29
483.65	7229.88
484.021	7355.98
484.391	7454.06
484.762	7546.71
485.133	7622.64
485.503	7650.21
485.874	7892.69
486.244	8050.2
486.615	8119.35
486.985	8202.74
487.356	8354.6
487.726	8465.78
488.097	8604.08
488.467	8590.97
488.837	8776.51
489.207	8859.89
489.578	9085.65
489.948	9143.5
490.318	9266.66
490.688	9329.49
491.058	9457.17
491.428	9604.28
491.798	9691.28
492.168	9877.04
492.538	9885.63
492.908	10026.87
493.278	10159.3
493.648	10141.67
494.017	10279.29
494.387	10388.44
494.757	10426.41
495.126	10598.15
495.496	10660.75
495.866	10769.22
496.235	10855.32
496.605	11005.37
496.974	11068.42
497.344	11122.43
497.713	11205.82
498.082	11277.91
498.452	11425.25
498.821	11567.85
499.19	11532.82
499.559	11634.06
499.928	11787.95
500.298	11847.84
500.667	11948.4
501.036	11894.62
501.405	12122.41
501.774	12147.72
502.143	12258.45
502.512	12311.55
502.88	12443.53
503.249	12485.34
503.618	12541.83
503.987	12655.73
504.356	12754.03
504.724	12835.61
505.093	12923.97
505.462	12939.33
505.83	13119.9
506.199	13214.81
506.567	13365.54
506.936	13348.82
507.304	13571.18
507.672	13665.19
508.041	13658.41
508.409	13761.01
508.777	13856.15
509.145	13969.36
509.514	13987.22
509.882	14056.14
510.25	14239.64
510.618	14331.61
510.986	14365.51
511.354	14589.46
511.722	14625.39
512.09	14803.01
512.458	14747.42
512.826	14993.07
513.193	14989.68
513.561	15136.34
513.929	15285.04
514.297	15368.88
514.664	15431.92
515.032	15563.67
515.4	15772.48
515.767	15722.09
516.135	15920.5
516.502	15865.36
516.869	16162.98
517.237	16221.51
517.604	16216.76
517.972	16406.59
518.339	16576.75
518.706	16608.39
519.073	16806.13
519.44	16897.65
519.808	17065.33
520.175	17066.23
520.542	17293.34
520.909	17518.88
521.276	17457.63
521.643	17703.28
522.009	17703.96
522.376	17810.62
522.743	18089.48
523.11	18020.11
523.477	18443.37
523.843	18508.45
524.21	18731.5
524.577	18811.95
524.943	18891.04
525.31	19016.01
525.676	19216.01
526.043	19344.14
526.409	19416
526.776	19596.11
527.142	19709.33
527.508	19898.7
527.874	20110.67
528.241	20084.23
528.607	20178.69
528.973	20460.72
529.339	20458.23
529.705	20673.82
530.071	20782.07
530.437	20937.32
530.803	21049.63
531.169	21175.73
531.535	21254.14
531.901	21357.64
532.267	21462.5
532.632	21635.83
532.998	21701.36
533.364	21785.88
533.73	21905.43
534.095	21979.32
534.461	22136.38
534.826	22141.35
535.192	22335.25
535.557	22421.57
535.923	22564.17
536.288	22679.87
536.653	22824.05
537.019	22697.04
537.384	22832.63
537.749	23032.4
538.114	23077.37
538.479	23062.01
538.845	23184.26
539.21	23161.44
539.575	23297.03
539.94	23375.44
540.305	23618.15
540.67	23580.64
541.034	23693.63
541.399	23794.42
541.764	23923.68
542.129	23895.88
542.494	24028.08
542.858	24095.2
543.223	24165.03
543.587	24426.94
543.952	24369.32
544.316	24468.3
544.681	24380.62
545.045	24692.7
545.41	24832.81
545.774	24854.05
546.138	24799.14
546.503	24922.07
546.867	25006.36
547.231	25092.69
547.595	25152.35
547.959	25367.93
548.324	25307.6
548.688	25339.23
549.052	25585.33
549.416	25503.07
549.779	25649.06
550.143	25707.13
550.507	25885.89
550.871	25983.29
551.235	25938.54
551.599	26152.77
551.962	26216.95
552.326	26410.62
552.689	26458.75
553.053	26385.54
553.417	26537.85
553.78	26811.29
554.143	26654.45
554.507	26880.44
554.87	27014.9
555.234	27175.12
555.597	27064.39
555.96	27229.58
556.323	27477.94
556.686	27519.97
557.05	27633.19
557.413	27625.28
557.776	27791.15
558.139	28053.74
558.502	28081.08
558.865	28055.1
559.228	28353.62
559.59	28390.45
559.953	28402.88
560.316	28749.77
560.679	28767.62
561.041	28924.45
561.404	28963.55
561.767	29221.39
562.129	29233.6
562.492	29549.07
562.854	29458
563.217	29639.01
563.579	29608.28
563.941	29951.77
564.304	29844.2
564.666	30192.21
565.028	30163.74
565.39	30329.16
565.753	30438.99
566.115	30568.02
566.477	30761.47
566.839	30745.87
567.201	30985.19
567.563	31022.25
567.925	31139.76
568.287	31190.38
568.648	31286.2
569.01	31500.65
569.372	31526.42
569.734	31558.05
570.095	31653.87
570.457	31767.09
570.819	31987.2
571.18	31924.6
571.542	32156.46
571.903	32295.44
572.265	32363.46
572.626	32461.53
572.987	32461.99
573.349	32518.93
573.71	32772.03
574.071	32806.61
574.432	32812.03
574.794	32989.43
575.155	32884.57
575.516	32956.44
575.877	33101.29
576.238	33105.13
576.599	33219.03
576.96	33247.73
577.32	33320.95
577.681	33294.28
578.042	33480.72
578.403	33514.39
578.763	33536.53
579.124	33721.16
579.485	33584.44
579.845	33822.4
580.206	33726.58
580.566	33702.63
580.927	33708.73
581.287	33941.72
581.648	33730.65
582.008	33929.74
582.368	33900.82
582.728	34001.83
583.089	33940.59
583.449	33775.62
583.809	33908.05
584.169	34018.1
584.529	33962.06
584.889	34065.56
585.249	33972.68
585.609	33765.23
585.969	34079.34
586.329	33950.31
586.688	34061.04
587.048	34019.91
587.408	34089.97
587.768	33856.07
588.127	33916.41
588.487	33966.8
588.846	34075.28
589.206	34057.42
589.565	33986.01
589.925	34009.06
590.284	34091.1
590.643	34052.9
591.003	34116.63
591.362	34186.69
591.721	34118.67
592.08	33972.23
592.44	34215.84
592.799	34122.73
593.158	34123.64
593.517	34136.74
593.876	34192.79
594.235	34142.62
594.593	34156.18
594.952	34172
595.311	34061.94
595.67	34118.67
596.029	34396.4
596.387	34274.14
596.746	34367.02
597.104	34155.05
597.463	34186.01
597.822	34260.58
598.18	34202.28
598.538	34171.32
598.897	34340.81
599.255	33970.87
599.613	34640.69
599.972	34440.46
600.33	34411.09
600.688	34248.61
601.046	34391.43
601.404	34598.88
601.762	34439.79
602.12	34552.78
602.478	34561.37
602.836	34560.46
603.194	34465.77
603.552	34496.73
603.91	34360.47
604.268	34426.45
604.625	34399.34
604.983	34544.64
605.341	34410.86
605.698	34633.91
606.056	34538.09
606.413	34469.39
606.771	34734.69
607.128	34625.09
607.485	34567.92
607.843	34530.41
608.2	34710.06
608.557	34709.84
608.914	34818.31
609.272	34877.97
609.629	34964.97
609.986	35103.27
610.343	34885.42
610.7	35162.03
611.057	34969.26
611.414	35009.72
611.771	35023.95
612.127	35167.45
612.484	35277.05
612.841	35257.62
613.198	35186.66
613.554	35148.02
613.911	35391.85
614.267	35355.69
614.624	35264.62
614.98	35484.96
615.337	35490.15
615.693	35493.77
616.05	35449.48
616.406	35733.31
616.762	35510.04
617.118	35669.36
617.475	35586.2
617.831	35639.53
618.187	35803.14
618.543	35740.09
618.899	35992.97
619.255	35948
619.611	35839.75
619.967	35903.93
620.323	35891.27
620.678	35891.05
621.034	35870.48
621.39	35828.45
621.746	35795.23
622.101	36350.7
622.457	35865.29
622.812	36052.4
623.168	36133.53
623.523	36069.12
623.879	36208.55
624.234	35872.07
624.589	36030.25
624.945	35959.52
625.3	36147.99
625.655	36008.33
626.01	36131.49
626.365	36095.56
626.72	35872.97
627.075	35894.44
627.43	36006.53
627.785	35821.45
628.14	36066.18
628.495	35995.23
628.85	35955.68
629.205	35818.28
629.559	36083.59
629.914	35847.89
630.269	35909.35
630.623	35813.31
630.978	35751.62
631.332	35908.67
631.687	35964.94
632.041	35719.98
632.396	35831.39
632.75	35699.87
633.104	35700.54
633.459	35531.06
633.813	35608.8
634.167	35572.41
634.521	35608.34
634.875	35555.01
635.229	35439.53
635.583	35337.39
635.937	35317.5
636.291	35210.39
636.645	35135.81
636.999	35179.43
637.352	35211.07
637.706	35114.35
638.06	35263.49
638.413	35071.63
638.767	34944.18
639.121	35068.7
639.474	34642.49
639.828	34763.85
640.181	34841.58
640.534	34754.13
640.888	34768.82
641.241	34673.23
641.594	34482.05
641.947	34705.32
642.301	34649.5
642.654	34622.38
643.007	34514.36
643.36	34368.6
643.713	34328.38
644.066	34440.69
644.419	34277.98
644.771	34039.12
645.124	33669.41
645.477	33708.28
645.83	33366.82
646.182	33226.03
646.535	33213.38
646.888	33373.15
647.24	33199.37
647.593	33303.55
647.945	33231
648.298	32955.53
648.65	33062.65
649.002	32964.35
649.355	33014.29
649.707	33005.93
650.059	33022.2
650.411	33439.81
650.763	33421.28
651.115	33885.45
651.467	33614.27
651.819	33759.58
652.171	33586.25
652.523	33608.62
652.875	33568.17
653.227	33486.82
653.578	33585.35
653.93	33556.65
654.282	33317.1
654.633	33299.48
654.985	33351.91
655.337	33216.54
655.688	33350.32
656.039	33385.13
656.391	32985.36
656.742	33170.22
657.094	33169.76
657.445	33281.17
657.796	33170.22
658.147	33167.28
658.498	32969.54
658.849	33139.03
659.2	33044.12
659.551	32801.64
659.902	33045.02
660.253	32845.48
660.604	32816.55
660.955	32687.52
661.306	32830.11
661.656	32700.4
662.007	32673.73
662.358	32661.98
662.708	32781.07
663.059	32572.04
663.409	32381.76
663.76	32502.44
664.11	32614.52
664.461	32589.67
664.811	32511.93
665.161	32346.06
665.511	32294.76
665.862	32186.96
666.212	32259.73
666.562	32213.4
666.912	32143.12
667.262	32076.68
667.612	31911.04
667.962	31829.91
668.312	31793.53
668.662	31904.26
669.011	31744.26
669.361	31698.16
669.711	31577.71
670.06	31619.07
670.41	31325.97
670.76	31254.79
671.109	31298.17
671.459	31262.69
671.808	31259.31
672.157	31186.54
672.507	30857.96
672.856	30942.03
673.205	31093.21
673.554	31052.76
673.904	30880.11
674.253	31063.6
674.602	30791.97
674.951	30478.76
675.3	30244.19
675.649	30842.59
675.998	30587.91
676.346	30672.2
676.695	30753.33
677.044	30571.87
677.393	30584.75
677.741	30672.2
678.09	30566.22
678.438	30424.3
678.787	30432.21
679.135	30459.33
679.484	30270.86
679.832	30464.75
680.181	30366.9
680.529	30363.96
680.877	30234.02
681.225	30166
681.573	30413.23
681.922	30257.07
682.27	30180.46
682.618	30262.72
682.966	30284.87
683.314	30338.2
683.661	30311.31
684.009	30260.46
684.357	30176.62
684.705	30195.6
685.053	30340.23
685.4	30142.27
685.748	30058.21
686.095	30020.02
686.443	29936.4
686.79	29960.58
687.138	29977.76
687.485	29993.8
687.832	30003.07
688.18	30080.58
688.527	29943.86
688.874	30022.05
689.221	29919.23
689.568	29826.57
689.915	29895.73
690.262	29908.83
690.609	29864.77
690.956	29794.03
691.303	29714.26
691.65	29639.01
691.997	29714.26
692.344	29538.22
692.69	29618.9
693.037	29567.15
693.383	29359.24
693.73	29527.6
694.077	29361.28
694.423	29372.8
694.769	29443.53
695.116	29336.19
695.462	29256.65
695.808	29107.72
696.155	29308.85
696.501	29101.62
696.847	29034.28
697.193	28881.74
697.539	28899.37
697.885	28790.67
698.231	28703.21
698.577	28763.1
698.923	28617.79
699.269	28390.45
699.614	28332.6
699.96	28392.26
700.306	28456.44
700.651	28297.35
700.997	28170.57
701.342	28149.78
701.688	28085.38
702.033	27948.21
702.379	27959.96
702.724	27940.75
703.069	27990.69
703.415	27624.15
703.76	27732.39
704.105	27687.42
704.45	27552.96
704.795	27372.4
705.14	27422.34
705.485	27315.45
705.83	27263.93
706.175	27143.93
706.52	27133.99
706.865	27105.29
707.209	27023.71
707.554	26974.67
707.899	26932.19
708.243	26883.83
708.588	26849.7
708.932	26566.32
709.277	26655.13
709.621	26729.71
709.966	26451.3
710.31	26482.48
710.654	26320.68
710.998	26310.28
711.342	26477.06
711.687	26309.38
712.031	26231.41
712.375	26268.48
712.719	26158.65
713.063	25983.29
713.407	26026.45
713.75	26017.86
714.094	26048.82
714.438	25884.98
714.782	25846.11
715.125	25683.63
715.469	25790.97
715.812	25639.34
716.156	25608.61
716.499	25507.82
716.843	25437.54
717.186	25326.13
717.53	25291.78
717.873	25456.07
718.216	25363.87
718.559	25204.78
718.902	25100.37
719.246	25047.94
719.589	24957.32
719.932	25002.52
720.275	24972.24
720.617	25027.15
720.96	24909.87
721.303	24988.51
721.646	24847.27
721.989	24816.54
722.331	24893.37
722.674	24709.87
723.016	24727.95
723.359	24600.27
723.701	24682.3
724.044	24465.59
724.386	24339.49
724.729	24453.16
725.071	24446.38
725.413	24493.83
725.755	24441.18
726.097	24354.85
726.439	24128.65
726.782	24176.55
727.124	24342.65
727.465	24184.46
727.807	24086.39
728.149	23969.78
728.491	23956.9
728.833	23989.89
729.175	23965.03
729.516	23911.02
729.858	23855.88
730.199	23927.07
730.541	23729.56
730.882	23829.22
731.224	23905.37
731.565	23608.21
731.906	23605.72
732.248	23688.88
732.589	23539.96
732.93	23527.76
733.271	23455.89
733.612	23478.04
733.953	23489.57
734.294	23222.68
734.635	23293.41
734.976	23299.06
735.317	23268.78
735.658	23293.41
735.999	23124.15
736.339	23148.56
736.68	23141.33
737.021	22936.13
737.361	22992.18
737.702	22998.28
738.042	22927.55
738.383	22897.94
738.723	22928.68
739.063	22991.27
739.404	22914.89
739.744	22775.46
740.084	22787.21
740.424	22764.39
740.764	22672.64
741.104	22719.42
741.444	22602.13
741.784	22646.2
742.124	22557.39
742.464	22524.85
742.804	22519.2
743.143	22478.52
743.483	22347
743.823	22351.97
744.162	22316.04
744.502	22324.85
744.841	22167.11
745.181	22289.82
745.52	22177.06
745.86	22129.83
746.199	22039.21
746.538	22091.18
746.877	22103.16
747.216	22015.25
747.556	21939.55
747.895	21996.27
748.234	21939.55
748.573	21833.56
748.911	21827.24
749.25	21805.32
749.589	21695.04
749.928	21655.49
750.267	21771.65
750.605	21600.58
750.944	21542.72
751.283	21561.93
751.621	21510.18
751.96	21397.87
752.298	21409.17
752.636	21415.04
752.975	21294.82
753.313	21314.48
753.651	21276.06
753.989	21115.39
754.327	21112.68
754.666	21058.9
755.004	21058.67
755.342	21065
755.679	20898.22
756.017	20873.82
756.355	21000.14
756.693	20820.26
757.031	20852.57
757.368	20697.32
757.706	20682.18
758.044	20526.03
758.381	20532.13
758.719	20520.6
759.056	20446.93
759.394	20484.22
759.731	20295.53
760.068	20222.99
760.405	20159.94
760.743	20030.45
761.08	20194.06
761.417	19959.72
761.754	19904.35
762.091	19847.4
762.428	19794.97
762.765	19613.74
763.102	19809.44
763.438	19768.53
763.775	19646.28
764.112	19685.6
764.449	19559.73
764.785	19553.85
765.122	19360.18
765.458	19312.73
765.795	19173.52
766.131	19209.68
766.467	19083.35
766.804	19103.69
767.14	18951.38
767.476	18978.72
767.812	18875.68
768.148	18858.05
768.485	18760.2
768.821	18700.09
769.157	18613.76
769.492	18644.95
769.828	18566.98
770.164	18351.17
770.5	18376.03
770.836	18419.19
771.171	18253.55
771.507	18228.69
771.842	18014.46
772.178	18054
772.513	18046.55
772.849	17920.67
773.184	17886.32
773.519	17839.55
773.855	17673.9
774.19	17702.83
774.525	17625.54
774.86	17612.88
775.195	17588.03
775.53	17461.02
775.865	17419.44
776.2	17291.08
776.535	17257.19
776.87	17148.49
777.205	17133.35
777.539	16987.14
777.874	17066.23
778.209	16918.44
778.543	16861.94
778.878	16729.07
779.212	16708.95
779.547	16616.75
779.881	16749.4
780.215	16528.17
780.55	16502.63
780.884	16311.45
781.218	16412.24
781.552	16372.92
781.886	16258.8
782.22	16164.56
782.554	16181.28
782.888	15996.43
783.222	15979.71
783.556	15818.36
783.889	15905.58
784.223	15763.89
784.557	15708.53
784.89	15742.2
785.224	15649.32
785.557	15628.3
785.891	15542.66
786.224	15536.78
786.558	15453.85
786.891	15274.41
787.224	15288.2
787.557	15250.69
787.891	15212.04
788.224	15205.04
788.557	15165.04
788.89	15144.93
789.223	15082.78
789.556	14921.2
789.888	14982.67
790.221	14888.89
790.554	14815.9
790.887	14741.32
791.219	14669.01
791.552	14639.86
791.884	14525.28
792.217	14535.45
792.549	14499.75
792.882	14373.65
793.214	14293.65
793.546	14297.04
793.879	14262.24
794.211	14262.92
794.543	14208
794.875	14150.38
795.207	14209.36
795.539	14119.42
795.871	14160.32
796.203	14025.18
796.535	13906.77
796.867	13834
797.198	13829.26
797.53	13736.15
797.862	13697.73
798.193	13680.11
798.525	13601.24
798.856	13619.32
799.188	13516.95
799.519	13460.68
799.85	13431.53
800.182	13472.88
800.513	13385.88
800.844	13226.56
801.175	13310.17
801.506	13281.47
801.837	13196.05
802.168	13140.23
802.499	13158.31
802.83	13041.03
803.161	12991.76
803.491	13042.16
803.822	12987.92
804.153	12958.77
804.483	12798.1
804.814	12746.12
805.145	12733.46
805.475	12802.84
805.805	12690.53
806.136	12770.53
806.466	12705.22
806.796	12643.75
807.126	12545.9
807.457	12608.27
807.787	12536.86
808.117	12442.85
808.447	12441.72
808.777	12461.61
809.107	12427.94
809.436	12295.28
809.766	12248.96
810.096	12278.56
810.426	12188.85
810.755	12251.9
811.085	12178.9
811.414	12137.1
811.744	12039.02
812.073	12018.68
812.403	12060.94
812.732	11960.15
813.061	12020.49
813.39	11885.35
813.719	11954.5
814.049	11989.53
814.378	11903.43
814.707	11815.97
815.036	11810.1
815.365	11837.89
815.693	11688.07
816.022	11698.92
816.351	11623.66
816.68	11520.16
817.008	11644.23
817.337	11538.47
817.665	11505.47
817.994	11541.63
818.322	11463.44
818.651	11475.64
818.979	11372.37
819.307	11435.87
819.636	11444.91
819.964	11311.58
820.292	11313.61
820.62	11308.42
820.948	11262.77
821.276	11302.99
821.604	11299.6
821.932	11262.32
822.259	11279.72
822.587	11229.55
822.915	11263.45
823.243	11282.88
823.57	11238.59
823.898	11204.01
824.225	11233.62
824.553	11138.03
824.88	11260.96
825.207	11236.78
825.535	11217.35
825.862	11264.35
826.189	11147.52
826.516	11254.86
826.843	11197.91
827.17	11246.95
827.497	11202.66
827.824	11141.42
828.151	11235.42
828.478	11224.35
828.805	11171.92
829.131	11129.21
829.458	11147.07
829.785	11153.62
830.111	11131.25
830.438	11217.8
830.764	11164.47
831.09	11158.82
831.417	11139.61
831.743	11093.73
832.069	11113.39
832.395	11075.43
832.722	11136.22
833.048	11001.53
833.374	11020.52
833.7	11004.02
834.026	11074.53
834.351	11070.01
834.677	11011.02
835.003	10975.54
835.329	11063
835.654	11037.92
835.98	10970.8
836.306	10967.41
836.631	10949.33
836.956	10957.24
837.282	10916.56
837.607	10912.04
837.932	10832.72
838.258	10866.62
838.583	10815.1
838.908	10744.82
839.233	10778.26
839.558	10752.27
839.883	10679.51
840.208	10716.79
840.533	10717.25
840.858	10675.21
841.182	10715.44
841.507	10701.43
841.832	10587.08
842.156	10576.01
842.481	10572.62
842.805	10567.19
843.13	10558.61
843.454	10464.6
843.778	10418.72
844.103	10522.22
844.427	10431.6
844.751	10415.79
845.075	10338.5
845.399	10322.68
845.723	10273.42
846.047	10269.35
846.371	10251.72
846.695	10247.43
847.019	10152.74
847.343	10156.58
847.666	10112.97
847.99	9999.07
848.313	9979.41
848.637	9967.66
848.96	9964.05
849.284	9868
849.607	9930.15
849.931	9810.38
850.254	9769.02
850.577	9717.72
850.9	9634.34
851.223	9653.77
851.546	9612.42
851.869	9535.81
852.192	9561.12
852.515	9436.6
852.838	9473.21
853.161	9448.81
853.483	9386.43
853.806	9326.55
854.129	9333.1
854.451	9270.5
854.774	9223.95
855.096	9186.67
855.419	9189.38
855.741	9123.62
856.063	9167
856.385	9108.7
856.708	9116.16
857.03	9089.49
857.352	9080.91
857.674	9042.49
857.996	8954.13
858.318	8945.77
858.64	8916.39
858.961	8886.11
859.283	8868.03
859.605	8803.85
859.926	8844.75
860.248	8771.08
860.57	8802.95
860.891	8822.16
861.212	8720.69
861.534	8801.82
861.855	8698.54
862.176	8648.83
862.498	8724.98
862.819	8714.36
863.14	8605.66
863.461	8659.45
863.782	8552.78
864.103	8592.56
864.424	8549.62
864.745	8565.66
865.065	8531.09
865.386	8521.37
865.707	8566.12
866.027	8489.06
866.348	8443.63
866.668	8427.82
866.989	8456.51
867.309	8417.19
867.63	8432.33
867.95	8404.31
868.27	8321.83
868.59	8419.91
868.91	8345.78
869.23	8380.81
869.55	8276.86
869.87	8320.7
870.19	8260.81
870.51	8284.54
870.83	8325.44
871.15	8274.6
871.469	8249.74
871.789	8275.73
872.109	8242.96
872.428	8228.72
872.748	8180.59
873.067	8193.25
873.386	8179.69
873.706	8127.71
874.025	8039.12
874.344	8103.08
874.663	8055.85
874.982	8042.06
875.301	8045.45
875.62	8009.97
875.939	8013.59
876.258	8056.07
876.577	8028.5
876.896	7997.32
877.214	7955.74
877.533	7920.71
877.852	7992.8
878.17	7977.43
878.489	7973.59
878.807	7963.65
879.125	7920.71
879.444	7921.84
879.762	7910.99
880.08	7884.55
880.398	7871.67
880.716	7873.71
881.034	7861.95
881.352	7850.43
881.67	7806.36
881.988	7821.05
882.306	7778.57
882.624	7755.97
882.941	7687.04
883.259	7713.94
883.577	7713.71
883.894	7653.6
884.212	7665.35
884.529	7679.13
884.846	7594.84
885.164	7578.57
885.481	7652.69
885.798	7544.45
886.115	7456.77
886.432	7489.31
886.75	7460.83
887.067	7490.89
887.383	7423.55
887.7	7450.44
888.017	7452.02
888.334	7393.72
888.651	7365.7
888.967	7362.76
889.284	7387.39
889.6	7335.19
889.917	7259.26
890.233	7279.82
890.55	7319.82
890.866	7318.24
891.182	7227.62
891.498	7207.28
891.815	7170
892.131	7182.2
892.447	7103.78
892.763	7091.58
893.079	7069.88
893.395	7074.4
893.71	7042.99
894.026	6969.55
894.342	7009.77
894.657	6957.57
894.973	6920.96
895.289	6944.46
895.604	6923
895.92	6871.02
896.235	6867.18
896.55	6835.31
896.865	6865.82
897.181	6826.05
897.496	6813.39
897.811	6763.45
898.126	6722.78
898.441	6754.64
898.756	6711.7
899.071	6674.87
899.386	6720.74
899.7	6620.18
900.015	6595.77
900.33	6544.93
900.644	6527.53
900.959	6533.18
901.273	6521.42
901.588	6486.62
901.902	6463.8
902.216	6461.99
902.531	6494.98
902.845	6444.82
903.159	6356.46
903.473	6372.28
903.787	6334.08
904.101	6254.31
904.415	6257.25
904.729	6287.98
905.042	6191.72
905.356	6210.47
905.67	6169.57
905.984	6205.95
906.297	6122.79
906.611	6115.79
906.924	6055.9
907.237	6042.34
907.551	6072.17
907.864	6032.17
908.177	5995.79
908.491	5964.38
908.804	5933.64
909.117	5895.23
909.43	5886.19
909.743	5876.47
910.056	5849.58
910.368	5849.13
910.681	5785.62
910.994	5768
911.307	5723.93
911.619	5735.46
911.932	5697.27
912.244	5674.67
912.557	5654.1
912.869	5608.23
913.181	5615.23
913.494	5642.8
913.806	5565.97
914.118	5570.04
914.43	5573.43
914.742	5518.74
915.054	5514.9
915.366	5448.23
915.678	5428.57
915.99	5411.17
916.302	5379.31
916.613	5326.2
916.925	5322.81
917.236	5326.88
917.548	5325.07
917.859	5290.95
918.171	5259.08
918.482	5292.53
918.794	5271.97
919.105	5226.54
919.416	5203.95
919.727	5182.25
920.038	5195.13
920.349	5113.1
920.66	5135.47
920.971	5081.01
921.282	5080.33
921.593	5023.38
921.903	4977.96
922.214	4990.17
922.525	5013.89
922.835	4911.3
923.146	4925.31
923.456	4887.8
923.767	4885.08
924.077	4904.74
924.387	4848.93
924.697	4814.58
925.008	4787.68
925.318	4823.84
925.628	4755.14
925.938	4764.18
926.248	4736.16
926.558	4745.43
926.867	4703.85
927.177	4668.82
927.487	4622.94
927.796	4624.75
928.106	4622.94
928.416	4624.53
928.725	4605.09
929.034	4543.4
929.344	4571.65
929.653	4550.18
929.962	4500.91
930.271	4519.67
930.581	4415.72
930.89	4415.94
931.199	4420.69
931.508	4417.98
931.817	4431.08
932.125	4373.91
932.434	4319.22
932.743	4313.57
933.051	4287.36
933.36	4273.57
933.669	4274.48
933.977	4270.18
934.286	4224.99
934.594	4229.51
934.902	4189.51
935.21	4152.45
935.519	4162.84
935.827	4120.58
936.135	4113.35
936.443	4074.26
936.751	4075.39
937.059	4073.58
937.367	4067.93
937.674	4037.87
937.982	4044.65
938.29	3994.49
938.597	4004.2
938.905	3972.11
939.213	3928.72
939.52	3971.44
939.827	3939.57
940.135	3937.09
940.442	3948.61
940.749	3846.24
941.056	3881.27
941.363	3820.7
941.67	3813.93
941.977	3767.37
942.284	3764.21
942.591	3802.63
942.898	3756.07
943.205	3754.04
943.511	3760.37
943.818	3723.76
944.125	3695.74
944.431	3669.97
944.738	3660.48
945.044	3650.31
945.35	3641.73
945.657	3594.72
945.963	3582.07
946.269	3599.69
946.575	3599.92
946.881	3578.9
947.187	3571.22
947.493	3537.77
947.799	3509.3
948.105	3476.53
948.41	3484.89
948.716	3481.5
949.022	3485.57
949.327	3456.65
949.633	3423.65
949.938	3443.31
950.244	3395.86
950.549	3376.42
950.854	3376.2
951.16	3368.51
951.465	3331
951.77	3334.39
952.075	3327.16
952.38	3311.79
952.685	3287.61
952.99	3239.25
953.294	3273.83
953.599	3247.84
953.904	3230.21
954.209	3221.85
954.513	3198.57
954.818	3209.2
955.122	3176.88
955.426	3181.63
955.731	3157.9
956.035	3141.4
956.339	3112.7
956.643	3140.95
956.948	3079.48
957.252	3046.49
957.556	3079.48
957.86	3070.44
958.163	3032.48
958.467	2978.69
958.771	3033.83
959.075	2982.76
959.378	2994.06
959.682	3010.33
959.985	2976.21
960.289	2960.84
960.592	2893.95
960.896	2899.82
961.199	2914.74
961.502	2938.92
961.805	2894.18
962.108	2864.8
962.411	2868.87
962.714	2820.5
963.017	2861.18
963.32	2867.06
963.623	2837
963.926	2798.81
964.228	2818.92
964.531	2809.88
964.833	2765.14
965.136	2742.54
965.438	2707.74
965.741	2731.69
966.043	2737.57
966.345	2715.42
966.648	2698.02
966.95	2712.03
967.252	2658.7
967.554	2668.87
967.856	2642.2
968.158	2632.94
968.46	2644.24
968.761	2620.74
969.063	2625.93
969.365	2623.22
969.666	2600.62
969.968	2583.45
970.269	2582.32
970.571	2558.14
970.872	2527.63
971.174	2541.87
971.475	2527.63
971.776	2532.38
972.077	2510.23
972.378	2486.73
972.679	2503.45
972.98	2502.55
973.281	2472.49
973.582	2428.2
973.883	2432.27
974.183	2420.52
974.484	2445.37
974.785	2418.93
975.085	2420.06
975.386	2368.54
975.686	2401.08
975.986	2396.11
976.287	2383.45
976.587	2349.33
976.887	2323.34
977.187	2317.69
977.487	2313.85
977.787	2283.57
978.087	2299.39
978.387	2281.76
978.687	2292.84
978.987	2261.88
979.286	2247.19
979.586	2221.42
979.885	2238.37
980.185	2241.54
980.484	2223.46
980.784	2227.75
981.083	2206.06
981.382	2220.75
981.682	2167.64
981.981	2203.35
982.28	2205.38
982.579	2171.26
982.878	2174.87
983.177	2125.83
983.475	2131.03
983.774	2077.47
984.073	2086.96
984.372	2078.15
984.67	2108.66
984.969	2088.55
985.267	2052.62
985.566	2084.03
985.864	2037.25
986.162	2035.21
986.461	2043.35
986.759	2030.47
987.057	2018.72
987.355	2015.1
987.653	1999.74
987.951	2018.04
988.249	1973.75
988.547	1994.09
988.844	1973.3
989.142	1961.54
989.44	1940.75
989.737	1925.84
990.035	1914.54
990.332	1936.01
990.63	1916.8
990.927	1884.71
991.224	1877.03
991.521	1882.22
991.819	1865.95
992.116	1877.25
992.413	1868.67
992.71	1845.62
993.006	1867.99
993.303	1862.11
993.6	1815.33
993.897	1817.59
994.193	1844.03
994.49	1817.59
994.787	1835.67
995.083	1763.81
995.379	1749.57
995.676	1749.12
995.972	1756.8
996.268	1749.12
996.565	1750.48
996.861	1751.61
997.157	1714.32
997.453	1712.06
997.749	1716.81
998.044	1694.66
998.34	1700.99
998.636	1698.73
998.932	1679.07
999.227	1665.06
999.523	1655.34
999.818	1664.38
1000.114	1653.3
1000.409	1651.72
1000.704	1645.62
1001	1617.6
1001.295	1599.07
1001.59	1611.5
1001.885	1573.08
1002.18	1609.69
1002.475	1611.95
1002.77	1573.76
1003.065	1562.46
1003.359	1532.4
1003.654	1562.91
1003.949	1536.24
1004.243	1560.2
1004.538	1504.83
1004.832	1526.53
1005.127	1518.17
1005.421	1503.93
1005.715	1489.92
1006.009	1488.79
1006.304	1468.22
1006.598	1470.26
1006.892	1470.71
1007.186	1453.76
1007.48	1444.95
1007.773	1418.51
1008.067	1445.17
1008.361	1446.53
1008.655	1406.3
1008.948	1424.61
1009.242	1396.36
1009.535	1409.92
1009.829	1402.46
1010.122	1401.56
1010.415	1359.53
1010.708	1360.66
1011.001	1356.14
1011.295	1367.44
1011.588	1322.92
1011.881	1332.41
1012.173	1326.53
1012.466	1319.3
1012.759	1287.66
1013.052	1317.72
1013.344	1293.99
1013.637	1301.22
1013.93	1265.97
1014.222	1288.79
1014.514	1258.29
1014.807	1289.25
1015.099	1253.77
1015.391	1254.9
1015.683	1251.05
1015.976	1239.3
1016.268	1224.84
1016.56	1214.22
1016.851	1216.93
1017.143	1229.59
1017.435	1218.74
1017.727	1175.35
1018.018	1160.44
1018.31	1186.2
1018.602	1138.74
1018.893	1171.96
1019.185	1187.33
1019.476	1152.75
1019.767	1147.55
1020.058	1105.52
1020.35	1110.72
1020.641	1139.65
1020.932	1141.23
1021.223	1118.4
1021.514	1106.65
1021.804	1112.53
1022.095	1116.14
1022.386	1088.8
1022.677	1100.78
1022.967	1073.21
1023.258	1080.89
1023.548	1073.21
1023.839	1053.55
1024.129	1042.25
1024.419	1042.7
1024.709	1021.91
1025	1030.04
1025.29	1028.91
1025.58	1000.89
1025.87	1010.16
1026.16	1000.21
1026.449	985.3
1026.739	989.82
1027.029	1009.03
1027.319	979.42
1027.608	957.28
1027.898	968.12
1028.187	971.97
1028.477	927.9
1028.766	943.94
1029.055	938.29
1029.344	975.81
1029.634	932.19
1029.923	947.79
1030.212	931.29
1030.501	924.06
1030.79	908.24
1031.078	876.83
1031.367	889.48
1031.656	901.46
1031.945	897.84
1032.233	869.14
1032.522	896.04
1032.81	856.26
1033.099	853.33
1033.387	849.94
1033.675	863.72
1033.963	870.05
1034.251	865.3
1034.54	836.38
1034.828	833.44
1035.116	839.99
1035.403	850.84
1035.691	816.72
1035.979	823.95
1036.267	818.07
1036.554	811.52
1036.842	807.68
1037.129	795.7
1037.417	784.85
1037.704	774.46
1037.992	799.54
1038.279	787.11
1038.566	778.75
1038.853	778.75
1039.14	778.75
