Data from white_steel_sheet_FLMS001491_032.txt Node
Date: Tue Feb 07 10:57:45 GMT 2017
User: dcchb
Spectrometer: FLMS00149
Trigger mode: 0
Integration Time (sec): 2.000000E-2
Scans to average: 10
Electric dark correction enabled: true
Nonlinearity correction enabled: false
Boxcar width: 0
XAxis mode: Wavelengths
Number of Pixels in Spectrum: 2048
>>>>>Begin Spectral Data<<<<<
341.393	-28.81
341.776	-28.81
342.16	-28.81
342.543	-59.32
342.927	-72.2
343.31	-70.39
343.693	-94.57
344.077	-60.9
344.46	-54.12
344.843	-65.65
345.226	-34.24
345.61	-37.85
345.993	-7.8
346.376	-5.08
346.759	4.18
347.142	30.17
347.525	52.09
347.908	59.55
348.291	79.43
348.674	89.83
349.057	115.36
349.44	111.52
349.823	142.26
350.206	158.3
350.588	200.11
350.971	216.15
351.354	234.23
351.737	257.51
352.119	244.85
352.502	263.83
352.884	268.81
353.267	295.92
353.65	292.76
354.032	305.42
354.414	303.61
354.797	323.27
355.179	331.18
355.562	305.87
355.944	341.8
356.326	335.47
356.709	353.32
357.091	331.86
357.473	342.25
357.855	319.43
358.238	356.94
358.62	336.15
359.002	345.64
359.384	338.64
359.766	343.83
360.148	355.13
360.53	341.8
360.912	339.54
361.294	355.58
361.676	328.92
362.057	321.23
362.439	345.64
362.821	347
363.203	333.21
363.584	316.26
363.966	328.92
364.348	325.75
364.729	326.88
365.111	328.47
365.493	333.44
365.874	332.53
366.256	342.93
366.637	317.39
367.019	314.68
367.4	335.25
367.781	317.84
368.163	318.07
368.544	340.22
368.925	311.29
369.306	329.6
369.688	328.01
370.069	335.47
370.45	321.46
370.831	328.01
371.212	355.13
371.593	316.94
371.974	318.07
372.355	323.04
372.736	345.87
373.117	327.79
373.498	312.2
373.879	318.07
374.26	324.62
374.641	338.86
375.021	331.4
375.402	333.66
375.783	337.05
376.163	337.96
376.544	352.65
376.925	357.84
377.305	325.98
377.686	334.57
378.066	350.16
378.447	347.67
378.827	354.68
379.208	329.82
379.588	348.13
379.968	347.9
380.349	367.79
380.729	350.16
381.109	373.66
381.489	355.81
381.87	365.98
382.25	357.17
382.63	364.62
383.01	378.18
383.39	377.5
383.77	371.85
384.15	359.2
384.53	372.53
384.91	383.15
385.29	394.9
385.67	390.16
386.049	382.7
386.429	395.81
386.809	408.92
387.189	398.75
387.568	396.26
387.948	373.66
388.328	402.59
388.707	386.32
389.087	385.19
389.466	418.86
389.846	417.28
390.225	435.58
390.605	396.03
390.984	408.24
391.363	425.64
391.743	415.24
392.122	447.33
392.501	430.16
392.881	443.72
393.26	453.21
393.639	469.48
394.018	430.61
394.397	445.07
394.776	472.19
395.155	472.42
395.534	454.79
395.913	479.42
396.292	493.89
396.671	483.26
397.05	499.31
397.429	485.98
397.808	482.59
398.186	488.69
398.565	508.12
398.944	522.13
399.323	530.49
399.701	549.93
400.08	528.01
400.458	543.83
400.837	552.19
401.215	575.69
401.594	560.78
401.972	579.31
402.351	586.09
402.729	582.92
403.107	604.16
403.486	583.15
403.864	573.66
404.242	622.7
404.62	619.31
404.999	640.77
405.377	661.11
405.755	642.36
406.133	673.99
406.511	676.71
406.889	678.74
407.267	689.81
407.645	693.88
408.023	694.78
408.401	732.52
408.779	737.27
409.156	733.43
409.534	734.1
409.912	752.64
410.29	762.8
410.667	783.6
411.045	781.34
411.422	813.42
411.8	820.43
412.178	844.38
412.555	856.81
412.933	819.75
413.31	871.95
413.687	876.25
414.065	908.34
414.442	903.59
414.819	902.24
415.197	888.68
415.574	923.7
415.951	946.3
416.328	937.94
416.705	953.31
417.082	977.04
417.46	988.11
417.837	1024.72
418.214	1018.62
418.591	1001.89
418.967	1012.06
419.344	1045.06
419.721	1048
420.098	1047.32
420.475	1086.64
420.852	1084.15
421.228	1060.88
421.605	1108.56
421.982	1126.64
422.358	1132.51
422.735	1124.83
423.111	1153.98
423.488	1171.16
423.864	1187.88
424.241	1175.22
424.617	1200.76
424.994	1200.99
425.37	1208.89
425.746	1193.98
426.123	1273.07
426.499	1245.5
426.875	1259.74
427.251	1294.32
427.627	1310.81
428.003	1321.89
428.379	1372.05
428.756	1345.84
429.132	1365.73
429.507	1402.79
429.883	1410.7
430.259	1445.27
430.635	1422.45
431.011	1446.63
431.387	1486.18
431.763	1512.84
432.138	1534.54
432.514	1548.32
432.89	1553.97
433.265	1590.81
433.641	1597.81
434.016	1638.26
434.392	1666.96
434.767	1648.66
435.143	1655.21
435.518	1715.55
435.894	1715.32
436.269	1758.26
436.644	1774.76
437.02	1802.1
437.395	1772.04
437.77	1818.14
438.145	1836.9
438.52	1858.37
438.895	1852.27
439.271	1895.2
439.646	1916.45
440.021	1937.01
440.395	1926.84
440.77	1931.81
441.145	1966.84
441.52	2019.49
441.895	2006.84
442.27	2031.7
442.645	2024.47
443.019	2048.87
443.394	2090
443.769	2104.01
444.143	2077.35
444.518	2123.67
444.892	2132.71
445.267	2138.14
445.641	2167.74
446.016	2157.12
446.39	2193.73
446.764	2219.94
447.139	2200.73
447.513	2230.34
447.887	2261.3
448.262	2286.15
448.636	2304.01
449.01	2308.53
449.384	2333.38
449.758	2364.12
450.132	2390.33
450.506	2383.78
450.88	2415.19
451.254	2389.43
451.628	2429.2
452.002	2496.54
452.376	2508.75
452.75	2544.23
453.123	2545.58
453.497	2589.88
453.871	2596.65
454.244	2645.69
454.618	2685.92
454.992	2737.67
455.365	2728.63
455.739	2798.46
456.112	2804.56
456.486	2777.67
456.859	2835.97
457.232	2936.53
457.606	2898.57
457.979	2988.28
458.352	3015.4
458.725	3028.73
459.099	3066.02
459.472	3100.37
459.845	3148.5
460.218	3189.41
460.591	3221.5
460.964	3233.02
461.337	3291.33
461.71	3310.76
462.083	3394.15
462.456	3358.67
462.829	3420.14
463.201	3441.15
463.574	3508.72
463.947	3550.98
464.32	3627.36
464.692	3644.31
465.065	3668.94
465.438	3728.6
465.81	3770.41
466.183	3825.32
466.555	3908.26
466.928	3906.22
467.3	3891.31
467.672	3950.52
468.045	4093.34
468.417	4081.14
468.789	4163.39
469.161	4209.49
469.534	4197.52
469.906	4336.72
470.278	4329.94
470.65	4400.68
471.022	4483.38
471.394	4575.59
471.766	4609.94
472.138	4690.16
472.51	4747.78
472.882	4883.83
473.253	4851.28
473.625	4918.63
473.997	5023.03
474.369	5099.87
474.74	5158.4
475.112	5230.71
475.484	5367.43
475.855	5374.43
476.227	5516.58
476.598	5580.31
476.97	5710.02
477.341	5792.73
477.713	5911.37
478.084	5959.73
478.455	6081.76
478.827	6131.93
479.198	6263.45
479.569	6278.37
479.94	6436.78
480.311	6543.67
480.682	6667.73
481.053	6792.48
481.424	6935.07
481.795	7000.38
482.166	7142.75
482.537	7221.39
482.908	7326.02
483.279	7467.49
483.65	7542.29
484.021	7674.26
484.391	7781.6
484.762	7852.34
485.133	7960.58
485.503	8082.84
485.874	8269.27
486.244	8347.46
486.615	8487.12
486.985	8629.26
487.356	8721.01
487.726	8819.99
488.097	9023.15
488.467	9073.09
488.837	9169.14
489.207	9271.96
489.578	9466.76
489.948	9530.48
490.318	9632.63
490.688	9759.86
491.058	9914.43
491.428	10033.75
491.798	10109
492.168	10334.3
492.538	10350.8
492.908	10499.95
493.278	10579.72
493.648	10620.85
494.017	10868.53
494.387	10913.05
494.757	10997.79
495.126	11187.62
495.496	11194.39
495.866	11257.67
496.235	11364.33
496.605	11543.99
496.974	11573.14
497.344	11673.03
497.713	11790.31
498.082	11896.75
498.452	11950.76
498.821	12042.73
499.19	12063.98
499.559	12267.81
499.928	12290.86
500.298	12475.04
500.667	12537.64
501.036	12541.03
501.405	12689.27
501.774	12735.6
502.143	12814.69
502.512	12988.7
502.88	13027.79
503.249	13059.88
503.618	13127.9
503.987	13244.74
504.356	13277.73
504.724	13479.98
505.093	13519.98
505.462	13551.62
505.83	13708.91
506.199	13745.06
506.567	13923.36
506.936	14024.6
507.304	14168.55
507.672	14179.18
508.041	14313.18
508.409	14372.16
508.777	14505.27
509.145	14700.74
509.514	14610.12
509.882	14859.61
510.25	14934.86
510.618	14956.56
510.986	15026.61
511.354	15244.91
511.722	15373.95
512.09	15568.74
512.458	15405.13
512.826	15659.59
513.193	15703.88
513.561	15861.62
513.929	15980.71
514.297	16069.97
514.664	16222.96
515.032	16310.64
515.4	16489.85
515.767	16557.64
516.135	16663.63
516.502	16634.25
516.869	16993.56
517.237	17062.26
517.604	16996.28
517.972	17321.01
518.339	17404.63
518.706	17434.68
519.073	17547.67
519.44	17642.81
519.808	17832.86
520.175	17825.63
520.542	18137.49
520.909	18312.17
521.276	18257.03
521.643	18531.38
522.009	18556.91
522.376	18775.89
522.743	18791.48
523.11	19033.06
523.477	19355.76
523.843	19328.42
524.21	19536.55
524.577	19717.11
524.943	19792.59
525.31	19948.74
525.676	20173.82
526.043	20289.3
526.409	20413.14
526.776	20687.25
527.142	20679.8
527.508	20884.31
527.874	21015.83
528.241	21127.92
528.607	21242.04
528.973	21434.13
529.339	21411.53
529.705	21699.43
530.071	21787.56
530.437	21902.14
530.803	22068.23
531.169	22213.77
531.535	22148.91
531.901	22417.83
532.267	22396.13
532.632	22687.88
532.998	22624.83
533.364	22908.66
533.73	22868.66
534.095	23151.82
534.461	23179.16
534.826	23394.07
535.192	23409.89
535.557	23618.02
535.923	23618.7
536.288	23707.96
536.653	23867.51
537.019	23804.68
537.384	23952.48
537.749	24116.77
538.114	24046.71
538.479	24305.01
538.845	24330.55
539.21	24344.56
539.575	24551.56
539.94	24558.56
540.305	24714.94
540.67	24695.06
541.034	24801.49
541.399	25001.72
541.764	25024.31
542.129	25240.35
542.494	25192.22
542.858	25272.22
543.223	25412.55
543.587	25551.31
543.952	25548.59
544.316	25693.45
544.681	25800.79
545.045	25819.55
545.41	25952.2
545.774	25995.81
546.138	26064.51
546.503	26133.44
546.867	26217.05
547.231	26387.44
547.595	26361.91
547.959	26545.86
548.324	26603.26
548.688	26593.31
549.052	26848.67
549.416	26839.63
549.779	26857.71
550.143	26958.27
550.507	27151.49
550.871	27233.75
551.235	27206.4
551.599	27554.19
551.962	27530.69
552.326	27575.43
552.689	27699.5
553.053	27626.96
553.417	27773.39
553.78	28209.54
554.143	28038.02
554.507	28226.94
554.87	28322.53
555.234	28591.45
555.597	28450.89
555.96	28554.39
556.323	28719.81
556.686	28816.76
557.05	28932.91
557.413	29072.57
557.776	29062.63
558.139	29409.96
558.502	29357.31
558.865	29515.95
559.228	29680.91
559.59	29694.93
559.953	29827.35
560.316	30188.25
560.679	30158.87
561.041	30193.9
561.404	30429.37
561.767	30694
562.129	30708.91
562.492	30918.62
562.854	30923.37
563.217	30991.39
563.579	31074.55
563.941	31218.5
564.304	31452.62
564.666	31528.32
565.028	31612.39
565.39	31775.55
565.753	31918.14
566.115	32113.62
566.477	32166.72
566.839	32227.29
567.201	32398.36
567.563	32596.54
567.925	32670.21
568.287	32745.01
568.648	32763.55
569.01	32968.51
569.372	33108.39
569.734	33093.25
570.095	33281.05
570.457	33428.84
570.819	33493.92
571.18	33450.31
571.542	33748.15
571.903	33736.4
572.265	33774.14
572.626	33941.59
572.987	33964.87
573.349	34155.6
573.71	34248.25
574.071	34312.66
574.432	34485.53
574.794	34628.13
575.155	34590.62
575.516	34504.74
575.877	34662.03
576.238	34775.47
576.599	34918.52
576.96	34831.51
577.32	34933.66
577.681	35061.79
578.042	35112.86
578.403	35182.69
578.763	35016.14
579.124	35191.05
579.485	35355.12
579.845	35438.28
580.206	35295.46
580.566	35394.66
580.927	35408.45
581.287	35513.53
581.648	35455
582.008	35460.42
582.368	35475.11
582.728	35583.36
583.089	35505.85
583.449	35507.43
583.809	35513.98
584.169	35514.89
584.529	35391.27
584.889	35780.19
585.249	35548.78
585.609	35490.48
585.969	35806.63
586.329	35516.69
586.688	35695.67
587.048	35661.77
587.408	35681.89
587.768	35618.39
588.127	35644.15
588.487	35695.45
588.846	35671.72
589.206	35532.74
589.565	35575.22
589.925	35664.03
590.284	35642.34
590.643	35552.85
591.003	35729.34
591.362	35703.58
591.721	35648.44
592.08	35677.14
592.44	35757.14
592.799	35723.24
593.158	35638.27
593.517	35718.04
593.876	35723.92
594.235	35655.45
594.593	35657.25
594.952	35872.16
595.311	35682.79
595.67	35732.28
596.029	35889.11
596.387	35888.21
596.746	35863.8
597.104	35805.73
597.463	35750.36
597.822	35967.75
598.18	35840.98
598.538	35807.99
598.897	36038.94
599.255	35759.17
599.613	36295.66
599.972	35940.86
600.33	36106.28
600.688	35889.79
601.046	36120.07
601.404	36110.8
601.762	36066.51
602.12	36196.9
602.478	36117.13
602.836	36093.4
603.194	35919.17
603.552	36070.35
603.91	35950.35
604.268	36141.54
604.625	36010.24
604.983	36163.68
605.341	36085.72
605.698	36326.62
606.056	36299.5
606.413	36248.2
606.771	36336.78
607.128	36425.6
607.485	36380.85
607.843	36357.35
608.2	36466.72
608.557	36534.52
608.914	36465.59
609.272	36620.39
609.629	36677.34
609.986	36685.93
610.343	36438.25
610.7	36914.4
611.057	36801.41
611.414	36856.09
611.771	36749.43
612.127	36854.51
612.484	36911.01
612.841	37096.76
613.198	36926.6
613.554	36860.39
613.911	37170.21
614.267	37033.26
614.624	37162.53
614.98	37195.75
615.337	37322.52
615.693	37260.6
616.05	37220.15
616.406	37456.98
616.762	37402.97
617.118	37272.13
617.475	37174.95
617.831	37370.43
618.187	37468.28
618.543	37460.82
618.899	37779.46
619.255	37543.98
619.611	37564.55
619.967	37704.43
620.323	37683.19
620.678	37560.71
621.034	37563.42
621.39	37453.37
621.746	37542.63
622.101	37950.53
622.457	37568.39
622.812	37798.44
623.168	37885.9
623.523	37761.15
623.879	37915.73
624.234	37555.74
624.589	37854.26
624.945	37773.36
625.3	37781.49
625.655	37814.94
626.01	37797.31
626.365	37821.49
626.72	37707.82
627.075	37699.46
627.43	37647.03
627.785	37654.49
628.14	37769.29
628.495	37864.43
628.85	37737.65
629.205	37645.68
629.559	37841.6
629.914	37696.75
630.269	37675.51
630.623	37483.2
630.978	37609.75
631.332	37592.8
631.687	37744.21
632.041	37590.99
632.396	37452.01
632.75	37454.72
633.104	37460.82
633.459	37246.82
633.813	37255.4
634.167	37291.79
634.521	37247.27
634.875	37346.48
635.229	37216.54
635.583	36998.24
635.937	37150.77
636.291	37130.66
636.645	37151.9
636.999	37035.07
637.352	36969.99
637.706	36762.08
638.06	36882.08
638.413	36763.21
638.767	36706.04
639.121	36780.84
639.474	36567.29
639.828	36521.64
640.181	36492.71
640.534	36450.23
640.888	36421.53
641.241	36228.99
641.594	36299.5
641.947	36456.78
642.301	36305.83
642.654	36330.91
643.007	36221.53
643.36	36303.11
643.713	36169.78
644.066	36111.48
644.419	36005.27
644.771	35683.02
645.124	35459.52
645.477	35337.94
645.83	35192.41
646.182	35048.23
646.535	34881.23
646.888	35012.75
647.24	34870.61
647.593	34969.81
647.945	34906.77
648.298	34700.9
648.65	34775.7
649.002	34589.49
649.355	34671.29
649.707	34679.65
650.059	34718.52
650.411	35122.35
650.763	35207.77
651.115	35603.47
651.467	35390.37
651.819	35303.14
652.171	35335.46
652.523	35232.86
652.875	35319.41
653.227	35104.27
653.578	35360.09
653.93	35298.39
654.282	35122.81
654.633	35032.86
654.985	35026.76
655.337	35028.57
655.688	35069.02
656.039	35169.81
656.391	34794.23
656.742	34864.51
657.094	34830.38
657.445	34923.04
657.796	34801.46
658.147	34726.66
658.498	34722.36
658.849	34850.5
659.2	34703.16
659.551	34625.87
659.902	34695.47
660.253	34579.54
660.604	34516.95
660.955	34325.99
661.306	34584.97
661.656	34388.81
662.007	34369.6
662.358	34298.19
662.708	34345.2
663.059	34348.59
663.409	33982.72
663.76	34268.59
664.11	34176.39
664.461	34080.12
664.811	34083.96
665.161	34080.35
665.511	33892.56
665.862	33741.6
666.212	33956.51
666.562	33871.76
666.912	33721.94
667.262	33668.38
667.612	33646.01
667.962	33566.69
668.312	33540.25
668.662	33621.83
669.011	33324.21
669.361	33298.22
669.711	33145.91
670.06	33049.19
670.41	32905.01
670.76	32943.43
671.109	32956.31
671.459	32868.85
671.808	32744.79
672.157	32783.88
672.507	32419.6
672.856	32437.23
673.205	32443.78
673.554	32462.08
673.904	32388.19
674.253	32463.21
674.602	32288.53
674.951	31893.96
675.3	31818.94
675.649	32144.8
675.998	32119.49
676.346	32124.47
676.695	32415.53
677.044	31987.97
677.393	32061.87
677.741	32131.25
678.09	31937.13
678.438	31844.93
678.787	32042.66
679.135	32024.36
679.484	31765.15
679.832	31950.46
680.181	31822.33
680.529	31754.31
680.877	31849.22
681.225	31824.13
681.573	31946.39
681.922	31731.03
682.27	31575.1
682.618	31839.73
682.966	31747.53
683.314	31915.88
683.661	31639.28
684.009	31561.09
684.357	31631.6
684.705	31593.63
685.053	31724.02
685.4	31542.56
685.748	31480.42
686.095	31521.32
686.443	31438.61
686.79	31396.12
687.138	31691.94
687.485	31693.97
687.832	31575.55
688.18	31754.08
688.527	31644.7
688.874	31565.16
689.221	31485.61
689.568	31476.35
689.915	31434.54
690.262	31315.22
690.609	31234.55
690.956	31253.3
691.303	31293.3
691.65	31110.71
691.997	31264.6
692.344	31065.28
692.69	31158.16
693.037	31037.71
693.383	30949.36
693.73	31121.55
694.077	30869.58
694.423	30836.82
694.769	30816.48
695.116	30851.05
695.462	30835.23
695.808	30779.42
696.155	30765.63
696.501	30534.68
696.847	30502.14
697.193	30249.26
697.539	30526.54
697.885	30225.98
698.231	30226.89
698.577	30290.16
698.923	30251.52
699.269	30093.56
699.614	29964.3
699.96	29933.34
700.306	29908.25
700.651	29824.64
700.997	29732.21
701.342	29671.42
701.688	29739.67
702.033	29562.5
702.379	29473.91
702.724	29400.7
703.069	29550.97
703.415	29233.02
703.76	29197.76
704.105	29176.97
704.45	29085.45
704.795	28871.67
705.14	28816.76
705.485	28840.71
705.83	28707.61
706.175	28865.57
706.52	28684.56
706.865	28661.73
707.209	28631
707.554	28493.6
707.899	28484.56
708.243	28476.43
708.588	28300.16
708.932	28221.07
709.277	28208.86
709.621	28216.77
709.966	27986.95
710.31	28127.51
710.654	27851.13
710.998	27976.55
711.342	27824.69
711.687	27821.75
712.031	27632.83
712.375	27660.85
712.719	27751.93
713.063	27548.77
713.407	27659.72
713.75	27455.89
714.094	27432.16
714.438	27270.36
714.782	27358.26
715.125	27278.49
715.469	27318.04
715.812	27066.75
716.156	27059.51
716.499	27041.89
716.843	27004.83
717.186	26883.02
717.53	26879.18
717.873	26935.68
718.216	26927.99
718.559	26720.54
718.902	26658.62
719.246	26612.07
719.589	26624.05
719.932	26427.44
720.275	26535.46
720.617	26415.01
720.96	26448.23
721.303	26449.36
721.646	26377.5
721.989	26188.8
722.331	26276.71
722.674	26220.21
723.016	26234.45
723.359	26095.02
723.701	26055.47
724.044	25889.38
724.386	25770.06
724.729	25931.63
725.071	25924.18
725.413	25752.43
725.755	25721.47
726.097	25669.27
726.439	25642.6
726.782	25607.8
727.124	25627.91
727.465	25536.16
727.807	25526.22
728.149	25428.6
728.491	25469.5
728.833	25480.12
729.175	25374.59
729.516	25346.11
729.858	25277.41
730.199	25297.75
730.541	25137.76
730.882	25179.79
731.224	25196.74
731.565	25039.45
731.906	24997.2
732.248	24997.2
732.589	24840.82
732.93	24779.35
733.271	24891.89
733.612	24801.04
733.953	24747.71
734.294	24745.68
734.635	24620.93
734.976	24741.61
735.317	24594.72
735.658	24511.78
735.999	24554.04
736.339	24397.44
736.68	24526.47
737.021	24360.83
737.361	24369.19
737.702	24485.12
738.042	24279.47
738.383	24324.22
738.723	24298.68
739.063	24223.2
739.404	24288.06
739.744	24187.05
740.084	24112.93
740.424	24121.74
740.764	24034.06
741.104	24186.82
741.444	23954.51
741.784	23923.1
742.124	23894.17
742.464	23906.83
742.804	23755.65
743.143	23860.28
743.483	23848.3
743.823	23665.03
744.162	23717.46
744.502	23655.54
744.841	23633.39
745.181	23592.71
745.52	23593.84
745.86	23604.01
746.199	23559.27
746.538	23510
746.877	23412.15
747.216	23509.33
747.556	23407.18
747.895	23387.75
748.234	23371.7
748.573	23105.49
748.911	23216
749.25	23058.94
749.589	23139.39
749.928	23077.92
750.267	23092.39
750.605	23092.16
750.944	22931.04
751.283	22771.04
751.621	22989.11
751.96	22748.89
752.298	22839.51
752.636	22771.27
752.975	22668.9
753.313	22470.26
753.651	22580.99
753.989	22416.7
754.327	22509.35
754.666	22373.31
755.004	22437.49
755.342	22370.82
755.679	22268.45
756.017	22197.5
756.355	22243.82
756.693	22047.22
757.031	22181.45
757.368	21919.99
757.706	21933.77
758.044	21923.6
758.381	21876.83
758.719	21815.36
759.056	21827.56
759.394	21804.06
759.731	21471.64
760.068	21470.96
760.405	21478.64
760.743	21330.85
761.08	21407.23
761.417	21234.13
761.754	21167.47
762.091	21070.29
762.428	21068.26
762.765	20889.06
763.102	21019.45
763.438	20837.76
763.775	20791.2
764.112	20795.05
764.449	20722.73
764.785	20666.69
765.122	20614.94
765.458	20424.89
765.795	20506.24
766.131	20470.31
766.467	20326.36
766.804	20289.07
767.14	20159.13
767.476	20208.17
767.812	19987.16
768.148	20101.73
768.485	19876.43
768.821	19861.96
769.157	19853.6
769.492	19707.62
769.828	19761.63
770.164	19481.41
770.5	19479.37
770.836	19517.11
771.171	19417
771.507	19445.03
771.842	19163
772.178	19213.62
772.513	19144.47
772.849	19119.84
773.184	18997.81
773.519	18979.73
773.855	18826.96
774.19	18755.78
774.525	18706.97
774.86	18642.79
775.195	18624.93
775.53	18556.69
775.865	18497.93
776.2	18347.88
776.535	18263.36
776.87	18255.9
777.205	18243.02
777.539	18096.36
777.874	18068.56
778.209	17978.17
778.543	17890.26
778.878	17825.86
779.212	17826.54
779.547	17725.52
779.881	17666.32
780.215	17605.07
780.55	17607.33
780.884	17531.4
781.218	17397.4
781.552	17427.9
781.886	17361.92
782.22	17211.41
782.554	17218.64
782.888	16975.03
783.222	16922.61
783.556	16920.12
783.889	16855.94
784.223	16799.22
784.557	16693.23
784.89	16742.27
785.224	16553.8
785.557	16673.8
785.891	16491.2
786.224	16459.57
786.558	16471.09
786.891	16354.94
787.224	16314.94
787.557	16283.75
787.891	16175.51
788.224	16139.8
788.557	16142.06
788.89	16099.35
789.223	16027.94
789.556	15959.92
789.888	15890.99
790.221	15872.46
790.554	15805.57
790.887	15728.06
791.219	15692.81
791.552	15613.49
791.884	15594.51
792.217	15511.12
792.549	15453.94
792.882	15257.79
793.214	15267.96
793.546	15383.66
793.879	15207.85
794.211	15102.99
794.543	15137.57
794.875	15078.13
795.207	15077
795.539	14928.08
795.871	14982.77
796.203	14788.42
796.535	14841.3
796.867	14769.67
797.198	14653.96
797.53	14733.96
797.862	14593.63
798.193	14643.8
798.525	14517.7
798.856	14497.13
799.188	14320.64
799.519	14268.89
799.85	14292.84
800.182	14252.17
800.513	14254.43
800.844	14086.97
801.175	14247.42
801.506	14087.65
801.837	13977.6
802.168	14008.11
802.499	14029.57
802.83	13956.36
803.161	13808.79
803.491	13814.89
803.822	13790.26
804.153	13765.17
804.483	13696.93
804.814	13633.65
805.145	13619.19
805.475	13618.29
805.805	13507.55
806.136	13512.53
806.466	13464.39
806.796	13461
807.126	13359.99
807.457	13342.59
807.787	13382.13
808.117	13188.01
808.447	13220.56
808.777	13221.69
809.107	13150.73
809.436	13094.46
809.766	13083.16
810.096	12998.42
810.426	12993.44
810.755	13085.64
811.085	12983.73
811.414	12971.07
811.744	12827.57
812.073	12807.91
812.403	12844.75
812.732	12851.98
813.061	12697.41
813.39	12646.79
813.719	12710.29
814.049	12733.11
814.378	12582.83
814.707	12571.53
815.036	12581.93
815.365	12441.37
815.693	12306
816.022	12400.46
816.351	12387.58
816.68	12281.6
817.008	12406.11
817.337	12250.41
817.665	12150.3
817.994	12160.25
818.322	12284.54
818.651	12081.15
818.979	12109.85
819.307	12136.97
819.636	12162.51
819.964	12084.54
820.292	12161.6
820.62	12034.37
820.948	12020.59
821.276	11992.34
821.604	12057.2
821.932	12010.87
822.259	11978.56
822.587	11952.57
822.915	11984.88
823.243	12013.36
823.57	12025.33
823.898	11982.4
824.225	11898.11
824.553	11984.88
824.88	11912.12
825.207	11988.72
825.535	11955.5
825.862	11920.93
826.189	11891.33
826.516	11918.44
826.843	12007.71
827.17	11880.7
827.497	11959.57
827.824	11939.69
828.151	11991.21
828.478	11925.68
828.805	11913.47
829.131	11933.36
829.458	11850.65
829.785	11839.8
830.111	11902.17
830.438	11941.27
830.764	11868.5
831.09	11945.11
831.417	11908.73
831.743	11844.77
832.069	11865.56
832.395	11792.8
832.722	11840.03
833.048	11826.24
833.374	11868.73
833.7	11761.39
834.026	11821.95
834.351	11747.6
834.677	11826.92
835.003	11724.1
835.329	11791.89
835.654	11718.9
835.98	11742.86
836.306	11699.92
836.631	11616.3
836.956	11738.34
837.282	11613.14
837.607	11664.89
837.932	11575.85
838.258	11562.97
838.583	11510.54
838.908	11493.14
839.233	11480.26
839.558	11498.12
839.883	11386.93
840.208	11460.83
840.533	11510.54
840.858	11421.51
841.182	11353.03
841.507	11381.28
841.832	11255.64
842.156	11319.14
842.481	11324.79
842.805	11290.44
843.13	11245.02
843.454	11238.69
843.778	11162.53
844.103	11179.71
844.427	11115.53
844.751	11075.98
845.075	11118.46
845.399	11009.77
845.723	10972.03
846.047	10973.61
846.371	10824.46
846.695	10928.19
847.019	10844.35
847.343	10805.48
847.666	10771.36
847.99	10672.37
848.313	10628.08
848.637	10575.88
848.96	10633.73
849.284	10579.04
849.607	10541.53
849.931	10506.28
850.254	10406.39
850.577	10316.23
850.9	10307.41
851.223	10298.15
851.546	10276.45
851.869	10108.32
852.192	10223.57
852.515	10076.01
852.838	10090.92
853.161	10070.36
853.483	10045.72
853.806	10008.21
854.129	9991.49
854.451	9946.29
854.774	9854.54
855.096	9832.17
855.419	9832.62
855.741	9763.02
856.063	9755.34
856.385	9735.45
856.708	9713.53
857.03	9694.55
857.352	9647.09
857.674	9647.32
857.996	9647.54
858.318	9493.2
858.64	9571.61
858.961	9563.7
859.283	9464.5
859.605	9457.94
859.926	9469.24
860.248	9383.14
860.57	9393.99
860.891	9287.78
861.212	9367.55
861.534	9330.26
861.855	9319.42
862.176	9317.38
862.498	9288.46
862.819	9280.77
863.14	9202.36
863.461	9234.9
863.782	9163.71
864.103	9189.48
864.424	9142.47
864.745	9186.31
865.065	9120.1
865.386	9065.19
865.707	9151.96
866.027	9083.26
866.348	9100.44
866.668	8984.28
866.989	9000.33
867.309	8942.02
867.63	8964.4
867.95	8944.96
868.27	8868.58
868.59	8942.93
868.91	8890.05
869.23	8852.99
869.55	8863.61
869.87	8925.53
870.19	8822.93
870.51	8826.55
870.83	8858.86
871.15	8770.5
871.469	8815.7
871.789	8836.26
872.109	8726.66
872.428	8735.02
872.748	8769.83
873.067	8718.08
873.386	8690.28
873.706	8707.45
874.025	8643.5
874.344	8686.44
874.663	8627.46
874.982	8600.11
875.301	8622.26
875.62	8590.17
875.939	8533.22
876.258	8552.66
876.577	8508.82
876.896	8528.7
877.214	8460
877.533	8495.93
877.852	8512.43
878.17	8496.39
878.489	8482.83
878.807	8496.39
879.125	8471.08
879.444	8436.05
879.762	8405.99
880.08	8403.73
880.398	8322.83
880.716	8369.84
881.034	8344.07
881.352	8322.15
881.67	8290.74
881.988	8300.69
882.306	8242.83
882.624	8270.18
882.941	8204.87
883.259	8199.45
883.577	8164.64
883.894	8134.81
884.212	8134.36
884.529	8085.32
884.846	8174.14
885.164	8042.84
885.481	8085.55
885.798	8071.31
886.115	8055.27
886.432	7989.51
886.75	7988.38
887.067	7992.45
887.383	7935.27
887.7	7963.97
888.017	7926.91
888.334	7895.95
888.651	7918.32
888.967	7886.69
889.284	7820.92
889.6	7880.58
889.917	7777.76
890.233	7756.07
890.55	7708.84
890.866	7782.73
891.182	7673.81
891.498	7668.16
891.815	7657.54
892.131	7633.81
892.447	7646.01
892.763	7552.91
893.079	7553.36
893.395	7559.24
893.71	7507.71
894.026	7532.34
894.342	7468.17
894.657	7503.87
894.973	7400.82
895.289	7355.63
895.604	7379.58
895.92	7348.85
896.235	7306.36
896.55	7373.48
896.865	7319.92
897.181	7244.22
897.496	7271.56
897.811	7219.13
898.126	7184.33
898.441	7159.02
898.756	7110.21
899.071	7111.34
899.386	7092.58
899.7	7061.17
900.015	7034.28
900.33	6984.11
900.644	7004
900.959	6968.07
901.273	6982.08
901.588	6931.46
901.902	6898.69
902.216	6938.91
902.531	6859.37
902.845	6844
903.159	6786.6
903.473	6745.25
903.787	6740.5
904.101	6742.08
904.415	6682.42
904.729	6656.89
905.042	6635.42
905.356	6557.91
905.67	6590
905.984	6605.14
906.297	6514.52
906.611	6447.85
906.924	6467.74
907.237	6443.11
907.551	6435.2
907.864	6408.53
908.177	6455.99
908.491	6362.43
908.804	6358.36
909.117	6312.26
909.43	6235.88
909.743	6283.11
910.056	6232.94
910.368	6225.03
910.681	6166.96
910.994	6129.22
911.307	6111.36
911.619	6044.02
911.932	6139.39
912.244	6042.44
912.557	6083.79
912.869	6052.61
913.181	6016.9
913.494	6004.47
913.806	5904.36
914.118	5968.54
914.43	5868.21
914.742	5889
915.054	5879.73
915.366	5875.89
915.678	5817.59
915.99	5831.6
916.302	5753.86
916.613	5754.99
916.925	5687.2
917.236	5720.41
917.548	5699.62
917.859	5699.4
918.171	5666.86
918.482	5593.86
918.794	5651.94
919.105	5576.92
919.416	5550.93
919.727	5521.1
920.038	5512.28
920.349	5473.42
920.66	5413.98
920.971	5433.87
921.282	5431.83
921.593	5356.58
921.903	5308.9
922.214	5315.45
922.525	5286.98
922.835	5314.78
923.146	5307.77
923.456	5208.11
923.767	5202.69
924.077	5200.65
924.387	5181.9
924.697	5178.06
925.008	5119.98
925.318	5144.61
925.628	5147.32
925.938	5088.57
926.248	5015.35
926.558	5038.62
926.867	5051.96
927.177	5001.11
927.487	4990.49
927.796	4932.86
928.106	4952.98
928.416	4906.42
928.725	4909.36
929.034	4894
929.344	4850.83
929.653	4841.79
929.962	4783.49
930.271	4780.1
930.581	4746.88
930.89	4725.64
931.199	4688.58
931.508	4727.67
931.817	4693.32
932.125	4648.13
932.434	4657.39
932.743	4649.03
933.051	4562.48
933.36	4553.21
933.669	4513.67
933.977	4461.01
934.286	4513.89
934.594	4536.04
934.902	4495.81
935.21	4465.76
935.519	4461.69
935.827	4445.19
936.135	4438.64
936.443	4364.29
936.751	4359.32
937.059	4325.87
937.367	4295.82
937.674	4330.62
937.982	4329.94
938.29	4277.97
938.597	4293.33
938.905	4220.12
939.213	4220.12
939.52	4167.91
939.827	4188.03
940.135	4201.58
940.442	4144.64
940.749	4174.01
941.056	4120.46
941.363	4074.58
941.67	4089.72
941.977	4022.61
942.284	4049.72
942.591	4049.95
942.898	4017.86
943.205	3969.27
943.511	3972.66
943.818	3932.21
944.125	3919.56
944.431	3905.1
944.738	3916.17
945.044	3922.27
945.35	3894.25
945.657	3890.41
945.963	3863.74
946.269	3814.7
946.575	3804.53
946.881	3787.36
947.187	3796.62
947.493	3720.02
947.799	3697.64
948.105	3719.11
948.41	3720.69
948.716	3675.04
949.022	3677.98
949.327	3659.9
949.633	3595.05
949.938	3627.81
950.244	3631.43
950.549	3604.54
950.854	3610.19
951.16	3574.71
951.465	3584.2
951.77	3513.92
952.075	3516.18
952.38	3499.46
952.685	3527.25
952.99	3486.35
953.294	3510.76
953.599	3422.17
953.904	3413.58
954.209	3438.44
954.513	3454.94
954.818	3400.25
955.122	3373.13
955.426	3369.29
955.731	3364.77
956.035	3336.52
956.339	3286.13
956.643	3297.43
956.948	3269.41
957.252	3261.72
957.556	3243.19
957.86	3219.46
958.163	3222.4
958.467	3229.63
958.771	3247.49
959.075	3182.4
959.378	3200.03
959.682	3167.71
959.985	3140.6
960.289	3138.11
960.592	3131.1
960.896	3110.77
961.199	3083.87
961.502	3092.46
961.805	3049.98
962.108	3038.68
962.411	3062.63
962.714	2995.06
963.017	2989.64
963.32	3005.91
963.623	2986.7
963.926	2981.5
964.228	2973.37
964.531	2929.75
964.833	2944.89
965.136	2917.32
965.438	2914.61
965.741	2897.66
966.043	2895.86
966.345	2853.82
966.648	2853.82
966.95	2867.16
967.252	2844.11
967.554	2845.46
967.856	2847.27
968.158	2840.72
968.46	2828.51
968.761	2776.31
969.063	2766.37
969.365	2772.92
969.666	2755.29
969.968	2763.43
970.269	2736.76
970.571	2704
970.872	2744.22
971.174	2680.95
971.475	2688.63
971.776	2663.77
972.077	2654.96
972.378	2668.07
972.679	2642.3
972.98	2618.35
973.281	2609.99
973.582	2632.81
973.883	2604.34
974.183	2610.67
974.484	2574.73
974.785	2561.85
975.085	2518.01
975.386	2541.29
975.686	2534.28
975.986	2502.87
976.287	2495.87
976.587	2456.55
976.887	2498.35
977.187	2462.42
977.487	2459.71
977.787	2469.65
978.087	2425.13
978.387	2409.32
978.687	2418.58
978.987	2410.45
979.286	2363.89
979.586	2376.32
979.885	2360.73
980.185	2374.51
980.484	2348.3
980.784	2390.11
981.083	2352.14
981.382	2318.92
981.682	2298.58
981.981	2318.02
982.28	2321.18
982.579	2282.99
982.878	2272.14
983.177	2275.53
983.475	2271.92
983.774	2250.22
984.073	2222.65
984.372	2217.46
984.67	2233.73
984.969	2198.47
985.267	2233.95
985.566	2205.7
985.864	2188.98
986.162	2176.33
986.461	2168.87
986.759	2146.95
987.057	2099.27
987.355	2145.37
987.653	2131.58
987.951	2123.22
988.249	2085.48
988.547	2101.75
988.844	2066.73
989.142	2047.52
989.44	2075.09
989.737	2115.54
990.035	2023.11
990.332	2029.89
990.63	2017.46
990.927	1976.11
991.224	1985.6
991.521	1979.72
991.819	1957.58
992.116	1977.24
992.413	1972.72
992.71	1959.38
993.006	1953.96
993.303	1957.8
993.6	1941.3
993.897	1937.92
994.193	1965.03
994.49	1873.74
994.787	1910.12
995.083	1884.13
995.379	1863.79
995.676	1880.06
995.972	1890.46
996.268	1839.84
996.565	1875.54
996.861	1850.23
997.157	1845.26
997.453	1833.96
997.749	1814.53
998.044	1819.27
998.34	1799.61
998.636	1786.28
998.932	1783.12
999.227	1772.95
999.523	1751.03
999.818	1745.38
1000.114	1744.47
1000.409	1714.87
1000.704	1701.99
1001	1742.44
1001.295	1662.89
1001.59	1706.51
1001.885	1718.71
1002.18	1718.94
1002.475	1673.97
1002.77	1638.71
1003.065	1656.79
1003.359	1627.41
1003.654	1658.15
1003.949	1626.51
1004.243	1594.87
1004.538	1615.44
1004.832	1628.32
1005.127	1611.82
1005.421	1588.55
1005.715	1583.57
1006.009	1568.21
1006.304	1542.22
1006.598	1546.51
1006.892	1542.9
1007.186	1500.86
1007.48	1540.41
1007.773	1526.63
1008.067	1523.01
1008.361	1511.49
1008.655	1491.37
1008.948	1474.2
1009.242	1482.33
1009.535	1459.06
1009.829	1464.26
1010.122	1469.68
1010.415	1444.82
1010.708	1460.19
1011.001	1440.53
1011.295	1408.66
1011.588	1436.01
1011.881	1426.06
1012.173	1378.83
1012.466	1403.47
1012.759	1391.26
1013.052	1377.93
1013.344	1363.02
1013.637	1342
1013.93	1371.83
1014.222	1354.43
1014.514	1350.81
1014.807	1345.39
1015.099	1309.23
1015.391	1320.98
1015.683	1293.64
1015.976	1318.5
1016.268	1294.32
1016.56	1287.99
1016.851	1280.53
1017.143	1314.2
1017.435	1282.34
1017.727	1256.35
1018.018	1243.47
1018.31	1243.7
1018.602	1259.51
1018.893	1235.11
1019.185	1210.7
1019.476	1206.18
1019.767	1224.94
1020.058	1206.18
1020.35	1187.88
1020.641	1180.42
1020.932	1182
1021.223	1183.81
1021.514	1172.29
1021.804	1151.04
1022.095	1154.88
1022.386	1129.57
1022.677	1130.25
1022.967	1113.76
1023.258	1121.67
1023.548	1105.85
1023.839	1113.76
1024.129	1102
1024.419	1092.06
1024.709	1063.14
1025	1090.48
1025.29	1080.76
1025.58	1052.51
1025.87	1044.38
1026.16	1044.61
1026.449	1036.7
1026.739	1060.42
1027.029	1049.12
1027.319	1028.33
1027.608	1037.15
1027.898	1013.65
1028.187	1012.06
1028.477	989.69
1028.766	1002.57
1029.055	968.45
1029.344	991.5
1029.634	972.29
1029.923	996.47
1030.212	977.49
1030.501	945.17
1030.79	967.77
1031.078	951.73
1031.367	944.72
1031.656	940.43
1031.945	903.14
1032.233	914.21
1032.522	916.02
1032.81	931.39
1033.099	911.73
1033.387	901.11
1033.675	901.33
1033.963	862.92
1034.251	906.76
1034.54	908.79
1034.828	887.55
1035.116	855.68
1035.403	841.22
1035.691	851.84
1035.979	864.5
1036.267	855.01
1036.554	853.65
1036.842	852.75
1037.129	843.03
1037.417	850.03
1037.704	832.86
1037.992	809.58
1038.279	819.53
1038.566	801.45
1038.853	801.45
1039.14	801.45
