Data from whiteboard_FLMS001491_00080.txt Node
Date: Wed Feb 08 11:28:04 GMT 2017
User: dcchb
Spectrometer: FLMS00149
Trigger mode: 0
Integration Time (sec): 2.000000E-2
Scans to average: 10
Electric dark correction enabled: true
Nonlinearity correction enabled: false
Boxcar width: 0
XAxis mode: Wavelengths
Number of Pixels in Spectrum: 2048
>>>>>Begin Spectral Data<<<<<
341.393	2.27
341.776	2.27
342.16	2.27
342.543	-60.32
342.927	-41.11
343.31	-61.23
343.693	-67.78
344.077	-72.53
344.46	-45.41
344.843	-75.46
345.226	-60.32
345.61	-20.1
345.993	-8.35
346.376	22.16
346.759	7.92
347.142	21.48
347.525	44.31
347.908	53.12
348.291	96.06
348.674	84.76
349.057	81.37
349.44	127.47
349.823	150.29
350.206	179.22
350.588	244.08
350.971	240.69
351.354	228.48
351.737	269.16
352.119	266.45
352.502	302.61
352.884	322.72
353.267	315.03
353.65	317.75
354.032	327.24
354.414	328.37
354.797	358.65
355.179	353
355.562	376.5
355.944	381.47
356.326	374.69
356.709	383.73
357.091	350.97
357.473	366.78
357.855	372.66
358.238	373.34
358.62	381.7
359.002	382.38
359.384	373.79
359.766	398.2
360.148	378.08
360.53	358.87
360.912	381.02
361.294	379.44
361.676	357.74
362.057	377.63
362.439	373.79
362.821	383.05
363.203	379.89
363.584	360.23
363.966	353.68
364.348	365.88
364.729	340.34
365.111	363.85
365.493	366.78
365.874	364.07
366.256	363.62
366.637	384.41
367.019	373.79
367.4	383.05
367.781	367.91
368.163	346.45
368.544	370.85
368.925	369.27
369.306	377.41
369.688	371.08
370.069	348.25
370.45	362.72
370.831	369.5
371.212	364.75
371.593	354.36
371.974	362.04
372.355	385.54
372.736	369.27
373.117	385.99
373.498	353.23
373.879	365.2
374.26	375.37
374.641	369.5
375.021	374.24
375.402	366.78
375.783	390.51
376.163	382.6
376.544	408.82
376.925	382.83
377.305	382.83
377.686	392.09
378.066	400.23
378.447	378.99
378.827	402.49
379.208	411.98
379.588	383.51
379.968	407.01
380.349	386.67
380.729	392.77
381.109	407.24
381.489	421.7
381.87	403.39
382.25	399.55
382.63	417.86
383.01	420.34
383.39	429.83
383.77	416.27
384.15	423.73
384.53	436.84
384.91	437.06
385.29	450.62
385.67	446.33
386.049	479.1
386.429	464.41
386.809	442.26
387.189	436.61
387.568	462.37
387.948	448.36
388.328	469.61
388.707	466.89
389.087	463.5
389.466	477.52
389.846	503.28
390.225	484.3
390.605	511.64
390.984	496.95
391.363	509.61
391.743	526.55
392.122	510.51
392.501	529.49
392.881	514.58
393.26	545.08
393.639	563.39
394.018	545.08
394.397	574.46
394.776	562.49
395.155	569.49
395.534	574.46
395.913	596.83
396.292	626.66
396.671	610.17
397.05	616.95
397.429	607.68
397.808	617.63
398.186	637.51
398.565	666.66
398.944	650.62
399.323	688.36
399.701	693.78
400.08	698.75
400.458	706.44
400.837	681.13
401.215	709.83
401.594	714.35
401.972	752.99
402.351	737.85
402.729	762.93
403.107	797.73
403.486	818.52
403.864	828.92
404.242	804.06
404.62	803.83
404.999	873.21
405.377	872.08
405.755	865.98
406.133	897.84
406.511	938.97
406.889	935.36
407.267	959.54
407.645	972.87
408.023	1003.38
408.401	1005.86
408.779	1038.18
409.156	1072.53
409.534	1076.82
409.912	1092.19
410.29	1130.83
410.667	1122.24
411.045	1147.33
411.422	1171.96
411.8	1211.51
412.178	1231.62
412.555	1256.93
412.933	1278.4
413.31	1298.06
413.687	1322.24
414.065	1335.35
414.442	1367.89
414.819	1391.16
415.197	1390.49
415.574	1399.07
415.951	1449.02
416.328	1451.05
416.705	1479.52
417.082	1498.96
417.46	1530.82
417.837	1537.15
418.214	1560.88
418.591	1581.44
418.967	1574.44
419.344	1619.86
419.721	1631.16
420.098	1641.78
420.475	1677.48
420.852	1688.56
421.228	1718.39
421.605	1751.38
421.982	1771.04
422.358	1779.85
422.735	1806.29
423.111	1787.76
423.488	1806.97
423.864	1863.02
424.241	1868.44
424.617	1901.43
424.994	1916.35
425.37	1955.44
425.746	1948.21
426.123	1960.87
426.499	1997.7
426.875	2031.15
427.251	2086.96
427.627	2091.48
428.003	2111.15
428.379	2176.23
428.756	2160.64
429.132	2223.23
429.507	2265.94
429.883	2298.94
430.259	2306.62
430.635	2340.29
431.011	2332.83
431.387	2413.96
431.763	2452.38
432.138	2464.36
432.514	2516.33
432.89	2566.27
433.265	2603.79
433.641	2627.06
434.016	2655.99
434.392	2665.48
434.767	2734.63
435.143	2746.38
435.518	2773.27
435.894	2772.14
436.269	2843.33
436.644	2910.45
437.02	2908.41
437.395	2915.19
437.77	2998.58
438.145	3042.65
438.52	3020.27
438.895	3095.3
439.271	3091.91
439.646	3184.34
440.021	3190.89
440.395	3222.98
440.77	3211
441.145	3201.29
441.52	3315.41
441.895	3308.85
442.27	3331.68
442.645	3284.22
443.019	3395.18
443.394	3325.58
443.769	3459.58
444.143	3369.87
444.518	3488.96
444.892	3496.65
445.267	3551.79
445.641	3565.12
446.016	3556.08
446.39	3593.14
446.764	3617.32
447.139	3618
447.513	3680.37
447.887	3675.4
448.262	3707.26
448.636	3701.61
449.01	3803.76
449.384	3849.86
449.758	3856.41
450.132	3881.27
450.506	3951.77
450.88	3958.33
451.254	3938.89
451.628	4000.13
452.002	4040.59
452.376	4117.87
452.75	4175.95
453.123	4211.43
453.497	4247.36
453.871	4315.15
454.244	4345.44
454.618	4435.83
454.992	4451.65
455.365	4475.83
455.739	4601.02
456.112	4650.97
456.486	4650.97
456.859	4754.69
457.232	4759.21
457.606	4841.69
457.979	4916.27
458.352	4949.26
458.725	5027.45
459.099	5067.23
459.472	5152.65
459.845	5211.18
460.218	5274.45
460.591	5356.71
460.964	5346.31
461.337	5503.6
461.71	5543.6
462.083	5657.72
462.456	5635.8
462.829	5678.51
463.201	5751.73
463.574	5861.78
463.947	5862.23
464.32	5999.86
464.692	6076.01
465.065	6089.35
465.438	6222.9
465.81	6321.2
466.183	6335.89
466.555	6536.11
466.928	6553.97
467.3	6497.47
467.672	6660.18
468.045	6762.1
468.417	6876.9
468.789	6912.6
469.161	7006.38
469.534	7155.08
469.906	7285.02
470.278	7307.84
470.65	7410.67
471.022	7505.13
471.394	7776.08
471.766	7761.17
472.138	7894.27
472.51	8032.35
472.882	8197.31
473.253	8189.4
473.625	8413.58
473.997	8525.21
474.369	8570.41
474.74	8713.91
475.112	8918.2
475.484	9051.3
475.855	9115.93
476.227	9226.66
476.598	9533.1
476.97	9560.21
477.341	9890.6
477.713	9959.3
478.084	10037.26
478.455	10291.72
478.827	10314.09
479.198	10604.48
479.569	10641.54
479.94	11006.96
480.311	11093.96
480.682	11314.52
481.053	11597
481.424	11753.83
481.795	11798.35
482.166	12084.44
482.537	12255.51
482.908	12468.61
483.279	12592.9
483.65	12808.26
484.021	13072.89
484.391	13234.24
484.762	13440.11
485.133	13540
485.503	13748.35
485.874	13982.02
486.244	14181.11
486.615	14486.64
486.985	14531.16
487.356	14862
487.726	14847.08
488.097	15288.2
488.467	15326.62
488.837	15654.74
489.207	15846.15
489.578	16055.19
489.948	16158.01
490.318	16402.07
490.688	16515.74
491.058	16751.66
491.428	16977.19
491.798	17168.83
492.168	17434.58
492.538	17462.15
492.908	17736.04
493.278	17969.94
493.648	17967.68
494.017	18235.92
494.387	18332.87
494.757	18527.66
495.126	18682.01
495.496	18806.53
495.866	18905.51
496.235	19141.21
496.605	19378.49
496.974	19389.33
497.344	19609.67
497.713	19727.86
498.082	19869.1
498.452	19982.77
498.821	20179.37
499.19	20166.94
499.559	20467.5
499.928	20556.31
500.298	20756.53
500.667	20875.85
501.036	20924.21
501.405	21143.64
501.774	21167.14
502.143	21374.37
502.512	21504.99
502.88	21697.07
503.249	21628.82
503.618	21922.15
503.987	22082.15
504.356	22210.96
504.724	22230.16
505.093	22467.45
505.462	22478.75
505.83	22794.44
506.199	22928.9
506.567	23261.1
506.936	23232.85
507.304	23438.95
507.672	23595.1
508.041	23640.07
508.409	23895.21
508.777	24052.04
509.145	24224.91
509.514	24344.46
509.882	24445.7
510.25	24537.67
510.618	24726.37
510.986	24900.38
511.354	25145.12
511.722	25298.33
512.09	25580.81
512.458	25483.64
512.826	25808.83
513.193	25883.4
513.561	25955.26
513.929	26261.24
514.297	26396.61
514.664	26656.94
515.032	26722.93
515.4	26975.35
515.767	27081.79
516.135	27269.81
516.502	27245.17
516.869	27639.06
517.237	27762
517.604	27760.64
517.972	28025.04
518.339	28279.95
518.706	28333.73
519.073	28516.33
519.44	28685.36
519.808	29019.14
520.175	29008.29
520.542	29370.09
520.909	29423.65
521.276	29598.11
521.643	29929.4
522.009	30087.36
522.376	30445.09
522.743	30553.56
523.11	30710.39
523.477	31150.16
523.843	31289.13
524.21	31615.45
524.577	31813.87
524.943	31964.82
525.31	32230.13
525.676	32463.12
526.043	32675.31
526.409	32873.73
526.776	33172.48
527.142	33172.48
527.508	33419.7
527.874	33796.41
528.241	33848.39
528.607	34048.84
528.973	34355.27
529.339	34449.73
529.705	34736.05
530.071	35093.55
530.437	34954.12
530.803	35290.84
531.169	35529.7
531.535	35553.88
531.901	35707.32
532.267	35955.9
532.632	36217.14
532.998	36387.76
533.364	36554.99
533.73	36591.37
534.095	36976.67
534.461	37118.13
534.826	37236.32
535.192	37403.32
535.557	37588.63
535.923	37444.68
536.288	37722.64
536.653	37738.23
537.019	37864.1
537.384	37979.81
537.749	38265.9
538.114	38420.92
538.479	38405.33
538.845	38614.37
539.21	38695.49
539.575	38748.83
539.94	38923.51
540.305	39226.1
540.67	39257.51
541.034	39441.46
541.399	39618.18
541.764	39606.2
542.129	39740.89
542.494	39756.71
542.858	39952.41
543.223	40007.55
543.587	40283.25
543.952	40235.79
544.316	40408.67
544.681	40436.92
545.045	40769.11
545.41	41052.04
545.774	41009.33
546.138	41039.39
546.503	41107.41
546.867	41306.5
547.231	41636.66
547.595	41751.23
547.959	41919.36
548.324	41944.67
548.688	42065.57
549.052	42103.77
549.416	42305.12
549.779	42269.41
550.143	42450.2
550.507	42802.73
550.871	42770.41
551.235	42889.73
551.599	43235.49
551.962	43381.47
552.326	43490.62
552.689	43771.52
553.053	43602.94
553.417	43709.37
553.78	44244.95
554.143	44076.6
554.507	44206.08
554.87	44329.92
555.234	44794.99
555.597	44628.67
555.96	44793.41
556.323	44856.46
556.686	45023.24
557.05	45276.56
557.413	45368.09
557.776	45489.89
558.139	45700.28
558.502	45849.66
558.865	45902.31
559.228	46211.91
559.59	46413.93
559.953	46440.83
560.316	46944.09
560.679	46981.83
561.041	47084.88
561.404	47356.96
561.767	47564.19
562.129	47442.38
562.492	47854.58
562.854	47817.51
563.217	48022.03
563.579	48128.47
563.941	48326.2
564.304	48494.56
564.666	48801.44
565.028	48701.56
565.39	48829.46
565.753	49123.92
566.115	49132.06
566.477	49248.21
566.839	49442.56
567.201	49707.18
567.563	49795.09
567.925	49993.95
568.287	49965.25
568.648	50095.65
569.01	50272.14
569.372	50356.43
569.734	50324.34
570.095	50624.22
570.457	50823.99
570.819	50803.42
571.18	50912.8
571.542	50969.52
571.903	51090.42
572.265	51215.16
572.626	51288.61
572.987	51323.18
573.349	51523.63
573.71	51590.75
574.071	51720.01
574.432	51807.24
574.794	52005.43
575.155	51927.46
575.516	51895.15
575.877	52004.97
576.238	52057.85
576.599	52324.97
576.96	52277.28
577.32	52392.99
577.681	52469.14
578.042	52536.94
578.403	52554.79
578.763	52557.73
579.124	52661.91
579.485	52846.53
579.845	52828.46
580.206	52779.19
580.566	52804.05
580.927	52812.18
581.287	52994.55
581.648	52850.83
582.008	52974.44
582.368	52962.46
582.728	53077.26
583.089	52948.68
583.449	52914.1
583.809	53137.6
584.169	53151.84
584.529	53050.82
584.889	53240.87
585.249	53103.02
585.609	53044.04
585.969	53345.73
586.329	53204.49
586.688	53166.98
587.048	53142.8
587.408	53178.05
587.768	53191.38
588.127	53173.53
588.487	53124.04
588.846	53346.86
589.206	53125.62
589.565	53223.25
589.925	53392.06
590.284	53220.31
590.643	53318.84
591.003	53344.15
591.362	53416.01
591.721	53268.44
592.08	53367.88
592.44	53463.24
592.799	53456.91
593.158	53399.74
593.517	53439.96
593.876	53409.68
594.235	53467.76
594.593	53418.27
594.952	53505.5
595.311	53393.64
595.67	53350.93
596.029	53598.15
596.387	53438.84
596.746	53548.44
597.104	53348.22
597.463	53355.67
597.822	53447.2
598.18	53465.05
598.538	53370.14
598.897	53656.46
599.255	53424.15
599.613	53790.92
599.972	53601.54
600.33	53623.69
600.688	53599.51
601.046	53712.73
601.404	53753.4
601.762	53658.04
602.12	53809.45
602.478	53753.18
602.836	53794.76
603.194	53671.37
603.552	53725.61
603.91	53695.78
604.268	53780.75
604.625	53727.87
604.983	53834.08
605.341	53668.66
605.698	53777.58
606.056	53879.95
606.413	53827.75
606.771	53906.85
607.128	53958.14
607.485	53892.38
607.843	53911.59
608.2	54044.92
608.557	54181.41
608.914	54025.71
609.272	54183.9
609.629	54194.07
609.986	54320.85
610.343	54194.07
610.7	54425.02
611.057	54248.76
611.414	54339.83
611.771	54410.79
612.127	54467.73
612.484	54402.2
612.841	54415.76
613.198	54401.3
613.554	54430.67
613.911	54559.71
614.267	54526.94
614.624	54406.72
614.98	54467.28
615.337	54699.59
615.693	54609.43
616.05	54530.56
616.406	54714.73
616.762	54598.13
617.118	54669.09
617.475	54607.39
617.831	54720.84
618.187	54706.15
618.543	54702.76
618.899	54914.95
619.255	54763.55
619.611	54709.31
619.967	54953.37
620.323	54915.18
620.678	54838.35
621.034	54771.46
621.39	54710.89
621.746	54691.23
622.101	54982.07
622.457	54745.24
622.812	54789.31
623.168	54788.18
623.523	54849.87
623.879	54877.22
624.234	54701.17
624.589	54708.18
624.945	54873.83
625.3	54774.85
625.655	54868.85
626.01	54831.11
626.365	54831.57
626.72	54787.95
627.075	54773.26
627.43	54819.59
627.785	54752.02
628.14	54687.16
628.495	54737.78
628.85	54781.62
629.205	54663.44
629.559	54696.66
629.914	54582.08
630.269	54550.9
630.623	54509.32
630.978	54475.87
631.332	54542.08
631.687	54548.86
632.041	54383.89
632.396	54433.16
632.75	54321.07
633.104	54365.59
633.459	54227.51
633.813	54283.56
634.167	54272.71
634.521	54190.23
634.875	54209.21
635.229	54175.09
635.583	54035.43
635.937	54020.51
636.291	54004.02
636.645	54017.8
636.999	53850.58
637.352	54003.11
637.706	53742.56
638.06	53853.97
638.413	53826.62
638.767	53765.83
639.121	53752.05
639.474	53582.11
639.828	53633.18
640.181	53661.43
640.534	53677.7
640.888	53585.72
641.241	53484.26
641.594	53463.02
641.947	53580.3
642.301	53400.87
642.654	53451.94
643.007	53363.58
643.36	53468.21
643.713	53424.37
644.066	53490.36
644.419	53237.94
644.771	53056.7
645.124	52674.34
645.477	52574.9
645.83	52421.91
646.182	52374.91
646.535	52347.34
646.888	52303.95
647.24	52189.38
647.593	52345.98
647.945	52331.97
648.298	52143.05
648.65	52002.71
649.002	51951.64
649.355	52062.83
649.707	51980.57
650.059	52039.1
650.411	52397.96
650.763	52468.92
651.115	52848.79
651.467	52652.19
651.819	52725.63
652.171	52633.88
652.523	52566.54
652.875	52573.77
653.227	52423.49
653.578	52561.12
653.93	52524.51
654.282	52423.27
654.633	52285.64
654.985	52297.17
655.337	52329.03
655.688	52315.47
656.039	52377.17
656.391	52038.19
656.742	52082.03
657.094	52117.29
657.445	52184.4
657.796	52147.57
658.147	51911.64
658.498	51950.96
658.849	52020.12
659.2	51967.24
659.551	51816.05
659.902	51932.43
660.253	51776.96
660.604	51877.07
660.955	51737.18
661.306	51870.74
661.656	51840.46
662.007	51730.41
662.358	51706.9
662.708	51730.18
663.059	51732.21
663.409	51477.08
663.76	51744.64
664.11	51738.09
664.461	51744.42
664.811	51603.63
665.161	51648.15
665.511	51575.61
665.862	51527.7
666.212	51629.62
666.562	51564.31
666.912	51524.54
667.262	51423.97
667.612	51522.28
667.962	51469.85
668.312	51364.54
668.662	51487.02
669.011	51395.5
669.361	51450.86
669.711	51339.23
670.06	51319.12
670.41	51148.5
670.76	51158.44
671.109	51301.94
671.459	51213.13
671.808	51146.24
672.157	51137.88
672.507	50994.38
672.856	50962.74
673.205	51019.92
673.554	51062.17
673.904	50986.24
674.253	51147.6
674.602	50939.24
674.951	50456.54
675.3	50300.16
675.649	50842.97
675.998	50778.11
676.346	50854.27
676.695	50886.13
677.044	50582.19
677.393	50661.73
677.741	50735.86
678.09	50593.03
678.438	50522.53
678.787	50504
679.135	50489.08
679.484	50431.68
679.832	50466.94
680.181	50231.01
680.529	50336.77
680.877	50252.25
681.225	50085.93
681.573	50352.59
681.922	50038.25
682.27	49919.61
682.618	49905.14
682.966	49814.3
683.314	49875.31
683.661	49838.93
684.009	49684.13
684.357	49488.2
684.705	49412.73
685.053	49371.37
685.4	49400.07
685.748	49214.09
686.095	49136.8
686.443	49080.76
686.79	49009.35
687.138	49116.91
687.485	49072.17
687.832	48808.67
688.18	48794.66
688.527	48645.97
688.874	48676.25
689.221	48618.4
689.568	48362.36
689.915	48271.29
690.262	48285.3
690.609	48033.33
690.956	47996.04
691.303	48031.97
691.65	47722.15
691.997	47730.06
692.344	47507.92
692.69	47487.58
693.037	47414.36
693.383	47137.53
693.73	47253.46
694.077	47052.11
694.423	46990.42
694.769	46744.55
695.116	46651.44
695.462	46737.32
695.808	46635.62
696.155	46769.86
696.501	46323.77
696.847	46291.23
697.193	46075.41
697.539	46183.21
697.885	45857.34
698.231	45726.72
698.577	45679.27
698.923	45690.79
699.269	45496.44
699.614	45248.77
699.96	45154.76
700.306	45139.62
700.651	44903.47
700.997	44830.7
701.342	44899.62
701.688	44659.4
702.033	44542.8
702.379	44482.46
702.724	44338.51
703.069	44363.14
703.415	43923.38
703.76	43915.7
704.105	43941.01
704.45	43697.85
704.795	43623.05
705.14	43423.96
705.485	43505.31
705.83	43253.34
706.175	43421.25
706.52	43256.96
706.865	43025.55
707.209	43046.79
707.554	42868.04
707.899	42856.06
708.243	42746.46
708.588	42534.49
708.932	42350.09
709.277	42372.23
709.621	42502.85
709.966	42275.51
710.31	42310.77
710.654	41868.07
710.998	42107.38
711.342	42004.11
711.687	41689.31
712.031	41614.74
712.375	41537.68
712.719	41704.68
713.063	41610.67
713.407	41645.02
713.75	41397.34
714.094	41220.85
714.438	41280.74
714.782	41299.04
715.125	40965.94
715.469	40912.38
715.812	40839.84
716.156	40633.07
716.499	40694.31
716.843	40747.87
717.186	40330.25
717.53	40516.91
717.873	40446.86
718.216	40317.82
718.559	40274.66
718.902	39909.7
719.246	40095.01
719.589	39817.72
719.932	39736.37
720.275	39804.62
720.617	39589.48
720.96	39666.99
721.303	39508.13
721.646	39441.01
721.989	39354.46
722.331	39432.88
722.674	39246.44
723.016	39297.96
723.359	39154.69
723.701	39149.95
724.044	38885.55
724.386	38757.19
724.729	38808.03
725.071	38820.01
725.413	38645.33
725.755	38601.71
726.097	38578.43
726.439	38189.52
726.782	38223.19
727.124	38477.19
727.465	38141.61
727.807	37973.93
728.149	38023.87
728.491	37786.37
728.833	37929.41
729.175	37728.97
729.516	37599.25
729.858	37604.68
730.199	37467.28
730.541	37535.75
730.882	37332.14
731.224	37485.81
731.565	37304.12
731.906	37262.09
732.248	37289.2
732.589	37286.72
732.93	36979.15
733.271	36933.51
733.612	36997.23
733.953	36891.02
734.294	36821.87
734.635	36600.63
734.976	36764.25
735.317	36451.71
735.658	36472.73
735.999	36557.7
736.339	36354.54
736.68	36340.98
737.021	36308.21
737.361	36152.96
737.702	36304.14
738.042	36146.63
738.383	35993.19
738.723	36098.05
739.063	35916.58
739.404	35877.49
739.744	35860.31
740.084	35700.09
740.424	35695.35
740.764	35501.45
741.104	35731.73
741.444	35331.97
741.784	35426.43
742.124	35481.79
742.464	35162.25
742.804	35190.95
743.143	35093.78
743.483	35205.42
743.823	34843.39
744.162	35050.17
744.502	34955.03
744.841	34639.1
745.181	34966.1
745.52	34795.71
745.86	34737.41
746.199	34602.95
746.538	34577.64
746.877	34715.94
747.216	34717.75
747.556	34417.64
747.895	34482.27
748.234	34234.59
748.573	34249.06
748.911	34154.14
749.25	34174.93
749.589	34023.07
749.928	34030.08
750.267	34085.9
750.605	34020.14
750.944	33874.15
751.283	33812.46
751.621	33782.4
751.96	33681.84
752.298	33685.91
752.636	33661.05
752.975	33414.05
753.313	33228.29
753.651	33385.58
753.989	33246.37
754.327	33071.01
754.666	32918.02
755.004	33040.5
755.342	33080.73
755.679	32961.41
756.017	32520.29
756.355	32738.14
756.693	32581.3
757.031	32443
757.368	32581.53
757.706	32380.18
758.044	32207.3
758.381	32255.89
758.719	32090.47
759.056	32133.86
759.394	31863.81
759.731	31745.17
760.068	31633.31
760.405	31611.16
760.743	31448.9
761.08	31552.4
761.417	31364.61
761.754	31337.95
762.091	31223.37
762.428	31001.46
762.765	30900.22
763.102	31001.23
763.438	30875.13
763.775	30576.39
764.112	30714.69
764.449	30718.3
764.785	30486.67
765.122	30306.56
765.458	30263.4
765.795	30112.44
766.131	30112.67
766.467	29996.74
766.804	29881.94
767.14	29727.59
767.476	29679.91
767.812	29463.65
768.148	29567.37
768.485	29325.8
768.821	29220.26
769.157	29106.82
769.492	28952.47
769.828	28923.77
770.164	28829.31
770.5	28713.61
770.836	28686.94
771.171	28491.24
771.507	28436.78
771.842	28302.09
772.178	28177.58
772.513	28246.96
772.849	27924.03
773.184	27842.9
773.519	27841.09
773.855	27741.21
774.19	27706.86
774.525	27600.64
774.86	27466.41
775.195	27320.2
775.53	27262.8
775.865	27152.52
776.2	26951.4
776.535	26786.2
776.87	26748.24
777.205	26600.44
777.539	26483.39
777.874	26635.02
778.209	26235.26
778.543	26293.11
778.878	26134.69
779.212	26071.87
779.547	25931.99
779.881	25995.26
780.215	25778.09
780.55	25858.09
780.884	25578.1
781.218	25509.17
781.552	25523.41
781.886	25182.63
782.22	25259.46
782.554	25101.05
782.888	25035.06
783.222	24853.37
783.556	24777.67
783.889	24698.8
784.223	24428.98
784.557	24439.37
784.89	24459.48
785.224	24273.95
785.557	24245.7
785.891	24153.5
786.224	24105.14
786.558	24002.32
786.891	23839.39
787.224	23751.93
787.557	23647.3
787.891	23594.2
788.224	23486.4
788.557	23476.91
788.89	23358.72
789.223	23403.24
789.556	23217.71
789.888	22989.01
790.221	22931.61
790.554	22770.26
790.887	22758.96
791.219	22691.39
791.552	22598.74
791.884	22546.09
792.217	22522.13
792.549	22299.54
792.882	22236.94
793.214	22163.05
793.546	22194.46
793.879	21948.14
794.211	21895.94
794.543	21953.11
794.875	21942.26
795.207	21986.55
795.539	21798.99
795.871	21755.37
796.203	21561.93
796.535	21496.4
796.867	21429.28
797.198	21384.31
797.53	21377.31
797.862	21132.57
798.193	21203.98
798.525	21073.58
798.856	21079.46
799.188	20849.18
799.519	20891.44
799.85	20759.24
800.182	20729.41
800.513	20666.36
800.844	20478.8
801.175	20663.88
801.506	20564.9
801.837	20368.74
802.168	20457.78
802.499	20298.92
802.83	20187.51
803.161	20077.9
803.491	20152.03
803.822	20029.09
804.153	19933.73
804.483	19773.51
804.814	19751.13
805.145	19799.95
805.475	19646.05
805.805	19562.89
806.136	19597.46
806.466	19639.72
806.796	19580.52
807.126	19377.81
807.457	19284.93
807.787	19343.69
808.117	19256.23
808.447	19230.69
808.777	19250.81
809.107	19140.98
809.436	19028.67
809.766	19049.23
810.096	19004.71
810.426	18942.57
810.755	19012.85
811.085	18838.16
811.414	18899.4
811.744	18730.14
812.073	18702.35
812.403	18700.99
812.732	18557.72
813.061	18685.4
813.39	18459.19
813.719	18323.15
814.049	18482.69
814.378	18409.02
814.707	18339.42
815.036	18243.6
815.365	18199.76
815.693	18006.32
816.022	18102.81
816.351	18038.86
816.68	17924.97
817.008	17943.5
817.337	17829.38
817.665	17744.86
817.994	17884.97
818.322	17864.18
818.651	17633.22
818.979	17608.36
819.307	17635.48
819.636	17576.5
819.964	17465.09
820.292	17474.13
820.62	17455.83
820.948	17404.75
821.276	17558.2
821.604	17452.21
821.932	17388.03
822.259	17399.33
822.587	17276.4
822.915	17307.58
823.243	17376.51
823.57	17313.01
823.898	17404.3
824.225	17365.21
824.553	17226.91
824.88	17273.01
825.207	17426.67
825.535	17220.8
825.862	17350.97
826.189	17183.29
826.516	17287.7
826.843	17300.58
827.17	17251.99
827.497	17242.05
827.824	17372.21
828.151	17345.77
828.478	17317.52
828.805	17373.57
829.131	17253.8
829.458	17223.74
829.785	17072.11
830.111	17181.03
830.438	17266.23
830.764	17180.58
831.09	17207.7
831.417	17123.18
831.743	17185.32
832.069	17146
832.395	17120.92
832.722	17116.17
833.048	16978.32
833.374	17069.17
833.7	16911.21
834.026	17025.33
834.351	16993.01
834.677	17021.49
835.003	16987.36
835.329	17023.07
835.654	16875.95
835.98	16823.53
836.306	16715.73
836.631	16707.15
836.956	16908.04
837.282	16787.37
837.607	16733.59
837.932	16702.85
838.258	16681.61
838.583	16641.61
838.908	16471.22
839.233	16522.74
839.558	16495.85
839.883	16484.1
840.208	16389.19
840.533	16383.99
840.858	16401.16
841.182	16400.94
841.507	16272.81
841.832	16293.37
842.156	16194.39
842.481	16327.49
842.805	16201.17
843.13	16108.74
843.454	16092.25
843.778	16066.71
844.103	15942.19
844.427	15934.74
844.751	15915.75
845.075	15853.61
845.399	15868.07
845.723	15664.01
846.047	15716.89
846.371	15588.53
846.695	15603.45
847.019	15403.22
847.343	15400.06
847.666	15334.07
847.99	15286.62
848.313	15249.78
848.637	15099.73
848.96	15130.69
849.284	15070.35
849.607	14988.09
849.931	14975.89
850.254	14849.57
850.577	14727.99
850.9	14648.44
851.223	14642.57
851.546	14540.42
851.869	14468.33
852.192	14669.91
852.515	14423.36
852.838	14313.76
853.161	14377.72
853.483	14247.1
853.806	14213.88
854.129	14169.59
854.451	14095.91
854.774	14037.61
855.096	14033.54
855.419	14072.64
855.741	13943.38
856.063	13783.61
856.385	13864.96
856.708	13767.79
857.03	13732.31
857.352	13773.44
857.674	13690.28
857.996	13730.5
858.318	13567.57
858.64	13577.06
858.961	13576.83
859.283	13481.02
859.605	13372.32
859.926	13427.91
860.248	13382.04
860.57	13329.83
860.891	13351.53
861.212	13303.39
861.534	13200.35
861.855	13227.69
862.176	13143.17
862.498	13159.22
862.819	13191.31
863.14	13023.85
863.461	13057.52
863.782	13037.64
864.103	12942.72
864.424	12968.03
864.745	12956.28
865.065	13019.33
865.386	12909.73
865.707	12879
866.027	12850.75
866.348	12860.01
866.668	12891.88
866.989	12756.97
867.309	12730.98
867.63	12726.46
867.95	12683.52
868.27	12584.09
868.59	12645.78
868.91	12584.09
869.23	12653.01
869.55	12589.06
869.87	12664.77
870.19	12593.13
870.51	12565.56
870.83	12534.37
871.15	12445.56
871.469	12466.58
871.789	12481.95
872.109	12386.81
872.428	12376.64
872.748	12395.62
873.067	12352.23
873.386	12359.92
873.706	12282.86
874.025	12217.77
874.344	12269.3
874.663	12282.18
874.982	12298.67
875.301	12242.86
875.62	12134.61
875.939	12154.27
876.258	12197.43
876.577	12082.63
876.896	12029.3
877.214	12015.74
877.533	12093.71
877.852	12036.08
878.17	12039.7
878.489	12029.08
878.807	11939.14
879.125	12011.9
879.444	12044.9
879.762	11854.17
880.08	11954.28
880.398	11867.27
880.716	11872.02
881.034	11854.39
881.352	11730.1
881.67	11751.34
881.988	11742.08
882.306	11750.89
882.624	11654.62
882.941	11602.19
883.259	11539.82
883.577	11557.22
883.894	11493.72
884.212	11527.39
884.529	11532.59
884.846	11557.22
885.164	11479.94
885.481	11375.08
885.798	11411.01
886.115	11303.45
886.432	11356.55
886.75	11316.33
887.067	11232.49
887.383	11257.12
887.7	11272.26
888.017	11135.99
888.334	11122.21
888.651	11131.47
888.967	11169.21
889.284	11038.82
889.6	11001.76
889.917	10937.81
890.233	10948.43
890.55	10922.89
890.866	10928.09
891.182	10856.9
891.498	10782.78
891.815	10746.62
892.131	10749.56
892.447	10709.56
892.763	10662.11
893.079	10630.02
893.395	10637.47
893.71	10512.96
894.026	10554.31
894.342	10440.42
894.657	10446.97
894.973	10452.39
895.289	10433.86
895.604	10341.66
895.92	10291.04
896.235	10278.84
896.55	10238.84
896.865	10223.02
897.181	10156.58
897.496	10176.24
897.811	10158.62
898.126	10119.3
898.441	10053.99
898.756	9992.29
899.071	9967.44
899.386	9935.12
899.7	9874.1
900.015	9844.95
900.33	9736.48
900.644	9757.05
900.959	9764.5
901.273	9729.93
901.588	9658.52
901.902	9610.83
902.216	9617.16
902.531	9568.12
902.845	9515.7
903.159	9422.59
903.473	9452.19
903.787	9411.07
904.101	9283.16
904.415	9352.31
904.729	9279.54
905.042	9207.23
905.356	9242.93
905.67	9269.37
905.984	9253.1
906.297	9186.67
906.611	9142.6
906.924	9037.06
907.237	9047.23
907.551	9007.69
907.864	8898.76
908.177	8950.97
908.491	8921.36
908.804	8820.57
909.117	8730.41
909.43	8773.12
909.743	8757.52
910.056	8753.46
910.368	8642.72
910.681	8591.2
910.994	8551.43
911.307	8515.04
911.619	8474.37
911.932	8495.16
912.244	8409.74
912.557	8395.05
912.869	8339.46
913.181	8329.51
913.494	8352.11
913.806	8325.22
914.118	8163.19
914.43	8197.54
914.742	8180.59
915.054	8191.44
915.366	8110.54
915.678	8045.45
915.99	7949.18
916.302	7932.91
916.613	7951.22
916.925	7921.61
917.236	7844.55
917.548	7801.39
917.859	7862.41
918.171	7733.37
918.482	7784.89
918.794	7680.94
919.105	7712.35
919.416	7628.51
919.727	7575.63
920.038	7607.72
920.349	7459.7
920.66	7433.72
920.971	7507.16
921.282	7491.34
921.593	7417.22
921.903	7403.89
922.214	7396.66
922.525	7276.66
922.835	7292.03
923.146	7248.19
923.456	7262.42
923.767	7159.6
924.077	7182.42
924.387	7145.36
924.697	7162.31
925.008	7143.78
925.318	7058.59
925.628	7008.87
925.938	7022.88
926.248	6913.73
926.558	6896.1
926.867	6929.78
927.177	6838.93
927.487	6809.78
927.796	6776.11
928.106	6795.77
928.416	6756.67
928.725	6733.17
929.034	6705.6
929.344	6704.92
929.653	6673.96
929.962	6582.67
930.271	6574.08
930.581	6584.7
930.89	6470.58
931.199	6457.25
931.508	6466.28
931.817	6490.01
932.125	6418.38
932.434	6447.53
932.743	6346.74
933.051	6253.18
933.36	6301.09
933.669	6188.78
933.977	6269.91
934.286	6188.78
934.594	6151.26
934.902	6117.14
935.21	6131.6
935.519	6112.4
935.827	6094.54
936.135	6056.13
936.443	5953.3
936.751	5947.43
937.059	5951.27
937.367	5822.46
937.674	5879.18
937.982	5831.5
938.29	5889.58
938.597	5846.64
938.905	5791.05
939.213	5690.03
939.52	5711.95
939.827	5714.44
940.135	5664.95
940.442	5617.27
940.749	5635.57
941.056	5667.44
941.363	5560.55
941.67	5540.66
941.977	5495.69
942.284	5481
942.591	5445.75
942.898	5392.41
943.205	5401.45
943.511	5408.46
943.818	5382.02
944.125	5328.46
944.431	5335.47
944.738	5218.86
945.044	5233.55
945.35	5194
945.657	5191.97
945.963	5130.95
946.269	5170.05
946.575	5133.21
946.881	5085.3
947.187	5138.64
947.493	5087.11
947.799	5055.93
948.105	4997.62
948.41	4950.84
948.716	4988.81
949.022	4951.3
949.327	4920.56
949.633	4943.84
949.938	4914.24
950.244	4851.64
950.549	4852.32
950.854	4780.68
951.16	4807.8
951.465	4751.53
951.77	4753.79
952.075	4758.31
952.38	4748.59
952.685	4708.14
952.99	4624.53
953.294	4659.78
953.599	4629.04
953.904	4614.81
954.209	4566.67
954.513	4582.04
954.818	4556.28
955.122	4516.28
955.426	4545.66
955.731	4469.28
956.035	4515.15
956.339	4453
956.643	4422.95
956.948	4400.12
957.252	4400.58
957.556	4380.24
957.86	4325.78
958.163	4326.68
958.467	4307.47
958.771	4290.75
959.075	4262.27
959.378	4273.35
959.682	4234.93
959.985	4219.34
960.289	4216.4
960.592	4191.77
960.896	4158.55
961.199	4169.4
961.502	4150.64
961.805	4073.81
962.108	4072
962.411	4100.92
962.714	4086.01
963.017	3996.29
963.32	4027.25
963.623	3957.65
963.926	3995.39
964.228	3996.52
964.531	3972.11
964.833	3978.44
965.136	3901.38
965.438	3930.53
965.741	3907.93
966.043	3883.08
966.345	3843.75
966.648	3792.91
966.95	3817.31
967.252	3748.39
967.554	3795.39
967.856	3792.46
968.158	3700.71
968.46	3699.58
968.761	3705
969.063	3697.09
969.365	3663.65
969.666	3701.84
969.968	3636.53
970.269	3642.4
970.571	3589.98
970.872	3568.73
971.174	3574.16
971.475	3545.46
971.776	3549.98
972.077	3534.84
972.378	3497.78
972.679	3533.71
972.98	3524.44
973.281	3483.09
973.582	3512.01
973.883	3426.82
974.183	3446.48
974.484	3411
974.785	3387.27
975.085	3383.43
975.386	3367.38
975.686	3386.59
975.986	3371.9
976.287	3358.12
976.587	3315.18
976.887	3264.56
977.187	3312.7
977.487	3307.05
977.787	3242.87
978.087	3238.57
978.387	3259.82
978.687	3246.48
978.987	3183.43
979.286	3191.79
979.586	3189.53
979.885	3208.74
980.185	3139.82
980.484	3112.7
980.784	3128.07
981.083	3102.08
981.382	3087.16
981.682	3084
981.981	3082.19
982.28	3041.52
982.579	3047.84
982.878	3014.85
983.177	3028.18
983.475	3014.85
983.774	2956.09
984.073	2958.13
984.372	2949.09
984.67	2956.77
984.969	2971.91
985.267	2907.51
985.566	2889.88
985.864	2895.98
986.162	2861.41
986.461	2837.45
986.759	2828.41
987.057	2816.66
987.355	2788.87
987.653	2784.35
987.951	2814.63
988.249	2777.12
988.547	2732.6
988.844	2749.77
989.142	2763.78
989.44	2725.37
989.737	2690.34
990.035	2702.77
990.332	2655.31
990.63	2651.24
990.927	2639.72
991.224	2642.88
991.521	2605.37
991.819	2581.19
992.116	2570.34
992.413	2595.2
992.71	2602.43
993.006	2566.73
993.303	2568.76
993.6	2526.05
993.897	2533.05
994.193	2562.88
994.49	2506.84
994.787	2487.63
995.083	2474.75
995.379	2464.81
995.676	2442.21
995.972	2438.37
996.268	2390.69
996.565	2419.84
996.861	2396.34
997.157	2384.81
997.453	2355.88
997.749	2384.36
998.044	2343.23
998.34	2373.06
998.636	2335.09
998.932	2332.83
999.227	2336.22
999.523	2297.81
999.818	2289.9
1000.114	2241.76
1000.409	2261.88
1000.704	2224.14
1001	2202.22
1001.295	2223.01
1001.59	2229.56
1001.885	2227.75
1002.18	2190.01
1002.475	2152.05
1002.77	2148.66
1003.065	2154.76
1003.359	2144.14
1003.654	2136.91
1003.949	2099.62
1004.243	2109.11
1004.538	2072.28
1004.832	2070.92
1005.127	2048.77
1005.421	1999.96
1005.715	2039.96
1006.009	1992.96
1006.304	2042.9
1006.598	2013.07
1006.892	1959.96
1007.186	1983.01
1007.48	1950.92
1007.773	1943.01
1008.067	1948.89
1008.361	1904.82
1008.655	1912.28
1008.948	1878.16
1009.242	1895.11
1009.535	1883.35
1009.829	1868.67
1010.122	1839.97
1010.415	1871.15
1010.708	1844.71
1011.001	1829.12
1011.295	1810.36
1011.588	1799.97
1011.881	1800.19
1012.173	1792.28
1012.466	1768.33
1012.759	1747.31
1013.052	1747.54
1013.344	1750.93
1013.637	1765.17
1013.93	1684.26
1014.222	1693.75
1014.514	1715.9
1014.807	1689.91
1015.099	1700.76
1015.391	1664.38
1015.683	1660.31
1015.976	1676.35
1016.268	1640.2
1016.56	1627.99
1016.851	1637.49
1017.143	1619.41
1017.435	1590.03
1017.727	1592.06
1018.018	1561.1
1018.31	1557.49
1018.602	1549.8
1018.893	1542.12
1019.185	1543.48
1019.476	1501.44
1019.767	1517.94
1020.058	1506.64
1020.35	1472.97
1020.641	1481.78
1020.932	1473.87
1021.223	1460.54
1021.514	1429.81
1021.804	1417.83
1022.095	1442.91
1022.386	1406.98
1022.677	1400.88
1022.967	1391.84
1023.258	1395.23
1023.548	1360.43
1023.839	1386.64
1024.129	1352.52
1024.419	1346.87
1024.709	1334.22
1025	1340.77
1025.29	1347.78
1025.58	1313.88
1025.87	1317.04
1026.16	1274.78
1026.449	1305.52
1026.739	1298.06
1027.029	1271.85
1027.319	1271.62
1027.608	1259.42
1027.898	1247.89
1028.187	1236.59
1028.477	1242.02
1028.766	1211.06
1029.055	1238.63
1029.344	1202.24
1029.634	1204.5
1029.923	1215.58
1030.212	1208.34
1030.501	1194.78
1030.79	1147.1
1031.078	1165.63
1031.367	1149.36
1031.656	1136.26
1031.945	1180.55
1032.233	1134.22
1032.522	1113.88
1032.81	1114.34
1033.099	1115.47
1033.387	1121.57
1033.675	1105.07
1033.963	1084.51
1034.251	1083.83
1034.54	1064.17
1034.828	1058.29
1035.116	1058.74
1035.403	1063.71
1035.691	1054
1035.979	1052.42
1036.267	1040.89
1036.554	1028.46
1036.842	1057.39
1037.129	1017.61
1037.417	1006.32
1037.704	1010.38
1037.992	998.41
1038.279	962.25
1038.566	988.69
1038.853	988.69
1039.14	988.69
