Data from White_reflection_standard_FLMS001491_022.txt Node
Date: Tue Feb 07 10:31:59 GMT 2017
User: dcchb
Spectrometer: FLMS00149
Trigger mode: 0
Integration Time (sec): 2.000000E-2
Scans to average: 10
Electric dark correction enabled: true
Nonlinearity correction enabled: false
Boxcar width: 0
XAxis mode: Wavelengths
Number of Pixels in Spectrum: 2048
>>>>>Begin Spectral Data<<<<<
341.393	-20.51
341.776	-20.51
342.16	-20.51
342.543	-77.46
342.927	-72.94
343.31	-71.13
343.693	-77.46
344.077	-48.76
344.46	-67.51
344.843	-55.54
345.226	-31.13
345.61	-44.24
345.993	-13.05
346.376	-14.18
346.759	2.09
347.142	26.5
347.525	28.98
347.908	56.78
348.291	100.62
348.674	92.26
349.057	115.76
349.44	132.26
349.823	154.18
350.206	154.63
350.588	218.36
350.971	241.63
351.354	245.02
351.737	283.21
352.119	277.79
352.502	281.18
352.884	299.94
353.267	320.5
353.65	332.93
354.032	344.45
354.414	346.94
354.797	346.26
355.179	358.47
355.562	367.5
355.944	372.02
356.326	354.17
356.709	373.61
357.091	381.29
357.473	383.32
357.855	396.66
358.238	397.56
358.62	390.33
359.002	400.05
359.384	424
359.766	386.26
360.148	411.8
360.53	406.6
360.912	404.79
361.294	410.22
361.676	416.32
362.057	420.84
362.439	398.69
362.821	419.03
363.203	396.88
363.584	406.6
363.966	405.02
364.348	378.13
364.729	422.19
365.111	405.02
365.493	407.28
365.874	407.28
366.256	398.92
366.637	404.34
367.019	412.25
367.4	415.41
367.781	407.73
368.163	413.83
368.544	421.06
368.925	424.9
369.306	420.61
369.688	419.03
370.069	392.81
370.45	432.59
370.831	435.75
371.212	431.01
371.593	425.13
371.974	445.69
372.355	438.24
372.736	446.15
373.117	430.78
373.498	456.32
373.879	445.69
374.26	438.69
374.641	430.33
375.021	442.98
375.402	469.42
375.783	474.62
376.163	524.79
376.544	482.76
376.925	518.46
377.305	487.95
377.686	490.67
378.066	494.05
378.447	492.02
378.827	507.61
379.208	515.52
379.588	508.07
379.968	517.11
380.349	515.98
380.729	527.73
381.109	540.16
381.489	539.48
381.87	542.19
382.25	547.16
382.63	552.36
383.01	544.67
383.39	540.38
383.77	575.63
384.15	553.94
384.53	580.15
384.91	582.64
385.29	579.25
385.67	608.85
386.049	581.74
386.429	622.64
386.809	608.18
387.189	626.48
387.568	621.96
387.948	636.42
388.328	634.84
388.707	652.02
389.087	672.58
389.466	660.15
389.846	663.77
390.225	666.03
390.605	686.59
390.984	696.08
391.363	701.51
391.743	690.89
392.122	706.93
392.501	713.71
392.881	735.18
393.26	730.88
393.639	758.68
394.018	753.03
394.397	759.58
394.776	750.55
395.155	782.86
395.534	820.6
395.913	815.85
396.292	819.92
396.671	819.47
397.05	842.52
397.429	836.87
397.808	826.02
398.186	838.68
398.565	883.65
398.944	888.62
399.323	875.06
399.701	877.77
400.08	898.11
400.458	900.15
400.837	914.16
401.215	890.2
401.594	934.04
401.972	924.78
402.351	962.29
402.729	983.53
403.107	994.15
403.486	955.29
403.864	990.99
404.242	1008.84
404.62	994.61
404.999	1033.25
405.377	1035.74
405.755	1073.93
406.133	1087.94
406.511	1067.15
406.889	1092.46
407.267	1116.41
407.645	1121.83
408.023	1133.36
408.401	1160.93
408.779	1180.14
409.156	1169.29
409.534	1198.22
409.912	1230.08
410.29	1243.87
410.667	1236.63
411.045	1275.5
411.422	1288.61
411.8	1294.94
412.178	1323.86
412.555	1331.09
412.933	1334.94
413.31	1345.11
413.687	1418.78
414.065	1405.67
414.442	1418.55
414.819	1438.66
415.197	1464.2
415.574	1464.65
415.951	1502.62
416.328	1501.94
416.705	1514.59
417.082	1511.66
417.46	1544.87
417.837	1572.9
418.214	1557.08
418.591	1590.75
418.967	1602.5
419.344	1621.71
419.721	1654.02
420.098	1663.97
420.475	1718.66
420.852	1696.06
421.228	1732.44
421.605	1731.31
421.982	1755.26
422.358	1760.46
422.735	1820.57
423.111	1809.95
423.488	1851.31
423.864	1875.04
424.241	1902.38
424.617	1910.97
424.994	1883.85
425.37	1934.69
425.746	1946.9
426.123	1985.77
426.499	2023.05
426.875	2034.81
427.251	2102.15
427.627	2066.67
428.003	2134.01
428.379	2151.64
428.756	2159.55
429.132	2189.15
429.507	2212.43
429.883	2292.65
430.259	2281.35
430.635	2343.27
431.011	2344.4
431.387	2414.68
431.763	2452.2
432.138	2467.79
432.514	2491.29
432.89	2527.22
433.265	2554.57
433.641	2590.72
434.016	2634.56
434.392	2640.44
434.767	2706.88
435.143	2681.57
435.518	2765.18
435.894	2766.99
436.269	2840.21
436.644	2848.8
437.02	2880.88
437.395	2923.6
437.77	3011.5
438.145	3023.71
438.52	3024.84
438.895	3054.89
439.271	3072.07
439.646	3172.18
440.021	3169.46
440.395	3202.91
440.77	3142.12
441.145	3197.49
441.52	3244.49
441.895	3223.7
442.27	3292.17
442.645	3297.37
443.019	3362.91
443.394	3359.29
443.769	3380.98
444.143	3387.31
444.518	3493.52
444.892	3495.33
445.267	3477.71
445.641	3493.3
446.016	3510.7
446.39	3567.19
446.764	3616.91
447.139	3634.09
447.513	3634.99
447.887	3687.87
448.262	3690.35
448.636	3727.87
449.01	3779.84
449.384	3817.58
449.758	3814.42
450.132	3903.68
450.506	3914.08
450.88	3943.68
451.254	3997.01
451.628	4065.49
452.002	4077.01
452.376	4054.87
452.75	4158.37
453.123	4174.64
453.497	4271.36
453.871	4323.11
454.244	4399.71
454.618	4385.25
454.992	4458.7
455.365	4458.92
455.739	4585.47
456.112	4636.54
456.486	4648.97
456.859	4722.64
457.232	4823.43
457.606	4774.17
457.979	4884.45
458.352	4963.32
458.725	5039.02
459.099	5019.36
459.472	5134.38
459.845	5205.12
460.218	5262.07
460.591	5328.96
460.964	5333.7
461.337	5521.95
461.71	5525.56
462.083	5617.08
462.456	5671.09
462.829	5714.93
463.201	5831.54
463.574	5841.94
463.947	5933.69
464.32	6033.34
464.692	6109.73
465.065	6142.27
465.438	6202.38
465.81	6322.38
466.183	6391.98
466.555	6537.29
466.928	6559.66
467.3	6606.44
467.672	6649.37
468.045	6835.13
468.417	6847.56
468.789	6913.32
469.161	7018.63
469.534	7158.06
469.906	7334.78
470.278	7306.76
470.65	7478.05
471.022	7607.77
471.394	7775.67
471.766	7832.84
472.138	7963.01
472.51	8094.76
472.882	8146.73
473.253	8332.94
473.625	8474.64
473.997	8588.76
474.369	8687.74
474.74	8748.98
475.112	8939.26
475.484	9139.25
475.855	9252.02
476.227	9291.11
476.598	9596.64
476.97	9614.94
477.341	9957.53
477.713	10043.41
478.084	10125.44
478.455	10387.13
478.827	10508.93
479.198	10758.42
479.569	10746.89
479.94	11128.58
480.311	11202.7
480.682	11481.56
481.053	11723.14
481.424	11914.77
481.795	12085.61
482.166	12210.13
482.537	12414.42
482.908	12665.71
483.279	12834.07
483.65	13010.11
484.021	13293.49
484.391	13435.64
484.762	13564.22
485.133	13789.3
485.503	13916.53
485.874	14244.65
486.244	14376.18
486.615	14597.19
486.985	14704.53
487.356	15045.99
487.726	15224.29
488.097	15514.9
488.467	15582.25
488.837	15836.48
489.207	16103.59
489.578	16379.29
489.948	16505.39
490.318	16732.27
490.688	16702.44
491.058	17076.67
491.428	17258.36
491.798	17412.25
492.168	17736.77
492.538	17949.19
492.908	18085.23
493.278	18226.24
493.648	18359.12
494.017	18555.95
494.387	18886.34
494.757	19014.02
495.126	19134.02
495.496	19145.54
495.866	19393.44
496.235	19583.95
496.605	19703.04
496.974	19864.84
497.344	20081.34
497.713	20189.81
498.082	20378.96
498.452	20607.65
498.821	20620.76
499.19	20775.78
499.559	21027.98
499.928	21142.55
500.298	21312.04
500.667	21494.18
501.036	21416.22
501.405	21689.2
501.774	21812.14
502.143	21932.59
502.512	22135.07
502.88	22274.05
503.249	22415.96
503.618	22587.03
503.987	22530.99
504.356	22877.65
504.724	22895.27
505.093	23050.98
505.462	23255.04
505.83	23469.04
506.199	23570.51
506.567	23814.57
506.936	23936.15
507.304	24305.18
507.672	24278.51
508.041	24378.17
508.409	24691.38
508.777	24814.77
509.145	25017.25
509.514	25050.7
509.882	25282.56
510.25	25424.92
510.618	25543.34
510.986	25745.59
511.354	26007.51
511.722	26110.78
512.09	26404.33
512.458	26352.36
512.826	26687.94
513.193	26716.64
513.561	26988.05
513.929	27015.39
514.297	27416.28
514.664	27615.83
515.032	27728.14
515.4	28136.72
515.767	28155.7
516.135	28341.23
516.502	28101.46
516.869	28674.56
517.237	28844.27
517.604	28746.65
517.972	29218.5
518.339	29518.6
518.706	29491.94
519.073	29576.68
519.44	29865.71
519.808	30130.79
520.175	30170.56
520.542	30660.72
520.909	30664.79
521.276	30979.81
521.643	31232.68
522.009	31485.33
522.376	31734.14
522.743	31961.48
523.11	32222.26
523.477	32462.71
523.843	32558.75
524.21	33101.56
524.577	33180.88
524.943	33358.95
525.31	33701.54
525.676	34006.39
526.043	34098.14
526.409	34407.97
526.776	34717.56
527.142	34739.93
527.508	35071.45
527.874	35286.81
528.241	35542.85
528.607	35598.89
528.973	35962.95
529.339	35876.18
529.705	36318.2
530.071	36821.24
530.437	36813.33
530.803	36979.88
531.169	37302.13
531.535	37197.95
531.901	37489.24
532.267	37664.15
532.632	37856.01
532.998	37917.25
533.364	38266.62
533.73	38343.46
534.095	38627.29
534.461	38723.33
534.826	38741.18
535.192	38964.23
535.557	39370.09
535.923	39337.33
536.288	39434.95
536.653	39707.71
537.019	39617.77
537.384	39933.47
537.749	40206
538.114	40210.75
538.479	40286.91
538.845	40608.48
539.21	40598.54
539.575	40753.56
539.94	40928.92
540.305	41203.72
540.67	41159.88
541.034	41280.55
541.399	41510.6
541.764	41564.61
542.129	41752.86
542.494	41815
542.858	42054.77
543.223	42042.34
543.587	42419.96
543.952	42281.2
544.316	42397.13
544.681	42501.31
545.045	42677.8
545.41	42937.01
545.774	42937.23
546.138	43158.02
546.503	43365.47
546.867	43348.97
547.231	43680.94
547.595	43801.84
547.959	43963.87
548.324	43888.39
548.688	43986.92
549.052	44262.62
549.416	44219.23
549.779	44350.08
550.143	44710.52
550.507	44850.4
550.871	44899.21
551.235	44960.23
551.599	45258.98
551.962	45392.08
552.326	45590.04
552.689	45760.44
553.053	45564.51
553.417	45766.08
553.78	46351.83
554.143	46117.71
554.507	46465.5
554.87	46354.77
555.234	46931.48
555.597	46697.13
555.96	46963.79
556.323	47158.36
556.686	47078.59
557.05	47538.47
557.413	47504.12
557.776	47610.1
558.139	47902.3
558.502	47943.2
558.865	48109.3
559.228	48463.41
559.59	48616.86
559.953	48669.96
560.316	48979.56
560.679	49051.87
561.041	49282.83
561.404	49419.77
561.767	49654.34
562.129	49589.94
562.492	49964.84
562.854	49872.19
563.217	50017.27
563.579	50190.38
563.941	50416.36
564.304	50602.79
564.666	50687.76
565.028	50865.16
565.39	50995.1
565.753	51176.79
566.115	51264.92
566.477	51518.25
566.839	51514.18
567.201	51736.55
567.563	51713.5
567.925	51934.51
568.287	52022.42
568.648	52087.27
569.01	52183.77
569.372	52368.17
569.734	52319.81
570.095	52537.88
570.457	52700.37
570.819	52746.01
571.18	52813.58
571.542	52936.29
571.903	53011.32
572.265	53214.02
572.626	53308.03
572.987	53254.02
573.349	53317.3
573.71	53492.21
574.071	53569.72
574.432	53727.91
574.794	53866.66
575.155	53816.95
575.516	53785.99
575.877	53881.8
576.238	53949.37
576.599	54102.81
576.96	54171.29
577.32	54091.97
577.681	54290.15
578.042	54305.97
578.403	54339.19
578.763	54274.56
579.124	54319.31
579.485	54502.35
579.845	54573.76
580.206	54493.76
580.566	54461.45
580.927	54552.52
581.287	54686.98
581.648	54604.27
582.008	54725.85
582.368	54657.6
582.728	54699.64
583.089	54691.27
583.449	54653.08
583.809	54801.78
584.169	54697.15
584.529	54751.39
584.889	54880.42
585.249	54718.62
585.609	54677.94
585.969	54844.04
586.329	54766.75
586.688	54863.7
587.048	54886.3
587.408	54765.85
587.768	54776.24
588.127	54755.45
588.487	54668.9
588.846	54973.3
589.206	54840.2
589.565	54845.85
589.925	54902.57
590.284	54761.78
590.643	54932.17
591.003	54851.04
591.362	55003.13
591.721	54909.57
592.08	54900.53
592.44	54964.49
592.799	55008.1
593.158	55016.46
593.517	54893.53
593.876	54986.18
594.235	54931.95
594.593	54972.85
594.952	55072.96
595.311	54952.06
595.67	55014.2
596.029	55188.66
596.387	55200.41
596.746	55278.83
597.104	55074.31
597.463	55048.55
597.822	55272.28
598.18	55118.61
598.538	55073.18
598.897	55322.67
599.255	55053.3
599.613	55415.77
599.972	55216.23
600.33	55277.7
600.688	55199.28
601.046	55300.75
601.404	55498.48
601.762	55400.18
602.12	55502.55
602.478	55463
602.836	55439.28
603.194	55311.6
603.552	55470.69
603.91	55341.65
604.268	55571.93
604.625	55404.25
604.983	55527.86
605.341	55418.94
605.698	55568.76
606.056	55599.27
606.413	55561.99
606.771	55732.38
607.128	55735.99
607.485	55616.45
607.843	55645.6
608.2	55797.91
608.557	55870
608.914	55767.86
609.272	55886.95
609.629	55949.32
609.986	56058.7
610.343	55857.12
610.7	56025.7
611.057	56046.94
611.414	56033.61
611.771	56115.87
612.127	56216.21
612.484	56192.25
612.841	56261.85
613.198	56153.16
613.554	56069.77
613.911	56282.64
614.267	56248.97
614.624	56216.66
614.98	56369.65
615.337	56357.44
615.693	56382.08
616.05	56323.32
616.406	56466.14
616.762	56357.9
617.118	56359.93
617.475	56377.78
617.831	56494.39
618.187	56476.99
618.543	56543.43
618.899	56598.12
619.255	56599.25
619.611	56568.96
619.967	56606.03
620.323	56663.2
620.678	56512.24
621.034	56500.27
621.39	56392.47
621.746	56510.44
622.101	56787.04
622.457	56500.94
622.812	56590.21
623.168	56610.77
623.523	56593.6
623.879	56745.68
624.234	56507.5
624.589	56601.05
624.945	56653.71
625.3	56647.61
625.655	56623.43
626.01	56608.96
626.365	56647.15
626.72	56573.03
627.075	56541.85
627.43	56640.83
627.785	56518.34
628.14	56584.33
628.495	56615.97
628.85	56577.78
629.205	56464.33
629.559	56623.88
629.914	56445.13
630.269	56548.85
630.623	56374.17
630.978	56327.84
631.332	56449.87
631.687	56573.26
632.041	56376.43
632.396	56409.42
632.75	56250.78
633.104	56338.69
633.459	56212.36
633.813	56142.54
634.167	56206.71
634.521	56189.77
634.875	56170.78
635.229	56058.02
635.583	55987.06
635.937	55998.36
636.291	55926.5
636.645	55999.49
636.999	55917.68
637.352	55843.11
637.706	55778.93
638.06	55928.3
638.413	55810.57
638.767	55688.08
639.121	55761.98
639.474	55620.29
639.828	55630.23
640.181	55641.98
640.534	55605.37
640.888	55567.41
641.241	55379.17
641.594	55531.25
641.947	55572.61
642.301	55440.18
642.654	55436.34
643.007	55420.75
643.36	55366.74
643.713	55242.45
644.066	55361.99
644.419	55156.12
644.771	54965.84
645.124	54765.62
645.477	54577.38
645.83	54526.98
646.182	54402.47
646.535	54320.21
646.888	54368.12
647.24	54176.94
647.593	54340.55
647.945	54235.92
648.298	54054
648.65	54043.16
649.002	53968.81
649.355	54099.65
649.707	54039.31
650.059	54152.53
650.411	54403.37
650.763	54483.82
651.115	54787.32
651.467	54622.12
651.819	54583.71
652.171	54496.93
652.523	54537.61
652.875	54500.77
653.227	54364.73
653.578	54525.85
653.93	54469.13
654.282	54316.14
654.633	54226.43
654.985	54304.84
655.337	54233.43
655.688	54264.39
656.039	54308.91
656.391	54077.05
656.742	54152.08
657.094	54162.02
657.445	54201.57
657.796	54167.22
658.147	54149.37
658.498	53978.3
658.849	54131.97
659.2	54047.67
659.551	53973.1
659.902	54070.05
660.253	53971.29
660.604	54000.44
660.955	53832.31
661.306	53966.32
661.656	53823.5
662.007	53963.84
662.358	53896.04
662.708	53870.28
663.059	53818.98
663.409	53674.35
663.76	53791.41
664.11	53732.65
664.461	53788.02
664.811	53808.13
665.161	53778.08
665.511	53565.2
665.862	53715.48
666.212	53748.02
666.562	53752.09
666.912	53696.5
667.262	53578.31
667.612	53611.08
667.962	53710.96
668.312	53582.38
668.662	53631.41
669.011	53658.53
669.361	53448.14
669.711	53413.57
670.06	53367.24
670.41	53380.8
670.76	53362.72
671.109	53493.79
671.459	53376.28
671.808	53329.95
672.157	53394.81
672.507	53152.33
672.856	53195.95
673.205	53245.44
673.554	53259.9
673.904	53156.17
674.253	53311.65
674.602	53245.89
674.951	52823.98
675.3	52600.93
675.649	53067.36
675.998	52933.13
676.346	53058.32
676.695	53164.99
677.044	52916.41
677.393	52929.06
677.741	53026.46
678.09	52836.86
678.438	52846.58
678.787	52807.93
679.135	52857.2
679.484	52667.15
679.832	52872.11
680.181	52578.11
680.529	52772.45
680.877	52574.04
681.225	52535.85
681.573	52734.72
681.922	52512.57
682.27	52407.49
682.618	52419.24
682.966	52224.67
683.314	52301.28
683.661	52316.87
684.009	52092.02
684.357	52023.32
684.705	51921.63
685.053	51946.94
685.4	51875.3
685.748	51769.77
686.095	51807.06
686.443	51692.26
686.79	51526.61
687.138	51588.08
687.485	51518.93
687.832	51416.56
688.18	51377.46
688.527	51243
688.874	51276
689.221	51204.59
689.568	51010.01
689.915	50970.24
690.262	50967.08
690.609	50872.17
690.956	50688.67
691.303	50749.91
691.65	50520.31
691.997	50381.78
692.344	50336.81
692.69	50285.97
693.037	50267.66
693.383	50004.39
693.73	50071.96
694.077	49910.83
694.423	49918.07
694.769	49723.49
695.116	49613.22
695.462	49551.3
695.808	49491.41
696.155	49560.34
696.501	49259.1
696.847	49196.05
697.193	49003.06
697.539	49107.47
697.885	48786.57
698.231	48672.45
698.577	48593.36
698.923	48634.71
699.269	48464.77
699.614	48286.47
699.96	48182.52
700.306	48125.8
700.651	48047.61
700.997	47806.26
701.342	47844.67
701.688	47796.31
702.033	47599.48
702.379	47575.53
702.724	47443.78
703.069	47527.39
703.415	47098.48
703.76	47142.09
704.105	47162.21
704.45	47009.44
704.795	46737.58
705.14	46595.44
705.485	46620.98
705.83	46545.73
706.175	46520.87
706.52	46301.89
706.865	46141.22
707.209	46161.78
707.554	45993.88
707.899	46034.33
708.243	45762.92
708.588	45852.41
708.932	45543.04
709.277	45497.39
709.621	45576.71
709.966	45282.03
710.31	45360.45
710.654	45071.41
710.998	44941.25
711.342	45122.49
711.687	44960.46
712.031	44766.56
712.375	44720.01
712.719	44713.23
713.063	44552.56
713.407	44670.07
713.75	44267.14
714.094	44412.67
714.438	44129.74
714.782	44211.32
715.125	43986.7
715.469	44102.4
715.812	43800.03
716.156	43719.36
716.499	43758.23
716.843	43689.76
717.186	43368.63
717.53	43549.19
717.873	43601.4
718.216	43428.75
718.559	43078.02
718.902	42959.38
719.246	43098.13
719.589	42982.88
719.932	42806.61
720.275	42874.64
720.617	42586.96
720.96	42649.78
721.303	42565.49
721.646	42643.91
721.989	42370.02
722.331	42566.17
722.674	42329.79
723.016	42452.73
723.359	42195.78
723.701	42118.27
724.044	41879.18
724.386	41759.64
724.729	41936.81
725.071	41782.46
725.413	41719.64
725.755	41723.48
726.097	41450.27
726.439	41447.55
726.782	41467.89
727.124	41566.87
727.465	41327.56
727.807	41255.02
728.149	41190.61
728.491	41012.09
728.833	41202.36
729.175	41002.14
729.516	40886.89
729.858	40855.48
730.199	40885.99
730.541	40758.98
730.882	40633.11
731.224	40799.66
731.565	40488.71
731.906	40493.68
732.248	40502.95
732.589	40392.89
732.93	40069.51
733.271	40219.79
733.612	40151.54
733.953	40196.29
734.294	39925.79
734.635	39899.8
734.976	40025.22
735.317	39792.68
735.658	39688.05
735.999	39681.5
736.339	39528.96
736.68	39670.2
737.021	39512.01
737.361	39460.26
737.702	39485.8
738.042	39298.68
738.383	39321.28
738.723	39283.32
739.063	39195.18
739.404	39238.8
739.744	39011.01
740.084	38961.07
740.424	39009.65
740.764	38776.44
741.104	38977.34
741.444	38659.38
741.784	38630.45
742.124	38638.36
742.464	38692.82
742.804	38551.36
743.143	38474.98
743.483	38422.55
743.823	38047.42
744.162	38126.51
744.502	38355.88
744.841	38057.59
745.181	38189.56
745.52	37944.6
745.86	38041.09
746.199	37997.48
746.538	37958.61
746.877	37805.62
747.216	37814.66
747.556	37730.36
747.895	37686.52
748.234	37386.87
748.573	37442.46
748.911	37536.92
749.25	37284.73
749.589	37178.06
749.928	37210.15
750.267	37199.3
750.605	37024.17
750.944	37028.46
751.283	36885.64
751.621	36944.4
751.96	36659.43
752.298	36644.97
752.636	36557.74
752.975	36552.99
753.313	36258.54
753.651	36575.14
753.989	36222.61
754.327	36175.6
754.666	35966.57
755.004	36063.97
755.342	36019.45
755.679	35876.18
756.017	35629.18
756.355	35757.08
756.693	35641.38
757.031	35599.8
757.368	35402.29
757.706	35424.44
758.044	35277.77
758.381	35141.51
758.719	35036.65
759.056	35044.11
759.394	35058.57
759.731	34753.49
760.068	34786.49
760.405	34476.44
760.743	34434.18
761.08	34485.03
761.417	34327.06
761.754	34207.52
762.091	34061.08
762.428	33906.74
762.765	33865.83
763.102	33994.42
763.438	33720.53
763.775	33586.52
764.112	33547.65
764.449	33645.5
764.785	33370.25
765.122	33125.74
765.458	33004.39
765.795	33026.76
766.131	32968
766.467	32906.54
766.804	32688.46
767.14	32519.88
767.476	32567.56
767.812	32243.05
768.148	32403.72
768.485	32015.26
768.821	32054.35
769.157	31988.37
769.492	31967.8
769.828	31800.12
770.164	31589.51
770.5	31397.65
770.836	31535.72
771.171	31236.52
771.507	31235.85
771.842	31000.6
772.178	30957.89
772.513	30813.26
772.849	30840.38
773.184	30548.18
773.519	30566.71
773.855	30547.5
774.19	30335.53
774.525	30131.24
774.86	30243.1
775.195	30133.5
775.53	30050.11
775.865	29885.6
776.2	29473.63
776.535	29513.63
776.87	29435.44
777.205	29391.37
777.539	29108.44
777.874	29254.88
778.209	28949.13
778.543	28959.07
778.878	28737.15
779.212	28782.8
779.547	28452.19
779.881	28566.76
780.215	28291.74
780.55	28418.74
780.884	28209.94
781.218	28162.71
781.552	28157.51
781.886	28055.82
782.22	27931.98
782.554	27688.59
782.888	27496.28
783.222	27436.4
783.556	27356.4
783.889	27165.67
784.223	27069.85
784.557	27028.72
784.89	27153.24
785.224	26883.87
785.557	26736.53
785.891	26707.6
786.224	26622.63
786.558	26504.9
786.891	26322.53
787.224	26297.44
787.557	26120.05
787.891	26124.34
788.224	26089.31
788.557	26022.42
788.89	25854.07
789.223	25900.17
789.556	25605.26
789.888	25699.27
790.221	25472.16
790.554	25318.26
790.887	25339.73
791.219	25267.64
791.552	25135.89
791.884	25014.31
792.217	24891.61
792.549	24779.97
792.882	24737.03
793.214	24443.93
793.546	24566.87
793.879	24473.99
794.211	24339.08
794.543	24484.38
794.875	24315.8
795.207	24310.83
795.539	24022.93
795.871	24166.43
796.203	23960.78
796.535	23889.6
796.867	23726.66
797.198	23758.53
797.53	23696.38
797.862	23522.38
798.193	23467.91
798.525	23367.13
798.856	23480.57
799.188	23266.11
799.519	23154.93
799.85	22997.87
800.182	23005.55
800.513	23001.03
800.844	22744.77
801.175	22916.74
801.506	22812.34
801.837	22691.44
802.168	22659.57
802.499	22550.88
802.83	22504.55
803.161	22364.67
803.491	22512.01
803.822	22366.7
804.153	22185.91
804.483	22129.64
804.814	22009.87
805.145	21968.97
805.475	21970.33
805.805	21775.76
806.136	21861.63
806.466	21709.32
806.796	21733.27
807.126	21587.96
807.457	21547.96
807.787	21537.57
808.117	21503.45
808.447	21280.4
808.777	21388.42
809.107	21235.88
809.436	21086.28
809.766	21232.94
810.096	21102.78
810.426	20923.35
810.755	21020.29
811.085	20881.09
811.414	20874.99
811.744	20670.93
812.073	20682
812.403	20649.23
812.732	20620.98
813.061	20600.87
813.39	20451.04
813.719	20364.27
814.049	20553.41
814.378	20340.76
814.707	20268.68
815.036	20196.81
815.365	20243.37
815.693	19884.05
816.022	19944.16
816.351	19960.89
816.68	19802.47
817.008	19992.98
817.337	19666.88
817.665	19592.76
817.994	19757.28
818.322	19613.1
818.651	19672.53
818.979	19568.58
819.307	19563.38
819.636	19665.98
819.964	19441.81
820.292	19424.63
820.62	19419.21
820.948	19267.57
821.276	19385.99
821.604	19436.16
821.932	19415.59
822.259	19395.93
822.587	19285.43
822.915	19266.22
823.243	19430.28
823.57	19346.67
823.898	19348.7
824.225	19164.07
824.553	19180.57
824.88	19296.95
825.207	19301.7
825.535	19241.36
825.862	19260.57
826.189	19198.65
826.516	19348.47
826.843	19349.15
827.17	19189.16
827.497	19235.93
827.824	19267.57
828.151	19308.48
828.478	19199.55
828.805	19307.57
829.131	19218.99
829.458	19144.64
829.785	19055.83
830.111	19128.59
830.438	19317.74
830.764	19175.15
831.09	19204.07
831.417	19011.76
831.743	19139.44
832.069	19165.2
832.395	19068.93
832.722	19170.63
833.048	19109.61
833.374	19092.66
833.7	18991.42
834.026	19066
834.351	18938.99
834.677	18954.81
835.003	19091.98
835.329	18844.53
835.654	18928.37
835.98	19006.56
836.306	18863.97
836.631	18717.76
836.956	18919.11
837.282	18816.06
837.607	18732.45
837.932	18687.7
838.258	18687.25
838.583	18724.31
838.908	18484.32
839.233	18604.09
839.558	18498.1
839.883	18465.79
840.208	18369.07
840.533	18356.64
840.858	18385.11
841.182	18426.69
841.507	18362.29
841.832	18252.46
842.156	18218.79
842.481	18271.44
842.805	18220.14
843.13	18051.33
843.454	18075.29
843.778	17981.73
844.103	18044.33
844.427	17889.08
844.751	17969.3
845.075	17782.87
845.399	17871.9
845.723	17726.37
846.047	17699.7
846.371	17577.67
846.695	17613.15
847.019	17415.42
847.343	17329.09
847.666	17212.03
847.99	17212.71
848.313	17143.11
848.637	17074.86
848.96	17059.49
849.284	16984.69
849.607	16890.69
849.931	16797.35
850.254	16799.16
850.577	16675.1
850.9	16445.73
851.223	16441.21
851.546	16417.03
851.869	16287.54
852.192	16416.8
852.515	16303.58
852.838	16158.28
853.161	16212.74
853.483	16111.5
853.806	16015.45
854.129	15918.06
854.451	15865.18
854.774	15855.01
855.096	15814.33
855.419	15757.38
855.741	15673.77
856.063	15674.45
856.385	15596.93
856.708	15522.36
857.03	15527.11
857.352	15506.54
857.674	15453.44
857.996	15465.19
858.318	15329.14
858.64	15280.33
858.961	15218.87
859.283	15193.1
859.605	15102.26
859.926	15235.59
860.248	15001.7
860.57	14995.14
860.891	15002.83
861.212	14921.02
861.534	14922.38
861.855	14888.48
862.176	14895.03
862.498	14869.27
862.819	14817.97
863.14	14770.29
863.461	14665.21
863.782	14703.62
864.103	14707.24
864.424	14591.99
864.745	14620.24
865.065	14594.7
865.386	14534.82
865.707	14559.45
866.027	14521.93
866.348	14483.97
866.668	14463.18
866.989	14479
867.309	14311.09
867.63	14377.31
867.95	14368.72
868.27	14312
868.59	14243.07
868.91	14257.08
869.23	14278.1
869.55	14207.14
869.87	14189.29
870.19	14170.76
870.51	14133.92
870.83	14185.67
871.15	14047.14
871.469	14080.82
871.789	14140.25
872.109	14129.63
872.428	13920.59
872.748	14001.95
873.067	13963.76
873.386	13939.13
873.706	13893.25
874.025	13779.81
874.344	13813.93
874.663	13865.23
874.982	13800.15
875.301	13782.52
875.62	13752.69
875.939	13686.7
876.258	13737.32
876.577	13705.91
876.896	13636.08
877.214	13576.65
877.533	13646.93
877.852	13587.72
878.17	13560.83
878.489	13616.87
878.807	13612.35
879.125	13569.87
879.444	13472.24
879.762	13578.23
880.08	13501.85
880.398	13382.98
880.716	13352.02
881.034	13361.74
881.352	13333.27
881.67	13231.57
881.988	13311.12
882.306	13248.97
882.624	13276.32
882.941	13161.52
883.259	13118.13
883.577	13134.17
883.894	13079.71
884.212	13061.41
884.529	12997.68
884.846	12916.1
885.164	12976.21
885.481	12887.4
885.798	13027.06
886.115	12793.62
886.432	12835.2
886.75	12814.63
887.067	12756.33
887.383	12733.73
887.7	12788.87
888.017	12592.49
888.334	12638.14
888.651	12610.8
888.967	12526.51
889.284	12541.65
889.6	12475.89
889.917	12464.14
890.233	12525.83
890.55	12416
890.866	12404.02
891.182	12401.99
891.498	12305.5
891.815	12263.46
892.131	12263.24
892.447	12176.69
892.763	12156.57
893.079	12131.49
893.395	12060.3
893.71	12022.57
894.026	12005.16
894.342	11961.32
894.657	11874.77
894.973	11883.13
895.289	11908.9
895.604	11892.4
895.92	11779.86
896.235	11751.61
896.55	11655.8
896.865	11712.97
897.181	11567.89
897.496	11602.01
897.811	11490.15
898.126	11495.57
898.441	11372.41
898.756	11417.38
899.071	11351.85
899.386	11388.01
899.7	11245.41
900.015	11246.77
900.33	11145.98
900.644	11117.05
900.959	11108.46
901.273	11037.73
901.588	11042.7
901.902	11009.71
902.216	10973.1
902.531	10865.53
902.845	10893.33
903.159	10824.86
903.473	10879.77
903.787	10761.13
904.101	10650.17
904.415	10632.77
904.729	10616.5
905.042	10634.58
905.356	10494.02
905.67	10483.62
905.984	10530.18
906.297	10400.69
906.611	10369.95
906.924	10389.84
907.237	10383.06
907.551	10319.56
907.864	10258.54
908.177	10172.9
908.491	10186
908.804	10096.51
909.117	10080.47
909.43	10034.37
909.743	9934.71
910.056	9936.74
910.368	9931.55
910.681	9869.63
910.994	9851.55
911.307	9738.11
911.619	9741.5
911.932	9732.23
912.244	9656.53
912.557	9673.7
912.869	9553.93
913.181	9566.36
913.494	9543.31
913.806	9489.98
914.118	9394.39
914.43	9354.84
914.742	9346.7
915.054	9271
915.366	9301.96
915.678	9188.52
915.99	9233.71
916.302	9080.5
916.613	9115.52
916.925	9053.15
917.236	9099.48
917.548	9025.58
917.859	8990.1
918.171	8903.55
918.482	8880.73
918.794	8844.34
919.105	8833.72
919.416	8772.93
919.727	8752.82
920.038	8697.23
920.349	8694.07
920.66	8587.85
920.971	8527.74
921.282	8553.28
921.593	8479.16
921.903	8437.12
922.214	8458.82
922.525	8364.36
922.835	8374.07
923.146	8268.54
923.456	8284.58
923.767	8243.46
924.077	8158.26
924.387	8233.74
924.697	8186.96
925.008	8128.66
925.318	8094.76
925.628	8084.36
925.938	8001.65
926.248	7956.46
926.558	7951.03
926.867	7912.84
927.177	7856.57
927.487	7829.68
927.796	7705.84
928.106	7731.83
928.416	7691.15
928.725	7703.36
929.034	7664.71
929.344	7652.51
929.653	7607.09
929.962	7523.7
930.271	7543.81
930.581	7534.1
930.89	7446.87
931.199	7370.71
931.508	7416.58
931.817	7439.86
932.125	7283.48
932.434	7264.27
932.743	7242.13
933.051	7195.57
933.36	7221.34
933.669	7128.46
933.977	7115.12
934.286	7132.98
934.594	7124.16
934.902	6999.42
935.21	6972.98
935.519	7016.37
935.827	6911.97
936.135	6927.33
936.443	6847.11
936.751	6848.92
937.059	6808.47
937.367	6782.7
937.674	6760.33
937.982	6694.8
938.29	6709.71
938.597	6734.79
938.905	6627
939.213	6568.25
939.52	6569.83
939.827	6581.58
940.135	6507.23
940.442	6469.04
940.749	6464.29
941.056	6455.48
941.363	6361.02
941.67	6415.48
941.977	6348.14
942.284	6314.01
942.591	6262.49
942.898	6232.43
943.205	6220.01
943.511	6206.45
943.818	6226.56
944.125	6182.04
944.431	6138.43
944.738	6101.59
945.044	6112.89
945.35	5994.48
945.657	5990.18
945.963	5977.07
946.269	5968.49
946.575	5949.28
946.881	5898.43
947.187	5840.58
947.493	5869.73
947.799	5849.85
948.105	5787.7
948.41	5714.48
948.716	5804.2
949.022	5676.07
949.327	5693.47
949.633	5619.12
949.938	5642.17
950.244	5629.96
950.549	5612.34
950.854	5566.69
951.16	5555.62
951.465	5547.48
951.77	5484.88
952.075	5486.47
952.38	5463.42
952.685	5447.6
952.99	5388.39
953.294	5369.86
953.599	5343.42
953.904	5314.94
954.209	5277.43
954.513	5309.75
954.818	5277.88
955.122	5238.79
955.426	5204.67
955.731	5217.32
956.035	5166.02
956.339	5143.42
956.643	5132.8
956.948	5094.61
957.252	5069.08
957.556	5028.85
957.86	5060.26
958.163	5038.12
958.467	4988.17
958.771	4958.34
959.075	4951.56
959.378	4926.03
959.682	4924.9
959.985	4902.3
960.289	4856.43
960.592	4838.8
960.896	4817.1
961.199	4797.22
961.502	4752.7
961.805	4752.02
962.108	4708.18
962.411	4673.15
962.714	4709.76
963.017	4650.33
963.32	4618.01
963.623	4639.26
963.926	4659.37
964.228	4583.66
964.531	4504.12
964.833	4549.09
965.136	4479.71
965.438	4462.31
965.741	4455.08
966.043	4407.62
966.345	4458.47
966.648	4406.04
966.95	4358.59
967.252	4371.02
967.554	4331.24
967.856	4334.18
968.158	4291.92
968.46	4265.48
968.761	4277.68
969.063	4259.15
969.365	4230.45
969.666	4227.52
969.968	4166.05
970.269	4147.52
970.571	4173.73
970.872	4116.33
971.174	4084.69
971.475	4123.11
971.776	4095.54
972.077	4024.36
972.378	4058.03
972.679	4034.75
972.98	4008.09
973.281	3966.96
973.582	3964.25
973.883	3925.38
974.183	3905.49
974.484	3910.69
974.785	3898.49
975.085	3905.94
975.386	3907.07
975.686	3897.36
975.986	3798.83
976.287	3825.27
976.587	3820.3
976.887	3776.68
977.187	3773.74
977.487	3713.63
977.787	3747.98
978.087	3766.51
978.387	3700.07
978.687	3671.37
978.987	3686.06
979.286	3651.49
979.586	3653.97
979.885	3646.97
980.185	3592.5
980.484	3583.01
980.784	3569.45
981.083	3574.2
981.382	3536.23
981.682	3541.88
981.981	3505.28
982.28	3490.59
982.579	3437.93
982.878	3479.06
983.177	3426.86
983.475	3407.2
983.774	3434.77
984.073	3359.29
984.372	3352.74
984.67	3337.6
984.969	3336.69
985.267	3311.16
985.566	3294.21
985.864	3340.53
986.162	3264.15
986.461	3255.11
986.759	3250.14
987.057	3200.2
987.355	3186.87
987.653	3214.89
987.951	3206.75
988.249	3198.39
988.547	3164.72
988.844	3132.86
989.142	3121.1
989.44	3124.27
989.737	3065.96
990.035	3105.29
990.332	3033.88
990.63	3053.54
990.927	3012.41
991.224	3019.41
991.521	3012.63
991.819	3009.92
992.116	2980.54
992.413	2946.87
992.71	2956.59
993.006	2983.93
993.303	2924.5
993.6	2917.49
993.897	2910.94
994.193	2897.38
994.49	2878.62
994.787	2867.33
995.083	2842.24
995.379	2813.99
995.676	2811.51
995.972	2789.14
996.268	2839.98
996.565	2743.26
996.861	2773.99
997.157	2738.06
997.453	2729.48
997.749	2703.04
998.044	2653.09
998.34	2689.25
998.636	2640.67
998.932	2670.72
999.227	2631.17
999.523	2652.19
999.818	2590.72
1000.114	2578.52
1000.409	2575.81
1000.704	2561.12
1001	2564.73
1001.295	2511.63
1001.59	2549.82
1001.885	2538.07
1002.18	2465.98
1002.475	2497.62
1002.77	2441.57
1003.065	2447.68
1003.359	2447
1003.654	2450.61
1003.949	2421.24
1004.243	2374.91
1004.538	2379.43
1004.832	2350.05
1005.127	2325.65
1005.421	2347.79
1005.715	2318.64
1006.009	2317.74
1006.304	2280.9
1006.598	2280.22
1006.892	2280
1007.186	2266.66
1007.48	2243.61
1007.773	2228.02
1008.067	2221.24
1008.361	2207.68
1008.655	2189.6
1008.948	2177.63
1009.242	2171.75
1009.535	2149.6
1009.829	2148.93
1010.122	2133.11
1010.415	2140.11
1010.708	2127.91
1011.001	2080.91
1011.295	2061.47
1011.588	2060.79
1011.881	2026.9
1012.173	2000.91
1012.466	2015.37
1012.759	2010.17
1013.052	2029.16
1013.344	1987.8
1013.637	2001.36
1013.93	1982.15
1014.222	1952.32
1014.514	1981.47
1014.807	1900.57
1015.099	1890.85
1015.391	1917.75
1015.683	1891.53
1015.976	1907.35
1016.268	1843.17
1016.56	1868.03
1016.851	1868.26
1017.143	1843.17
1017.435	1800.69
1017.727	1822.61
1018.018	1798.43
1018.31	1783.06
1018.602	1803.62
1018.893	1780.35
1019.185	1760.69
1019.476	1746.9
1019.767	1750.29
1020.058	1727.47
1020.35	1703.29
1020.641	1700.35
1020.932	1693.8
1021.223	1652.89
1021.514	1668.94
1021.804	1648.6
1022.095	1616.51
1022.386	1636.17
1022.677	1604.76
1022.967	1635.49
1023.258	1574.25
1023.548	1598.43
1023.839	1565.89
1024.129	1559.11
1024.419	1546.91
1024.709	1519.34
1025	1515.72
1025.29	1512.56
1025.58	1525.89
1025.87	1494.71
1026.16	1504.65
1026.449	1477.08
1026.739	1468.04
1027.029	1477.08
1027.319	1444.99
1027.608	1438.21
1027.898	1417.87
1028.187	1426.69
1028.477	1414.71
1028.766	1379
1029.055	1375.16
1029.344	1373.35
1029.634	1377.87
1029.923	1354.37
1030.212	1356.18
1030.501	1309.85
1030.79	1305.11
1031.078	1311.43
1031.367	1313.69
1031.656	1313.69
1031.945	1319.34
1032.233	1267.37
1032.522	1291.32
1032.81	1273.02
1033.099	1271.21
1033.387	1247.26
1033.675	1266.69
1033.963	1241.38
1034.251	1246.8
1034.54	1211.32
1034.828	1199.8
1035.116	1217.88
1035.403	1177.2
1035.691	1215.84
1035.979	1154.38
1036.267	1150.08
1036.554	1154.6
1036.842	1141.72
1037.129	1179.01
1037.417	1137.88
1037.704	1140.37
1037.992	1133.36
1038.279	1125
1038.566	1110.08
1038.853	1110.08
1039.14	1110.08
