Data from whiteboard_FLMS001491_00041.txt Node
Date: Wed Feb 08 11:26:39 GMT 2017
User: dcchb
Spectrometer: FLMS00149
Trigger mode: 0
Integration Time (sec): 2.000000E-2
Scans to average: 10
Electric dark correction enabled: true
Nonlinearity correction enabled: false
Boxcar width: 0
XAxis mode: Wavelengths
Number of Pixels in Spectrum: 2048
>>>>>Begin Spectral Data<<<<<
341.393	-11.43
341.776	-11.43
342.16	-11.43
342.543	-48.71
342.927	-60.46
343.31	-93.91
343.693	-81.93
344.077	-60.01
344.46	-60.69
344.843	-48.26
345.226	-43.29
345.61	-28.6
345.993	-14.82
346.376	-14.59
346.759	29.48
347.142	26.76
347.525	32.19
347.908	70.83
348.291	64.5
348.674	89.59
349.057	132.75
349.44	122.36
349.823	129.81
350.206	163.03
350.588	210.26
350.971	230.83
351.354	249.58
351.737	256.82
352.119	285.06
352.502	285.29
352.884	302.69
353.267	343.82
353.65	314.67
354.032	359.41
354.414	340.43
354.797	332.52
355.179	332.07
355.562	358.06
355.944	357.38
356.326	364.16
356.709	360.09
357.091	365.29
357.473	372.97
357.855	390.15
358.238	368.45
358.62	387.43
359.002	386.3
359.384	382.24
359.766	381.33
360.148	376.13
360.53	390.6
360.912	380.2
361.294	396.7
361.676	363.03
362.057	364.84
362.439	382.24
362.821	406.19
363.203	374.1
363.584	354.67
363.966	373.87
364.348	363.48
364.729	376.59
365.111	351.95
365.493	379.52
365.874	365.51
366.256	360.54
366.637	382.91
367.019	363.03
367.4	384.04
367.781	394.89
368.163	370.94
368.544	375.91
368.925	364.61
369.306	390.82
369.688	371.39
370.069	377.49
370.45	399.64
370.831	372.52
371.212	378.62
371.593	378.17
371.974	371.61
372.355	374.1
372.736	374.55
373.117	393.99
373.498	389.47
373.879	379.98
374.26	403.48
374.641	398.28
375.021	388.56
375.402	389.02
375.783	394.66
376.163	428.79
376.544	410.26
376.925	410.94
377.305	409.58
377.686	428.11
378.066	406.87
378.447	400.77
378.827	443.7
379.208	412.97
379.588	440.54
379.968	416.13
380.349	429.47
380.729	445.28
381.109	427.21
381.489	431.95
381.87	442.12
382.25	452.06
382.63	466.53
383.01	450.93
383.39	464.27
383.77	474.21
384.15	464.27
384.53	450.26
384.91	468.34
385.29	478.73
385.67	477.15
386.049	492.97
386.429	486.41
386.809	508.79
387.189	518.73
387.568	511.05
387.948	534.32
388.328	515.34
388.707	529.12
389.087	532.29
389.466	519.18
389.846	529.12
390.225	571.84
390.605	565.51
390.984	556.69
391.363	561.67
391.743	567.32
392.122	590.37
392.501	599.63
392.881	592.63
393.26	607.09
393.639	594.89
394.018	610.93
394.397	633.08
394.776	631.95
395.155	636.01
395.534	663.58
395.913	653.87
396.292	691.38
396.671	678.73
397.05	679.86
397.429	697.26
397.808	707.2
398.186	706.52
398.565	720.76
398.944	748.33
399.323	763.92
399.701	735.22
400.08	774.32
400.458	796.69
400.837	768.44
401.215	805.5
401.594	818.61
401.972	844.6
402.351	847.31
402.729	874.88
403.107	881.43
403.486	874.88
403.864	898.38
404.242	927.76
404.62	938.15
404.999	955.33
405.377	986.97
405.755	982.67
406.133	988.55
406.511	1014.31
406.889	1031.03
407.267	1054.99
407.645	1068.09
408.023	1079.84
408.401	1121.65
408.779	1132.05
409.156	1159.62
409.534	1166.17
409.912	1184.93
410.29	1244.59
410.667	1253.63
411.045	1301.08
411.422	1288.88
411.8	1327.07
412.178	1362.32
412.555	1368.42
412.933	1412.94
413.31	1428.31
413.687	1461.3
414.065	1498.14
414.442	1475.99
414.819	1513.05
415.197	1544.01
415.574	1580.17
415.951	1591.02
416.328	1631.69
416.705	1621.07
417.082	1656.33
417.46	1663.56
417.837	1726.83
418.214	1714.86
418.591	1743.33
418.967	1738.58
419.344	1796.21
419.721	1799.37
420.098	1813.16
420.475	1847.96
420.852	1894.29
421.228	1903.33
421.605	1961.63
421.982	1934.74
422.358	1965.92
422.735	2007.05
423.111	1979.93
423.488	2037.33
423.864	2035.07
424.241	2087.95
424.617	2127.5
424.994	2153.94
425.37	2165.69
425.746	2181.96
426.123	2214.73
426.499	2257.44
426.875	2277.33
427.251	2336.76
427.627	2383.77
428.003	2392.35
428.379	2426.7
428.756	2436.87
429.132	2474.16
429.507	2565.68
429.883	2568.84
430.259	2619.01
430.635	2642.06
431.011	2624.44
431.387	2729.07
431.763	2782.85
432.138	2788.73
432.514	2859.23
432.89	2817.88
433.265	2949.63
433.641	2933.36
434.016	2995.5
434.392	3025.78
434.767	3053.58
435.143	3099.23
435.518	3126.34
435.894	3247.7
436.269	3214.7
436.644	3296.74
437.02	3317.75
437.395	3336.51
437.77	3383.74
438.145	3449.95
438.52	3460.57
438.895	3531.76
439.271	3543.96
439.646	3635.94
440.021	3660.79
440.395	3710.06
440.77	3647.01
441.145	3693.79
441.52	3820.11
441.895	3788.93
442.27	3851.75
442.645	3809.94
443.019	3933.1
443.394	3914.35
443.769	3977.17
444.143	3924.29
444.518	3996.15
444.892	4004.97
445.267	4075.92
445.641	4099.2
446.016	4112.31
446.39	4143.49
446.764	4157.5
447.139	4163.38
447.513	4248.57
447.887	4242.25
448.262	4288.57
448.636	4316.14
449.01	4341
449.384	4423.94
449.758	4437.72
450.132	4480.89
450.506	4571.96
450.88	4578.74
451.254	4566.31
451.628	4642.46
452.002	4723.59
452.376	4774.44
452.75	4823.47
453.123	4863.02
453.497	5000.87
453.871	5022.34
454.244	5125.16
454.618	5140.53
454.992	5227.53
455.365	5248.77
455.739	5439.28
456.112	5516.11
456.486	5495.1
456.859	5548.2
457.232	5679.72
457.606	5650.8
457.979	5741.42
458.352	5881.75
458.725	5926.5
459.099	6017.12
459.472	6145.93
459.845	6161.29
460.218	6196.77
460.591	6287.17
460.964	6334.17
461.337	6487.39
461.71	6611.9
462.083	6655.74
462.456	6690.54
462.829	6724.44
463.201	6864.55
463.574	6863.87
463.947	6955.4
464.32	7147.71
464.692	7156.52
465.065	7297.08
465.438	7337.31
465.81	7431.54
466.183	7606.9
466.555	7741.82
466.928	7779.33
467.3	7776.62
467.672	7947.23
468.045	8152.43
468.417	8142.03
468.789	8289.82
469.161	8457.5
469.534	8533.66
469.906	8748.12
470.278	8803.71
470.65	9002.57
471.022	9121.21
471.394	9290.25
471.766	9460.42
472.138	9566.4
472.51	9748.32
472.882	9963
473.253	10009.33
473.625	10232.37
473.997	10453.38
474.369	10412.71
474.74	10606.83
475.112	10840.27
475.484	10960.94
475.855	11152.12
476.227	11301.27
476.598	11564.31
476.97	11670.75
477.341	11917.53
477.713	12157.75
478.084	12214.92
478.455	12531.29
478.827	12575.36
479.198	12932.87
479.569	13008.8
479.94	13376.92
480.311	13516.13
480.682	13794.76
481.053	14110.46
481.424	14209.44
481.795	14303
482.166	14617.12
482.537	14835.64
482.908	15131.23
483.279	15272.01
483.65	15586.58
484.021	15967.36
484.391	16136.17
484.762	16301.14
485.133	16420.23
485.503	16643.96
485.874	17172.98
486.244	17286.42
486.615	17610.94
486.985	17918.27
487.356	18224.48
487.726	18415.66
488.097	18812.49
488.467	18884.35
488.837	19320.72
489.207	19542.64
489.578	19863.53
489.948	20052.68
490.318	20447.02
490.688	20474.36
491.058	20862.15
491.428	21190.05
491.798	21409.48
492.168	21776.25
492.538	21910.48
492.908	22152.74
493.278	22429.34
493.648	22462.56
494.017	22795.43
494.387	22877.01
494.757	23100.73
495.126	23400.16
495.496	23446.94
495.866	23640.38
496.235	23734.39
496.605	24001.28
496.974	24131.22
497.344	24366.24
497.713	24543.86
498.082	24733.69
498.452	24902.04
498.821	25035.6
499.19	25120.34
499.559	25251.41
499.928	25484.63
500.298	25601.01
500.667	25819.53
501.036	25850.04
501.405	26091.16
501.774	26277.15
502.143	26435.56
502.512	26448.89
502.88	26791.71
503.249	26832.84
503.618	27235.99
503.987	27250.46
504.356	27515.53
504.724	27724.34
505.093	27906.26
505.462	28006.59
505.83	28262.18
506.199	28628.05
506.567	29007.02
506.936	29009.96
507.304	29395.71
507.672	29610.62
508.041	29701.69
508.409	30013.55
508.777	30133.54
509.145	30567.2
509.514	30600.2
509.882	30877.71
510.25	31067.08
510.618	31265.04
510.986	31461.64
511.354	31742.99
511.722	32114.28
512.09	32287.61
512.458	32373.26
512.826	32573.93
513.193	32736.41
513.561	32959.91
513.929	33241.26
514.297	33537.75
514.664	33623.85
515.032	33751.3
515.4	33949.26
515.767	34101.12
516.135	34295.47
516.502	34192.65
516.869	34730.03
517.237	34833.99
517.604	34857.94
517.972	35222.45
518.339	35335.67
518.706	35452.73
519.073	35712.61
519.44	35945.14
519.808	36129.77
520.175	36165.25
520.542	36697.67
520.909	36812.24
521.276	36848.85
521.643	37310.3
522.009	37570.86
522.376	37738.32
522.743	38172.2
523.11	38464.4
523.477	38823.71
523.843	39057.15
524.21	39667.76
524.577	39773.29
524.943	39978.03
525.31	40208.08
525.676	40672.02
526.043	40882.87
526.409	41057.55
526.776	41683.97
527.142	41684.2
527.508	42012.33
527.874	42221.81
528.241	42547
528.607	42775.02
528.973	43219.3
529.339	43243.48
529.705	43672.4
530.071	44095.44
530.437	44125.04
530.803	44483
531.169	44720.73
531.535	44780.16
531.901	44972.48
532.267	45314.39
532.632	45504.89
532.998	45779.91
533.364	45900.13
533.73	46040.7
534.095	46487.01
534.461	46474.58
534.826	46663.73
535.192	46633.9
535.557	47054.45
535.923	47012.65
536.288	47165.41
536.653	47321.57
537.019	47172.64
537.384	47601.11
537.749	47741.44
538.114	47699.41
538.479	47640.65
538.845	47905.96
539.21	47783.48
539.575	47957.03
539.94	48075.67
540.305	48261.2
540.67	48219.17
541.034	48381.43
541.399	48531.25
541.764	48578.93
542.129	48617.35
542.494	48753.17
542.858	48974.86
543.223	48962.88
543.587	49227.28
543.952	49201.52
544.316	49322.64
544.681	49258.92
545.045	49656.65
545.41	49658
545.774	49772.35
546.138	49847.15
546.503	49970.08
546.867	50142.06
547.231	50437.64
547.595	50492.33
547.959	50653.91
548.324	50725.54
548.688	50893.22
549.052	50985.65
549.416	51212.09
549.779	51203.27
550.143	51293.67
550.507	51560.78
550.871	51751.05
551.235	51779.3
551.599	52060.2
551.962	52130.48
552.326	52250.93
552.689	52438.04
553.053	52411.38
553.417	52552.84
553.78	52927.97
554.143	52852.72
554.507	53014.98
554.87	53194.18
555.234	53486.38
555.597	53359.37
555.96	53499.03
556.323	53600.95
556.686	53643.89
557.05	53845.46
557.413	53924.33
557.776	54019.47
558.139	54151.67
558.502	54207.71
558.865	54301.95
559.228	54472.56
559.59	54489.97
559.953	54479.34
560.316	54880.69
560.679	54800.01
561.041	54935.83
561.404	54965.43
561.767	55186.44
562.129	55048.82
562.492	55335.82
562.854	55317.51
563.217	55312.99
563.579	55405.2
563.941	55519.32
564.304	55622.37
564.666	55738.52
565.028	55804.06
565.39	55859.2
565.753	55977.84
566.115	56011.06
566.477	56077.72
566.839	56199.3
567.201	56376.92
567.563	56339.18
567.925	56542.11
568.287	56504.38
568.648	56607.88
569.01	56775.56
569.372	56890.13
569.734	56783.24
570.095	57042.21
570.457	57037.02
570.819	57156.11
571.18	57162.21
571.542	57398.59
571.903	57411.7
572.265	57564.91
572.626	57655.76
572.987	57713.38
573.349	57721.07
573.71	57888.97
574.071	58022.08
574.432	58059.36
574.794	58260.71
575.155	58250.09
575.516	58231.11
575.877	58369.86
576.238	58423.87
576.599	58529.41
576.96	58530.76
577.32	58608.05
577.681	58748.38
578.042	58809.85
578.403	58784.54
578.763	58875.39
579.124	58894.6
579.485	59026.8
579.845	59107.47
580.206	59078.77
580.566	59171.88
580.927	59250.74
581.287	59244.42
581.648	59139.79
582.008	59288.94
582.368	59264.3
582.728	59369.16
583.089	59322.15
583.449	59305.21
583.809	59342.04
584.169	59370.06
584.529	59269.5
584.889	59520.79
585.249	59256.17
585.609	59265.66
585.969	59402.6
586.329	59247.13
586.688	59281.7
587.048	59267.47
587.408	59200.35
587.768	59198.77
588.127	59209.16
588.487	59094.14
588.846	59170.52
589.206	59047.81
589.565	59134.82
589.925	59196.96
590.284	59115.38
590.643	59126.45
591.003	59127.81
591.362	59102.05
591.721	59037.19
592.08	59011.88
592.44	59073.35
592.799	59084.42
593.158	59020.47
593.517	59018.89
593.876	58952.45
594.235	59048.49
594.593	59033.35
594.952	58990.64
595.311	58974.59
595.67	59005.33
596.029	59167.81
596.387	59124.87
596.746	59183.85
597.104	59009.62
597.463	59113.57
597.822	59212.78
598.18	59061.82
598.538	59117.87
598.897	59219.33
599.255	59171.65
599.613	59452.77
599.972	59224.08
600.33	59424.3
600.688	59353.79
601.046	59457.97
601.404	59548.14
601.762	59485.99
602.12	59627.46
602.478	59673.56
602.836	59751.52
603.194	59602.83
603.552	59738.64
603.91	59641.92
604.268	59788.13
604.625	59728.7
604.983	59824.06
605.341	59671.3
605.698	59958.75
606.056	59963.04
606.413	59976.6
606.771	60046.66
607.128	60072.19
607.485	59967.34
607.843	60069.25
608.2	60175.24
608.557	60301.79
608.914	60161.45
609.272	60315.8
609.629	60346.76
609.986	60398.51
610.343	60269.47
610.7	60461.11
611.057	60367.1
611.414	60346.53
611.771	60450.26
612.127	60487.1
612.484	60491.16
612.841	60560.31
613.198	60459.75
613.554	60466.31
613.911	60598.96
614.267	60495.91
614.624	60531.61
614.98	60489.58
615.337	60591.73
615.693	60478.96
616.05	60504.72
616.406	60602.8
616.762	60481.22
617.118	60492.52
617.475	60404.16
617.831	60486.42
618.187	60452.07
618.543	60488.9
618.899	60554.66
619.255	60526.64
619.611	60417.04
619.967	60502.69
620.323	60572.97
620.678	60466.53
621.034	60418.17
621.39	60337.04
621.746	60279.42
622.101	60512.86
622.457	60298.4
622.812	60354.67
623.168	60365.52
623.523	60331.39
623.879	60422.69
624.234	60254.56
624.589	60385.4
624.945	60309.47
625.3	60356.25
625.655	60279.87
626.01	60300.66
626.365	60324.61
626.72	60280.55
627.075	60283.71
627.43	60309.93
627.785	60285.07
628.14	60292.07
628.495	60286.65
628.85	60250.72
629.205	60138.63
629.559	60291.39
629.914	60152.42
630.269	60168.69
630.623	60189.93
630.978	60149.93
631.332	60328.91
631.687	60329.59
632.041	60225.18
632.396	60289.81
632.75	60174.11
633.104	60260.66
633.459	60144.28
633.813	60180.89
634.167	60187.89
634.521	60156.48
634.875	60227.89
635.229	60226.54
635.583	60149.03
635.937	60199.42
636.291	60116.71
636.645	60247.1
636.999	60173.21
637.352	60239.64
637.706	60095.02
638.06	60219.76
638.413	60081.91
638.767	60059.76
639.121	60109.03
639.474	59935.7
639.828	60007.33
640.181	60019.54
640.534	59990.39
640.888	59943.61
641.241	59871.97
641.594	59933.44
641.947	59984.96
642.301	59885.53
642.654	59918.07
643.007	59840.11
643.36	59808.92
643.713	59795.59
644.066	59796.04
644.419	59655.03
644.771	59514.92
645.124	59307.92
645.477	59234.47
645.83	59099.11
646.182	58907.93
646.535	58781.38
646.888	58790.87
647.24	58649.18
647.593	58722.17
647.945	58588.39
648.298	58470.43
648.65	58407.15
649.002	58359.92
649.355	58381.84
649.707	58360.82
650.059	58504.32
650.411	58727.14
650.763	58693.02
651.115	58929.85
651.467	58724.88
651.819	58723.75
652.171	58605.34
652.523	58576.64
652.875	58545.45
653.227	58389.3
653.578	58582.51
653.93	58506.58
654.282	58364.44
654.633	58305.01
654.985	58335.97
655.337	58264.33
655.688	58270.21
656.039	58394.27
656.391	58088.06
656.742	58184.11
657.094	58180.26
657.445	58217.55
657.796	58055.75
658.147	58089.87
658.498	58050.55
658.849	58114.05
659.2	58021.17
659.551	57891.46
659.902	58081.28
660.253	58039.25
660.604	58117.67
660.955	57975.52
661.306	58048.29
661.656	58000.38
662.007	57999.48
662.358	58016.2
662.708	57984.34
663.059	58005.13
663.409	57920.38
663.76	58093.03
664.11	58000.83
664.461	58060.27
664.811	58044
665.161	58060.72
665.511	57987.73
665.862	58019.36
666.212	58076.54
666.562	58052.81
666.912	58096.65
667.262	58059.59
667.612	58105.92
667.962	57980.04
668.312	57979.37
668.662	58076.31
669.011	58031.57
669.361	58072.47
669.711	58005.81
670.06	58036.99
670.41	57987.95
670.76	57942.3
671.109	58056.43
671.459	57980.72
671.808	57985.24
672.157	57965.81
672.507	57808.07
672.856	57855.53
673.205	57872.7
673.554	57931.01
673.904	57914.51
674.253	57974.62
674.602	57867.05
674.951	57476.33
675.3	57318.59
675.649	57721.52
675.998	57726.26
676.346	57809.43
676.695	57845.81
677.044	57646.49
677.393	57707.51
677.741	57771.24
678.09	57608.98
678.438	57614.18
678.787	57586.83
679.135	57625.7
679.484	57443.56
679.832	57455.99
680.181	57369.89
680.529	57440.4
680.877	57325.15
681.225	57235.66
681.573	57346.61
681.922	57204.24
682.27	57070.91
682.618	57086.28
682.966	56946.17
683.314	57000.63
683.661	56897.59
684.009	56721.77
684.357	56612.85
684.705	56606.29
685.053	56645.62
685.4	56540.99
685.748	56349.35
686.095	56399.29
686.443	56196.59
686.79	56220.99
687.138	56200.88
687.485	56129.02
687.832	56013.09
688.18	56036.14
688.527	55837.05
688.874	55850.38
689.221	55776.49
689.568	55662.59
689.915	55692.42
690.262	55576.04
690.609	55470.73
690.956	55398.19
691.303	55316.84
691.65	55145.99
691.997	55103.73
692.344	54811.99
692.69	54950.29
693.037	54921.59
693.383	54678.21
693.73	54726.8
694.077	54526.12
694.423	54470.98
694.769	54386.47
695.116	54336.07
695.462	54338.11
695.808	54217.66
696.155	54147.83
696.501	53954.84
696.847	54000.26
697.193	53841.85
697.539	53922.52
697.885	53682.98
698.231	53578.58
698.577	53658.8
698.923	53573.61
699.269	53348.53
699.614	53144.24
699.96	53285.93
700.306	53207.29
700.651	53016.56
700.997	52955.99
701.342	52947.63
701.688	52973.62
702.033	52830.12
702.379	52825.38
702.724	52728.43
703.069	52829.44
703.415	52586.06
703.76	52503.8
704.105	52527.08
704.45	52413.18
704.795	52306.97
705.14	52163.02
705.485	52188.11
705.83	52016.13
706.175	52186.98
706.52	52012.29
706.865	51975.23
707.209	51933.87
707.554	51856.59
707.899	51988.11
708.243	51826.76
708.588	51800.77
708.932	51695.24
709.277	51594.22
709.621	51715.12
709.966	51444.4
710.31	51581.34
710.654	51261.8
710.998	51339.99
711.342	51226.77
711.687	51132.31
712.031	51096.83
712.375	51004.63
712.719	51032.2
713.063	50914.47
713.407	51009.15
713.75	50882.38
714.094	50752.66
714.438	50582.05
714.782	50607.13
715.125	50464.08
715.469	50571.2
715.812	50306.12
716.156	50203.3
716.499	50123.98
716.843	50151.32
717.186	49999.91
717.53	50018.67
717.873	50137.76
718.216	49902.52
718.559	49733.03
718.902	49504.11
719.246	49445.35
719.589	49306.83
719.932	49282.19
720.275	49310.21
720.617	49137.56
720.96	49278.8
721.303	49081.97
721.646	49068.19
721.989	48803.79
722.331	48874.29
722.674	48634.98
723.016	48627.07
723.359	48439.5
723.701	48499.16
724.044	48177.59
724.386	48110.25
724.729	48195.89
725.071	47852.4
725.413	47952.74
725.755	47771.72
726.097	47655.79
726.439	47399.98
726.782	47381.23
727.124	47429.36
727.465	47354.79
727.807	47242.7
728.149	47040.44
728.491	46875.02
728.833	46774.46
729.175	46690.62
729.516	46655.14
729.858	46410.4
730.199	46462.83
730.541	46297.19
730.882	46320.69
731.224	46343.51
731.565	46038.89
731.906	45999.12
732.248	46028.72
732.589	45936.74
732.93	45722.51
733.271	45706.24
733.612	45716.86
733.953	45630.54
734.294	45433.48
734.635	45453.82
734.976	45420.37
735.317	45080.27
735.658	45098.35
735.999	45158.91
736.339	44963.89
736.68	45120.72
737.021	44871.91
737.361	44665.82
737.702	44907.39
738.042	44625.37
738.383	44641.86
738.723	44719.83
739.063	44486.84
739.404	44544.24
739.744	44449.78
740.084	44210.01
740.424	44394.86
740.764	44331.36
741.104	44392.38
741.444	44192.61
741.784	44059.73
742.124	44188.32
742.464	44120.52
742.804	43909.23
743.143	43875.78
743.483	43970.69
743.823	43724.37
744.162	43840.08
744.502	43850.25
744.841	43565.73
745.181	43665.84
745.52	43607.77
745.86	43710.14
746.199	43544.26
746.538	43473.53
746.877	43518.95
747.216	43511.5
747.556	43375
747.895	43516.92
748.234	43245.52
748.573	43309.02
748.911	43326.19
749.25	43209.36
749.589	43081.68
749.928	43195.12
750.267	43122.13
750.605	43087.1
750.944	42797.84
751.283	42784.96
751.621	42868.12
751.96	42664.06
752.298	42724.4
752.636	42741.35
752.975	42481.92
753.313	42288.93
753.651	42479.43
753.989	42206.45
754.327	42079.44
754.666	42031.31
755.004	42140.91
755.342	42057.52
755.679	41958.09
756.017	41867.02
756.355	41876.06
756.693	41785.67
757.031	41867.02
757.368	41536.63
757.706	41477.43
758.044	41350.88
758.381	41373.93
758.719	41184.1
759.056	41248.51
759.394	41136.64
759.731	40722.19
760.068	40676.32
760.405	40707.28
760.743	40458.02
761.08	40449.88
761.417	40317.46
761.754	40179.16
762.091	40040.85
762.428	39856.68
762.765	39823.01
763.102	39831.82
763.438	39613.52
763.775	39362
764.112	39382.79
764.449	39258.28
764.785	39065.29
765.122	38781.9
765.458	38606.99
765.795	38541.91
766.131	38534.23
766.467	38202.71
766.804	38090.4
767.14	37947.58
767.476	37916.84
767.812	37723.85
768.148	37824.42
768.485	37478.89
768.821	37282.96
769.157	37076.19
769.492	37040.48
769.828	36931.33
770.164	36504
770.5	36276.43
770.836	36412.7
771.171	36089.55
771.507	36003.45
771.842	35763.68
772.178	35557.81
772.513	35465.16
772.849	35458.6
773.184	35149.01
773.519	35103.36
773.855	34902.46
774.19	34679.41
774.525	34601.22
774.86	34662.46
775.195	34410.95
775.53	34446.88
775.865	34132.99
776.2	33862.03
776.535	33574.13
776.87	33556.28
777.205	33376.4
777.539	33227.7
777.874	33367.58
778.209	32914.26
778.543	32911.32
778.878	32668.17
779.212	32612.57
779.547	32379.59
779.881	32457.55
780.215	32325.58
780.55	32376.42
780.884	32214.62
781.218	31958.81
781.552	31954.06
781.886	31720.39
782.22	31561.75
782.554	31566.73
782.888	31217.13
783.222	31198.6
783.556	31166.06
783.889	31068.21
784.223	30684.04
784.557	30650.37
784.89	30627.32
785.224	30607.88
785.557	30407.66
785.891	30357.27
786.224	30188.91
786.558	30175.35
786.891	29812.87
787.224	29664.86
787.557	29596.16
787.891	29736.27
788.224	29658.75
788.557	29581.47
788.89	29502.83
789.223	29406.11
789.556	29283.17
789.888	29221.03
790.221	29062.16
790.554	28811.77
790.887	28786.46
791.219	28779.23
791.552	28857.42
791.884	28661.49
792.217	28603.87
792.549	28423.53
792.882	28295.4
793.214	28202.52
793.546	28323.87
793.879	28108.29
794.211	27986.03
794.543	28128.85
794.875	28033.94
795.207	28114.39
795.539	27981.96
795.871	27852.25
796.203	27682.31
796.535	27632.37
796.867	27591.24
797.198	27481.18
797.53	27440.73
797.862	27270.34
798.193	27398.47
798.525	27145.6
798.856	27231.02
799.188	26979.95
799.519	26887.08
799.85	26838.72
800.182	26869
800.513	26714.42
800.844	26574.54
801.175	26728.44
801.506	26624.48
801.837	26391.04
802.168	26407.31
802.499	26412.06
802.83	26187.88
803.161	26267.88
803.491	26167.09
803.822	26348.56
804.153	25990.6
804.483	25939.76
804.814	25878.29
805.145	25852.07
805.475	25815.47
805.805	25802.36
806.136	25702.93
806.466	25653.66
806.796	25576.38
807.126	25406.44
807.457	25411.63
807.787	25248.7
808.117	25143.62
808.447	25038.99
808.777	25093.22
809.107	24913.34
809.436	24919.9
809.766	24756.06
810.096	24824.98
810.426	24800.58
810.755	24682.84
811.085	24634.71
811.414	24543.86
811.744	24309.06
812.073	24377.99
812.403	24276.75
812.732	24047.83
813.061	23996.3
813.39	23928.06
813.719	23862.97
814.049	23935.74
814.378	23853.48
814.707	23695.07
815.036	23705.24
815.365	23672.47
815.693	23453.27
816.022	23324.23
816.351	23199.26
816.68	23239.94
817.008	23253.27
817.337	22911.81
817.665	22930.57
817.994	23021.41
818.322	22983.9
818.651	22792.27
818.979	22746.62
819.307	22645.38
819.636	22615.1
819.964	22482.67
820.292	22422.33
820.62	22386.63
820.948	22256.69
821.276	22362
821.604	22284.71
821.932	22406.06
822.259	22282.9
822.587	22141.21
822.915	22137.37
823.243	22174.88
823.57	22065.06
823.898	22079.97
824.225	22040.65
824.553	21983.7
824.88	21968.11
825.207	21980.09
825.535	21956.81
825.862	21927.66
826.189	21919.07
826.516	21986.87
826.843	22080.87
827.17	22108.44
827.497	22018.28
827.824	21981.22
828.151	21871.16
828.478	21784.61
828.805	21758.85
829.131	21754.78
829.458	21745.97
829.785	21677.04
830.111	21702.81
830.438	21865.29
830.764	21632.3
831.09	21636.14
831.417	21458.07
831.743	21605.86
832.069	21521.57
832.395	21406.99
832.722	21537.84
833.048	21467.33
833.374	21483.83
833.7	21444.73
834.026	21411.97
834.351	21382.59
834.677	21480.89
835.003	21358.86
835.329	21422.36
835.654	21380.33
835.98	21188.69
836.306	21101.69
836.631	21060.56
836.956	21254.23
837.282	21224.85
837.607	20984.41
837.932	20990.28
838.258	20953.9
838.583	20954.58
838.908	20870.74
839.233	20937.18
839.558	20830.29
839.883	20810.63
840.208	20690.18
840.533	20753
840.858	20727.69
841.182	20735.6
841.507	20714.13
841.832	20574.93
842.156	20584.64
842.481	20496.74
842.805	20542.16
843.13	20491.09
843.454	20462.16
843.778	20433.23
844.103	20402.73
844.427	20384.87
844.751	20344.65
845.075	20342.16
845.399	20213.13
845.723	20039.8
846.047	20135.84
846.371	19972.91
846.695	19953.02
847.019	19881.61
847.343	19716.87
847.666	19609.07
847.99	19629.64
848.313	19563.2
848.637	19463.54
848.96	19443.66
849.284	19458.12
849.607	19343.32
849.931	19261.74
850.254	19128.64
850.577	19017.23
850.9	18976.78
851.223	19045.7
851.546	18918.47
851.869	18757.57
852.192	18766.16
852.515	18720.06
852.838	18662.88
853.161	18615.43
853.483	18453.17
853.806	18427.64
854.129	18492.04
854.451	18479.39
854.774	18312.39
855.096	18317.13
855.419	18279.39
855.741	18293.86
856.063	18195.1
856.385	18202.78
856.708	18134.76
857.03	18065.39
857.352	18000.08
857.674	17992.62
857.996	17912.62
858.318	17798.73
858.64	17933.86
858.961	17809.8
859.283	17790.59
859.605	17703.59
859.926	17714.21
860.248	17715.11
860.57	17546.53
860.891	17697.94
861.212	17446.42
861.534	17491.16
861.855	17452.3
862.176	17455.46
862.498	17490.03
862.819	17467.21
863.14	17350.15
863.461	17322.81
863.782	17257.05
864.103	17259.76
864.424	17203.49
864.745	17289.36
865.065	17096.15
865.386	17113.1
865.707	17208.23
866.027	17085.07
866.348	17111.06
866.668	17163.72
866.989	17068.35
867.309	16829.49
867.63	16905.64
867.95	16828.58
868.27	16828.36
868.59	16794.46
868.91	16727.12
869.23	16684.41
869.55	16664.75
869.87	16709.26
870.19	16615.26
870.51	16680.79
870.83	16537.07
871.15	16461.13
871.469	16503.17
871.789	16511.53
872.109	16443.06
872.428	16396.5
872.748	16408.93
873.067	16376.39
873.386	16328.94
873.706	16302.72
874.025	16241.03
874.344	16208.03
874.663	16197.19
874.982	16154.93
875.301	16102.05
875.62	15986.12
875.939	15903.18
876.258	15867.93
876.577	15828.38
876.896	15818.21
877.214	15826.12
877.533	15803.75
877.852	15745.67
878.17	15742.51
878.489	15733.92
878.807	15625.22
879.125	15641.72
879.444	15600.14
879.762	15500.71
880.08	15416.87
880.398	15429.07
880.716	15356.98
881.034	15203.09
881.352	15251.9
881.67	15153.82
881.988	15172.81
882.306	15093.71
882.624	15040.16
882.941	14896.88
883.259	14931.23
883.577	14940.27
883.894	14839.93
884.212	14733.04
884.529	14761.07
884.846	14711.35
885.164	14708.86
885.481	14692.37
885.798	14620.96
886.115	14519.04
886.432	14489.21
886.75	14352.04
887.067	14416.67
887.383	14368.76
887.7	14420.96
888.017	14329.21
888.334	14281.76
888.651	14230.91
888.967	14100.52
889.284	14111.37
889.6	13952.05
889.917	13899.62
890.233	13966.51
890.55	13839.28
890.866	13872.28
891.182	13716.12
891.498	13666.86
891.815	13744.14
892.131	13496.92
892.447	13563.58
892.763	13483.13
893.079	13388.22
893.395	13409.69
893.71	13373.76
894.026	13351.84
894.342	13325.62
894.657	13222.12
894.973	13252.86
895.289	13202.24
895.604	13236.59
895.92	13119.3
896.235	12960.66
896.55	13042.02
896.865	12880.89
897.181	12841.12
897.496	12841.12
897.811	12713.21
898.126	12739.65
898.441	12718.18
898.756	12626.43
899.071	12591.86
899.386	12569.03
899.7	12445.65
900.015	12384.18
900.33	12312.32
900.644	12331.98
900.959	12384.63
901.273	12268.7
901.588	12224.18
901.902	12190.06
902.216	12104.19
902.531	12074.36
902.845	12138.31
903.159	12080.91
903.473	12027.58
903.787	11878.88
904.101	11851.76
904.415	11895.15
904.729	11847.02
905.042	11826
905.356	11775.16
905.67	11715.5
905.984	11736.29
906.297	11678.44
906.611	11565.44
906.924	11632.11
907.237	11512.11
907.551	11506.46
907.864	11540.59
908.177	11465.33
908.491	11409.29
908.804	11330.65
909.117	11334.49
909.43	11336.07
909.743	11272.8
910.056	11218.56
910.368	11181.95
910.681	11122.97
910.994	11146.02
911.307	11112.58
911.619	11000.71
911.932	10966.14
912.244	10967.72
912.557	10939.92
912.869	10939.25
913.181	10861.73
913.494	10932.24
913.806	10877.78
914.118	10844.11
914.43	10757.56
914.742	10792.81
915.054	10652.7
915.366	10680.95
915.678	10634.62
915.99	10590.33
916.302	10468.52
916.613	10454.06
916.925	10483.67
917.236	10505.13
917.548	10419.03
917.859	10447.06
918.171	10311.01
918.482	10342.2
918.794	10290
919.105	10246.84
919.416	10212.03
919.727	10212.49
920.038	10127.06
920.349	10076.67
920.66	10042.32
920.971	10066.27
921.282	10030.8
921.593	9991.7
921.903	10022.21
922.214	9997.35
922.525	9944.7
922.835	9846.17
923.146	9775.21
923.456	9710.8
923.767	9712.39
924.077	9739.5
924.387	9644.37
924.697	9528.44
925.008	9545.38
925.318	9496.8
925.628	9505.16
925.938	9473.3
926.248	9359.4
926.558	9309.46
926.867	9349.91
927.177	9299.52
927.487	9269.69
927.796	9153.98
928.106	9109.24
928.416	9146.07
928.725	9102.01
929.034	9175.9
929.344	9079.18
929.653	9023.82
929.962	8946.08
930.271	8887.32
930.581	8848.23
930.89	8728.91
931.199	8716.71
931.508	8715.8
931.817	8720.1
932.125	8683.49
932.434	8594.9
932.743	8563.72
933.051	8565.3
933.36	8493.43
933.669	8399.43
933.977	8351.74
934.286	8391.29
934.594	8340.44
934.902	8237.62
935.21	8239.2
935.519	8206.89
935.827	8153.33
936.135	8107
936.443	8051.86
936.751	8029.49
937.059	8057.06
937.367	7910.63
937.674	8019.1
937.982	7968.48
938.29	7889.16
938.597	7831.53
938.905	7738.88
939.213	7809.84
939.52	7725.55
939.827	7717.64
940.135	7634.02
940.442	7602.84
940.749	7593.35
941.056	7552.89
941.363	7431.99
941.67	7417.08
941.977	7419.79
942.284	7422.95
942.591	7359.68
942.898	7342.96
943.205	7247.37
943.511	7238.33
943.818	7220.47
944.125	7143.19
944.431	7137.99
944.738	7081.04
945.044	7125.56
945.35	6979.35
945.657	7014.6
945.963	6917.66
946.269	6828.62
946.575	6865
946.881	6775.06
947.187	6790.65
947.493	6759.7
947.799	6749.98
948.105	6682.41
948.41	6639.47
948.716	6668.62
949.022	6593.37
949.327	6525.58
949.633	6457.78
949.938	6472.02
950.244	6444.45
950.549	6361.97
950.854	6299.37
951.16	6318.12
951.465	6307.5
951.77	6236.77
952.075	6165.81
952.38	6192.48
952.685	6172.59
952.99	6141.18
953.294	6041.97
953.599	6014.63
953.904	6007.62
954.209	5925.37
954.513	5981.64
954.818	5852.83
955.122	5900.51
955.426	5874.29
955.731	5805.6
956.035	5807.4
956.339	5764.69
956.643	5763.79
956.948	5671.14
957.252	5620.29
957.556	5598.6
957.86	5580.74
958.163	5566.73
958.467	5525.6
958.771	5447.64
959.075	5550.91
959.378	5444.48
959.682	5410.35
959.985	5397.92
960.289	5345.72
960.592	5302.33
960.896	5300.3
961.199	5248.77
961.502	5259.85
961.805	5230.7
962.108	5174.43
962.411	5206.06
962.714	5127.2
963.017	5111.6
963.32	5109.34
963.623	5098.04
963.926	5084.48
964.228	5056.46
964.531	5034.99
964.833	5003.13
965.136	4963.81
965.438	4941.66
965.741	4893.53
966.043	4896.47
966.345	4826.86
966.648	4844.04
966.95	4840.88
967.252	4751.61
967.554	4809.01
967.856	4745.51
968.158	4724.49
968.46	4719.07
968.761	4669.13
969.063	4661.67
969.365	4640.88
969.666	4604.27
969.968	4602.46
970.269	4596.81
970.571	4542.35
970.872	4547.32
971.174	4491.96
971.475	4471.85
971.776	4474.11
972.077	4502.35
972.378	4448.57
972.679	4455.12
972.98	4423.49
973.281	4406.99
973.582	4357.5
973.883	4444.05
974.183	4290.83
974.484	4312.3
974.785	4299.65
975.085	4251.29
975.386	4263.49
975.686	4246.31
975.986	4237.28
976.287	4261
976.587	4200.21
976.887	4196.82
977.187	4191.18
977.487	4114.34
977.787	4136.94
978.087	4128.8
978.387	4134.68
978.687	4140.1
978.987	4054.91
979.286	4038.41
979.586	4036.38
979.885	4031.63
980.185	3991.86
980.484	4057.17
980.784	3974.68
981.083	3993.67
981.382	3974.01
981.682	3947.79
981.981	3963.84
982.28	3919.54
982.579	3863.05
982.878	3913.44
983.177	3885.19
983.475	3893.1
983.774	3861.47
984.073	3825.08
984.372	3833.44
984.67	3825.08
984.969	3826.89
985.267	3823.28
985.566	3792.77
985.864	3714.35
986.162	3733.11
986.461	3750.73
986.759	3684.52
987.057	3648.36
987.355	3665.99
987.653	3636.16
987.951	3635.26
988.249	3649.49
988.547	3614.02
988.844	3616.95
989.142	3612.89
989.44	3569.5
989.737	3588.25
990.035	3560.01
990.332	3565.65
990.63	3554.81
990.927	3534.02
991.224	3517.52
991.521	3477.52
991.819	3465.09
992.116	3460.12
992.413	3457.64
992.71	3411.31
993.006	3450.86
993.303	3432.78
993.6	3429.84
993.897	3398.65
994.193	3385.77
994.49	3357.75
994.787	3345.32
995.083	3298.09
995.379	3296.51
995.676	3299.9
995.972	3258.09
996.268	3267.58
996.565	3248.83
996.861	3226.91
997.157	3214.03
997.453	3212.44
997.749	3180.35
998.044	3184.2
998.34	3186.68
998.636	3139
998.932	3121.37
999.227	3082.96
999.523	3093.58
999.818	3100.58
1000.114	3065.78
1000.409	3053.35
1000.704	3002.96
1001	3015.39
1001.295	2992.56
1001.59	2980.36
1001.885	2980.13
1002.18	2938.1
1002.475	2922.73
1002.77	2908.95
1003.065	2917.08
1003.359	2905.79
1003.654	2906.92
1003.949	2835.96
1004.243	2826.69
1004.538	2819.91
1004.832	2809.52
1005.127	2795.28
1005.421	2753.92
1005.715	2745.11
1006.009	2761.83
1006.304	2718.22
1006.598	2724.55
1006.892	2720.93
1007.186	2672.12
1007.48	2674.15
1007.773	2672.8
1008.067	2658.56
1008.361	2582.18
1008.655	2626.24
1008.948	2587.83
1009.242	2609.97
1009.535	2550.31
1009.829	2533.14
1010.122	2543.99
1010.415	2525
1010.708	2503.99
1011.001	2483.88
1011.295	2472.58
1011.588	2461.28
1011.881	2441.62
1012.173	2447.27
1012.466	2424.44
1012.759	2421.73
1013.052	2414.72
1013.344	2405.69
1013.637	2354.84
1013.93	2348.74
1014.222	2325.69
1014.514	2337.66
1014.807	2275.07
1015.099	2289.3
1015.391	2300.83
1015.683	2277.78
1015.976	2223.32
1016.268	2234.62
1016.56	2204.33
1016.851	2192.58
1017.143	2195.97
1017.435	2168.63
1017.727	2091.8
1018.018	2117.33
1018.31	2096.99
1018.602	2089.54
1018.893	2064.45
1019.185	2097.67
1019.476	2030.78
1019.767	2048.63
1020.058	2014.06
1020.35	1984.68
1020.641	2005.92
1020.932	1974.74
1021.223	1948.07
1021.514	1948.3
1021.804	1952.36
1022.095	1922.31
1022.386	1913.27
1022.677	1888.64
1022.967	1893.61
1023.258	1840.05
1023.548	1862.87
1023.839	1836.43
1024.129	1820.62
1024.419	1786.27
1024.709	1778.81
1025	1751.01
1025.29	1746.49
1025.58	1745.82
1025.87	1740.17
1026.16	1720.73
1026.449	1700.39
1026.739	1677.79
1027.029	1678.02
1027.319	1638.47
1027.608	1618.59
1027.898	1643.67
1028.187	1603.9
1028.477	1608.19
1028.766	1603.9
1029.055	1552.15
1029.344	1576.78
1029.634	1562.54
1029.923	1528.65
1030.212	1515.31
1030.501	1496.56
1030.79	1492.71
1031.078	1483.22
1031.367	1482.09
1031.656	1472.15
1031.945	1462.66
1032.233	1438.71
1032.522	1430.57
1032.81	1428.54
1033.099	1390.34
1033.387	1393.73
1033.675	1398.93
1033.963	1368.65
1034.251	1360.06
1034.54	1344.02
1034.828	1338.37
1035.116	1319.39
1035.403	1314.19
1035.691	1301.53
1035.979	1262.21
1036.267	1294.53
1036.554	1292.27
1036.842	1269.22
1037.129	1272.61
1037.417	1253.4
1037.704	1240.29
1037.992	1246.85
1038.279	1241.87
1038.566	1201.42
1038.853	1201.42
1039.14	1201.42
