Data from whiteboard_FLMS001491_00043.txt Node
Date: Wed Feb 08 11:26:39 GMT 2017
User: dcchb
Spectrometer: FLMS00149
Trigger mode: 0
Integration Time (sec): 2.000000E-2
Scans to average: 10
Electric dark correction enabled: true
Nonlinearity correction enabled: false
Boxcar width: 0
XAxis mode: Wavelengths
Number of Pixels in Spectrum: 2048
>>>>>Begin Spectral Data<<<<<
341.393	1.84
341.776	1.84
342.16	1.84
342.543	-53.53
342.927	-66.41
343.31	-63.02
343.693	-89.46
344.077	-74.55
344.46	-59.18
344.843	-67.99
345.226	-49.24
345.61	-33.19
345.993	-12.85
346.376	-16.02
346.759	30.31
347.142	21.95
347.525	47.48
347.908	62.17
348.291	82.51
348.674	111.89
349.057	109.18
349.44	133.36
349.823	148.27
350.206	156.63
350.588	214.03
350.971	236.18
351.354	238.67
351.737	282.05
352.119	275.5
352.502	288.38
352.884	294.94
353.267	328.38
353.65	319.57
354.032	333.8
354.414	346.23
354.797	335.61
355.179	351.88
355.562	374.26
355.944	389.85
356.326	361.83
356.709	374.71
357.091	364.99
357.473	365.67
357.855	411.54
358.238	393.92
358.62	379.68
359.002	365.44
359.384	367.25
359.766	388.49
360.148	372.22
360.53	375.61
360.912	379.68
361.294	378.1
361.676	362.96
362.057	383.3
362.439	382.84
362.821	387.59
363.203	371.32
363.584	375.16
363.966	373.8
364.348	371.09
364.729	359.79
365.111	345.33
365.493	363.86
365.874	366.35
366.256	375.84
366.637	366.57
367.019	344.43
367.4	362.05
367.781	361.15
368.163	357.31
368.544	380.13
368.925	348.27
369.306	377.19
369.688	348.04
370.069	366.57
370.45	374.71
370.831	369.06
371.212	374.48
371.593	377.65
371.974	372.45
372.355	370.87
372.736	369.96
373.117	383.3
373.498	392.79
373.879	371.09
374.26	393.01
374.641	406.57
375.021	369.74
375.402	386.68
375.783	393.01
376.163	422.62
376.544	416.51
376.925	399.11
377.305	402.5
377.686	414.48
378.066	389.62
378.447	397.98
378.827	413.8
379.208	406.57
379.588	419.68
379.968	432.33
380.349	407.48
380.729	440.69
381.109	437.53
381.489	444.76
381.87	421.03
382.25	442.28
382.63	447.25
383.01	447.7
383.39	450.64
383.77	478.21
384.15	446.57
384.53	466.91
384.91	460.13
385.29	485.21
385.67	482.95
386.049	489.73
386.429	510.3
386.809	489.96
387.189	505.1
387.568	502.39
387.948	490.41
388.328	501.71
388.707	515.27
389.087	535.83
389.466	529.05
389.846	547.13
390.225	554.82
390.605	549.39
390.984	542.16
391.363	578.09
391.743	595.04
392.122	561.14
392.501	580.13
392.881	590.75
393.26	612.89
393.639	603.63
394.018	618.54
394.397	632.1
394.776	621.25
395.155	637.98
395.534	636.4
395.913	651.54
396.292	650.86
396.671	668.71
397.05	668.71
397.429	694.02
397.808	710.74
398.186	714.36
398.565	715.49
398.944	720.01
399.323	725.43
399.701	778.09
400.08	753.45
400.458	790.06
400.837	788.03
401.215	805.2
401.594	788.93
401.972	824.87
402.351	842.27
402.729	872.1
403.107	854.24
403.486	841.14
403.864	880.68
404.242	891.76
404.62	920
404.999	908.7
405.377	946.44
405.755	968.82
406.133	993.9
406.511	996.61
406.889	1000.91
407.267	1056.5
407.645	1061.47
408.023	1089.04
408.401	1083.84
408.779	1119.09
409.156	1125.42
409.534	1162.26
409.912	1175.36
410.29	1209.71
410.667	1228.92
411.045	1279.99
411.422	1278.19
411.8	1297.4
412.178	1345.53
412.555	1359.09
412.933	1367
413.31	1409.26
413.687	1440.44
414.065	1431.4
414.442	1473.21
414.819	1488.35
415.197	1538.52
415.574	1550.5
415.951	1565.41
416.328	1566.09
416.705	1563.6
417.082	1600.21
417.46	1641.79
417.837	1710.49
418.214	1673.88
418.591	1715.01
418.967	1753.43
419.344	1734.45
419.721	1757.95
420.098	1825.29
420.475	1831.39
420.852	1832.3
421.228	1863.03
421.605	1886.53
421.982	1895.57
422.358	1903.03
422.735	1950.03
423.111	1981.45
423.488	2016.7
423.864	2023.03
424.241	2046.75
424.617	2089.92
424.994	2096.7
425.37	2111.61
425.746	2134.44
426.123	2171.27
426.499	2189.8
426.875	2244.94
427.251	2273.87
427.627	2332.62
428.003	2378.72
428.379	2362
428.756	2410.59
429.132	2443.58
429.507	2466.63
429.883	2515.22
430.259	2569
430.635	2604.48
431.011	2598.6
431.387	2641.77
431.763	2728.32
432.138	2720.18
432.514	2804.25
432.89	2820.29
433.265	2880.4
433.641	2882.44
434.016	2936.67
434.392	2995.66
434.767	3045.37
435.143	3067.74
435.518	3080.63
435.894	3098.7
436.269	3190
436.644	3227.51
437.02	3242.2
437.395	3287.85
437.77	3376.89
438.145	3380.96
438.52	3423.89
438.895	3480.61
439.271	3478.58
439.646	3535.3
440.021	3608.07
440.395	3634.73
440.77	3656.2
441.145	3648.97
441.52	3731.23
441.895	3761.74
442.27	3769.65
442.645	3749.08
443.019	3834.28
443.394	3821.85
443.769	3884.22
444.143	3882.86
444.518	4004.67
444.892	3938
445.267	3993.82
445.641	4036.76
446.016	4034.95
446.39	4051.45
446.764	4107.04
447.139	4092.35
447.513	4140.03
447.887	4184.55
448.262	4203.76
448.636	4234.72
449.01	4342.29
449.384	4270.88
449.758	4350.42
450.132	4455.28
450.506	4483.53
450.88	4500.47
451.254	4503.64
451.628	4586.8
452.002	4620.02
452.376	4698.44
452.75	4751.32
453.123	4815.27
453.497	4913.12
453.871	4903.85
454.244	5040.12
454.618	5055.04
454.992	5134.13
455.365	5156.5
455.739	5304.75
456.112	5373.67
456.486	5388.59
456.859	5457.29
457.232	5589.49
457.606	5574.8
457.979	5690.73
458.352	5792.87
458.725	5830.61
459.099	5944.28
459.472	6025.18
459.845	6059.76
460.218	6115.35
460.591	6205.06
460.964	6188.34
461.337	6393.53
461.71	6473.53
462.083	6526.64
462.456	6585.39
462.829	6586.97
463.201	6749.91
463.574	6752.62
463.947	6860.19
464.32	7017.24
464.692	7057.7
465.065	7138.6
465.438	7219.95
465.81	7366.16
466.183	7411.58
466.555	7550.11
466.928	7611.13
467.3	7673.95
467.672	7818.58
468.045	8060.83
468.417	8042.53
468.789	8156.2
469.161	8239.59
469.534	8428.06
469.906	8621.72
470.278	8663.08
470.65	8816.29
471.022	8940.36
471.394	9129.28
471.766	9248.15
472.138	9361.36
472.51	9546.22
472.882	9728.59
473.253	9889.03
473.625	9977.84
473.997	10217.84
474.369	10272.75
474.74	10352.07
475.112	10617.6
475.484	10850.59
475.855	10933.07
476.227	10965.16
476.598	11396.56
476.97	11469.56
477.341	11699.83
477.713	11954.52
478.084	11879.49
478.455	12316.99
478.827	12405.13
479.198	12727.38
479.569	12812.12
479.94	13098.67
480.311	13246.91
480.682	13471.09
481.053	13827.46
481.424	13990.85
481.795	14166.44
482.166	14375.47
482.537	14562.36
482.908	14873.76
483.279	15025.4
483.65	15320.08
484.021	15600.75
484.391	15796.68
484.762	16035.31
485.133	16115.31
485.503	16384
485.874	16758.23
486.244	16986.7
486.615	17237.77
486.985	17563.41
487.356	17872.1
487.726	18041.81
488.097	18447.23
488.467	18430.96
488.837	18963.6
489.207	19150.03
489.578	19420.08
489.948	19652.62
490.318	19925.15
490.688	20124.92
491.058	20399.04
491.428	20625.47
491.798	20980.04
492.168	21381.39
492.538	21429.75
492.908	21653.02
493.278	22008.72
493.648	22012.78
494.017	22324.19
494.387	22482.6
494.757	22634.46
495.126	22843.04
495.496	23048.91
495.866	23067.9
496.235	23385.4
496.605	23616.81
496.974	23737.94
497.344	23955.1
497.713	24047.53
498.082	24162.78
498.452	24491.14
498.821	24572.26
499.19	24608.42
499.559	24913.5
499.928	25021.29
500.298	25071.69
500.667	25332.02
501.036	25348.51
501.405	25659.92
501.774	25589.86
502.143	25915.28
502.512	26050.64
502.88	26298.77
503.249	26289.05
503.618	26576.05
503.987	26690.85
504.356	27011.75
504.724	27209.93
505.093	27240.22
505.462	27422.81
505.83	27648.57
506.199	28049.01
506.567	28283.58
506.936	28481.99
507.304	28767.63
507.672	28869.1
508.041	29120.84
508.409	29453.27
508.777	29665.24
509.145	29945.91
509.514	29998.56
509.882	30235.84
510.25	30442.62
510.618	30648.49
510.986	30751.99
511.354	31079.89
511.722	31391.52
512.09	31669.48
512.458	31518.75
512.826	31929.36
513.193	32139.97
513.561	32198.73
513.929	32687.3
514.297	32830.58
514.664	32977.92
515.032	33040.52
515.4	33370.45
515.767	33452.93
516.135	33527.06
516.502	33470.79
516.869	34064.44
517.237	34225.34
517.604	34311.22
517.972	34519.12
518.339	34777.87
518.706	34785.55
519.073	34929.73
519.44	35255.15
519.808	35521.81
520.175	35572.43
520.542	35996.37
520.909	36141.45
521.276	36232.75
521.643	36618.05
522.009	36889
522.376	37067.53
522.743	37372.6
523.11	37764.68
523.477	38208.97
523.843	38472.69
524.21	38720.59
524.577	38947.25
524.943	39239.67
525.31	39486.45
525.676	39777.29
526.043	40047.34
526.409	40296.14
526.776	40613.42
527.142	40850.71
527.508	41145.16
527.874	41519.84
528.241	41654.53
528.607	41872.37
528.973	42292.25
529.339	42317.11
529.705	42772.46
530.071	43205.67
530.437	43310.98
530.803	43628.94
531.169	43759.56
531.535	43771.76
531.901	44047.68
532.267	44424.62
532.632	44567.22
532.998	44892.86
533.364	45035
533.73	45242.91
534.095	45512.5
534.461	45641.09
534.826	45792.27
535.192	45880.63
535.557	46256.67
535.923	46347.06
536.288	46388.19
536.653	46599.03
537.019	46543.89
537.384	46627.95
537.749	46900.72
538.114	46865.69
538.479	46961.05
538.845	47182.97
539.21	47043.54
539.575	47241.95
539.94	47355.39
540.305	47633.8
540.67	47512.45
541.034	47618.66
541.399	47721.49
541.764	47879
542.129	48042.15
542.494	48227.91
542.858	48170.74
543.223	48295.48
543.587	48497.74
543.952	48463.16
544.316	48568.69
544.681	48690.5
545.045	48929.14
545.41	49158.74
545.774	49109.92
546.138	49182.92
546.503	49271.5
546.867	49401.89
547.231	49795.1
547.595	49833.97
547.959	49902.67
548.324	50059.73
548.688	50115.55
549.052	50292.27
549.416	50397.8
549.779	50500.4
550.143	50556.44
550.507	50896.54
550.871	50962.53
551.235	51071
551.599	51291.33
551.962	51416.53
552.326	51504.89
552.689	51762.06
553.053	51594.15
553.417	51829.4
553.78	52204.76
554.143	52127.7
554.507	52266.9
554.87	52444.3
555.234	52781.24
555.597	52581.02
555.96	52828.92
556.323	52887.9
556.686	52933.33
557.05	53223.94
557.413	53249.7
557.776	53465.52
558.139	53534.21
558.502	53623.7
558.865	53642.69
559.228	53927.42
559.59	53857.37
559.953	53965.39
560.316	54220.98
560.679	54177.81
561.041	54353.85
561.404	54479.5
561.767	54602.66
562.129	54544.81
562.492	54884.46
562.854	54747.52
563.217	54749.78
563.579	54930.11
563.941	55160.61
564.304	55146.6
564.666	55280.61
565.028	55317.44
565.39	55454.16
565.753	55460.49
566.115	55554.5
566.477	55693.25
566.839	55658.68
567.201	55800.59
567.563	55944.32
567.925	55994.94
568.287	56114.94
568.648	56090.76
569.01	56244.65
569.372	56412.56
569.734	56356.06
570.095	56526.23
570.457	56708.14
570.819	56655.49
571.18	56707.92
571.542	56899.32
571.903	56930.06
572.265	57078.3
572.626	57078.53
572.987	57136.61
573.349	57279.65
573.71	57354.45
574.071	57458.63
574.432	57497.73
574.794	57701.34
575.155	57678.74
575.516	57674.22
575.877	57800.09
576.238	57911.95
576.599	57959.18
576.96	58006.86
577.32	58058.39
577.681	58209.57
578.042	58224.94
578.403	58252.51
578.763	58331.83
579.124	58395.33
579.485	58480.3
579.845	58561.88
580.206	58522.11
580.566	58558.26
580.927	58567.53
581.287	58717.81
581.648	58619.28
582.008	58763.91
582.368	58661.31
582.728	58813.17
583.089	58744.25
583.449	58745.83
583.809	58783.34
584.169	58847.75
584.529	58740.4
584.889	58869.67
585.249	58735.21
585.609	58753.29
585.969	58869.21
586.329	58686.17
586.688	58841.64
587.048	58808.43
587.408	58741.99
587.768	58687.3
588.127	58669.45
588.487	58664.02
588.846	58798.71
589.206	58558.94
589.565	58699.95
589.925	58744.02
590.284	58628.54
590.643	58686.39
591.003	58727.3
591.362	58733.85
591.721	58595.1
592.08	58589.67
592.44	58682.33
592.799	58579.28
593.158	58666.96
593.517	58692.95
593.876	58610.46
594.235	58570.01
594.593	58580.41
594.952	58616.11
595.311	58556
595.67	58549.22
596.029	58719.61
596.387	58674.42
596.746	58721.42
597.104	58654.08
597.463	58646.4
597.822	58794.41
598.18	58668.32
598.538	58603.23
598.897	58810.69
599.255	58641.2
599.613	59011.81
599.972	58825.83
600.33	58885.71
600.688	58802.55
601.046	58913.73
601.404	58978.59
601.762	58929.1
602.12	59143.11
602.478	59105.82
602.836	59124.58
603.194	59048.87
603.552	59159.15
603.91	59101.75
604.268	59287.96
604.625	59123.9
604.983	59259.49
605.341	59177.23
605.698	59301.29
606.056	59410.67
606.413	59384.91
606.771	59459.71
607.128	59499.93
607.485	59446.15
607.843	59459.93
608.2	59626.03
608.557	59686.59
608.914	59633.04
609.272	59773.6
609.629	59844.33
609.986	59871.67
610.343	59730.21
610.7	59901.05
611.057	59845.91
611.414	59851.11
611.771	59887.04
612.127	59967.27
612.484	59964.1
612.841	60045
613.198	59945.57
613.554	59977.89
613.911	60114.83
614.267	60025.34
614.624	59940.37
614.98	60076.87
615.337	60061.95
615.693	60071.44
616.05	60043.2
616.406	60142.18
616.762	60065.34
617.118	60048.84
617.475	59914.39
617.831	60073.02
618.187	60035.06
618.543	60080.03
618.899	60151.67
619.255	60088.17
619.611	60079.35
619.967	60119.35
620.323	60152.12
620.678	60104.44
621.034	59926.59
621.39	59989.64
621.746	59892.46
622.101	60168.16
622.457	59898.57
622.812	59882.3
623.168	59960.03
623.523	59930.66
623.879	60021.27
624.234	59850.43
624.589	59895.18
624.945	59904.22
625.3	60003.87
625.655	59896.76
626.01	59845.46
626.365	59899.7
626.72	59879.13
627.075	59869.41
627.43	59822.86
627.785	59745.58
628.14	59791.22
628.495	59835.97
628.85	59771.79
629.205	59746.93
629.559	59805.46
629.914	59740.6
630.269	59739.7
630.623	59702.64
630.978	59680.04
631.332	59745.8
631.687	59749.64
632.041	59741.51
632.396	59711.23
632.75	59597.56
633.104	59725.69
633.459	59572.02
633.813	59643.66
634.167	59630.78
634.521	59566.82
634.875	59680.27
635.229	59711.9
635.583	59539.48
635.937	59605.69
636.291	59594.85
636.645	59588.97
636.999	59551
637.352	59616.77
637.706	59492.25
638.06	59677.1
638.413	59593.72
638.767	59502.19
639.121	59510.55
639.474	59358.92
639.828	59418.13
640.181	59511.01
640.534	59472.59
640.888	59390.11
641.241	59320.05
641.594	59377
641.947	59455.64
642.301	59325.25
642.654	59320.95
643.007	59321.63
643.36	59205.03
643.713	59221.07
644.066	59261.29
644.419	59156.66
644.771	59005.03
645.124	58821.31
645.477	58727.98
645.83	58549
646.182	58344.71
646.535	58264.26
646.888	58285.73
647.24	58109.91
647.593	58238.95
647.945	58168.89
648.298	58009.12
648.65	57986.3
649.002	57834.67
649.355	57946.3
649.707	57888.22
650.059	58012.74
650.411	58312.62
650.763	58296.57
651.115	58448.21
651.467	58349.68
651.819	58336.35
652.171	58203.24
652.523	58160.76
652.875	58159.18
653.227	57990.59
653.578	58250.25
653.93	58063.36
654.282	58035.56
654.633	57829.69
654.985	57968
655.337	57918.96
655.688	57837.38
656.039	57989.46
656.391	57732.3
656.742	57798.06
657.094	57688
657.445	57733.65
657.796	57665.4
658.147	57615.46
658.498	57623.6
658.849	57641.68
659.2	57617.5
659.551	57518.06
659.902	57576.82
660.253	57555.58
660.604	57602.58
660.955	57524.17
661.306	57519.87
661.656	57491.85
662.007	57502.92
662.358	57488.01
662.708	57519.42
663.059	57481.91
663.409	57321.46
663.76	57513.32
664.11	57525.3
664.461	57545.63
664.811	57497.27
665.161	57482.81
665.511	57471.29
665.862	57488.91
666.212	57532.3
666.562	57530.49
666.912	57389.93
667.262	57362.36
667.612	57391.74
667.962	57422.7
668.312	57420.44
668.662	57494.34
669.011	57457.05
669.361	57491.85
669.711	57437.61
670.06	57378.63
670.41	57336.83
670.76	57328.01
671.109	57339.76
671.459	57324.85
671.808	57276.26
672.157	57348.12
672.507	57224.06
672.856	57190.39
673.205	57249.37
673.554	57335.7
673.904	57210.5
674.253	57347.22
674.602	57229.71
674.951	56855.48
675.3	56728.93
675.649	57107.45
675.998	57122.37
676.346	57066.55
676.695	57326.43
677.044	56996.04
677.393	57178.41
677.741	57203.72
678.09	57161.01
678.438	57034.23
678.787	56963.5
679.135	56956.95
679.484	56882.83
679.832	56932.99
680.181	56802.15
680.529	56966.21
680.877	56783.85
681.225	56697.29
681.573	56843.96
681.922	56647.35
682.27	56496.4
682.618	56627.92
682.966	56412.56
683.314	56501.37
683.661	56302.05
684.009	56231.32
684.357	56164.2
684.705	56148.38
685.053	56171.43
685.4	56104.09
685.748	55943.42
686.095	55920.82
686.443	55817.09
686.79	55780.03
687.138	55820.03
687.485	55687.83
687.832	55546.82
688.18	55594.72
688.527	55414.62
688.874	55475.63
689.221	55319.03
689.568	55233.38
689.915	55213.27
690.262	55172.81
690.609	55090.33
690.956	54935.98
691.303	54845.14
691.65	54694.18
691.997	54686.95
692.344	54516.11
692.69	54459.39
693.037	54460.52
693.383	54144.37
693.73	54262.33
694.077	54033.86
694.423	54130.36
694.769	53983.24
695.116	53902.79
695.462	53825.96
695.808	53700.99
696.155	53710.48
696.501	53441.56
696.847	53404.73
697.193	53252.41
697.539	53371.05
697.885	53094
698.231	52938.07
698.577	53037.5
698.923	52969.03
699.269	52843.61
699.614	52668.47
699.96	52623.28
700.306	52582.37
700.651	52381.02
700.997	52341.02
701.342	52381.93
701.688	52261.7
702.033	52194.81
702.379	52205.89
702.724	52129.28
703.069	52183.74
703.415	51735.84
703.76	51791.89
704.105	51710.98
704.45	51661.72
704.795	51525.68
705.14	51495.62
705.485	51399.13
705.83	51307.38
706.175	51379.47
706.52	51277.1
706.865	51314.39
707.209	51204.78
707.554	51129.08
707.899	51162.98
708.243	50873.27
708.588	50967.05
708.932	50821.97
709.277	50768.41
709.621	50907.84
709.966	50585.59
710.31	50763.89
710.654	50384.92
710.998	50527.97
711.342	50336.56
711.687	50272.15
712.031	50156.9
712.375	50044.81
712.719	50130.01
713.063	50043.01
713.407	50188.99
713.75	49989.67
714.094	49867.19
714.438	49663.58
714.782	49829.9
715.125	49616.58
715.469	49744.71
715.812	49446.64
716.156	49322.8
716.499	49303.82
716.843	49327.09
717.186	49181.11
717.53	49296.36
717.873	49185.63
718.216	49124.61
718.559	48965.29
718.902	48631.74
719.246	48839.65
719.589	48650.5
719.932	48383.61
720.275	48447.79
720.617	48351.75
720.96	48415.03
721.303	48434.23
721.646	48249.61
721.989	48018.88
722.331	48160.8
722.674	47905.89
723.016	47813.69
723.359	47732.56
723.701	47780.92
724.044	47485.11
724.386	47290.31
724.729	47383.87
725.071	47208.5
725.413	47170.31
725.755	47074.04
726.097	46898.91
726.439	46786.82
726.782	46732.58
727.124	46808.06
727.465	46510.44
727.807	46637.9
728.149	46437.68
728.491	46335.31
728.833	46292.6
729.175	46216.21
729.516	45948.42
729.858	45865.04
730.199	45986.39
730.541	45769.67
730.882	45839.5
731.224	45829.56
731.565	45429.79
731.906	45547.53
732.248	45466.63
732.589	45209.24
732.93	45118.16
733.271	45094.21
733.612	45136.92
733.953	45086.53
734.294	44851.5
734.635	44580.1
734.976	44919.75
735.317	44455.13
735.658	44544.62
735.999	44508.91
736.339	44389.37
736.68	44441.35
737.021	44165.19
737.361	44055.82
737.702	44270.73
738.042	44037.97
738.383	43929.49
738.723	44171.52
739.063	43936.05
739.404	43887.69
739.744	43807.69
740.084	43467.81
740.424	43639.56
740.764	43584.42
741.104	43527.02
741.444	43282.05
741.784	43250.42
742.124	43257.2
742.464	43332.22
742.804	43213.36
743.143	43125.45
743.483	43081.83
743.823	42892.69
744.162	42888.62
744.502	43018.33
744.841	42739.7
745.181	42872.35
745.52	42712.35
745.86	42768.85
746.199	42648.62
746.538	42640.04
746.877	42559.59
747.216	42535.86
747.556	42572.02
747.895	42448.18
748.234	42336.54
748.573	42438.23
748.911	42252.02
749.25	42304
749.589	42101.52
749.928	42173.83
750.267	42193.27
750.605	41944.91
750.944	41920.73
751.283	41811.13
751.621	41918.02
751.96	41485.72
752.298	41522.33
752.636	41615.66
752.975	41311.94
753.313	41251.6
753.651	41386.06
753.989	41174.54
754.327	41095.9
754.666	40904.94
755.004	41032.4
755.342	40901.78
755.679	40920.99
756.017	40732.52
756.355	40726.19
756.693	40703.59
757.031	40762.8
757.368	40484.84
757.706	40460.43
758.044	40415.91
758.381	40337.5
758.719	40230.61
759.056	40217.5
759.394	40031.29
759.731	39856.16
760.068	39806.89
760.405	39585.65
760.743	39575.94
761.08	39586.78
761.417	39266.79
761.754	39163.97
762.091	39097.08
762.428	38967.37
762.765	38596.75
763.102	38930.76
763.438	38587.71
763.775	38473.37
764.112	38404.89
764.449	38392.69
764.785	38189.31
765.122	37856.66
765.458	37652.6
765.795	37710.22
766.131	37571.7
766.467	37409.67
766.804	37311.36
767.14	37151.37
767.476	37172.16
767.812	36974.42
768.148	36938.27
768.485	36687.43
768.821	36406.08
769.157	36428.22
769.492	36341.45
769.828	36157.95
770.164	35798.41
770.5	35721.57
770.836	35774
771.171	35539.43
771.507	35447.01
771.842	35160.01
772.178	35051.99
772.513	35027.81
772.849	34808.83
773.184	34582.17
773.519	34471.66
773.855	34455.85
774.19	34218.11
774.525	34093.6
774.86	33924.79
775.195	33907.16
775.53	33673.95
775.865	33621.97
776.2	33301.98
776.535	33092.27
776.87	33088.65
777.205	32998.93
777.539	32734.31
777.874	32864.02
778.209	32568.89
778.543	32377.03
778.878	32204.15
779.212	32078.96
779.547	31990.37
779.881	32125.06
780.215	31808.01
780.55	31909.92
780.884	31556.94
781.218	31508.8
781.552	31492.31
781.886	31216.61
782.22	31131.87
782.554	31091.19
782.888	30768.71
783.222	30834.92
783.556	30641.93
783.889	30540.69
784.223	30328.27
784.557	30219.12
784.89	30283.53
785.224	30097.32
785.557	29972.8
785.891	29881.5
786.224	29708.63
786.558	29663.43
786.891	29468.86
787.224	29358.35
787.557	29246.04
787.891	29086.72
788.224	29268.41
788.557	29164.01
788.89	29082.65
789.223	29019.38
789.556	28763.11
789.888	28663.91
790.221	28486.96
790.554	28297.59
790.887	28410.58
791.219	28364.25
791.552	28194.54
791.884	28180.76
792.217	28066.18
792.549	28029.12
792.882	27754.33
793.214	27754.1
793.546	27598.85
793.879	27557.5
794.211	27435.69
794.543	27641.34
794.875	27487.89
795.207	27543.94
795.539	27296.94
795.871	27249.26
796.203	27024.85
796.535	26941.24
796.867	26941.24
797.198	26872.77
797.53	26958.87
797.862	26766.33
798.193	26799.55
798.525	26604.3
798.856	26575.15
799.188	26180.36
799.519	26260.35
799.85	26210.41
800.182	26143.3
800.513	26168.61
800.844	25802.29
801.175	26072.79
801.506	25890.65
801.837	25819.91
802.168	25725
802.499	25665.12
802.83	25562.29
803.161	25425.8
803.491	25440.04
803.822	25344.45
804.153	25345.58
804.483	25154.4
804.814	25096.32
805.145	25161.85
805.475	25092.25
805.805	25014.29
806.136	24860.39
806.466	24979.71
806.796	24806.16
807.126	24768.19
807.457	24581.53
807.787	24580.17
808.117	24351.03
808.447	24390.35
808.777	24332.5
809.107	24156.23
809.436	24156
809.766	24161.2
810.096	24038.72
810.426	23992.62
810.755	24031.49
811.085	23967.76
811.414	23726.18
811.744	23633.76
812.073	23569.13
812.403	23584.72
812.732	23471.73
813.061	23417.94
813.39	23198.51
813.719	23183.6
814.049	23224.05
814.378	23217.04
814.707	22981.57
815.036	23032.64
815.365	22887.11
815.693	22684.18
816.022	22850.95
816.351	22605.99
816.68	22576.38
817.008	22587
817.337	22451.87
817.665	22358.99
817.994	22336.62
818.322	22247.13
818.651	22224.75
818.979	22138.2
819.307	22163.51
819.636	22137.75
819.964	21929.17
820.292	21931.88
820.62	21957.19
820.948	21825.22
821.276	21920.36
821.604	21861.6
821.932	21886.91
822.259	21884.42
822.587	21713.36
822.915	21651.89
823.243	21707.48
823.57	21621.61
823.898	21633.13
824.225	21503.19
824.553	21509.52
824.88	21562.85
825.207	21676.29
825.535	21472.46
825.862	21617.99
826.189	21509.97
826.516	21769.4
826.843	21722.17
827.17	21606.47
827.497	21604.21
827.824	21546.35
828.151	21526.24
828.478	21431.1
828.805	21455.96
829.131	21419.35
829.458	21418
829.785	21219.81
830.111	21310.65
830.438	21425.68
830.764	21332.8
831.09	21352.01
831.417	21303.87
831.743	21277.66
832.069	21280.15
832.395	21190.43
832.722	21172.35
833.048	21137.55
833.374	21168.74
833.7	21191.34
834.026	21130.09
834.351	21162.64
834.677	21081.28
835.003	21225.68
835.329	21121.96
835.654	21045.35
835.98	20889.42
836.306	20916.77
836.631	20835.19
836.956	20930.78
837.282	21027.05
837.607	20807.62
837.932	20704.12
838.258	20719.26
838.583	20762.19
838.908	20633.16
839.233	20671.12
839.558	20573.5
839.883	20564.46
840.208	20565.59
840.533	20541.86
840.858	20516.55
841.182	20553.39
841.507	20424.12
841.832	20262.77
842.156	20312.04
842.481	20321.3
842.805	20248.31
843.13	20123.79
843.454	20187.97
843.778	20087.18
844.103	20006.06
844.427	19986.85
844.751	20039.28
845.075	19978.03
845.399	19850.35
845.723	19801.32
846.047	19926.74
846.371	19709.11
846.695	19675.67
847.019	19533.53
847.343	19432.06
847.666	19289.46
847.99	19220.31
848.313	19207.21
848.637	19046.53
848.96	19082.69
849.284	19189.58
849.607	18997.27
849.931	18912.98
850.254	18868.46
850.577	18689.25
850.9	18576.04
851.223	18602.25
851.546	18547.79
851.869	18368.81
852.192	18547.34
852.515	18249.49
852.838	18246.55
853.161	18227.57
853.483	18122.72
853.806	18017.18
854.129	17934.47
854.451	17977.86
854.774	17875.04
855.096	17891.54
855.419	17947.35
855.741	17792.33
856.063	17734.03
856.385	17554.37
856.708	17560.7
857.03	17560.47
857.352	17603.41
857.674	17530.19
857.996	17465.56
858.318	17404.77
858.64	17374.94
858.961	17322.28
859.283	17253.59
859.605	17229.41
859.926	17292
860.248	17223.3
860.57	17085
860.891	17111.22
861.212	17009.07
861.534	17050.65
861.855	16997.77
862.176	17068.05
862.498	17005.46
862.819	17030.09
863.14	16832.35
863.461	16849.53
863.782	16712.13
864.103	16746.71
864.424	16642.98
864.745	16765.46
865.065	16694.28
865.386	16568.86
865.707	16666.93
866.027	16608.41
866.348	16576.54
866.668	16583.1
866.989	16507.16
867.309	16287.96
867.63	16365.47
867.95	16317.34
868.27	16198.92
868.59	16208.87
868.91	16131.58
869.23	16239.83
869.55	16049.78
869.87	16203.67
870.19	16095.65
870.51	16083.22
870.83	16072.6
871.15	15951.02
871.469	15978.37
871.789	15966.61
872.109	15963.9
872.428	15913.28
872.748	15876.67
873.067	15915.99
873.386	15859.05
873.706	15770.69
874.025	15714.42
874.344	15621.09
874.663	15695.66
874.982	15619.5
875.301	15510.13
875.62	15527.53
875.939	15486.63
876.258	15367.53
876.577	15423.8
876.896	15362.11
877.214	15345.61
877.533	15340.19
877.852	15213.64
878.17	15223.58
878.489	15258.84
878.807	15221.1
879.125	15198.5
879.444	15172.51
879.762	14965.51
880.08	15068.56
880.398	15002.12
880.716	14986.53
881.034	14886.87
881.352	14855
881.67	14843.48
881.988	14842.58
882.306	14718.51
882.624	14627.44
882.941	14554.67
883.259	14530.95
883.577	14610.49
883.894	14547.22
884.212	14478.07
884.529	14377.5
884.846	14342.02
885.164	14347.22
885.481	14316.94
885.798	14257.05
886.115	14191.97
886.432	14144.29
886.75	14095.25
887.067	14179.32
887.383	14029.04
887.7	14040.56
888.017	14053.44
888.334	14001.69
888.651	13878.31
888.967	13914.69
889.284	13769.61
889.6	13757.86
889.917	13609.16
890.233	13691.42
890.55	13613.46
890.866	13590.41
891.182	13540.01
891.498	13475.15
891.815	13399.9
892.131	13375.27
892.447	13337.98
892.763	13335.27
893.079	13242.84
893.395	13216.4
893.71	13174.82
894.026	13166.69
894.342	13059.57
894.657	13063.64
894.973	13081.49
895.289	12951.78
895.604	12999.46
895.92	12952.46
896.235	12916.52
896.55	12851.89
896.865	12802.4
897.181	12783.87
897.496	12670.66
897.811	12684.67
898.126	12586.36
898.441	12469.3
898.756	12596.08
899.071	12515.63
899.386	12463.66
899.7	12427.27
900.015	12282.64
900.33	12209.88
900.644	12240.61
900.959	12249.88
901.273	12167.84
901.588	12114.96
901.902	12024.34
902.216	11981.41
902.531	11941.41
902.845	11973.27
903.159	11932.37
903.473	11904.57
903.787	11813.95
904.101	11696.22
904.415	11794.97
904.729	11833.62
905.042	11729.44
905.356	11664.13
905.67	11656.22
905.984	11568.76
906.297	11558.37
906.611	11504.13
906.924	11467.98
907.237	11359.96
907.551	11339.84
907.864	11294.87
908.177	11315.89
908.491	11292.84
908.804	11216.46
909.117	11194.54
909.43	11148.66
909.743	11094.88
910.056	11049.46
910.368	10988.89
910.681	10960.87
910.994	10992.06
911.307	10984.82
911.619	10844.71
911.932	10904.37
912.244	10760.65
912.557	10742.57
912.869	10740.76
913.181	10727.43
913.494	10605.17
913.806	10576.02
914.118	10538.96
914.43	10503.93
914.742	10529.47
915.054	10484.05
915.366	10471.62
915.678	10438.4
915.99	10414.44
916.302	10333.77
916.613	10277.72
916.925	10248.35
917.236	10273.43
917.548	10175.81
917.859	10266.88
918.171	10162.02
918.482	10106.43
918.794	10017.39
919.105	9967.68
919.416	9950.95
919.727	9931.52
920.038	9882.48
920.349	9920.22
920.66	9820.56
920.971	9815.82
921.282	9793.22
921.593	9756.16
921.903	9722.03
922.214	9689.94
922.525	9680.45
922.835	9475.49
923.146	9523.85
923.456	9534.47
923.767	9439.55
924.077	9416.5
924.387	9365.88
924.697	9222.38
925.008	9231.65
925.318	9272.78
925.628	9233.68
925.938	9179.45
926.248	9081.82
926.558	9032.56
926.867	9053.12
927.177	9030.3
927.487	8963.63
927.796	8881.38
928.106	8843.64
928.416	8823.07
928.725	8820.36
929.034	8762.06
929.344	8764.32
929.653	8747.59
929.962	8608.84
930.271	8585.11
930.581	8520.26
930.89	8474.61
931.199	8430.99
931.508	8395.06
931.817	8390.77
932.125	8424.67
932.434	8342.86
932.743	8287.04
933.051	8257.66
933.36	8234.84
933.669	8137.44
933.977	8143.99
934.286	8122.07
934.594	8062.19
934.902	7937.9
935.21	8012.02
935.519	7987.61
935.827	7872.59
936.135	7836.66
936.443	7786.49
936.751	7764.34
937.059	7741.97
937.367	7728.64
937.674	7704.23
937.982	7674.4
938.29	7601.18
938.597	7642.09
938.905	7553.28
939.213	7511.92
939.52	7416.1
939.827	7391.7
940.135	7391.47
940.442	7349.44
940.749	7334.3
941.056	7309.89
941.363	7211.36
941.67	7183.12
941.977	7197.81
942.284	7067.41
942.591	7123.23
942.898	7075.1
943.205	7046.62
943.511	7013.4
943.818	6990.8
944.125	6975.66
944.431	6928.21
944.738	6865.16
945.044	6837.81
945.35	6816.35
945.657	6704.03
945.963	6732.73
946.269	6709.46
946.575	6680.76
946.881	6568.67
947.187	6628.33
947.493	6638.05
947.799	6445.28
948.105	6509.46
948.41	6457.03
948.716	6433.76
949.022	6366.19
949.327	6386.98
949.633	6306.98
949.938	6275.57
950.244	6259.3
950.549	6235.12
950.854	6180.2
951.16	6128
951.465	6101.56
951.77	6051.85
952.075	6069.7
952.38	6010.94
952.685	5962.13
952.99	5942.7
953.294	5940.89
953.599	5854.34
953.904	5795.36
954.209	5812.53
954.513	5818.63
954.818	5717.84
955.122	5713.1
955.426	5704.06
955.731	5635.59
956.035	5639.65
956.339	5641.69
956.643	5542.26
956.948	5568.02
957.252	5533.44
957.556	5492.77
957.86	5464.07
958.163	5473.1
958.467	5396.04
958.771	5404.63
959.075	5377.29
959.378	5333.45
959.682	5312.43
959.985	5351.3
960.289	5262.94
960.592	5287.12
960.896	5223.39
961.199	5173.68
961.502	5132.32
961.805	5156.95
962.108	5129.16
962.411	5045.32
962.714	5039.22
963.017	5068.37
963.32	5062.27
963.623	5024.75
963.926	5042.38
964.228	4973.68
964.531	4980.24
964.833	4888.26
965.136	4909.73
965.438	4893.68
965.741	4855.95
966.043	4842.16
966.345	4799.9
966.648	4759.9
966.95	4833.8
967.252	4749.73
967.554	4662.96
967.856	4711.09
968.158	4709.28
968.46	4634.93
968.761	4652.34
969.063	4576.41
969.365	4555.61
969.666	4564.2
969.968	4559.68
970.269	4543.64
970.571	4508.16
970.872	4534.6
971.174	4425
971.475	4412.57
971.776	4432.23
972.077	4446.24
972.378	4403.75
972.679	4349.52
972.98	4367.15
973.281	4331.44
973.582	4327.37
973.883	4295.51
974.183	4280.37
974.484	4276.75
974.785	4214.38
975.085	4298.22
975.386	4222.74
975.686	4217.77
975.986	4158.34
976.287	4191.1
976.587	4139.58
976.887	4146.59
977.187	4100.71
977.487	4108.17
977.787	4101.84
978.087	4069.3
978.387	4028.17
978.687	4044.22
978.987	4025.01
979.286	4012.13
979.586	3983.2
979.885	3968.29
980.185	3932.58
980.484	3927.83
980.784	3974.16
981.083	3942.98
981.382	3915.63
981.682	3913.82
981.981	3903.88
982.28	3845.58
982.579	3870.43
982.878	3859.81
983.177	3822.75
983.475	3789.76
983.774	3783.88
984.073	3751.57
984.372	3746.37
984.67	3806.26
984.969	3755.86
985.267	3735.3
985.566	3715.64
985.864	3688.29
986.162	3687.61
986.461	3643.55
986.759	3611.23
987.057	3626.83
987.355	3581.85
987.653	3609.42
987.951	3536.21
988.249	3526.94
988.547	3609.65
988.844	3562.87
989.142	3528.52
989.44	3537.34
989.737	3519.71
990.035	3490.33
990.332	3479.71
990.63	3496.21
990.927	3486.49
991.224	3448.3
991.521	3396.32
991.819	3390.9
992.116	3386.38
992.413	3359.71
992.71	3375.53
993.006	3356.1
993.303	3338.02
993.6	3338.02
993.897	3319.04
994.193	3317.91
994.49	3317.68
994.787	3264.35
995.083	3233.62
995.379	3253.28
995.676	3217.8
995.972	3175.09
996.268	3177.12
996.565	3165.37
996.861	3165.37
997.157	3151.13
997.453	3140.96
997.749	3121.53
998.044	3091.47
998.34	3057.8
998.636	3087.4
998.932	3028.65
999.227	3043.56
999.523	3020.97
999.818	2976.22
1000.114	2931.48
1000.409	2922.89
1000.704	2927.18
1001	2893.06
1001.295	2870.46
1001.59	2885.6
1001.885	2885.15
1002.18	2865.49
1002.475	2844.93
1002.77	2844.47
1003.065	2821.2
1003.359	2800.18
1003.654	2825.04
1003.949	2746.17
1004.243	2745.27
1004.538	2719.5
1004.832	2697.81
1005.127	2703.01
1005.421	2670.24
1005.715	2653.74
1006.009	2669.34
1006.304	2634.54
1006.598	2635.44
1006.892	2635.44
1007.186	2592.73
1007.48	2577.59
1007.773	2558.61
1008.067	2573.52
1008.361	2523.13
1008.655	2501.21
1008.948	2491.71
1009.242	2549.57
1009.535	2500.3
1009.829	2455.56
1010.122	2474.09
1010.415	2463.69
1010.708	2406.97
1011.001	2392.06
1011.295	2397.25
1011.588	2399.29
1011.881	2336.69
1012.173	2350.47
1012.466	2373.98
1012.759	2333.98
1013.052	2357.25
1013.344	2310.02
1013.637	2286.3
1013.93	2247.65
1014.222	2263.47
1014.514	2232.51
1014.807	2199.07
1015.099	2223.25
1015.391	2169.01
1015.683	2176.02
1015.976	2163.14
1016.268	2167.65
1016.56	2125.17
1016.851	2140.08
1017.143	2107.32
1017.435	2086.98
1017.727	2071.84
1018.018	2019.86
1018.31	2061.22
1018.602	2006.98
1018.893	1999.98
1019.185	1995.91
1019.476	1976.47
1019.767	1995.68
1020.058	1963.59
1020.35	1917.94
1020.641	1939.86
1020.932	1924.95
1021.223	1911.62
1021.514	1884.27
1021.804	1854.67
1022.095	1832.3
1022.386	1840.88
1022.677	1828.23
1022.967	1810.38
1023.258	1810.15
1023.548	1775.57
1023.839	1781
1024.129	1745.52
1024.419	1713.2
1024.709	1736.03
1025	1691.96
1025.29	1679.98
1025.58	1693.77
1025.87	1659.87
1026.16	1655.8
1026.449	1680.21
1026.739	1623.71
1027.029	1604.73
1027.319	1618.29
1027.608	1608.12
1027.898	1614.45
1028.187	1578.97
1028.477	1570.38
1028.766	1526.77
1029.055	1526.54
1029.344	1536.03
1029.634	1497.39
1029.923	1515.69
1030.212	1501.91
1030.501	1478.86
1030.79	1455.81
1031.078	1453.78
1031.367	1416.71
1031.656	1409.03
1031.945	1404.96
1032.233	1411.97
1032.522	1396.83
1032.81	1375.36
1033.099	1374
1033.387	1362.7
1033.675	1346.43
1033.963	1331.74
1034.251	1333.1
1034.54	1343.72
1034.828	1314.57
1035.116	1301.24
1035.403	1280.9
1035.691	1270.5
1035.979	1267.79
1036.267	1275.02
1036.554	1257.17
1036.842	1239.32
1037.129	1234.57
1037.417	1228.7
1037.704	1222.82
1037.992	1203.39
1038.279	1201.35
1038.566	1192.54
1038.853	1192.54
1039.14	1192.54
