Data from white_wall_FLMS001491_024.txt Node
Date: Tue Feb 07 11:04:00 GMT 2017
User: dcchb
Spectrometer: FLMS00149
Trigger mode: 0
Integration Time (sec): 2.000000E-2
Scans to average: 10
Electric dark correction enabled: true
Nonlinearity correction enabled: false
Boxcar width: 0
XAxis mode: Wavelengths
Number of Pixels in Spectrum: 2048
>>>>>Begin Spectral Data<<<<<
341.393	-6.06
341.776	-6.06
342.16	-6.06
342.543	-66.4
342.927	-81.09
343.31	-60.52
343.693	-83.57
344.077	-76.34
344.46	-61.65
344.843	-53.74
345.226	-39.5
345.61	-27.98
345.993	-33.86
346.376	10.21
346.759	22.19
347.142	41.62
347.525	38.23
347.908	41.4
348.291	79.36
348.674	93.15
349.057	111
349.44	125.91
349.823	128.4
350.206	160.26
350.588	201.39
350.971	226.48
351.354	244.33
351.737	260.6
352.119	275.52
352.502	273.48
352.884	285.68
353.267	291.33
353.65	280.71
354.032	309.19
354.414	327.04
354.797	324.33
355.179	317.55
355.562	367.72
355.944	328.85
356.326	336.3
356.709	332.69
357.091	349.86
357.473	349.64
357.855	337.89
358.238	351.9
358.62	341.5
359.002	343.31
359.384	339.24
359.766	356.87
360.148	367.26
360.53	352.12
360.912	351.22
361.294	347.6
361.676	351.9
362.057	349.19
362.439	362.29
362.821	348.28
363.203	347.15
363.584	361.16
363.966	351.9
364.348	332.01
364.729	325.91
365.111	331.79
365.493	325.91
365.874	348.06
366.256	324.55
366.637	350.77
367.019	307.15
367.4	333.37
367.781	321.16
368.163	318.9
368.544	339.69
368.925	336.76
369.306	329.53
369.688	318.68
370.069	323.2
370.45	332.24
370.831	325.01
371.212	355.06
371.593	324.55
371.974	351.22
372.355	314.38
372.736	329.07
373.117	330.2
373.498	358
373.879	334.04
374.26	338.79
374.641	323.88
375.021	339.69
375.402	342.18
375.783	330.43
376.163	328.62
376.544	337.43
376.925	336.08
377.305	352.58
377.686	360.71
378.066	347.15
378.447	364.1
378.827	348.28
379.208	347.83
379.588	333.14
379.968	368.62
380.349	362.29
380.729	367.26
381.109	359.13
381.489	333.14
381.87	371.11
382.25	363.2
382.63	360.03
383.01	355.29
383.39	372.46
383.77	374.72
384.15	373.37
384.53	386.02
384.91	379.69
385.29	392.8
385.67	396.64
386.049	399.13
386.429	410.43
386.809	371.56
387.189	414.49
387.568	415.85
387.948	400.03
388.328	409.3
388.707	407.94
389.087	411.78
389.466	412.01
389.846	413.59
390.225	414.95
390.605	417.43
390.984	421.73
391.363	439.13
391.743	453.36
392.122	455.17
392.501	458.11
392.881	471.22
393.26	473.48
393.639	493.81
394.018	478.67
394.397	472.57
394.776	501.95
395.155	483.65
395.534	506.92
395.913	504.66
396.292	501.95
396.671	505.79
397.05	543.3
397.429	531.78
397.808	527.26
398.186	534.27
398.565	556.64
398.944	570.65
399.323	582.85
399.701	592.57
400.08	606.13
400.458	594.6
400.837	617.2
401.215	645
401.594	621.95
401.972	626.69
402.351	620.14
402.729	650.65
403.107	668.27
403.486	662.4
403.864	687.26
404.242	713.02
404.62	725.45
404.999	729.97
405.377	735.84
405.755	764.09
406.133	755.28
406.511	778.1
406.889	776.75
407.267	812.45
407.645	802.28
408.023	826.69
408.401	819.46
408.779	841.83
409.156	888.61
409.534	868.95
409.912	884.09
410.29	910.07
410.667	944.88
411.045	959.57
411.422	957.53
411.8	981.26
412.178	967.02
412.555	1016.29
412.933	1026.46
413.31	1036.4
413.687	1053.57
414.065	1059.9
414.442	1078.66
414.819	1077.08
415.197	1098.54
415.574	1104.65
415.951	1119.56
416.328	1144.87
416.705	1143.06
417.082	1159.33
417.46	1199.78
417.837	1223.96
418.214	1179.67
418.591	1219.9
418.967	1197.98
419.344	1258.99
419.721	1275.26
420.098	1252.44
420.475	1267.81
420.852	1263.51
421.228	1316.39
421.605	1319.78
421.982	1334.7
422.358	1348.03
422.735	1386.22
423.111	1367.01
423.488	1399.78
423.864	1411.98
424.241	1434.35
424.617	1463.96
424.994	1472.77
425.37	1459.21
425.746	1460.79
426.123	1493.11
426.499	1512.09
426.875	1548.48
427.251	1553.9
427.627	1601.81
428.003	1584.18
428.379	1621.24
428.756	1615.37
429.132	1649.49
429.507	1682.71
429.883	1710.51
430.259	1722.48
430.635	1738.08
431.011	1753.44
431.387	1774.91
431.763	1803.38
432.138	1790.5
432.514	1847.45
432.89	1879.09
433.265	1939.43
433.641	1966.32
434.016	1981.23
434.392	1989.37
434.767	2015.58
435.143	2016.94
435.518	2053.77
435.894	2082.25
436.269	2091.51
436.644	2101.46
437.02	2141.68
437.395	2203.83
437.77	2190.49
438.145	2240.89
438.52	2241.79
438.895	2253.09
439.271	2303.03
439.646	2337.38
440.021	2368.79
440.395	2355.91
440.77	2333.09
441.145	2384.16
441.52	2418.06
441.895	2390.26
442.27	2455.8
442.645	2450.15
443.019	2481.56
443.394	2505.51
443.769	2520.2
444.143	2546.42
444.518	2581.44
444.892	2589.35
445.267	2625.06
445.641	2619.18
446.016	2591.39
446.39	2679.29
446.764	2662.8
447.139	2685.17
447.513	2703.7
447.887	2724.04
448.262	2750.93
448.636	2758.16
449.01	2823.02
449.384	2848.1
449.758	2873.19
450.132	2872.28
450.506	2932.39
450.88	2914.99
451.254	2923.13
451.628	2943.92
452.002	2992.73
452.376	3010.58
452.75	3130.58
453.123	3095.78
453.497	3123.8
453.871	3178.26
454.244	3249.67
454.618	3227.3
454.992	3323.34
455.365	3286.74
455.739	3427.97
456.112	3439.95
456.486	3460.29
456.859	3476.56
457.232	3566.73
457.606	3551.81
457.979	3604.47
458.352	3670.68
458.725	3743.22
459.099	3754.52
459.472	3826.38
459.845	3854.86
460.218	3881.75
460.591	3954.74
460.964	3981.18
461.337	4034.06
461.71	4122.87
462.083	4165.81
462.456	4173.49
462.829	4188.63
463.201	4292.58
463.574	4281.74
463.947	4392.92
464.32	4444.45
464.692	4542.07
465.065	4558.57
465.438	4572.13
465.81	4672.91
466.183	4782.97
466.555	4853.02
466.928	4839.24
467.3	4829.52
467.672	4959.46
468.045	5088.04
468.417	5106.8
468.789	5129.63
469.161	5198.1
469.534	5336.17
469.906	5443.74
470.278	5450.75
470.65	5532.1
471.022	5680.8
471.394	5715.6
471.766	5784.75
472.138	5805.31
472.51	5995.59
472.882	6108.58
473.253	6167.56
473.625	6263.38
473.997	6362.81
474.369	6426.54
474.74	6487.1
475.112	6617.5
475.484	6761.22
475.855	6847.77
476.227	6897.49
476.598	7092.74
476.97	7147.43
477.341	7302.45
477.713	7431.71
478.084	7525.04
478.455	7750.57
478.827	7782.89
479.198	8005.71
479.569	8031.7
479.94	8200.28
480.311	8351.01
480.682	8589.2
481.053	8781.28
481.424	8928.62
481.795	8927.27
482.166	9141.95
482.537	9205.45
482.908	9443.64
483.279	9570.41
483.65	9748.94
484.021	9924.98
484.391	10075.26
484.762	10134.92
485.133	10227.34
485.503	10386.44
485.874	10643.15
486.244	10703.94
486.615	10960.66
486.985	11029.58
487.356	11265.73
487.726	11377.6
488.097	11642.22
488.467	11654.65
488.837	11942.33
489.207	12068.88
489.578	12232.26
489.948	12295.09
490.318	12520.17
490.688	12584.57
491.058	12789.31
491.428	12959.93
491.798	13116.99
492.168	13405.57
492.538	13380.71
492.908	13529.86
493.278	13714.71
493.648	13797.19
494.017	14037.64
494.387	14131.2
494.757	14310.17
495.126	14378.65
495.496	14498.42
495.866	14645.53
496.235	14735.02
496.605	14972.3
496.974	15088.91
497.344	15220.66
497.713	15322.35
498.082	15432.86
498.452	15642.57
498.821	15730.25
499.19	15700.87
499.559	15949.23
499.928	16070.81
500.298	16150.58
500.667	16304.02
501.036	16335.43
501.405	16467.63
501.774	16548.31
502.143	16875.98
502.512	16753.05
502.88	16948.52
503.249	17084.79
503.618	17184.22
503.987	17362.52
504.356	17453.14
504.724	17515.06
505.093	17552.35
505.462	17738.78
505.83	17835.05
506.199	17966.35
506.567	18234.59
506.936	18360.69
507.304	18517.75
507.672	18626.9
508.041	18702.83
508.409	18856.72
508.777	19073.21
509.145	19116.83
509.514	19201.35
509.882	19409.7
510.25	19475.01
510.618	19685.4
510.986	19718.85
511.354	19927.88
511.722	20152.51
512.09	20355.89
512.458	20340.52
512.826	20473.4
513.193	20554.3
513.561	20757.24
513.929	20970.11
514.297	21086.27
514.664	21234.51
515.032	21408.97
515.4	21644.9
515.767	21645.8
516.135	21882.63
516.502	21880.37
516.869	22132.79
517.237	22224.77
517.604	22271.1
517.972	22483.07
518.339	22646.23
518.706	22745.88
519.073	22991.3
519.44	23142.26
519.808	23353.1
520.175	23225.65
520.542	23645.75
520.909	23798.96
521.276	23776.37
521.643	24117.15
522.009	24309.23
522.376	24496.35
522.743	24669
523.11	25014.75
523.477	25068.99
523.843	25298.13
524.21	25517.79
524.577	25692.25
524.943	25834.39
525.31	26056.98
525.676	26223.08
526.043	26414.94
526.409	26556.18
526.776	26816.96
527.142	26780.36
527.508	27041.14
527.874	27296.05
528.241	27500.34
528.607	27509.6
528.973	27814
529.339	27772.42
529.705	28150.94
530.071	28234.55
530.437	28396.36
530.803	28647.2
531.169	28772.39
531.535	28769.23
531.901	28904.82
532.267	29028.21
532.632	29222.1
532.998	29380.96
533.364	29549.32
533.73	29716.32
534.095	29899.82
534.461	30063.43
534.826	30101.17
535.192	30142.98
535.557	30479.01
535.923	30378.68
536.288	30630.42
536.653	30758.56
537.019	30743.87
537.384	30914.26
537.749	31166
538.114	31244.87
538.479	31291.42
538.845	31452.1
539.21	31413.23
539.575	31583.62
539.94	31759.89
540.305	31997.62
540.67	31891.41
541.034	32082.36
541.399	32292.3
541.764	32321.9
542.129	32462.69
542.494	32629.24
542.858	32707.43
543.223	32863.13
543.587	33030.59
543.952	32922.34
544.316	33144.93
544.681	33234.42
545.045	33410.46
545.41	33563.68
545.774	33583.79
546.138	33668.31
546.503	33821.53
546.867	33870.56
547.231	34110.78
547.595	34192.59
547.959	34426.03
548.324	34604.56
548.688	34607.72
549.052	34866.47
549.416	34878.9
549.779	34853.82
550.143	35087.03
550.507	35347.36
550.871	35383.29
551.235	35344.88
551.599	35713.68
551.962	35816.05
552.326	35958.42
552.689	36261.91
553.053	36159.77
553.417	36196.6
553.78	36795.69
554.143	36725.4
554.507	36894.89
554.87	36963.59
555.234	37300.08
555.597	37053.76
555.96	37461.88
556.323	37562.44
556.686	37701.2
557.05	37976.44
557.413	37950
557.776	38090.79
558.139	38485.13
558.502	38517.9
558.865	38701.4
559.228	38911.56
559.59	39095.51
559.953	39214.38
560.316	39536.63
560.679	39665.21
561.041	39868.82
561.404	39986.11
561.767	40222.94
562.129	40247.57
562.492	40636.49
562.854	40719.42
563.217	40572.08
563.579	40929.14
563.941	41129.81
564.304	41342.68
564.666	41585.39
565.028	41735.89
565.39	41744.48
565.753	41986.06
566.115	42120.97
566.477	42169.33
566.839	42416.33
567.201	42649.77
567.563	42757.56
567.925	43000.72
568.287	42998.01
568.648	43068.74
569.01	43412.46
569.372	43583.53
569.734	43444.1
570.095	43802.51
570.457	44004.99
570.819	44074.36
571.18	44093.12
571.542	44335.6
571.903	44439.33
572.265	44660.79
572.626	44674.35
572.987	44723.61
573.349	44910.73
573.71	45099.42
574.071	45100.1
574.432	45322.47
574.794	45633.87
575.155	45381.22
575.516	45396.81
575.877	45618.05
576.238	45671.16
576.599	45942.79
576.96	45746.86
577.32	45904.37
577.681	46104.59
578.042	46217.36
578.403	46256
578.763	46257.36
579.124	46250.35
579.485	46503.23
579.845	46525.82
580.206	46368.31
580.566	46441.31
580.927	46530.57
581.287	46686.5
581.648	46411.93
582.008	46742.09
582.368	46776.89
582.728	46792.03
583.089	46730.79
583.449	46748.19
583.809	46699.15
584.169	46834.52
584.529	46808.08
584.889	47045.36
585.249	46780.06
585.609	46695.09
585.969	46818.92
586.329	46693.28
586.688	46921.97
587.048	46886.72
587.408	46902.09
587.768	46799.49
588.127	46859.15
588.487	46849.66
588.846	47137.33
589.206	46810.79
589.565	46859.6
589.925	47097.79
590.284	46960.84
590.643	47038.13
591.003	47078.35
591.362	47196.09
591.721	47027.51
592.08	47066.83
592.44	47199.71
592.799	47206.26
593.158	46993.16
593.517	47020.5
593.876	47135.75
594.235	47133.04
594.593	47227.95
594.952	47256.43
595.311	47054.85
595.67	47159.25
596.029	47462.52
596.387	47384.79
596.746	47525.57
597.104	47226.15
597.463	47293.94
597.822	47448.74
598.18	47271.34
598.538	47267.73
598.897	47541.62
599.255	47209.2
599.613	47738
599.972	47418
600.33	47562.86
600.688	47370.1
601.046	47607.6
601.404	47702.29
601.762	47622.97
602.12	47690.99
602.478	47753.59
602.836	47851.67
603.194	47613.03
603.552	47732.35
603.91	47595.85
604.268	47816.86
604.625	47720.37
604.983	47915.84
605.341	47763.98
605.698	47947.48
606.056	48098.44
606.413	48093.92
606.771	48200.81
607.128	48344.99
607.485	47922.4
607.843	48064.32
608.2	48328.72
608.557	48354.25
608.914	48300.24
609.272	48462.04
609.629	48368.49
609.986	48608.93
610.343	48403.74
610.7	48631.31
611.057	48542.04
611.414	48499.33
611.771	48649.38
612.127	48739.33
612.484	48760.34
612.841	48868.59
613.198	48658.88
613.554	48739.55
613.911	48954.46
614.267	48983.84
614.624	48929.38
614.98	49004.86
615.337	49114.68
615.693	49064.74
616.05	49042.59
616.406	49327.56
616.762	49178.18
617.118	49236.04
617.475	49210.95
617.831	49291.63
618.187	49406.43
618.543	49436.03
618.899	49582.69
619.255	49447.78
619.611	49481
619.967	49567.1
620.323	49691.39
620.678	49540.21
621.034	49363.94
621.39	49474.67
621.746	49413.21
622.101	49795.12
622.457	49490.94
622.812	49639.42
623.168	49666.99
623.523	49568.91
623.879	49666.53
624.234	49444.84
624.589	49644.16
624.945	49660.43
625.3	49733.65
625.655	49686.19
626.01	49675.8
626.365	49636.93
626.72	49662.24
627.075	49581.11
627.43	49553.54
627.785	49378.18
628.14	49596.7
628.495	49577.27
628.85	49520.55
629.205	49398.07
629.559	49653.65
629.914	49480.1
630.269	49535.24
630.623	49304.51
630.978	49330.27
631.332	49562.58
631.687	49509.48
632.041	49339.31
632.396	49560.32
632.75	49329.82
633.104	49374.79
633.459	49105.87
633.813	49174.57
634.167	49145.64
634.521	49230.16
634.875	49198.3
635.229	49116.94
635.583	48800.12
635.937	48970.05
636.291	48887.8
636.645	49010.05
636.999	48850.74
637.352	48910.17
637.706	48661.36
638.06	48842.15
638.413	48756.73
638.767	48731.87
639.121	48746.33
639.474	48441.25
639.828	48549.95
640.181	48604.19
640.534	48701.59
640.888	48484.19
641.241	48334.59
641.594	48429.5
641.947	48380.47
642.301	48269.73
642.654	48282.61
643.007	48381.14
643.36	48313.8
643.713	48133.69
644.066	48365.1
644.419	48158.32
644.771	47905.9
645.124	47431.11
645.477	47333.94
645.83	47180.5
646.182	47061.86
646.535	46973.95
646.888	47050.78
647.24	46658.02
647.593	46995.42
647.945	46901.41
648.298	46602.43
648.65	46611.25
649.002	46525.82
649.355	46667.06
649.707	46622.09
650.059	46758.59
650.411	47110.44
650.763	47210.55
651.115	47555.85
651.467	47318.12
651.819	47378.23
652.171	47293.49
652.523	47218.91
652.875	47206.94
653.227	46983.44
653.578	47317.89
653.93	47252.36
654.282	46924.46
654.633	46993.38
654.985	46919.03
655.337	46902.31
655.688	46957
656.039	47252.36
656.391	46851.92
656.742	46887.62
657.094	46874.52
657.445	46973.95
657.796	46794.97
658.147	46805.37
658.498	46791.81
658.849	46787.74
659.2	46742.77
659.551	46650.79
659.902	46813.73
660.253	46692.15
660.604	46619.61
660.955	46447.41
661.306	46661.19
661.656	46494.19
662.007	46521.31
662.358	46516.56
662.708	46421.87
663.059	46393.62
663.409	46166.06
663.76	46533.51
664.11	46518.59
664.461	46537.58
664.811	46544.13
665.161	46541.42
665.511	46216.45
665.862	46254.42
666.212	46232.73
666.562	46320.41
666.912	46173.74
667.262	46180.75
667.612	46114.54
667.962	46282.44
668.312	46136.91
668.662	46333.29
669.011	46284.93
669.361	46252.84
669.711	46052.16
670.06	46034.76
670.41	46005.39
670.76	45778.27
671.109	46027.76
671.459	45916.35
671.808	45871.83
672.157	46016.69
672.507	45638.62
672.856	45674.32
673.205	45842
673.554	45869.8
673.904	45627.54
674.253	45771.72
674.602	45796.8
674.951	45129.48
675.3	44859.88
675.649	45588.9
675.998	45549.35
676.346	45505.51
676.695	45630.48
677.044	45146.88
677.393	45434.55
677.741	45496.25
678.09	45190.72
678.438	45116.82
678.787	45146.88
679.135	45161.57
679.484	44999.31
679.832	45114.79
680.181	44825.08
680.529	44993.44
680.877	44749.15
681.225	44778.98
681.573	45031.63
681.922	44684.97
682.27	44557.51
682.618	44589.38
682.966	44551.64
683.314	44475.03
683.661	44399.55
684.009	44123.63
684.357	44051.54
684.705	44012.9
685.053	44194.81
685.4	44002.28
685.748	43865.33
686.095	43825.56
686.443	43666.92
686.79	43636.86
687.138	43639.35
687.485	43680.93
687.832	43443.87
688.18	43565.22
688.527	43243.43
688.874	43231.22
689.221	43174.95
689.568	43033.26
689.915	42991.23
690.262	42929.54
690.609	42785.13
690.956	42637.57
691.303	42604.35
691.65	42316.44
691.997	42322.77
692.344	42182.44
692.69	42013.4
693.037	42090.01
693.383	41683.92
693.73	41950.8
694.077	41680.98
694.423	41580.42
694.769	41516.01
695.116	41303.14
695.462	41343.36
695.808	41213.65
696.155	41290.03
696.501	40876.71
696.847	40963.49
697.193	40750.38
697.539	40893.2
697.885	40525.76
698.231	40411.41
698.577	40466.32
698.923	40292.77
699.269	40246.44
699.614	40003.96
699.96	39854.36
700.306	40096.62
700.651	39776.4
700.997	39498.89
701.342	39659.56
701.688	39478.1
702.033	39464.09
702.379	39261.16
702.724	39312.68
703.069	39252.34
703.415	38891.9
703.76	38885.12
704.105	38779.14
704.45	38668.86
704.795	38567.39
705.14	38596.54
705.485	38367.85
705.83	38358.13
706.175	38253.95
706.52	38203.78
706.865	38127.63
707.209	38113.16
707.554	37893.06
707.899	38083.56
708.243	37890.12
708.588	37736.45
708.932	37575.78
709.277	37499.4
709.621	37514.31
709.966	37215.79
710.31	37429.34
710.654	37048.11
710.998	37164.04
711.342	37176.69
711.687	37008.11
712.031	36866.42
712.375	36844.5
712.719	36916.81
713.063	36560.66
713.407	36786.65
713.75	36630.72
714.094	36700.32
714.438	36341.46
714.782	36546.43
715.125	36201.12
715.469	36276.6
715.812	36182.14
716.156	35950.28
716.499	36070.05
716.843	35970.62
717.186	35686.34
717.53	35868.93
717.873	35882.71
718.216	35778.08
718.559	35542.16
718.902	35522.05
719.246	35382.61
719.589	35247.93
719.932	35044.32
720.275	35232.34
720.617	35130.87
720.96	34948.05
721.303	35034.38
721.646	35082.74
721.989	34891.1
722.331	34943.3
722.674	34917.99
723.016	34870.99
723.359	34868.05
723.701	34776.3
724.044	34621.28
724.386	34296.32
724.729	34541.28
725.071	34349.2
725.413	34406.82
725.755	34414.28
726.097	34421.96
726.439	34102.42
726.782	34107.39
727.124	34329.31
727.465	34085.7
727.807	34100.84
728.149	34030.56
728.491	33903.11
728.833	33960.96
729.175	33798.48
729.516	33703.34
729.858	33713.05
730.199	33691.36
730.541	33674.19
730.882	33576.11
731.224	33605.49
731.565	33442.78
731.906	33470.57
732.248	33486.85
732.589	33229.68
732.93	33068.55
733.271	33225.16
733.612	33247.3
733.953	33140.87
734.294	33006.86
734.635	32977.93
734.976	32985.16
735.317	32766.19
735.658	32814.32
735.999	32743.36
736.339	32746.3
736.68	32796.47
737.021	32611.39
737.361	32532.52
737.702	32692.74
738.042	32481.45
738.383	32443.26
738.723	32478.06
739.063	32408
739.404	32427.21
739.744	32336.37
740.084	32155.58
740.424	32166.43
740.764	32140.89
741.104	32161.68
741.444	32125.98
741.784	31956.49
742.124	31987.68
742.464	32024.06
742.804	31946.77
743.143	31829.94
743.483	31830.84
743.823	31711.52
744.162	31753.78
744.502	31807.79
744.841	31541.59
745.181	31602.83
745.52	31306.79
745.86	31551.3
746.199	31375.71
746.538	31410.29
746.877	31407.58
747.216	31328.03
747.556	31209.62
747.895	31225.66
748.234	31076.29
748.573	30999.91
748.911	30984.54
749.25	31093.69
749.589	30872.68
749.928	30786.58
750.267	30837.65
750.605	30828.84
750.944	30766.24
751.283	30532.12
751.621	30560.14
751.96	30416.19
752.298	30456.42
752.636	30308.17
752.975	30213.03
753.313	30167.84
753.651	30197.21
753.989	30034.73
754.327	30095.75
754.666	29872.25
755.004	29828.64
755.342	29759.71
755.679	29764.91
756.017	29588.19
756.355	29633.61
756.693	29501.64
757.031	29568.53
757.368	29469.78
757.706	29421.64
758.044	29173.29
758.381	29210.8
758.719	29063.01
759.056	29172.61
759.394	29005.38
759.731	28855.78
760.068	28797.03
760.405	28769.46
760.743	28729.68
761.08	28659.63
761.417	28461.21
761.754	28488.33
762.091	28433.87
762.428	28075.91
762.765	28207.66
763.102	28116.37
763.438	27991.85
763.775	27861.68
764.112	27912.98
764.449	27982.58
764.785	27860.55
765.122	27626.21
765.458	27470.96
765.795	27491.97
766.131	27501.24
766.467	27462.37
766.804	27250.85
767.14	27175.37
767.476	27117.75
767.812	26958.66
768.148	27035.04
768.485	26769.73
768.821	26683.41
769.157	26576.74
769.492	26649.74
769.828	26463.08
770.164	26257.66
770.5	26254.72
770.836	26242.74
771.171	26010.21
771.507	25980.15
771.842	25883.2
772.178	25782.87
772.513	25664
772.849	25739.7
773.184	25500.39
773.519	25511.24
773.855	25407.06
774.19	25241.86
774.525	25123.68
774.86	25090.46
775.195	25066.5
775.53	25053.39
775.865	24676.68
776.2	24671.26
776.535	24491.38
776.87	24426.07
777.205	24384.94
777.539	24341.32
777.874	24337.26
778.209	24102.46
778.543	24021.56
778.878	23898.17
779.212	23962.8
779.547	23747.44
779.881	23926.19
780.215	23628.8
780.55	23725.75
780.884	23539.99
781.218	23510.16
781.552	23392.2
781.886	23207.12
782.22	23190.85
782.554	23177.51
782.888	22962.6
783.222	22930.96
783.556	22837.41
783.889	22658.43
784.223	22638.09
784.557	22556.29
784.89	22556.06
785.224	22354.26
785.557	22295.28
785.891	22220.48
786.224	22229.06
786.558	22245.56
786.891	21976.41
787.224	21866.36
787.557	21867.72
787.891	21849.19
788.224	21805.57
788.557	21686.7
788.89	21635.86
789.223	21655.52
789.556	21433.15
789.888	21346.6
790.221	21305.47
790.554	20914.07
790.887	21054.86
791.219	20981.41
791.552	20940.73
791.884	20904.58
792.217	20826.61
792.549	20727.41
792.882	20616.45
793.214	20591.14
793.546	20658.71
793.879	20466.17
794.211	20349.56
794.543	20410.81
794.875	20319.28
795.207	20356.12
795.539	20232.28
795.871	20116.12
796.203	20061.21
796.535	19929.24
796.867	19848.33
797.198	19768.79
797.53	19855.79
797.862	19652.41
798.193	19724.72
798.525	19511.17
798.856	19608.79
799.188	19278.18
799.519	19300.33
799.85	19242.25
800.182	19216.26
800.513	19117.96
800.844	19013.55
801.175	19083.83
801.506	19146.21
801.837	18989.37
802.168	18989.6
802.499	18778.76
802.83	18696.27
803.161	18719.55
803.491	18775.14
803.822	18673.9
804.153	18709.15
804.483	18461.7
804.814	18321.82
805.145	18345.32
805.475	18425.32
805.805	18254.03
806.136	18230.07
806.466	18280.01
806.796	18169.51
807.126	17986.24
807.457	18049.51
807.787	18109.85
808.117	17908.05
808.447	17937.42
808.777	17878.44
809.107	17811.1
809.436	17680.03
809.766	17651.33
810.096	17590.09
810.426	17553.03
810.755	17564.55
811.085	17472.13
811.414	17522.97
811.744	17370.89
812.073	17275.75
812.403	17269.87
812.732	17230.32
813.061	17220.61
813.39	17042.98
813.719	16998.92
814.049	17104.45
814.378	17094.73
814.707	17000.95
815.036	16942.2
815.365	16847.28
815.693	16680.06
816.022	16732.94
816.351	16671.24
816.68	16584.92
817.008	16586.72
817.337	16495.65
817.665	16510.12
817.994	16457.69
818.322	16423.34
818.651	16434.41
818.979	16332.72
819.307	16466.05
819.636	16379.5
819.964	16202.78
820.292	16280.97
820.62	16275.09
820.948	16151.71
821.276	16222.67
821.604	16140.63
821.932	16385.15
822.259	16216.79
822.587	16180.86
822.915	16151.26
823.243	16191.03
823.57	16017.25
823.898	16174.98
824.225	16047.53
824.553	16015.44
824.88	16094.08
825.207	16165.04
825.535	16022.45
825.862	16102.22
826.189	16056.57
826.516	16089.56
826.843	16127.08
827.17	16003.24
827.497	16200.75
827.824	16205.04
828.151	16137.7
828.478	16070.35
828.805	16153.74
829.131	16008.66
829.458	16050.02
829.785	15996.68
830.111	16059.73
830.438	16087.08
830.764	16018.83
831.09	16099.51
831.417	15963.92
831.743	16012.5
832.069	15965.95
832.395	15904.93
832.722	15928.21
833.048	15918.49
833.374	15920.3
833.7	15906.06
834.026	15782
834.351	15883.24
834.677	15884.14
835.003	15901.55
835.329	15751.49
835.654	15850.93
835.98	15716.69
836.306	15811.15
836.631	15603.02
836.956	15696.35
837.282	15672.17
837.607	15673.98
837.932	15541.1
838.258	15672.17
838.583	15511.5
838.908	15462.91
839.233	15621.33
839.558	15479.86
839.883	15444.16
840.208	15423.14
840.533	15340.88
840.858	15418.62
841.182	15371.62
841.507	15411.39
841.832	15219.53
842.156	15292.3
842.481	15163.03
842.805	15164.84
843.13	15144.73
843.454	15226.08
843.778	15046.88
844.103	15077.84
844.427	14995.35
844.751	14965.3
845.075	14946.99
845.399	14969.37
845.723	14763.95
846.047	14854.12
846.371	14713.78
846.695	14619.54
847.019	14538.87
847.343	14507.68
847.666	14470.17
847.99	14338.2
848.313	14414.8
848.637	14177.97
848.96	14258.2
849.284	14247.8
849.607	14095.04
849.931	14043.74
850.254	14009.62
850.577	13915.61
850.9	13895.04
851.223	13854.37
851.546	13816.63
851.869	13697.31
852.192	13780.47
852.515	13661.15
852.838	13558.56
853.161	13550.42
853.483	13498.44
853.806	13390.42
854.129	13345.23
854.451	13315.17
854.774	13231.78
855.096	13169.64
855.419	13180.26
855.741	13130.54
856.063	13025.01
856.385	13056.42
856.708	13082.64
857.03	12979.59
857.352	12989.76
857.674	12925.13
857.996	12885.81
858.318	12832.25
858.64	12853.72
858.961	12757.22
859.283	12753.61
859.605	12676.55
859.926	12622.31
860.248	12705.02
860.57	12580.28
860.891	12631.8
861.212	12590.22
861.534	12513.16
861.855	12455.08
862.176	12483.78
862.498	12453.05
862.819	12398.59
863.14	12263.45
863.461	12376.44
863.782	12305.03
864.103	12274.52
864.424	12281.3
864.745	12232.04
865.065	12189.1
865.386	12184.58
865.707	12201.08
866.027	12178.71
866.348	12153.17
866.668	12136.45
866.989	12069.78
867.309	12079.72
867.63	12021.65
867.95	12059.16
868.27	11933.97
868.59	11931.03
868.91	11921.31
869.23	11950.01
869.55	11870.24
869.87	11852.16
870.19	11875.89
870.51	11935.55
870.83	11870.24
871.15	11793.63
871.469	11751.15
871.789	11837.92
872.109	11832.27
872.428	11703.46
872.748	11741.65
873.067	11726.51
873.386	11726.74
873.706	11731.03
874.025	11630.25
874.344	11561.77
874.663	11623.01
874.982	11551.38
875.301	11578.49
875.62	11574.43
875.939	11596.35
876.258	11525.62
876.577	11525.16
876.896	11458.95
877.214	11400.19
877.533	11442
877.852	11462.57
878.17	11378.05
878.489	11413.75
878.807	11387.77
879.125	11364.72
879.444	11293.3
879.762	11284.94
880.08	11310.25
880.398	11290.59
880.716	11271.61
881.034	11212.18
881.352	11288.11
881.67	11208.56
881.988	11154.55
882.306	11170.6
882.624	11163.14
882.941	11110.71
883.259	11009.24
883.577	11082.01
883.894	10993.43
884.212	11021.67
884.529	10970.83
884.846	10925.63
885.164	10849.25
885.481	10887.89
885.798	10910.04
886.115	10785.3
886.432	10773.54
886.75	10724.28
887.067	10731.06
887.383	10708.24
887.7	10686.32
888.017	10683.38
888.334	10660.55
888.651	10680.44
888.967	10615.81
889.284	10514.79
889.6	10463.5
889.917	10481.35
890.233	10425.3
890.55	10363.16
890.866	10355.93
891.182	10361.8
891.498	10321.8
891.815	10294.23
892.131	10234.35
892.447	10230.73
892.763	10153.9
893.079	10204.07
893.395	10177.18
893.71	10136.05
894.026	10093.11
894.342	10066.22
894.657	10044.75
894.973	10006.56
895.289	9950.97
895.604	9971.08
895.92	9873.23
896.235	9822.16
896.55	9829.61
896.865	9780.12
897.181	9753.68
897.496	9826.9
897.811	9712.33
898.126	9748.03
898.441	9633.24
898.756	9612.9
899.071	9576.97
899.386	9559.11
899.7	9469.62
900.015	9482.05
900.33	9342.62
900.644	9349.4
900.959	9345.33
901.273	9360.25
901.588	9249.29
901.902	9237.31
902.216	9167.48
902.531	9223.08
902.845	9160.71
903.159	9164.77
903.473	9056.75
903.787	9053.14
904.101	8979.24
904.415	9077.09
904.729	8997.55
905.042	8886.14
905.356	8896.98
905.67	8883.2
905.984	8882.97
906.297	8820.38
906.611	8763.88
906.924	8789.19
907.237	8678.46
907.551	8640.04
907.864	8681.4
908.177	8615.64
908.491	8570.66
908.804	8522.08
909.117	8494.73
909.43	8405.92
909.743	8405.25
910.056	8369.31
910.368	8342.65
910.681	8265.81
910.994	8295.87
911.307	8256.32
911.619	8185.82
911.932	8191.69
912.244	8172.93
912.557	8126.61
912.869	8024.92
913.181	8055.88
913.494	8024.01
913.806	7964.13
914.118	8011.81
914.43	7887.52
914.742	7866.95
915.054	7858.14
915.366	7825.83
915.678	7806.39
915.99	7762.1
916.302	7720.52
916.613	7656.34
916.925	7698.37
917.236	7587.87
917.548	7654.53
917.859	7552.84
918.171	7509.68
918.482	7514.2
918.794	7460.19
919.105	7428.55
919.416	7375.89
919.727	7409.79
920.038	7356.01
920.349	7277.37
920.66	7204.82
920.971	7213.41
921.282	7239.4
921.593	7206.86
921.903	7091.61
922.214	7143.36
922.525	7020.65
922.835	7079.63
923.146	7020.65
923.456	7007.09
923.767	6993.08
924.077	6967.54
924.387	6902.23
924.697	6872.4
925.008	6848.45
925.318	6873.99
925.628	6768
925.938	6813.42
926.248	6737.27
926.558	6710.37
926.867	6688.23
927.177	6663.14
927.487	6604.61
927.796	6580.21
928.106	6548.34
928.416	6484.39
928.725	6513.32
929.034	6497.95
929.344	6501.34
929.653	6432.42
929.962	6399.87
930.271	6350.84
930.581	6344.28
930.89	6305.87
931.199	6268.58
931.508	6272.19
931.817	6245.75
932.125	6209.14
932.434	6200.78
932.743	6192.87
933.051	6137.28
933.36	6128.24
933.669	6070.17
933.977	6049.37
934.286	6029.94
934.594	6019.09
934.902	5953.56
935.21	5983.39
935.519	5936.84
935.827	5899.55
936.135	5881.47
936.443	5789.95
936.751	5760.57
937.059	5801.7
937.367	5765.09
937.674	5752.89
937.982	5697.75
938.29	5713.79
938.597	5621.36
938.905	5613
939.213	5601.03
939.52	5614.58
939.827	5581.14
940.135	5555.15
940.442	5540.69
940.749	5529.39
941.056	5439.45
941.363	5422.05
941.67	5392.67
941.977	5367.81
942.284	5328.94
942.591	5372.56
942.898	5336.4
943.205	5306.34
943.511	5284.88
943.818	5255.95
944.125	5218.21
944.431	5186.57
944.738	5188.83
945.044	5160.58
945.35	5144.54
945.657	5127.59
945.963	5066.12
946.269	5074.03
946.575	5044.43
946.881	5003.3
947.187	4979.35
947.493	4961.72
947.799	5008.95
948.105	4898.9
948.41	4930.99
948.716	4886.69
949.022	4852.57
949.327	4846.92
949.633	4761.95
949.938	4839.01
950.244	4801.05
950.549	4744.55
950.854	4729.18
951.16	4742.97
951.465	4734.83
951.77	4644.44
952.075	4683.54
952.38	4641.28
952.685	4608.51
952.99	4605.35
953.294	4624.78
953.599	4547.95
953.904	4539.13
954.209	4451.68
954.513	4478.57
954.818	4430.43
955.122	4479.25
955.426	4404.45
955.731	4424.33
956.035	4421.4
956.339	4397.89
956.643	4391.11
956.948	4378.23
957.252	4282.42
957.556	4307.95
957.86	4323.09
958.163	4247.16
958.467	4258.01
958.771	4229.99
959.075	4228.86
959.378	4184.34
959.682	4189.99
959.985	4195.64
960.289	4134.85
960.592	4146.83
960.896	4130.33
961.199	4105.7
961.502	4088.52
961.805	4027.28
962.108	4034.51
962.411	3978.24
962.714	4008.3
963.017	4004
963.32	3986.38
963.623	3942.99
963.926	3922.2
964.228	3829.32
964.531	3923.33
964.833	3880.39
965.136	3833.16
965.438	3872.26
965.741	3854.4
966.043	3793.61
966.345	3805.14
966.648	3802.88
966.95	3765.37
967.252	3730.11
967.554	3675.88
967.856	3694.41
968.158	3685.14
968.46	3686.5
968.761	3680.4
969.063	3618.7
969.365	3615.99
969.666	3621.64
969.968	3615.99
970.269	3585.03
970.571	3522.89
970.872	3545.26
971.174	3538.03
971.475	3503.23
971.776	3554.75
972.077	3530.12
972.378	3490.12
972.679	3474.75
972.98	3440.4
973.281	3423
973.582	3423.68
973.883	3395.43
974.183	3397.24
974.484	3361.99
974.785	3370.8
975.085	3339.62
975.386	3349.78
975.686	3316.79
975.986	3315.44
976.287	3304.14
976.587	3258.04
976.887	3257.36
977.187	3238.83
977.487	3224.36
977.787	3255.78
978.087	3196.34
978.387	3182.56
978.687	3179.17
978.987	3177.59
979.286	3174.87
979.586	3158.38
979.885	3133.07
980.185	3100.75
980.484	3094.65
980.784	3119.28
981.083	3067.08
981.382	3073.86
981.682	3025.5
981.981	3070.02
982.28	3019.62
982.579	3004.71
982.878	3002.68
983.177	2971.49
983.475	2969
983.774	2935.56
984.073	2931.49
984.372	2912.96
984.67	2909.12
984.969	2896.24
985.267	2891.27
985.566	2878.16
985.864	2853.07
986.162	2851.27
986.461	2812.17
986.759	2813.75
987.057	2811.95
987.355	2789.57
987.653	2769.24
987.951	2716.58
988.249	2744.38
988.547	2740.76
988.844	2708.45
989.142	2678.16
989.44	2696.24
989.737	2683.81
990.035	2674.1
990.332	2656.7
990.63	2642.23
990.927	2637.94
991.224	2667.99
991.521	2602.69
991.819	2565.17
992.116	2604.27
992.413	2583.93
992.71	2540.09
993.006	2572.4
993.303	2522.69
993.6	2529.92
993.897	2517.72
994.193	2505.74
994.49	2491.95
994.787	2458.06
995.083	2456.25
995.379	2433.2
995.676	2427.1
995.972	2398.62
996.268	2370.15
996.565	2401.11
996.861	2395.01
997.157	2386.19
997.453	2348.68
997.749	2337.38
998.044	2345.74
998.34	2314.78
998.636	2298.96
998.932	2289.25
999.227	2279.76
999.523	2235.92
999.818	2273.43
1000.114	2234.56
1000.409	2281.34
1000.704	2223.26
1001	2199.53
1001.295	2194.56
1001.59	2191.62
1001.885	2163.83
1002.18	2187.1
1002.475	2147.33
1002.77	2190.27
1003.065	2155.92
1003.359	2152.53
1003.654	2154.11
1003.949	2074.34
1004.243	2094
1004.538	2079.54
1004.832	2085.64
1005.127	2110.95
1005.421	2064.85
1005.715	2017.62
1006.009	2033.44
1006.304	2009.26
1006.598	2036.37
1006.892	1976.04
1007.186	1964.51
1007.48	1967
1007.773	1935.58
1008.067	1945.98
1008.361	1895.36
1008.655	1906.88
1008.948	1900.33
1009.242	1905.08
1009.535	1907.11
1009.829	1891.07
1010.122	1888.13
1010.415	1877.51
1010.708	1834.57
1011.001	1861.46
1011.295	1836.15
1011.588	1827.34
1011.881	1781.69
1012.173	1770.39
1012.466	1795.25
1012.759	1756.15
1013.052	1776.72
1013.344	1748.02
1013.637	1740.79
1013.93	1734.69
1014.222	1725.19
1014.514	1739.43
1014.807	1722.03
1015.099	1698.08
1015.391	1698.3
1015.683	1699.88
1015.976	1651.07
1016.268	1643.84
1016.56	1622.15
1016.851	1621.24
1017.143	1645.87
1017.435	1611.98
1017.727	1602.71
1018.018	1592.54
1018.31	1563.39
1018.602	1582.37
1018.893	1566.78
1019.185	1557.97
1019.476	1551.87
1019.767	1543.5
1020.058	1489.95
1020.35	1523.84
1020.641	1502.83
1020.932	1495.37
1021.223	1496.27
1021.514	1477.29
1021.804	1467.35
1022.095	1447.91
1022.386	1440.68
1022.677	1409.72
1022.967	1427.58
1023.258	1423.51
1023.548	1417.41
1023.839	1376.73
1024.129	1390.06
1024.419	1390.97
1024.709	1362.72
1025	1345.77
1025.29	1346.67
1025.58	1344.87
1025.87	1330.18
1026.16	1340.12
1026.449	1344.64
1026.739	1306.45
1027.029	1296.96
1027.319	1287.92
1027.608	1286.56
1027.898	1263.29
1028.187	1249.5
1028.477	1260.8
1028.766	1244.08
1029.055	1242.04
1029.344	1206.56
1029.634	1200.69
1029.923	1235.04
1030.212	1198.2
1030.501	1199.78
1030.79	1186
1031.078	1174.93
1031.367	1174.47
1031.656	1150.07
1031.945	1135.83
1032.233	1165.21
1032.522	1162.5
1032.81	1135.83
1033.099	1106.45
1033.387	1129.96
1033.675	1106
1033.963	1080.92
1034.251	1121.82
1034.54	1094.93
1034.828	1103.97
1035.116	1078.88
1035.403	1070.3
1035.691	1075.04
1035.979	1079.56
1036.267	1045.89
1036.554	1030.52
1036.842	1033.91
1037.129	1020.58
1037.417	1044.99
1037.704	999.56
1037.992	1005.21
1038.279	1033.69
1038.566	1014.25
1038.853	1014.25
1039.14	1014.25
