Data from white_steel_sheet_FLMS001491_098.txt Node
Date: Tue Feb 07 10:58:51 GMT 2017
User: dcchb
Spectrometer: FLMS00149
Trigger mode: 0
Integration Time (sec): 2.000000E-2
Scans to average: 10
Electric dark correction enabled: true
Nonlinearity correction enabled: false
Boxcar width: 0
XAxis mode: Wavelengths
Number of Pixels in Spectrum: 2048
>>>>>Begin Spectral Data<<<<<
341.393	-1.53
341.776	-1.53
342.16	-1.53
342.543	-57.8
342.927	-63.67
343.31	-70.68
343.693	-69.55
344.077	-60.73
344.46	-60.96
344.843	-43.56
345.226	-47.63
345.61	-43.11
345.993	-20.51
346.376	1.86
346.759	7.97
347.142	12.26
347.525	46.38
347.908	54.97
348.291	106.72
348.674	94.07
349.057	92.48
349.44	114.4
349.823	153.72
350.206	168.41
350.588	172.03
350.971	219.03
351.354	224.91
351.737	245.25
352.119	250.45
352.502	261.52
352.884	291.8
353.267	281.86
353.65	269.43
354.032	291.35
354.414	305.13
354.797	322.08
355.179	312.82
355.562	333.38
355.944	345.13
356.326	325.92
356.709	334.96
357.091	338.8
357.473	362.08
357.855	347.17
358.238	372.93
358.62	333.16
359.002	345.58
359.384	342.87
359.766	342.65
360.148	354.85
360.53	338.35
360.912	330.44
361.294	346.71
361.676	359.6
362.057	320.73
362.439	341.74
362.821	350.56
363.203	330.67
363.584	346.04
363.966	342.42
364.348	330.9
364.729	336.77
365.111	332.03
365.493	320.95
365.874	330.9
366.256	332.25
366.637	325.7
367.019	314.17
367.4	300.84
367.781	339.26
368.163	344.91
368.544	319.82
368.925	328.18
369.306	326.83
369.688	313.72
370.069	331.8
370.45	299.48
370.831	317.79
371.212	307.85
371.593	336.77
371.974	307.17
372.355	340.39
372.736	344.23
373.117	322.99
373.498	337.22
373.879	342.19
374.26	348.07
374.641	338.35
375.021	313.49
375.402	350.78
375.783	334.28
376.163	334.96
376.544	344.45
376.925	359.37
377.305	338.35
377.686	328.64
378.066	325.7
378.447	352.14
378.827	364.57
379.208	356.66
379.588	355.3
379.968	364.11
380.349	355.53
380.729	356.66
381.109	361.4
381.489	358.01
381.87	352.14
382.25	368.18
382.63	369.54
383.01	368.63
383.39	356.43
383.77	377.9
384.15	370.22
384.53	372.25
384.91	407.73
385.29	383.1
385.67	392.59
386.049	380.61
386.429	402.53
386.809	389.88
387.189	375.87
387.568	378.13
387.948	408.63
388.328	411.8
388.707	386.26
389.087	400.05
389.466	388.75
389.846	382.19
390.225	415.86
390.605	422.64
390.984	405.24
391.363	431.01
391.743	430.78
392.122	444.56
392.501	432.36
392.881	432.14
393.26	452.93
393.639	439.14
394.018	452.93
394.397	461.51
394.776	445.69
395.155	481.4
395.534	463.1
395.913	489.99
396.292	487.5
396.671	484.79
397.05	447.05
397.429	495.86
397.808	504.45
398.186	513.49
398.565	484.11
398.944	493.15
399.323	511.68
399.701	508.74
400.08	552.36
400.458	545.13
400.837	551.45
401.215	560.95
401.594	570.66
401.972	542.42
402.351	567.27
402.729	579.02
403.107	579.25
403.486	588.97
403.864	606.37
404.242	606.59
404.62	613.6
404.999	616.09
405.377	664.9
405.755	637.55
406.133	670.55
406.511	663.09
406.889	659.47
407.267	672.58
407.645	690.21
408.023	709.42
408.401	704.22
408.779	714.61
409.156	736.53
409.534	717.78
409.912	772.24
410.29	767.49
410.667	756.65
411.045	789.87
411.422	805.23
411.8	802.75
412.178	834.61
412.555	817.89
412.933	843.2
413.31	867.6
413.687	840.26
414.065	875.51
414.442	871.67
414.819	912.57
415.197	906.93
415.574	912.35
415.951	906.7
416.328	937.66
416.705	950.09
417.082	950.09
417.46	955.51
417.837	955.51
418.214	991.89
418.591	994.61
418.967	1006.13
419.344	1027.37
419.721	1043.87
420.098	1030.99
420.475	1058.11
420.852	1039.58
421.228	1076.86
421.605	1061.72
421.982	1072.8
422.358	1082.29
422.735	1092.46
423.111	1099.69
423.488	1157.31
423.864	1126.35
424.241	1127.71
424.617	1179.69
424.994	1183.08
425.37	1175.17
425.746	1202.96
426.123	1243.87
426.499	1214.26
426.875	1245
427.251	1269.63
427.627	1299.68
428.003	1275.5
428.379	1319.8
428.756	1317.54
429.132	1340.81
429.507	1387.82
429.883	1375.39
430.259	1386.46
430.635	1399.79
431.011	1402.05
431.387	1437.08
431.763	1465.78
432.138	1462.16
432.514	1474.37
432.89	1513.46
433.265	1546.91
433.641	1548.04
434.016	1584.42
434.392	1604.76
434.767	1610.64
435.143	1616.29
435.518	1645.21
435.894	1656.96
436.269	1690.18
436.644	1707.58
437.02	1692.89
437.395	1727.69
437.77	1762.5
438.145	1809.27
438.52	1805.66
438.895	1828.48
439.271	1822.83
439.646	1835.94
440.021	1867.58
440.395	1878.43
440.77	1860.57
441.145	1905.77
441.52	1964.98
441.895	1967.91
442.27	1976.5
442.645	1946.22
443.019	2013.79
443.394	2015.6
443.769	2025.09
444.143	1996.61
444.518	2057.63
444.892	2045.2
445.267	2089.72
445.641	2087.23
446.016	2104.63
446.39	2112.77
446.764	2133.11
447.139	2156.84
447.513	2195.7
447.887	2191.64
448.262	2222.6
448.636	2229.15
449.01	2227.12
449.384	2273.67
449.758	2279.09
450.132	2319.32
450.506	2322.48
450.88	2341.01
451.254	2390.73
451.628	2389.37
452.002	2393.89
452.376	2432.53
452.75	2424.85
453.123	2482.48
453.497	2510.27
453.871	2510.05
454.244	2592.3
454.618	2567.22
454.992	2570.61
455.365	2635.69
455.739	2705.75
456.112	2719.76
456.486	2702.13
456.859	2772.86
457.232	2826.42
457.606	2843.37
457.979	2876.14
458.352	2916.59
458.725	2942.35
459.099	2954.56
459.472	3032.75
459.845	3037.72
460.218	3074.33
460.591	3121.56
460.964	3099.86
461.337	3163.36
461.71	3243.36
462.083	3281.55
462.456	3317.48
462.829	3292.17
463.201	3363.13
463.574	3369.91
463.947	3414.88
464.32	3502.34
464.692	3519.06
465.065	3573.52
465.438	3601.77
465.81	3645.84
466.183	3687.42
466.555	3739.39
466.928	3794.31
467.3	3773.29
467.672	3808.32
468.045	3961.99
468.417	3918.15
468.789	3976.68
469.161	4012.38
469.534	4093.51
469.906	4171.02
470.278	4187.07
470.65	4232.71
471.022	4292.82
471.394	4380.73
471.766	4449.66
472.138	4496.89
472.51	4574.4
472.882	4687.39
473.253	4720.38
473.625	4805.81
473.997	4858.46
474.369	4880.38
474.74	4930.77
475.112	5018.91
475.484	5130.32
475.855	5229.52
476.227	5218
476.598	5359.24
476.97	5409.86
477.341	5566.69
477.713	5677.65
478.084	5681.72
478.455	5846.46
478.827	5857.53
479.198	6037.19
479.569	6040.8
479.94	6174.36
480.311	6272.21
480.682	6381.58
481.053	6523.27
481.424	6668.58
481.795	6645.76
482.166	6812.76
482.537	6906.54
482.908	7075.8
483.279	7099.08
483.65	7228.34
484.021	7390.6
484.391	7464.04
484.762	7553.53
485.133	7640.08
485.503	7759.17
485.874	7899.74
486.244	7926.85
486.615	8143.57
486.985	8193.74
487.356	8377.92
487.726	8412.49
488.097	8572.94
488.467	8605.48
488.837	8856.32
489.207	8920.5
489.578	9067.39
489.948	9126.37
490.318	9235.29
490.688	9275.97
491.058	9451.79
491.428	9524.55
491.798	9653.59
492.168	9841.83
492.538	9857.2
492.908	10014.03
493.278	10120.47
493.648	10149.39
494.017	10394.36
494.387	10375.15
494.757	10530.63
495.126	10663.96
495.496	10659.21
495.866	10819.66
496.235	10899.2
496.605	11034.57
496.974	11009.48
497.344	11168.12
497.713	11173.1
498.082	11320.21
498.452	11473.88
498.821	11510.04
499.19	11516.14
499.559	11670.71
499.928	11722.91
500.298	11866.86
500.667	11980.76
501.036	11965.17
501.405	12054.65
501.774	12194.31
502.143	12287.42
502.512	12351.14
502.88	12443.35
503.249	12510.69
503.618	12545.49
503.987	12592.49
504.356	12780.06
504.724	12813.96
505.093	12829.1
505.462	13014.4
505.83	13043.56
506.199	13221.63
506.567	13314.28
506.936	13335.07
507.304	13521.73
507.672	13609.42
508.041	13696.87
508.409	13836.53
508.777	13865.45
509.145	13981.16
509.514	13992.23
509.882	14152.68
510.25	14261.38
510.618	14317.42
510.986	14382.5
511.354	14589.5
511.722	14727.35
512.09	14822.72
512.458	14827.69
512.826	14981.36
513.193	15020.9
513.561	15134.8
513.929	15165.76
514.297	15494.56
514.664	15614.79
515.032	15567.1
515.4	15751.96
515.767	15837.83
516.135	15934.33
516.502	15976.81
516.869	16210.48
517.237	16285.73
517.604	16310.36
517.972	16458.61
518.339	16570.92
518.706	16709.9
519.073	16756
519.44	17001.64
519.808	17062.66
520.175	17036.44
520.542	17256.1
520.909	17516.43
521.276	17532.02
521.643	17734.05
522.009	17807.05
522.376	17911.45
522.743	18114.38
523.11	18265.79
523.477	18371.32
523.843	18461.72
524.21	18743.29
524.577	18827.81
524.943	18972.89
525.31	19025.77
525.676	19295.82
526.043	19421.01
526.409	19467.12
526.776	19717.5
527.142	19827.78
527.508	19805.19
527.874	20115.01
528.241	20213.99
528.607	20304.61
528.973	20493.08
529.339	20565.17
529.705	20776.69
530.071	20877.7
530.437	20965.61
530.803	21110.24
531.169	21163.34
531.535	21361.98
531.901	21338.93
532.267	21492.15
532.632	21619.83
532.998	21734.17
533.364	21912.25
533.73	21926.03
534.095	22100.94
534.461	22194.5
534.826	22334.84
535.192	22332.12
535.557	22526.92
535.923	22607.15
536.288	22585.9
536.653	22880.81
537.019	22738.67
537.384	22948.61
537.749	23014.82
538.114	23143.4
538.479	23109.51
538.845	23327.8
539.21	23316.05
539.575	23484.64
539.94	23551.53
540.305	23710.39
540.67	23635.82
541.034	23790.84
541.399	23892.54
541.764	23837.4
542.129	24085.98
542.494	24083.72
542.858	24169.59
543.223	24204.84
543.587	24444.84
543.952	24367.1
544.316	24471.5
544.681	24467.66
545.045	24564.83
545.41	24810.48
545.774	24884.6
546.138	24931.15
546.503	25052.51
546.867	24978.61
547.231	25239.62
547.595	25237.36
547.959	25377.02
548.324	25406.62
548.688	25461.76
549.052	25515.54
549.416	25589.44
549.779	25689.32
550.143	25808.64
550.507	25988.07
550.871	26015.19
551.235	26026.04
551.599	26201.85
551.962	26181.06
552.326	26440.04
552.689	26503.09
553.053	26480.49
553.417	26516.87
553.78	26939.69
554.143	26726.36
554.507	26695.63
554.87	26960.7
555.234	27224.43
555.597	27103.52
555.96	27344.2
556.323	27339.22
556.686	27427.36
557.05	27849.04
557.413	27840.45
557.776	27784.86
558.139	28103.5
558.502	28118.64
558.865	28185.53
559.228	28422.36
559.59	28618.97
559.953	28507.78
560.316	28842.24
560.679	28859.18
561.041	29034.1
561.404	28999.52
561.767	29274.32
562.129	29209.68
562.492	29574.19
562.854	29496
563.217	29529.68
563.579	29700.74
563.941	29765.38
564.304	29958.14
564.666	30233.61
565.028	30277.68
565.39	30307.51
565.753	30420.95
566.115	30564.68
566.477	30751.11
566.839	30907.04
567.201	31014.16
567.563	31074.95
567.925	31263.42
568.287	31248.5
568.648	31264.55
569.01	31369.85
569.372	31640.81
569.734	31520.81
570.095	31732.78
570.457	31870.18
570.819	31998.54
571.18	32115.37
571.542	32238.76
571.903	32280.79
572.265	32412.31
572.626	32487.79
572.987	32550.39
573.349	32724.17
573.71	32717.16
574.071	32847.1
574.432	32950.83
574.794	33082.8
575.155	33035.8
575.516	33124.38
575.877	33167.32
576.238	33242.35
576.599	33344.49
576.96	33339.52
577.32	33324.83
577.681	33506.52
578.042	33553.98
578.403	33578.61
578.763	33539.97
579.124	33600.75
579.485	33802.78
579.845	33918.49
580.206	33871.26
580.566	33690.47
580.927	33741.77
581.287	34009.11
581.648	33935.66
582.008	34007.98
582.368	34073.51
582.728	34026.28
583.089	33977.69
583.449	33920.52
583.809	34097.24
584.169	34134.3
584.529	33994.19
584.889	34307.4
585.249	33946.51
585.609	33872.84
585.969	34130.46
586.329	34045.49
586.688	34081.42
587.048	34106.96
587.408	33901.99
587.768	33926.17
588.127	33986.28
588.487	33905.83
588.846	34317.35
589.206	34030.8
589.565	34099.72
589.925	34337.23
590.284	34101.08
590.643	34118.71
591.003	34164.58
591.362	34196.9
591.721	34128.42
592.08	34130.01
592.44	34150.12
592.799	34170.01
593.158	34097.92
593.517	34221.3
593.876	34205.48
594.235	34200.74
594.593	34121.87
594.952	34230.57
595.311	34118.71
595.67	34228.08
596.029	34422.2
596.387	34419.26
596.746	34410.23
597.104	34280.51
597.463	34188.54
597.822	34271.25
598.18	34208.65
598.538	34277.12
598.897	34425.37
599.255	34077.35
599.613	34558.02
599.972	34489.32
600.33	34444.12
600.688	34250
601.046	34400.51
601.404	34617.68
601.762	34426.95
602.12	34626.26
602.478	34534.29
602.836	34521.86
603.194	34530.45
603.552	34568.64
603.91	34424.91
604.268	34690.22
604.625	34441.18
604.983	34574.29
605.341	34499.71
605.698	34707.62
606.056	34702.42
606.413	34679.82
606.771	34715.53
607.128	34702.65
607.485	34616.32
607.843	34637.11
608.2	34762.76
608.557	34828.29
608.914	34829.65
609.272	35081.17
609.629	34885.69
609.986	35198.9
610.343	34956.65
610.7	35247.94
611.057	35158.45
611.414	35087.04
611.771	35008.18
612.127	35159.13
612.484	35299.92
612.841	35389.63
613.198	35240.03
613.554	35221.5
613.911	35347.6
614.267	35430.31
614.624	35424.89
614.98	35568.61
615.337	35577.2
615.693	35643.19
616.05	35562.51
616.406	35750.53
616.762	35480.71
617.118	35739.46
617.475	35803.41
617.831	35776.29
618.187	35825.33
618.543	35827.14
618.899	35927.47
619.255	35876.85
619.611	35901.26
619.967	35954.59
620.323	36025.78
620.678	35951.2
621.034	35864.88
621.39	35895.84
621.746	35834.59
622.101	36312.77
622.457	36022.16
622.812	36077.3
623.168	36155.04
623.523	36042.95
623.879	36209.05
624.234	36002.05
624.589	36022.84
624.945	36102.84
625.3	36085.89
625.655	36127.92
626.01	36019.9
626.365	36053.12
626.72	36037.75
627.075	36114.81
627.43	36084.08
627.785	35904.65
628.14	36127.24
628.495	35967.7
628.85	35974.93
629.205	35808.61
629.559	36056.96
629.914	35808.38
630.269	36137.64
630.623	35707.59
630.978	35644.77
631.332	36000.47
631.687	36021.48
632.041	35733.13
632.396	35959.11
632.75	35773.58
633.104	35657.2
633.459	35635.5
633.813	35456.98
634.167	35558.22
634.521	35468.28
634.875	35813.8
635.229	35487.71
635.583	35428.96
635.937	35463.76
636.291	35185.8
636.645	35295.63
636.999	35144.9
637.352	35366.13
637.706	34971.11
638.06	35208.62
638.413	35097.44
638.767	35012.92
639.121	35075.52
639.474	34924.11
639.828	34834.62
640.181	34884.34
640.534	34802.53
640.888	34748.97
641.241	34502.2
641.594	34550.33
641.947	34708.3
642.301	34688.41
642.654	34556.21
643.007	34469.21
643.36	34411.81
643.713	34191.47
644.066	34683.44
644.419	34331.81
644.771	34037.81
645.124	33719.85
645.477	33675.56
645.83	33372.29
646.182	33277.15
646.535	33171.39
646.888	33240.09
647.24	33189.47
647.593	33370.7
647.945	33272.85
648.298	33018.4
648.65	33005.97
649.002	32921.45
649.355	33168
649.707	32910.83
650.059	32940.21
650.411	33391.27
650.763	33495.22
651.115	33809.79
651.467	33704.93
651.819	33622.22
652.171	33600.53
652.523	33511.49
652.875	33559.85
653.227	33348.33
653.578	33645.05
653.93	33531.15
654.282	33358.05
654.633	33216.13
654.985	33334.77
655.337	33312.63
655.688	33317.82
656.039	33424.04
656.391	33181.1
656.742	33077.83
657.094	33269.69
657.445	33251.84
657.796	33185.4
658.147	33135.46
658.498	33059.53
658.849	33156.25
659.2	32979.08
659.551	32958.74
659.902	32965.97
660.253	33052.29
660.604	33019.75
660.955	32741.79
661.306	32833.32
661.656	32619.09
662.007	32702.7
662.358	32691.63
662.708	32680.1
663.059	32681.46
663.409	32434.46
663.76	32559.43
664.11	32568.24
664.461	32542.03
664.811	32438.3
665.161	32523.72
665.511	32262.71
665.862	32186.78
666.212	32285.99
666.562	32286.44
666.912	32058.42
667.262	32086.9
667.612	31954.92
667.962	31966.22
668.312	31866.34
668.662	31993.34
669.011	31794.25
669.361	31588.15
669.711	31638.32
670.06	31438.1
670.41	31313.13
670.76	31228.16
671.109	31378.21
671.459	31243.08
671.808	31278.56
672.157	31244.43
672.507	30907.27
672.856	30954.95
673.205	31049.64
673.554	30999.69
673.904	30784.78
674.253	31145.23
674.602	30854.84
674.951	30350.22
675.3	30221.41
675.649	30684.9
675.998	30632.02
676.346	30719.7
676.695	30824.78
677.044	30443.78
677.393	30569.87
677.741	30614.84
678.09	30657.56
678.438	30488.07
678.787	30578.01
679.135	30454.4
679.484	30293.72
679.832	30397.9
680.181	30308.86
680.529	30393.83
680.877	30308.41
681.225	30277.45
681.573	30560.83
681.922	30141.41
682.27	30277
682.618	30358.81
682.966	30392.03
683.314	30334.63
683.661	30267.51
684.009	30188.42
684.357	30175.76
684.705	30154.97
685.053	30256.66
685.4	30219.6
685.748	30102.77
686.095	30035.88
686.443	30046.95
686.79	30093.5
687.138	30112.71
687.485	30173.95
687.832	30019.61
688.18	30201.52
688.527	30086.95
688.874	29964.24
689.221	29864.81
689.568	29894.19
689.915	29935.09
690.262	29950
690.609	29881.53
690.956	29847.63
691.303	29743.46
691.65	29574.19
691.997	29827.29
692.344	29539.17
692.69	29688.32
693.037	29697.35
693.383	29413.29
693.73	29471.15
694.077	29327.65
694.423	29468.43
694.769	29312.73
695.116	29366.97
695.462	29284.94
695.808	29194.54
696.155	29354.54
696.501	29033.64
696.847	29061.44
697.193	28823.03
697.539	28989.8
697.885	28802.69
698.231	28751.84
698.577	28715.01
698.923	28716.14
699.269	28440.44
699.614	28451.29
699.96	28281.35
700.306	28411.74
700.651	28345.75
700.997	28174.91
701.342	28093.1
701.688	28108.24
702.033	27999.32
702.379	27938.53
702.724	27860.11
703.069	27882.71
703.415	27780.34
703.76	27543.06
704.105	27679.33
704.45	27682.72
704.795	27397.75
705.14	27329.96
705.485	27252
705.83	27250.19
706.175	27317.76
706.52	27203.18
706.865	27005.45
707.209	27012.91
707.554	26940.82
707.899	27086.12
708.243	26832.12
708.588	26767.49
708.932	26657.89
709.277	26651.79
709.621	26763.87
709.966	26377.22
710.31	26648.85
710.654	26076.21
710.998	26395.75
711.342	26350.78
711.687	26243.89
712.031	26119.14
712.375	26170.89
712.719	26053.16
713.063	26083.89
713.407	26122.08
713.75	25849.32
714.094	25911.24
714.438	25833.73
714.782	25956.66
715.125	25602.32
715.469	25749.21
715.812	25588.08
716.156	25441.87
716.499	25515.54
716.843	25591.7
717.186	25329.11
717.53	25473.74
717.873	25440.07
718.216	25410.24
718.559	25164.59
718.902	24979.96
719.246	25244.59
719.589	25129.79
719.932	25110.81
720.275	24939.97
720.617	24887.99
720.96	24870.81
721.303	24834.66
721.646	24893.41
721.989	24776.81
722.331	24876.01
722.674	24711.95
723.016	24720.76
723.359	24685.74
723.701	24733.42
724.044	24479.41
724.386	24384.95
724.729	24461.56
725.071	24439.87
725.413	24449.36
725.755	24339.08
726.097	24243.03
726.439	24159.87
726.782	24107.67
727.124	24272.41
727.465	24156.03
727.807	24048.24
728.149	24055.92
728.491	23887.34
728.833	24091.63
729.175	23903.16
729.516	23957.84
729.858	23806.66
730.199	23958.97
730.541	23805.08
730.882	23803.27
731.224	23913.78
731.565	23706.55
731.906	23568.02
732.248	23620.45
732.589	23566.22
732.93	23456.39
733.271	23413.68
733.612	23433.34
733.953	23434.69
734.294	23423.62
734.635	23377.07
734.976	23314.47
735.317	23196.96
735.658	23216.17
735.999	23204.64
736.339	23113.12
736.68	23198.09
737.021	23158.77
737.361	23021.6
737.702	23171.2
738.042	22972.11
738.383	22979.57
738.723	22996.06
739.063	22805.78
739.404	22905.89
739.744	22851.43
740.084	22829.51
740.424	22717.2
740.764	22735.96
741.104	22724.88
741.444	22618.67
741.784	22557.2
742.124	22502.74
742.464	22465
742.804	22488.73
743.143	22403.99
743.483	22435.62
743.823	22215.74
744.162	22254.84
744.502	22336.87
744.841	22161.06
745.181	22207.16
745.52	22075.41
745.86	22126.93
746.199	22084.67
746.538	22112.47
746.877	22180.26
747.216	22029.76
747.556	21909.31
747.895	21923.77
748.234	21830.22
748.573	21951.8
748.911	21831.8
749.25	21791.8
749.589	21721.29
749.928	21654.63
750.267	21725.81
750.605	21622.31
750.944	21699.82
751.283	21527.17
751.621	21645.59
751.96	21447.4
752.298	21417.8
752.636	21370.12
752.975	21344.81
753.313	21212.38
753.651	21291.7
753.989	21161.08
754.327	21111.37
754.666	21126.96
755.004	20968.77
755.342	20989.56
755.679	20992.27
756.017	20874.08
756.355	20951.14
756.693	20788.66
757.031	20859.17
757.368	20616.01
757.706	20649.01
758.044	20612.85
758.381	20519.29
758.719	20562.45
759.056	20494.66
759.394	20472.51
759.731	20338.96
760.068	20216.25
760.405	20155.91
760.743	20130.83
761.08	20156.59
761.417	19997.95
761.754	19823.94
762.091	19872.3
762.428	19737.62
762.765	19721.8
763.102	19871.17
763.438	19545.98
763.775	19591.41
764.112	19626.89
764.449	19569.71
764.785	19489.94
765.122	19337.4
765.458	19308.48
765.795	19201.81
766.131	19232.32
766.467	19088.14
766.804	19013.57
767.14	18915.94
767.476	18957.3
767.812	18891.54
768.148	18937.64
768.485	18732.22
768.821	18670.98
769.157	18621.94
769.492	18653.13
769.828	18554.6
770.164	18359.8
770.5	18322.96
770.836	18387.37
771.171	18247.94
771.507	18205.91
771.842	18160.71
772.178	18058.11
772.513	17932.47
772.849	17907.38
773.184	17935.18
773.519	17872.81
773.855	17795.07
774.19	17720.04
774.525	17592.36
774.86	17661.74
775.195	17559.82
775.53	17454.51
775.865	17345.14
776.2	17214.52
776.535	17141.53
776.87	17165.71
777.205	17110.79
777.539	16976.79
777.874	17014.07
778.209	16846.62
778.543	16879.39
778.878	16720.07
779.212	16752.84
779.547	16672.16
779.881	16715.1
780.215	16503.35
780.55	16546.06
780.884	16368.44
781.218	16440.53
781.552	16361.21
781.886	16298.61
782.22	16166.41
782.554	16137.26
782.888	15998.28
783.222	16001.22
783.556	15861.79
783.889	15874.22
784.223	15701.79
784.557	15683.49
784.89	15700.66
785.224	15660.44
785.557	15528.46
785.891	15511.74
786.224	15496.82
786.558	15350.84
786.891	15386.09
787.224	15246.66
787.557	15232.65
787.891	15204.18
788.224	15201.46
788.557	15125.53
788.89	15076.72
789.223	15022.71
789.556	15010.96
789.888	14934.58
790.221	14917.86
790.554	14676.96
790.887	14778.65
791.219	14672.89
791.552	14516.96
791.884	14543.63
792.217	14529.84
792.549	14457.3
792.882	14373.46
793.214	14227.93
793.546	14297.99
793.879	14290.3
794.211	14164.2
794.543	14228.61
794.875	14129.63
795.207	14171.21
795.539	14094.15
795.871	14051.66
796.203	14051.66
796.535	13886.02
796.867	13924.44
797.198	13858.45
797.53	13827.94
797.862	13731.67
798.193	13765.12
798.525	13588.85
798.856	13576.65
799.188	13453.26
799.519	13510.89
799.85	13381.85
800.182	13380.72
800.513	13406.26
800.844	13260.05
801.175	13357.9
801.506	13267.5
801.837	13177.34
802.168	13154.29
802.499	13187.28
802.83	13083.33
803.161	13112.25
803.491	13015.99
803.822	13001.97
804.153	12898.02
804.483	12889.44
804.814	12783.68
805.145	12780.96
805.475	12774.64
805.805	12759.04
806.136	12725.6
806.466	12673.17
806.796	12653.51
807.126	12470.69
807.457	12461.42
807.787	12464.14
808.117	12457.81
808.447	12341.65
808.777	12488.32
809.107	12361.77
809.436	12319.51
809.766	12319.05
810.096	12280.86
810.426	12207.19
810.755	12184.59
811.085	12168.32
811.414	12110.92
811.744	12075.22
812.073	12014.2
812.403	12009.68
812.732	11955.9
813.061	12074.09
813.39	11826.41
813.719	11950.25
814.049	11947.54
814.378	11936.01
814.707	11811.05
815.036	11702.8
815.365	11740.54
815.693	11640.88
816.022	11675
816.351	11613.08
816.68	11584.38
817.008	11599.53
817.337	11488.57
817.665	11475.69
817.994	11536.25
818.322	11464.61
818.651	11450.15
818.979	11315.47
819.307	11388.68
819.636	11397.27
819.964	11297.39
820.292	11442.24
820.62	11238.86
820.948	11238.41
821.276	11258.07
821.604	11224.85
821.932	11288.8
822.259	11277.73
822.587	11255.13
822.915	11209.93
823.243	11237.5
823.57	11206.09
823.898	11194.79
824.225	11143.72
824.553	11192.3
824.88	11195.02
825.207	11239.08
825.535	11146.43
825.862	11208.12
826.189	11147.11
826.516	11225.52
826.843	11230.04
827.17	11204.73
827.497	11247.44
827.824	11190.95
828.151	11157.96
828.478	11115.47
828.805	11154.57
829.131	11155.7
829.458	11073.44
829.785	11112.53
830.111	11165.64
830.438	11094
830.764	11159.76
831.09	11068.47
831.417	11031.86
831.743	11155.24
832.069	11087.9
832.395	11058.75
832.722	11109.14
833.048	11085.87
833.374	11038.64
833.7	10990.5
834.026	11036.38
834.351	11078.86
834.677	10968.58
835.003	11004.74
835.329	11059.88
835.654	10985.98
835.98	10990.73
836.306	10995.02
836.631	10828.25
836.956	10869.83
837.282	10933.55
837.607	10806.78
837.932	10920.22
838.258	10874.8
838.583	10823.5
838.908	10773.56
839.233	10841.35
839.558	10809.49
839.883	10691.75
840.208	10695.59
840.533	10659.44
840.858	10753.45
841.182	10791.86
841.507	10656.05
841.832	10616.5
842.156	10570.63
842.481	10647.91
842.805	10570.85
843.13	10499.22
843.454	10525.66
843.778	10487.01
844.103	10501.7
844.427	10403.85
844.751	10397.3
845.075	10323.17
845.399	10307.58
845.723	10292.67
846.047	10265.32
846.371	10246.11
846.695	10256.96
847.019	10196.85
847.343	10080.02
847.666	10143.52
847.99	10061.94
848.313	10061.26
848.637	9985.1
848.96	9968.16
849.284	9877.54
849.607	9767.03
849.931	9756.18
850.254	9696.07
850.577	9633.48
850.9	9661.95
851.223	9665.11
851.546	9555.74
851.869	9577.88
852.192	9592.57
852.515	9483.65
852.838	9412.01
853.161	9362.07
853.483	9485.91
853.806	9359.36
854.129	9385.35
854.451	9279.59
854.774	9283.43
855.096	9235.75
855.419	9120.04
855.741	9188.74
856.063	9154.84
856.385	9200.49
856.708	9139.48
857.03	9075.07
857.352	9094.73
857.674	8959.59
857.996	9001.18
858.318	8946.49
858.64	8934.06
858.961	8925.92
859.283	8814.51
859.605	8847.06
859.926	8842.31
860.248	8789.88
860.57	8807.06
860.891	8790.56
861.212	8761.18
861.534	8765.7
861.855	8756.89
862.176	8713.95
862.498	8673.73
862.819	8635.54
863.14	8601.86
863.461	8598.25
863.782	8588.31
864.103	8590.34
864.424	8585.14
864.745	8520.51
865.065	8513.05
865.386	8508.76
865.707	8490.91
866.027	8511.25
866.348	8503.79
866.668	8478.7
866.989	8493.84
867.309	8390.57
867.63	8412.26
867.95	8374.75
868.27	8332.27
868.59	8379.27
868.91	8321.42
869.23	8320.06
869.55	8283
869.87	8310.57
870.19	8281.42
870.51	8316.22
870.83	8309.67
871.15	8201.2
871.469	8228.09
871.789	8210.46
872.109	8173.4
872.428	8184.7
872.748	8140.63
873.067	8139.5
873.386	8238.03
873.706	8128.2
874.025	8066.96
874.344	8130.24
874.663	8100.18
874.982	8057.02
875.301	8077.58
875.62	8036.91
875.939	8033.29
876.258	8001.2
876.577	7970.47
876.896	7977.7
877.214	7922.79
877.533	7966.63
877.852	7920.75
878.17	7974.31
878.489	7947.42
878.807	7970.24
879.125	7941.32
879.444	7932.05
879.762	7881.66
880.08	7910.81
880.398	7902.22
880.716	7869
881.034	7795.78
881.352	7798.04
881.67	7803.24
881.988	7774.32
882.306	7739.29
882.624	7778.38
882.941	7736.12
883.259	7655.45
883.577	7625.17
883.894	7658.16
884.212	7662.45
884.529	7630.82
884.846	7645.96
885.164	7572.29
885.481	7519.63
885.798	7571.16
886.115	7478.73
886.432	7444.38
886.75	7515.79
887.067	7538.62
887.383	7373.42
887.7	7426.3
888.017	7410.26
888.334	7356.47
888.651	7341.56
888.967	7370.94
889.284	7293.42
889.6	7294.78
889.917	7242.13
890.233	7269.7
890.55	7228.79
890.866	7218.17
891.182	7200.09
891.498	7201.45
891.815	7192.18
892.131	7152.18
892.447	7121.23
892.763	7097.05
893.079	7052.53
893.395	7023.83
893.71	7026.99
894.026	7012.53
894.342	6965.3
894.657	6929.59
894.973	6953.55
895.289	6937.95
895.604	6901.8
895.92	6898.41
896.235	6866.54
896.55	6860.22
896.865	6797.17
897.181	6848.46
897.496	6790.39
897.811	6794.45
898.126	6728.47
898.441	6702.03
898.756	6715.13
899.071	6640.79
899.386	6625.19
899.7	6555.59
900.015	6576.38
900.33	6521.69
900.644	6486.21
900.959	6544.29
901.273	6470.17
901.588	6490.51
901.902	6434.46
902.216	6423.16
902.531	6400.57
902.845	6416.16
903.159	6348.36
903.473	6357.4
903.787	6268.37
904.101	6303.17
904.415	6264.98
904.729	6188.82
905.042	6185.88
905.356	6213.45
905.67	6204.41
905.984	6151.31
906.297	6120.12
906.611	6081.25
906.924	6099.56
907.237	6069.05
907.551	6048.94
907.864	6021.59
908.177	5971.88
908.491	5953.57
908.804	5933.46
909.117	5917.64
909.43	5892.78
909.743	5842.39
910.056	5842.84
910.368	5848.26
910.681	5808.27
910.994	5752.22
911.307	5735.27
911.619	5686.69
911.932	5694.6
912.244	5692.56
912.557	5659.79
912.869	5639.46
913.181	5640.81
913.494	5628.16
913.806	5557.65
914.118	5596.29
914.43	5527.82
914.742	5512
915.054	5462.96
915.366	5438.56
915.678	5425.9
915.99	5440.82
916.302	5392.23
916.613	5333.02
916.925	5405.79
917.236	5335.28
917.548	5336.64
917.859	5351.1
918.171	5288.96
918.482	5211.22
918.794	5218.22
919.105	5201.05
919.416	5170.32
919.727	5137.1
920.038	5184.78
920.349	5060.26
920.66	5104.1
920.971	5100.71
921.282	5035.4
921.593	5030.43
921.903	5033.14
922.214	4976.87
922.525	4971
922.835	4920.15
923.146	4963.32
923.456	4961.06
923.767	4910.89
924.077	4884
924.387	4823.43
924.697	4762.87
925.008	4829.99
925.318	4798.8
925.628	4783.66
925.938	4762.64
926.248	4691.68
926.558	4698.92
926.867	4699.59
927.177	4662.76
927.487	4619.6
927.796	4648.52
928.106	4662.53
928.416	4603.78
928.725	4556.09
929.034	4555.19
929.344	4555.64
929.653	4540.95
929.962	4515.64
930.271	4464.57
930.581	4427.28
930.89	4451.24
931.199	4369.89
931.508	4411.47
931.817	4388.87
932.125	4368.08
932.434	4357.91
932.743	4321.3
933.051	4285.59
933.36	4279.94
933.669	4235.65
933.977	4215.99
934.286	4217.12
934.594	4209.21
934.902	4208.08
935.21	4180.74
935.519	4155.65
935.827	4157.46
936.135	4099.16
936.443	4124.02
936.751	4110.91
937.059	4063.9
937.367	4062.55
937.674	4071.59
937.982	4034.07
938.29	4003.12
938.597	4000.86
938.905	3971.03
939.213	3964.47
939.52	3928.77
939.827	3936.9
940.135	3928.31
940.442	3914.76
940.749	3870.69
941.056	3850.8
941.363	3845.61
941.67	3799.05
941.977	3779.62
942.284	3813.06
942.591	3801.09
942.898	3764.7
943.205	3756.79
943.511	3724.7
943.818	3727.42
944.125	3693.52
944.431	3666.4
944.738	3664.14
945.044	3622.79
945.35	3641.32
945.657	3611.49
945.963	3593.86
946.269	3566.74
946.575	3595.67
946.881	3576.91
947.187	3549.34
947.493	3537.82
947.799	3517.93
948.105	3491.49
948.41	3468.21
948.716	3493.07
949.022	3480.64
949.327	3435.22
949.633	3409.68
949.938	3430.25
950.244	3430.02
950.549	3380.08
950.854	3375.33
951.16	3373.53
951.465	3399.74
951.77	3332.17
952.075	3327.65
952.38	3305.51
952.685	3284.94
952.99	3252.85
953.294	3237.94
953.599	3264.83
953.904	3216.47
954.209	3197.26
954.513	3199.29
954.818	3177.83
955.122	3124.95
955.426	3128.56
955.731	3135.79
956.035	3130.37
956.339	3119.3
956.643	3114.78
956.948	3083.59
957.252	3034.33
957.556	3056.93
957.86	3068.45
958.163	3057.38
958.467	2986.42
958.771	3018.06
959.075	3022.12
959.378	2968.34
959.682	2924.05
959.985	2962.01
960.289	2943.48
960.592	2926.76
960.896	2884.5
961.199	2869.59
961.502	2867.1
961.805	2882.69
962.108	2874.33
962.411	2854.22
962.714	2844.28
963.017	2828.23
963.32	2819.19
963.623	2805.63
963.926	2805.86
964.228	2803.15
964.531	2760.44
964.833	2798.63
965.136	2729.48
965.438	2715.69
965.741	2724.05
966.043	2706.43
966.345	2738.06
966.648	2705.07
966.95	2694.22
967.252	2682.47
967.554	2706.65
967.856	2675.01
968.158	2616.94
968.46	2635.02
968.761	2603.15
969.063	2587.79
969.365	2625.07
969.666	2607.9
969.968	2545.3
970.269	2571.97
970.571	2554.34
970.872	2568.8
971.174	2525.19
971.475	2519.76
971.776	2531.97
972.077	2498.52
972.378	2457.39
972.679	2502.59
972.98	2507.34
973.281	2474.57
973.582	2431.63
973.883	2403.61
974.183	2416.49
974.484	2421.46
974.785	2414.91
975.085	2407
975.386	2410.84
975.686	2365.87
975.986	2332.65
976.287	2350.96
976.587	2320.9
976.887	2356.38
977.187	2339.2
977.487	2319.09
977.787	2262.37
978.087	2261.92
978.387	2285.42
978.687	2256.27
978.987	2268.47
979.286	2244.07
979.586	2253.78
979.885	2247.68
980.185	2209.26
980.484	2203.16
980.784	2198.19
981.083	2228.47
981.382	2206.1
981.682	2204.29
981.981	2170.62
982.28	2148.02
982.579	2138.98
982.878	2130.85
983.177	2151.19
983.475	2119.55
983.774	2102.6
984.073	2103.5
984.372	2096.72
984.67	2088.14
984.969	2082.49
985.267	2049.49
985.566	2037.29
985.864	2014.69
986.162	2060.34
986.461	2020.79
986.759	2035.26
987.057	2006.78
987.355	2021.47
987.653	1996.61
987.951	1958.2
988.249	1988.93
988.547	1978.76
988.844	1997.07
989.142	1960
989.44	1968.82
989.737	1942.15
990.035	1912.32
990.332	1914.81
990.63	1911.64
990.927	1936.5
991.224	1899.22
991.521	1899.89
991.819	1927.01
992.116	1874.58
992.413	1833.23
992.71	1867.58
993.006	1835.71
993.303	1850.18
993.6	1839.33
993.897	1812.21
994.193	1786
994.49	1799.11
994.787	1803.85
995.083	1827.58
995.379	1776.73
995.676	1776.73
995.972	1752.33
996.268	1765.21
996.565	1755.72
996.861	1720.01
997.157	1743.97
997.453	1725.43
997.749	1735.38
998.044	1693.57
998.34	1692.22
998.636	1683.85
998.932	1714.14
999.227	1651.76
999.523	1661.03
999.818	1675.27
1000.114	1649.5
1000.409	1619.9
1000.704	1591.43
1001	1607.7
1001.295	1621.03
1001.59	1619.9
1001.885	1590.3
1002.18	1593.69
1002.475	1569.05
1002.77	1547.81
1003.065	1549.17
1003.359	1564.99
1003.654	1558.43
1003.949	1527.25
1004.243	1502.84
1004.538	1529.73
1004.832	1538.77
1005.127	1524.54
1005.421	1519.34
1005.715	1517.08
1006.009	1478.21
1006.304	1507.36
1006.598	1454.93
1006.892	1463.97
1007.186	1427.14
1007.48	1449.74
1007.773	1432.11
1008.067	1423.75
1008.361	1434.37
1008.655	1412.22
1008.948	1379.23
1009.242	1406.12
1009.535	1380.59
1009.829	1375.39
1010.122	1374.26
1010.415	1372
1010.708	1371.09
1011.001	1362.96
1011.295	1350.3
1011.588	1346.91
1011.881	1345.11
1012.173	1335.61
1012.466	1297.88
1012.759	1304.2
1013.052	1315.95
1013.344	1272.57
1013.637	1309.63
1013.93	1267.59
1014.222	1282.51
1014.514	1268.5
1014.807	1245.22
1015.099	1249.29
1015.391	1261.27
1015.683	1232.79
1015.976	1238.89
1016.268	1207.93
1016.56	1191.21
1016.851	1224.43
1017.143	1194.38
1017.435	1207.26
1017.727	1201.38
1018.018	1175.39
1018.31	1183.98
1018.602	1160.93
1018.893	1185.79
1019.185	1151.89
1019.476	1153.7
1019.767	1157.99
1020.058	1109.63
1020.35	1132.68
1020.641	1130.42
1020.932	1107.82
1021.223	1128.39
1021.514	1073.7
1021.804	1092.91
1022.095	1063.31
1022.386	1059.92
1022.677	1088.39
1022.967	1069.86
1023.258	1078.45
1023.548	1049.07
1023.839	1072.34
1024.129	1044.55
1024.419	1028.28
1024.709	1054.72
1025	1009.52
1025.29	1016.53
1025.58	1018.79
1025.87	998.45
1026.16	996.41
1026.449	997.77
1026.739	987.38
1027.029	1004.78
1027.319	968.62
1027.608	969.75
1027.898	952.12
1028.187	922.52
1028.477	960.94
1028.766	959.35
1029.055	932.91
1029.344	938.56
1029.634	942.86
1029.923	926.13
1030.212	896.08
1030.501	926.13
1030.79	883.2
1031.078	918.45
1031.367	893.37
1031.656	892.24
1031.945	883.88
1032.233	902.86
1032.522	887.49
1032.81	890.2
1033.099	839.58
1033.387	875.74
1033.675	849.07
1033.963	867.38
1034.251	850.43
1034.54	856.98
1034.828	848.62
1035.116	828.51
1035.403	839.81
1035.691	816.08
1035.979	829.64
1036.267	818.11
1036.554	798.23
1036.842	818.11
1037.129	787.38
1037.417	812.92
1037.704	814.72
1037.992	782.41
1038.279	788.06
1038.566	795.97
1038.853	795.97
1039.14	795.97
