Data from white_steel_sheet_FLMS001491_064.txt Node
Date: Tue Feb 07 10:58:16 GMT 2017
User: dcchb
Spectrometer: FLMS00149
Trigger mode: 0
Integration Time (sec): 2.000000E-2
Scans to average: 10
Electric dark correction enabled: true
Nonlinearity correction enabled: false
Boxcar width: 0
XAxis mode: Wavelengths
Number of Pixels in Spectrum: 2048
>>>>>Begin Spectral Data<<<<<
341.393	-20.85
341.776	-20.85
342.16	-20.85
342.543	-66.5
342.927	-74.86
343.31	-55.2
343.693	-77.57
344.077	-45.71
344.46	-63.56
344.843	-68.76
345.226	-58.13
345.61	-31.69
345.993	-20.62
346.376	-10.68
346.759	24.35
347.142	42.88
347.525	49.89
347.908	40.39
348.291	80.39
348.674	83.11
349.057	110.9
349.44	129.88
349.823	132.82
350.206	176.89
350.588	173.05
350.971	213.72
351.354	218.92
351.737	239.94
352.119	257.34
352.502	263.67
352.884	297.56
353.267	280.84
353.65	297.11
354.032	307.05
354.414	308.41
354.797	318.13
355.179	329.88
355.562	340.05
355.944	331.69
356.326	323.32
356.709	314.06
357.091	323.32
357.473	334.85
357.855	345.92
358.238	338.47
358.62	335.3
359.002	340.95
359.384	343.89
359.766	327.17
360.148	352.93
360.53	362.65
360.912	340.73
361.294	356.32
361.676	326.71
362.057	352.02
362.439	314.96
362.821	314.06
363.203	332.82
363.584	321.52
363.966	334.4
364.348	325.81
364.729	322.87
365.111	332.82
365.493	311.57
365.874	323.78
366.256	326.49
366.637	344.12
367.019	336.21
367.4	330.78
367.781	328.07
368.163	338.47
368.544	317.45
368.925	321.52
369.306	324.45
369.688	325.13
370.069	318.81
370.45	315.42
370.831	336.88
371.212	318.13
371.593	308.41
371.974	322.42
372.355	340.73
372.736	331.01
373.117	321.29
373.498	324.23
373.879	340.05
374.26	328.07
374.641	328.97
375.021	311.35
375.402	321.97
375.783	340.95
376.163	345.47
376.544	345.7
376.925	330.1
377.305	324.68
377.686	357.45
378.066	346.15
378.447	352.93
378.827	334.4
379.208	349.31
379.588	336.88
379.968	343.21
380.349	371.46
380.729	377.79
381.109	350.67
381.489	344.57
381.87	348.63
382.25	352.48
382.63	366.49
383.01	368.52
383.39	357.67
383.77	362.65
384.15	359.48
384.53	378.46
384.91	366.26
385.29	385.47
385.67	365.13
386.049	381.85
386.429	411.46
386.809	405.13
387.189	374.17
387.568	392.7
387.948	394.28
388.328	412.81
388.707	410.33
389.087	406.49
389.466	415.98
389.846	411.01
390.225	404.68
390.605	398.13
390.984	416.88
391.363	421.18
391.743	423.21
392.122	426.37
392.501	433.83
392.881	432.93
393.26	434.28
393.639	452.59
394.018	452.59
394.397	464.34
394.776	462.53
395.155	449.88
395.534	481.29
395.913	481.96
396.292	476.32
396.671	491
397.05	484.45
397.429	502.98
397.808	477.67
398.186	474.28
398.565	498.46
398.944	514.05
399.323	515.18
399.701	501.4
400.08	543.43
400.458	536.88
400.837	562.19
401.215	543.88
401.594	564.22
401.972	569.19
402.351	557.89
402.729	567.39
403.107	563.54
403.486	600.15
403.864	603.09
404.242	639.93
404.62	622.98
404.999	629.31
405.377	659.14
405.755	638.57
406.133	685.35
406.511	656.88
406.889	663.43
407.267	693.94
407.645	700.26
408.023	707.04
408.401	711.79
408.779	714.95
409.156	754.95
409.534	738.91
409.912	760.83
410.29	777.1
410.667	802.18
411.045	789.53
411.422	804.22
411.8	809.64
412.178	818.45
412.555	829.3
412.933	871.11
413.31	887.15
413.687	883.31
414.065	887.83
414.442	897.55
414.819	890.77
415.197	913.37
415.574	940.94
415.951	934.61
416.328	918.11
416.705	956.53
417.082	963.31
417.46	972.57
417.837	978.45
418.214	1005.34
418.591	1018.22
418.967	1023.19
419.344	1012.57
419.721	1030.42
420.098	1055.06
420.475	1041.72
420.852	1074.04
421.228	1086.02
421.605	1092.34
421.982	1112.91
422.358	1124.43
422.735	1115.85
423.111	1097.09
423.488	1175.73
423.864	1145.68
424.241	1163.3
424.617	1160.82
424.994	1171.66
425.37	1202.85
425.746	1202.4
426.123	1237.65
426.499	1228.84
426.875	1272.23
427.251	1279.46
427.627	1295.73
428.003	1315.62
428.379	1307.25
428.756	1346.57
429.132	1379.12
429.507	1375.5
429.883	1380.25
430.259	1426.35
430.635	1448.04
431.011	1465.22
431.387	1495.05
431.763	1472.22
432.138	1511.77
432.514	1533.24
432.89	1513.58
433.265	1586.12
433.641	1592.9
434.016	1577.3
434.392	1610.3
434.767	1654.82
435.143	1645.78
435.518	1669.73
435.894	1688.94
436.269	1692.55
436.644	1732.1
437.02	1775.04
437.395	1732.1
437.77	1751.76
438.145	1810.29
438.52	1831.53
438.895	1841.03
439.271	1860.23
439.646	1903.62
440.021	1902.04
440.395	1928.48
440.77	1909.72
441.145	1929.61
441.52	1951.76
441.895	1974.13
442.27	2032.88
442.645	1987.91
443.019	2008.93
443.394	2053
443.769	2061.13
444.143	2062.94
444.518	2100.91
444.892	2083.05
445.267	2117.63
445.641	2158.3
446.016	2129.38
446.39	2164.41
446.764	2155.37
447.139	2195.37
447.513	2260.45
447.887	2219.77
448.262	2237.17
448.636	2264.29
449.01	2292.09
449.384	2338.41
449.758	2337.28
450.132	2351.75
450.506	2354.46
450.88	2382.25
451.254	2400.33
451.628	2422.25
452.002	2439.65
452.376	2464.74
452.75	2476.26
453.123	2518.52
453.497	2528.69
453.871	2570.72
454.244	2589.93
454.618	2610.27
454.992	2662.7
455.365	2671.06
455.739	2711.96
456.112	2744.96
456.486	2777.5
456.859	2827.21
457.232	2865.4
457.606	2854.56
457.979	2902.69
458.352	2960.32
458.725	3004.84
459.099	3019.3
459.472	3064.5
459.845	3079.18
460.218	3098.17
460.591	3132.29
460.964	3185.62
461.337	3264.72
461.71	3280.99
462.083	3340.87
462.456	3349.46
462.829	3331.16
463.201	3422.9
463.574	3436.46
463.947	3442.56
464.32	3560.98
464.692	3605.5
465.065	3576.35
465.438	3671.49
465.81	3670.58
466.183	3750.35
466.555	3841.65
466.928	3836.45
467.3	3858.83
467.672	3891.14
468.045	4022.21
468.417	4009.56
468.789	4038.71
469.161	4068.31
469.534	4187.63
469.906	4261.53
470.278	4331.81
470.65	4330
471.022	4412.03
471.394	4485.93
471.766	4531.58
472.138	4602.99
472.51	4664.91
472.882	4789.42
473.253	4798.46
473.625	4843.43
473.997	4960.27
474.369	4928.63
474.74	5060.38
475.112	5148.73
475.484	5220.6
475.855	5290.43
476.227	5372.91
476.598	5514.15
476.97	5560.25
477.341	5682.05
477.713	5742.62
478.084	5772
478.455	6011.99
478.827	6005.66
479.198	6147.58
479.569	6172.44
479.94	6317.07
480.311	6430.73
480.682	6549.38
481.053	6710.95
481.424	6771.06
481.795	6896.03
482.166	6966.09
482.537	7070.04
482.908	7235.46
483.279	7339.41
483.65	7490.82
484.021	7609.69
484.391	7688.78
484.762	7743.24
485.133	7824.82
485.503	7913.41
485.874	8147.3
486.244	8142.78
486.615	8340.52
486.985	8367.63
487.356	8586.38
487.726	8665.48
488.097	8808.3
488.467	8859.15
488.837	9072.7
489.207	9203.54
489.578	9272.92
489.948	9394.05
490.318	9532.57
490.688	9548.84
491.058	9732.57
491.428	9855.96
491.798	9922.85
492.168	10086.46
492.538	10173.24
492.908	10350.18
493.278	10416.39
493.648	10396.05
494.017	10627.46
494.387	10663.84
494.757	10811.41
495.126	10870.84
495.496	10947.23
495.866	10930.28
496.235	11160.78
496.605	11263.6
496.974	11303.6
497.344	11440.77
497.713	11460.66
498.082	11648
498.452	11692.74
498.821	11782.46
499.19	11907.88
499.559	12043.24
499.928	12048.21
500.298	12146.97
500.667	12297.47
501.036	12252.95
501.405	12418.15
501.774	12460.18
502.143	12552.61
502.512	12690.01
502.88	12776.1
503.249	12788.53
503.618	12984.46
503.987	12979.04
504.356	13085.93
504.724	13225.81
505.093	13236.21
505.462	13304.23
505.83	13432.36
506.199	13536.31
506.567	13680.26
506.936	13633.48
507.304	13852.23
507.672	13936.98
508.041	13938.56
508.409	14124.77
508.777	14244.77
509.145	14358.89
509.514	14375.16
509.882	14509.84
510.25	14525.66
510.618	14682.72
510.986	14762.04
511.354	14979.44
511.722	14990.96
512.09	15157.51
512.458	15171.07
512.826	15313.89
513.193	15487.45
513.561	15501
513.929	15733.77
514.297	15796.59
514.664	15892.41
515.032	15942.12
515.4	16179.41
515.767	16206.07
516.135	16356.58
516.502	16315.45
516.869	16608.77
517.237	16696.91
517.604	16699.17
517.972	16883.34
518.339	16994.75
518.706	17015.32
519.073	17227.97
519.44	17257.34
519.808	17567.39
520.175	17538.47
520.542	17729.19
520.909	17851
521.276	17942.07
521.643	18191.1
522.009	18255.73
522.376	18388.61
522.743	18502.51
523.11	18709.96
523.477	18842.39
523.843	19069.27
524.21	19255.93
524.577	19363.95
524.943	19476.95
525.31	19565.98
525.676	19834.9
526.043	19952.19
526.409	20078.06
526.776	20275.79
527.142	20299.3
527.508	20421.1
527.874	20676.24
528.241	20746.97
528.607	20732.05
528.973	21022.44
529.339	20956.68
529.705	21310.12
530.071	21326.61
530.437	21570.45
530.803	21688.41
531.169	21811.35
531.535	21880.95
531.901	22032.36
532.267	22063.09
532.632	22116.88
532.998	22285.01
533.364	22415.17
533.73	22492.46
534.095	22643.64
534.461	22763.19
534.826	22950.53
535.192	22967.93
535.557	23119.34
535.923	23075.49
536.288	23251.08
536.653	23367.46
537.019	23217.41
537.384	23585.31
537.749	23668.93
538.114	23652.65
538.479	23800.9
538.845	23956.83
539.21	23892.42
539.575	24123.15
539.94	24111.4
540.305	24277.27
540.67	24296.25
541.034	24316.59
541.399	24546.19
541.764	24622.57
542.129	24682.46
542.494	24797.94
542.858	24791.83
543.223	24838.84
543.587	25083.13
543.952	25111.37
544.316	25151.6
544.681	25145.95
545.045	25289.22
545.41	25385.72
545.774	25488.09
546.138	25462.32
546.503	25538.26
546.867	25704.13
547.231	25829.55
547.595	25845.14
547.959	26025.47
548.324	25983.67
548.688	26187.73
549.052	26270.89
549.416	26308.4
549.779	26367.16
550.143	26403.09
550.507	26571.45
550.871	26746.13
551.235	26766.25
551.599	26982.28
551.962	27061.83
552.326	27054.15
552.689	27227.7
553.053	27251.43
553.417	27215.05
553.78	27622.27
554.143	27521.93
554.507	27691.19
554.87	27614.58
555.234	27998.53
555.597	27908.81
555.96	27977.51
556.323	28245.98
556.686	28232.87
557.05	28379.76
557.413	28519.19
557.776	28509.02
558.139	28819.3
558.502	28809.58
558.865	28953.53
559.228	29178.16
559.59	29126.86
559.953	29329.57
560.316	29633.97
560.679	29573.86
561.041	29719.61
561.404	29859.5
561.767	30080.51
562.129	29969.1
562.492	30312.59
562.854	30360.73
563.217	30315.76
563.579	30530.89
563.941	30640.49
564.304	30698.57
564.666	30863.31
565.028	31017.43
565.39	31035.74
565.753	31278.67
566.115	31447.93
566.477	31483.64
566.839	31616.51
567.201	31861.7
567.563	31806.11
567.925	32075.03
568.287	32082.04
568.648	32125.65
569.01	32310.05
569.372	32464.63
569.734	32501.69
570.095	32675.24
570.457	32896.93
570.819	32984.84
571.18	32976.25
571.542	33114.1
571.903	33189.58
572.265	33272.29
572.626	33283.36
572.987	33290.82
573.349	33500.98
573.71	33507.76
574.071	33536.01
574.432	33769.9
574.794	33970.8
575.155	33864.59
575.516	33956.34
575.877	33992.04
576.238	34124.02
576.599	34260.29
576.96	34342.54
577.32	34190.91
577.681	34506.61
578.042	34385.48
578.403	34499.6
578.763	34570.79
579.124	34529.66
579.485	34717.9
579.845	34796.77
580.206	34758.35
580.566	34815.07
580.927	34795.41
581.287	34900.72
581.648	34677.68
582.008	34863.89
582.368	34928.74
582.728	34865.24
583.089	34789.54
583.449	34847.61
583.809	34924.67
584.169	34915.64
584.529	34884.68
584.889	35182.97
585.249	34988.85
585.609	34891.68
585.969	34993.37
586.329	34953.15
586.688	35114.95
587.048	35029.53
587.408	35026.37
587.768	34984.79
588.127	34987.5
588.487	34899.36
588.846	35185.01
589.206	34902.08
589.565	34984.79
589.925	35060.94
590.284	34946.37
590.643	35103.2
591.003	35184.33
591.362	35254.84
591.721	35051.9
592.08	35015.97
592.44	35174.16
592.799	35091.68
593.158	35076.99
593.517	35005.8
593.876	35181.62
594.235	35043.99
594.593	35163.76
594.952	35055.74
595.311	35166.93
595.67	35064.78
596.029	35313.82
596.387	35300.26
596.746	35186.36
597.104	35156.08
597.463	35077.44
597.822	35154.5
598.18	35094.16
598.538	35041.28
598.897	35364.89
599.255	35066.82
599.613	35557.65
599.972	35370.54
600.33	35425.68
600.688	35362.63
601.046	35408.73
601.404	35412.57
601.762	35407.37
602.12	35542.96
602.478	35550.87
602.836	35579.35
603.194	35444.89
603.552	35457.99
603.91	35271.78
604.268	35569.18
604.625	35443.08
604.983	35459.8
605.341	35334.61
605.698	35563.98
606.056	35560.59
606.413	35627.93
606.771	35752.9
607.128	35812.56
607.485	35593.36
607.843	35750.64
608.2	35795.61
608.557	35834.71
608.914	35769.62
609.272	35933.01
609.629	35983.63
609.986	36162.16
610.343	35868.38
610.7	36188.14
611.057	36178.43
611.414	36046.68
611.771	36033.12
612.127	36248.48
612.484	36192.44
612.841	36256.62
613.198	36177.07
613.554	36161.48
613.911	36383.17
614.267	36409.38
614.624	36407.57
614.98	36588.13
615.337	36608.47
615.693	36470.85
616.05	36646.89
616.406	36778.19
616.762	36618.19
617.118	36450.51
617.475	36674.46
617.831	36737.73
618.187	36822.48
618.543	36664.52
618.899	36907
619.255	36835.36
619.611	36903.38
619.967	36959.42
620.323	37139.98
620.678	36899.99
621.034	36805.3
621.39	36899.54
621.746	36825.19
622.101	37168.68
622.457	37040.1
622.812	37013.43
623.168	37045.07
623.523	37124.39
623.879	37169.59
624.234	36914.91
624.589	37086.88
624.945	37127.33
625.3	37129.14
625.655	37116.03
626.01	37035.35
626.365	36959.42
626.72	37058.18
627.075	36904.51
627.43	36875.13
627.785	36840.1
628.14	37121.68
628.495	37128.68
628.85	36854.12
629.205	37010.5
629.559	37015.24
629.914	36946.77
630.269	36935.02
630.623	36783.38
630.978	36772.08
631.332	36942.93
631.687	36944.73
632.041	36737.06
632.396	36829.26
632.75	36644.18
633.104	36763.27
633.459	36500
633.813	36558.3
634.167	36476.95
634.521	36544.07
634.875	36358.99
635.229	36513.56
635.583	36233.34
635.937	36407.8
636.291	36300.46
636.645	36272.89
636.999	36165.32
637.352	36380
637.706	35984.53
638.06	36138.2
638.413	36021.6
638.767	35896.17
639.121	36019.56
639.474	35806.01
639.828	35888.49
640.181	35782.28
640.534	35867.47
640.888	35667.71
641.241	35568.95
641.594	35608.5
641.947	35703.64
642.301	35571.66
642.654	35480.14
643.007	35414.61
643.36	35396.3
643.713	35343.65
644.066	35464.55
644.419	35146.36
644.771	35095.74
645.124	34672.48
645.477	34624.12
645.83	34422.09
646.182	34344.35
646.535	34098.71
646.888	34223
647.24	34085.37
647.593	34343.9
647.945	34108.88
648.298	34034.75
648.65	33953.18
649.002	33825.49
649.355	33925.83
649.707	33869.56
650.059	33985.94
650.411	34233.62
650.763	34470.22
651.115	34797.22
651.467	34650.78
651.819	34575.08
652.171	34566.27
652.523	34524.46
652.875	34566.04
653.227	34264.58
653.578	34465.25
653.93	34453.27
654.282	34269.1
654.633	34180.06
654.985	34368.76
655.337	34220.29
655.688	34244.24
656.039	34213.28
656.391	33968.09
656.742	34027.52
657.094	34044.25
657.445	34124.7
657.796	34098.03
658.147	34066.84
658.498	34064.13
658.849	33946.62
659.2	33942.55
659.551	33804.25
659.902	33962.89
660.253	33817.59
660.604	33875.66
660.955	33664.37
661.306	33634.31
661.656	33612.85
662.007	33588.66
662.358	33627.08
662.708	33434.54
663.059	33533.07
663.409	33295.79
663.76	33530.36
664.11	33281.33
664.461	33411.72
664.811	33262.8
665.161	33389.12
665.511	33138.96
665.862	33030.04
666.212	33145.29
666.562	33129.92
666.912	32880.43
667.262	32904.39
667.612	32898.97
667.962	32840.44
668.312	32715.02
668.662	32884.28
669.011	32714.79
669.361	32463.95
669.711	32477.51
670.06	32365.65
670.41	32181.47
670.76	32151.87
671.109	32303.73
671.459	32101.7
671.808	32046.11
672.157	32059.89
672.507	31866.68
672.856	31805.89
673.205	31909.84
673.554	31977.41
673.904	31631.88
674.253	31905.55
674.602	31741.93
674.951	31294.94
675.3	31008.39
675.649	31621.94
675.998	31524.99
676.346	31488.61
676.695	31648.38
677.044	31386.46
677.393	31379.01
677.741	31433.02
678.09	31298.1
678.438	31159.12
678.787	31289.06
679.135	31368.38
679.484	31007.04
679.832	31306.01
680.181	31124.55
680.529	31149.63
680.877	31120.48
681.225	31006.13
681.573	31213.13
681.922	31092.69
682.27	31030.09
682.618	31249.07
682.966	31103.76
683.314	31139.24
683.661	31079.8
684.009	30953.93
684.357	30812.47
684.705	30883.43
685.053	30935.85
685.4	31003.65
685.748	30760.04
686.095	30851.79
686.443	30791.68
686.79	30684.56
687.138	30953.93
687.485	30888.85
687.832	30861.73
688.18	30960.71
688.527	30782.64
688.874	30750.77
689.221	30843.2
689.568	30823.31
689.915	30644.56
690.262	30642.53
690.609	30719.81
690.956	30490.22
691.303	30520.5
691.65	30471.68
691.997	30535.64
692.344	30379.48
692.69	30400.05
693.037	30331.8
693.383	30149.66
693.73	30210.67
694.077	30204.35
694.423	30090.9
694.769	30055.65
695.116	30097.68
695.462	30103.56
695.808	29870.8
696.155	30079.6
696.501	29787.41
696.847	29859.95
697.193	29562.56
697.539	29802.55
697.885	29517.81
698.231	29467.19
698.577	29516.23
698.923	29554.87
699.269	29349.68
699.614	29174.54
699.96	29188.33
700.306	29193.07
700.651	29063.13
700.997	28910.6
701.342	28960.99
701.688	28850.26
702.033	28822.24
702.379	28742.69
702.724	28608.46
703.069	28682.58
703.415	28418.18
703.76	28519.42
704.105	28480.32
704.45	28531.62
704.795	28178.64
705.14	28000.79
705.485	28064.29
705.83	27986.55
706.175	27973.67
706.52	27879.44
706.865	27896.16
707.209	27845.99
707.554	27633.12
707.899	27719.67
708.243	27586.34
708.588	27554.7
708.932	27401.03
709.277	27308.6
709.621	27379.79
709.966	27200.13
710.31	27357.42
710.654	27062.28
710.998	27123.3
711.342	27042.85
711.687	27077.42
712.031	26884.21
712.375	26814.15
712.719	26896.41
713.063	26684.89
713.407	26853.02
713.75	26690.32
714.094	26602.63
714.438	26561.5
714.782	26509.75
715.125	26415.07
715.469	26409.42
715.812	26350.21
716.156	26270.21
716.499	26207.16
716.843	26355.18
717.186	25998.81
717.53	26285.13
717.873	26152.93
718.216	26077.22
718.559	25974.85
718.902	25755.65
719.246	25851.24
719.589	25853.28
719.932	25675.2
720.275	25705.71
720.617	25732.6
720.96	25673.84
721.303	25564.92
721.646	25573.96
721.989	25494.87
722.331	25513.62
722.674	25415.32
723.016	25396.11
723.359	25242.67
723.701	25353.63
724.044	25189.56
724.386	25093.07
724.729	25301.2
725.071	25048.55
725.413	25041.77
725.755	25063.01
726.097	24940.08
726.439	24827.31
726.782	24784.38
727.124	24969.68
727.465	24783.47
727.807	24839.52
728.149	24810.14
728.491	24646.98
728.833	24757.03
729.175	24597.71
729.516	24513.65
729.858	24517.04
730.199	24586.87
730.541	24446.53
730.882	24467.32
731.224	24466.87
731.565	24326.54
731.906	24215.35
732.248	24272.3
732.589	24168.35
732.93	24000.44
733.271	24133.09
733.612	24048.12
733.953	24075.47
734.294	23998.63
734.635	23944.85
734.976	24112.76
735.317	23935.13
735.658	23864.17
735.999	23796.38
736.339	23723.84
736.68	23801.35
737.021	23691.98
737.361	23616.05
737.702	23731.75
738.042	23632.54
738.383	23545.99
738.723	23594.13
739.063	23518.65
739.404	23492.89
739.744	23508.25
740.084	23366.56
740.424	23312.55
740.764	23279.78
741.104	23267.13
741.444	23234.13
741.784	23078.88
742.124	23145.32
742.464	22992.56
742.804	23130.86
743.143	23154.36
743.483	23076.85
743.823	22831.21
744.162	22896.97
744.502	22899.68
744.841	22854.26
745.181	22924.09
745.52	22732.68
745.86	22792.11
746.199	22663.53
746.538	22657.88
746.877	22723.64
747.216	22682.74
747.556	22577.2
747.895	22632.12
748.234	22419.02
748.573	22402.07
748.911	22351.22
749.25	22415.4
749.589	22321.39
749.928	22247.27
750.267	22351.9
750.605	22231.68
750.944	22040.72
751.283	22104.22
751.621	22150.55
751.96	21895.86
752.298	21903.1
752.636	21904
752.975	21845.02
753.313	21818.8
753.651	21896.99
753.989	21770.9
754.327	21727.51
754.666	21683.22
755.004	21549.43
755.342	21614.06
755.679	21527.29
756.017	21349.21
756.355	21429.21
756.693	21416.33
757.031	21360.51
757.368	21278.48
757.706	21250.68
758.044	21111.48
758.381	21160.97
758.719	21121.65
759.056	21110.12
759.394	20885.95
759.731	20809.79
760.068	20786.06
760.405	20740.87
760.743	20710.13
761.08	20741.77
761.417	20461.33
761.754	20571.61
762.091	20461.33
762.428	20393.53
762.765	20238.06
763.102	20304.04
763.438	20199.19
763.775	20106.08
764.112	20175.01
764.449	20115.12
764.785	20050.72
765.122	19833.32
765.458	19791.51
765.795	19823.6
766.131	19732.98
766.467	19642.36
766.804	19558.07
767.14	19519.88
767.476	19401.47
767.812	19357.17
768.148	19359.66
768.485	19157.41
768.821	19123.73
769.157	19159.89
769.492	19078.54
769.828	19052.55
770.164	18915.6
770.5	18936.85
770.836	18834.25
771.171	18758.77
771.507	18777.53
771.842	18499.34
772.178	18547.48
772.513	18487.59
772.849	18474.03
773.184	18362.17
773.519	18331.66
773.855	18227.71
774.19	18180.48
774.525	18113.14
774.86	18009.87
775.195	17936.42
775.53	17861.85
775.865	17809.19
776.2	17733.94
776.535	17643.77
776.87	17666.15
777.205	17527.39
777.539	17484.46
777.874	17552.25
778.209	17272.26
778.543	17359.94
778.878	17281.07
779.212	17209.89
779.547	17010.34
779.881	17012.6
780.215	16958.14
780.55	16972.15
780.884	16910.69
781.218	16766.06
781.552	16799.5
781.886	16728.77
782.22	16544.14
782.554	16607.42
782.888	16471.83
783.222	16327.65
783.556	16297.37
783.889	16292.17
784.223	16151.16
784.557	16136.92
784.89	16138.5
785.224	16037.04
785.557	15967.66
785.891	15893.08
786.224	15893.31
786.558	15858.96
786.891	15673.88
787.224	15639.76
787.557	15688.12
787.891	15608.8
788.224	15611.96
788.557	15562.02
788.89	15496.03
789.223	15488.12
789.556	15358.64
789.888	15302.59
790.221	15310.95
790.554	15168.81
790.887	15104.18
791.219	15026.67
791.552	14994.58
791.884	14959.1
792.217	14945.09
792.549	14889.27
792.882	14746
793.214	14710.07
793.546	14759.78
793.879	14578.32
794.211	14531.09
794.543	14567.24
794.875	14535.15
795.207	14508.04
795.539	14454.03
795.871	14390.53
796.203	14260.59
796.535	14202.96
796.867	14159.57
797.198	14106.69
797.53	14194.37
797.862	14049.29
798.193	14019.01
798.525	14028.05
798.856	13989.86
799.188	13793.93
799.519	13826.7
799.85	13614.95
800.182	13728.17
800.513	13667.38
800.844	13535.18
801.175	13618.12
801.506	13626.25
801.837	13511.45
802.168	13505.35
802.499	13473.49
802.83	13367.95
803.161	13391.23
803.491	13370.67
803.822	13325.92
804.153	13206.83
804.483	13108.07
804.814	13119.15
805.145	13082.09
805.475	13064.91
805.805	12984.91
806.136	13036.66
806.466	12974.97
806.796	12932.26
807.126	12879.38
807.457	12787.18
807.787	12829.66
808.117	12779.04
808.447	12745.15
808.777	12789.21
809.107	12676.45
809.436	12632.61
809.766	12624.24
810.096	12571.14
810.426	12506.96
810.755	12500.18
811.085	12556.45
811.414	12433.97
811.744	12323.69
812.073	12407.98
812.403	12358.49
812.732	12330.69
813.061	12302.44
813.39	12267.87
813.719	12080.08
814.049	12214.99
814.378	12214.76
814.707	12086.63
815.036	12113.07
815.365	12030.36
815.693	11881.21
816.022	11878.73
816.351	11878.05
816.68	11846.41
817.008	11858.16
817.337	11759.63
817.665	11720.31
817.994	11805.06
818.322	11791.5
818.651	11666.76
818.979	11629.24
819.307	11711.5
819.636	11636.7
819.964	11536.14
820.292	11642.8
820.62	11582.69
820.948	11562.35
821.276	11594.89
821.604	11509.47
821.932	11576.36
822.259	11551.5
822.587	11504.73
822.915	11496.82
823.243	11536.14
823.57	11482.13
823.898	11464.95
824.225	11431.28
824.553	11538.62
824.88	11455.01
825.207	11564.61
825.535	11458.85
825.862	11476.03
826.189	11402.58
826.516	11575.23
826.843	11465.63
827.17	11564.39
827.497	11464.05
827.824	11458.85
828.151	11459.98
828.478	11401.23
828.805	11454.56
829.131	11452.75
829.458	11343.83
829.785	11410.94
830.111	11384.5
830.438	11389.02
830.764	11412.07
831.09	11395.12
831.417	11374.56
831.743	11449.59
832.069	11333.88
832.395	11387.67
832.722	11342.24
833.048	11335.01
833.374	11356.71
833.7	11225.64
834.026	11245.3
834.351	11293.21
834.677	11286.43
835.003	11324.84
835.329	11251.63
835.654	11263.83
835.98	11182.7
836.306	11247.56
836.631	11134.57
836.956	11187.22
837.282	11163.04
837.607	11188.35
837.932	11114.91
838.258	11177.28
838.583	11094.79
838.908	11085.75
839.233	11048.47
839.558	10998.52
839.883	10991.52
840.208	10951.75
840.533	10975.25
840.858	10969.15
841.182	10973.89
841.507	10918.75
841.832	10835.14
842.156	10769.83
842.481	10845.31
842.805	10855.25
843.13	10756.04
843.454	10747.68
843.778	10670.4
844.103	10754.01
844.427	10686.22
844.751	10670.4
845.075	10624.75
845.399	10624.52
845.723	10500.91
846.047	10536.84
846.371	10471.08
846.695	10486
847.019	10393.12
847.343	10316.06
847.666	10372.33
847.99	10269.73
848.313	10239.67
848.637	10177.75
848.96	10143.63
849.284	10154.48
849.607	10062.73
849.931	10084.88
850.254	9990.42
850.577	9954.48
850.9	9848.72
851.223	9849.85
851.546	9822.51
851.869	9724.43
852.192	9723.53
852.515	9690.76
852.838	9670.65
853.161	9642.4
853.483	9634.27
853.806	9571.67
854.129	9565.34
854.451	9489.41
854.774	9461.62
855.096	9432.46
855.419	9381.84
855.741	9387.04
856.063	9318.57
856.385	9349.08
856.708	9276.31
857.03	9256.2
857.352	9267.5
857.674	9227.5
857.996	9176.43
858.318	9079.48
858.64	9124.22
858.961	9139.59
859.283	9075.64
859.605	9059.82
859.926	9017.56
860.248	8980.72
860.57	8938.92
860.891	8969.65
861.212	8924.23
861.534	8919.26
861.855	8894.4
862.176	8935.3
862.498	8909.09
862.819	8902.31
863.14	8776.21
863.461	8833.84
863.782	8803.33
864.103	8793.84
864.424	8700.51
864.745	8730.11
865.065	8741.63
865.386	8761.75
865.707	8663.44
866.027	8684.23
866.348	8644.91
866.668	8606.5
866.989	8632.48
867.309	8580.96
867.63	8607.85
867.95	8599.94
868.27	8513.62
868.59	8568.53
868.91	8576.67
869.23	8472.72
869.55	8580.73
869.87	8474.97
870.19	8512.71
870.51	8467.74
870.83	8517.69
871.15	8446.73
871.469	8402.43
871.789	8472.04
872.109	8467.74
872.428	8286.05
872.748	8395.88
873.067	8338.71
873.386	8363.34
873.706	8351.81
874.025	8338.03
874.344	8271.59
874.663	8268.2
874.982	8231.59
875.301	8245.15
875.62	8276.79
875.939	8158.15
876.258	8131.48
876.577	8150.69
876.896	8142.55
877.214	8178.94
877.533	8119.96
877.852	8179.39
878.17	8132.61
878.489	8133.74
878.807	8119.05
879.125	8109.33
879.444	8072.27
879.762	7992.28
880.08	8064.59
880.398	8028.21
880.716	7996.8
881.034	7923.58
881.352	7993.86
881.67	7920.64
881.988	7993.18
882.306	7911.83
882.624	7894.43
882.941	7815.11
883.259	7865.73
883.577	7858.27
883.894	7799.74
884.212	7823.47
884.529	7847.87
884.846	7807.87
885.164	7724.26
885.481	7733.75
885.798	7783.02
886.115	7671.83
886.432	7667.99
886.75	7613.08
887.067	7573.53
887.383	7615.34
887.7	7615.11
888.017	7587.99
888.334	7558.16
888.651	7551.16
888.967	7541.89
889.284	7459.86
889.6	7468.22
889.917	7411.73
890.233	7389.58
890.55	7381.44
890.866	7385.06
891.182	7303.48
891.498	7348
891.815	7310.03
892.131	7322.46
892.447	7316.59
892.763	7306.42
893.079	7282.92
893.395	7169.25
893.71	7227.78
894.026	7189.58
894.342	7223.03
894.657	7160.66
894.973	7102.58
895.289	7122.24
895.604	7045.86
895.92	7160.43
896.235	7054
896.55	7044.96
896.865	6941.23
897.181	6935.13
897.496	6971.96
897.811	6876.15
898.126	6868.69
898.441	6859.88
898.756	6813.78
899.071	6778.52
899.386	6823.94
899.7	6717.06
900.015	6668.02
900.33	6688.13
900.644	6700.33
900.959	6672.08
901.273	6688.13
901.588	6632.76
901.902	6608.36
902.216	6609.49
902.531	6595.48
902.845	6529.49
903.159	6524.97
903.473	6461.69
903.787	6444.07
904.101	6430.51
904.415	6358.42
904.729	6387.57
905.042	6318.42
905.356	6311.19
905.67	6336.05
905.984	6268.93
906.297	6238.65
906.611	6192.78
906.924	6175.37
907.237	6160.46
907.551	6220.8
907.864	6154.81
908.177	6130.86
908.491	6106.22
908.804	6006.57
909.117	6025.55
909.43	5952.56
909.743	5933.12
910.056	5993.01
910.368	5962.27
910.681	5915.27
910.994	5881.37
911.307	5865.33
911.619	5842.5
911.932	5841.6
912.244	5827.81
912.557	5803.63
912.869	5774.03
913.181	5710.75
913.494	5692
913.806	5681.15
914.118	5689.74
914.43	5605.22
914.742	5622.62
915.054	5583.75
915.366	5558.44
915.678	5537.88
915.99	5509.86
916.302	5501.72
916.613	5470.76
916.925	5473.7
917.236	5431.89
917.548	5432.8
917.859	5466.92
918.171	5353.7
918.482	5397.32
918.794	5330.88
919.105	5333.59
919.416	5266.25
919.727	5285.45
920.038	5254.95
920.349	5270.31
920.66	5180.6
920.971	5181.5
921.282	5185.8
921.593	5116.42
921.903	5107.38
922.214	5101.5
922.525	5036.42
922.835	5025.12
923.146	5009.3
923.456	4975.86
923.767	5012.69
924.077	4985.35
924.387	4965.24
924.697	4910.1
925.008	4920.04
925.318	4930.66
925.628	4862.64
925.938	4859.7
926.248	4826.94
926.558	4780.61
926.867	4758.69
927.177	4794.39
927.487	4771.34
927.796	4691.12
928.106	4724.34
928.416	4748.29
928.725	4699.93
929.034	4638.24
929.344	4640.73
929.653	4564.34
929.962	4555.3
930.271	4623.1
930.581	4541.07
930.89	4518.24
931.199	4499.49
931.508	4473.05
931.817	4465.14
932.125	4467.85
932.434	4380.39
932.743	4410.45
933.051	4384.24
933.36	4355.76
933.669	4353.5
933.977	4332.48
934.286	4319.6
934.594	4313.28
934.902	4269.66
935.21	4229.44
935.519	4208.42
935.827	4225.14
936.135	4185.14
936.443	4172.04
936.751	4142.43
937.059	4152.15
937.367	4140.63
937.674	4084.81
937.982	4160.96
938.29	4101.3
938.597	4068.31
938.905	4073.96
939.213	4057.69
939.52	4033.74
939.827	4012.04
940.135	3965.71
940.442	4025.15
940.749	3948.54
941.056	3985.38
941.363	3893.17
941.67	3877.36
941.977	3869.9
942.284	3880.52
942.591	3847.3
942.898	3835.32
943.205	3841.42
943.511	3794.65
943.818	3775.21
944.125	3800.3
944.431	3743.8
944.738	3725.27
945.044	3751.71
945.35	3708.09
945.657	3698.6
945.963	3685.95
946.269	3689.56
946.575	3649.57
946.881	3617.25
947.187	3629.68
947.493	3605.95
947.799	3616.35
948.105	3601.66
948.41	3542.22
948.716	3529.12
949.022	3532.05
949.327	3499.74
949.633	3468.55
949.938	3484.37
950.244	3469.91
950.549	3425.39
950.854	3417.25
951.16	3394.88
951.465	3405.28
951.77	3387.2
952.075	3372.96
952.38	3344.94
952.685	3348.33
952.99	3350.36
953.294	3301.33
953.599	3313.75
953.904	3272.4
954.209	3247.54
954.513	3254.55
954.818	3254.1
955.122	3259.52
955.426	3231.04
955.731	3194.89
956.035	3199.41
956.339	3122.57
956.643	3168
956.948	3141.56
957.252	3113.76
957.556	3106.53
957.86	3100.88
958.163	3073.99
958.467	3103.82
958.771	3037.83
959.075	3065.4
959.378	3005.06
959.682	3033.99
959.985	3021.56
960.289	3006.19
960.592	3001.67
960.896	2996.02
961.199	2931.84
961.502	2979.53
961.805	2962.8
962.108	2935.91
962.411	2928.23
962.714	2858.63
963.017	2842.81
963.32	2906.31
963.623	2881.68
963.926	2859.3
964.228	2838.29
964.531	2849.13
964.833	2857.72
965.136	2767.33
965.438	2777.5
965.741	2761
966.043	2786.99
966.345	2704.28
966.648	2720.32
966.95	2703.38
967.252	2718.74
967.554	2683.49
967.856	2682.58
968.158	2659.31
968.46	2640.1
968.761	2638.97
969.063	2642.36
969.365	2617.05
969.666	2624.06
969.968	2609.82
970.269	2610.04
970.571	2603.04
970.872	2566.43
971.174	2549.48
971.475	2563.72
971.776	2554.45
972.077	2575.02
972.378	2521.46
972.679	2534.79
972.98	2499.76
973.281	2462.25
973.582	2487.11
973.883	2465.42
974.183	2465.64
974.484	2461.35
974.785	2425.42
975.085	2433.78
975.386	2426.32
975.686	2432.2
975.986	2374.12
976.287	2365.08
976.587	2363.72
976.887	2363.05
977.187	2379.32
977.487	2334.35
977.787	2325.76
978.087	2374.12
978.387	2301.58
978.687	2319.66
978.987	2267.23
979.286	2291.63
979.586	2265.42
979.885	2300
980.185	2224.29
980.484	2234.46
980.784	2235.59
981.083	2233.11
981.382	2220.68
981.682	2249.6
981.981	2211.64
982.28	2208.25
982.579	2153.11
982.878	2167.8
983.177	2149.27
983.475	2159.21
983.774	2143.84
984.073	2104.29
984.372	2128.02
984.67	2101.81
984.969	2114.92
985.267	2102.71
985.566	2081.47
985.864	2052.77
986.162	2083.96
986.461	2060.68
986.759	2056.39
987.057	2047.12
987.355	2018.65
987.653	2035.82
987.951	1976.61
988.249	2000.79
988.547	2012.32
988.844	1987.91
989.142	1979.33
989.44	1948.37
989.737	1950.85
990.035	1923.73
990.332	1918.99
990.63	1935.94
990.927	1933.9
991.224	1930.29
991.521	1906.11
991.819	1868.37
992.116	1904.98
992.413	1866.79
992.71	1874.02
993.006	1845.32
993.303	1864.75
993.6	1856.39
993.897	1842.15
994.193	1862.27
994.49	1849.39
994.787	1817.07
995.083	1807.35
995.379	1787.47
995.676	1785.43
995.972	1776.39
996.268	1768.48
996.565	1761.71
996.861	1760.35
997.157	1768.94
997.453	1740.24
997.749	1754.02
998.044	1725.55
998.34	1715.6
998.636	1750.86
998.932	1698.43
999.227	1700.92
999.523	1710.18
999.818	1675.15
1000.114	1637.87
1000.409	1639.67
1000.704	1652.1
1001	1633.12
1001.295	1636.74
1001.59	1629.51
1001.885	1618.88
1002.18	1617.53
1002.475	1586.57
1002.77	1592.22
1003.065	1573.91
1003.359	1592.9
1003.654	1578.21
1003.949	1541.82
1004.243	1588.6
1004.538	1568.72
1004.832	1536.85
1005.127	1515.84
1005.421	1553.35
1005.715	1533.69
1006.009	1479.68
1006.304	1462.73
1006.598	1506.12
1006.892	1493.24
1007.186	1473.8
1007.48	1475.84
1007.773	1487.59
1008.067	1454.37
1008.361	1407.14
1008.655	1406.69
1008.948	1425.89
1009.242	1435.84
1009.535	1420.25
1009.829	1441.71
1010.122	1396.97
1010.415	1387.48
1010.708	1362.39
1011.001	1374.82
1011.295	1366.24
1011.588	1349.51
1011.881	1321.49
1012.173	1340.02
1012.466	1348.61
1012.759	1344.77
1013.052	1308.84
1013.344	1309.74
1013.637	1315.84
1013.93	1283.53
1014.222	1272
1014.514	1309.29
1014.807	1279.01
1015.099	1265.9
1015.391	1271.77
1015.683	1261.15
1015.976	1252.79
1016.268	1230.19
1016.56	1252.79
1016.851	1243.07
1017.143	1267.03
1017.435	1222.51
1017.727	1204.43
1018.018	1194.26
1018.31	1186.35
1018.602	1178.22
1018.893	1180.93
1019.185	1171.21
1019.476	1167.82
1019.767	1142.51
1020.058	1132.57
1020.35	1148.39
1020.641	1135.05
1020.932	1147.26
1021.223	1119.01
1021.514	1107.94
1021.804	1073.36
1022.095	1114.26
1022.386	1095.06
1022.677	1068.84
1022.967	1066.81
1023.258	1048.28
1023.548	1050.99
1023.839	1083.3
1024.129	1058.22
1024.419	1054.83
1024.709	1049.41
1025	1009.63
1025.29	1032.01
1025.58	1027.04
1025.87	1024.55
1026.16	1014.61
1026.449	1005.79
1026.739	1001.5
1027.029	1006.7
1027.319	983.19
1027.608	981.16
1027.898	969.86
1028.187	972.35
1028.477	953.36
1028.766	960.14
1029.055	945.46
1029.344	944.1
1029.634	950.2
1029.923	941.16
1030.212	918.56
1030.501	918.34
1030.79	919.47
1031.078	916.08
1031.367	941.16
1031.656	899.13
1031.945	900.94
1032.233	885.34
1032.522	894.16
1032.81	891.22
1033.099	868.62
1033.387	853.93
1033.675	861.84
1033.963	843.31
1034.251	866.59
1034.54	837.44
1034.828	854.84
1035.116	839.47
1035.403	850.77
1035.691	813.26
1035.979	844.67
1036.267	835.85
1036.554	831.33
1036.842	811.9
1037.129	819.36
1037.417	804.22
1037.704	784.33
1037.992	804.44
1038.279	814.16
1038.566	763.99
1038.853	763.99
1039.14	763.99
