Data from White_reflection_standard_FLMS001491_018.txt Node
Date: Tue Feb 07 10:31:58 GMT 2017
User: dcchb
Spectrometer: FLMS00149
Trigger mode: 0
Integration Time (sec): 2.000000E-2
Scans to average: 10
Electric dark correction enabled: true
Nonlinearity correction enabled: false
Boxcar width: 0
XAxis mode: Wavelengths
Number of Pixels in Spectrum: 2048
>>>>>Begin Spectral Data<<<<<
341.393	-14.82
341.776	-14.82
342.16	-14.82
342.543	-56.4
342.927	-57.98
343.31	-69.5
343.693	-74.93
344.077	-74.93
344.46	-42.61
344.843	-49.17
345.226	-34.93
345.61	-33.8
345.993	-22.27
346.376	-11.88
346.759	-17.75
347.142	34.45
347.525	77.61
347.908	71.06
348.291	59.98
348.674	78.29
349.057	110.38
349.44	121.68
349.823	112.64
350.206	161.9
350.588	239.19
350.971	266.08
351.354	266.53
351.737	289.58
352.119	298.62
352.502	302.01
352.884	323.25
353.267	331.62
353.65	343.59
354.032	324.16
354.414	358.51
354.797	378.62
355.179	363.93
355.562	373.42
355.944	361.9
356.326	395.12
356.709	405.51
357.091	383.82
357.473	399.41
357.855	385.17
358.238	405.29
358.62	395.79
359.002	396.25
359.384	421.78
359.766	389.24
360.148	389.69
360.53	389.02
360.912	413.65
361.294	393.31
361.676	405.29
362.057	422.91
362.439	401.67
362.821	397.38
363.203	423.59
363.584	406.19
363.966	417.94
364.348	389.92
364.729	422.91
365.111	399.86
365.493	424.04
365.874	419.97
366.256	418.84
366.637	409.58
367.019	418.39
367.4	422.23
367.781	407.32
368.163	430.82
368.544	424.04
368.925	419.52
369.306	448.67
369.688	443.7
370.069	418.39
370.45	442.12
370.831	436.25
371.212	433.99
371.593	429.92
371.974	426.98
372.355	453.42
372.736	462.46
373.117	438.73
373.498	456.36
373.879	466.98
374.26	464.27
374.641	433.76
375.021	466.3
375.402	459.75
375.783	485.06
376.163	482.12
376.544	498.62
376.925	487.54
377.305	482.57
377.686	489.58
378.066	463.82
378.447	506.3
378.827	517.15
379.208	515.79
379.588	537.03
379.968	526.41
380.349	510.82
380.729	529.12
381.109	541.33
381.489	549.46
381.87	567.32
382.25	540.42
382.63	551.5
383.01	537.71
383.39	541.55
383.77	549.91
384.15	575.45
384.53	602.34
384.91	592.4
385.29	590.37
385.67	572.97
386.049	587.43
386.429	619.74
386.809	617.94
387.189	636.69
387.568	615.45
387.948	623.13
388.328	652.29
388.707	636.24
389.087	667.65
389.466	667.43
389.846	688.44
390.225	690.25
390.605	691.83
390.984	698.84
391.363	709.68
391.743	722.34
392.122	733.19
392.501	730.93
392.881	738.61
393.26	764.6
393.639	748.78
394.018	769.57
394.397	746.97
394.776	799.85
395.155	791.04
395.534	788.55
395.913	793.3
396.292	817.7
396.671	824.48
397.05	832.85
397.429	815.44
397.808	828.1
398.186	862.45
398.565	868.55
398.944	848.66
399.323	892.05
399.701	880.75
400.08	892.73
400.458	901.54
400.837	930.92
401.215	922.33
401.594	932.5
401.972	946.97
402.351	952.39
402.729	953.07
403.107	968.89
403.486	975.44
403.864	972.95
404.242	1007.53
404.62	1034.42
404.999	1020.64
405.377	1033.29
405.755	1073.29
406.133	1073.74
406.511	1083.46
406.889	1109.67
407.267	1113.29
407.645	1104.25
408.023	1119.84
408.401	1157.13
408.779	1175.89
409.156	1201.2
409.534	1186.06
409.912	1209.56
410.29	1249.33
410.667	1263.79
411.045	1285.49
411.422	1278.71
411.8	1298.37
412.178	1324.58
412.555	1329.78
412.933	1353.28
413.31	1381.31
413.687	1382.44
414.065	1411.36
414.442	1410.68
414.819	1436.22
415.197	1459.5
415.574	1470.34
415.951	1515.77
416.328	1531.36
416.705	1520.28
417.082	1545.37
417.46	1563.22
417.837	1597.57
418.214	1615.42
418.591	1597.35
418.967	1631.92
419.344	1632.37
419.721	1675.76
420.098	1642.09
420.475	1702.2
420.852	1701.98
421.228	1737
421.605	1743.33
421.982	1783.55
422.358	1766.83
422.735	1771.13
423.111	1796.89
423.488	1860.39
423.864	1837.11
424.241	1898.13
424.617	1915.3
424.994	1915.08
425.37	1944.45
425.746	1953.04
426.123	1978.13
426.499	1988.97
426.875	1999.14
427.251	2084.34
427.627	2113.04
428.003	2129.31
428.379	2127.95
428.756	2187.16
429.132	2193.26
429.507	2262.86
429.883	2294.05
430.259	2289.76
430.635	2345.12
431.011	2354.39
431.387	2405.46
431.763	2422.41
432.138	2459.02
432.514	2495.63
432.89	2499.02
433.265	2584.89
433.641	2626.92
434.016	2618.34
434.392	2678.45
434.767	2724.55
435.143	2719.8
435.518	2766.35
435.894	2768.84
436.269	2820.14
436.644	2829.85
437.02	2884.32
437.395	2900.36
437.77	2957.31
438.145	3026.46
438.52	3029.62
438.895	3052.9
439.271	3082.05
439.646	3169.51
440.021	3129.28
440.395	3184.65
440.77	3139
441.145	3219.9
441.52	3256.06
441.895	3269.17
442.27	3348.03
442.645	3313.68
443.019	3369.28
443.394	3350.52
443.769	3403.85
444.143	3404.08
444.518	3480.46
444.892	3442.27
445.267	3520.91
445.641	3518.65
446.016	3548.25
446.39	3606.78
446.764	3606.56
447.139	3598.2
447.513	3631.87
447.887	3682.26
448.262	3706.44
448.636	3734.46
449.01	3788.93
449.384	3827.79
449.758	3874.57
450.132	3907.57
450.506	3938.07
450.88	3914.57
451.254	3956.61
451.628	4040.22
452.002	4084.51
452.376	4111.4
452.75	4114.34
453.123	4171.97
453.497	4282.47
453.871	4277.5
454.244	4370.15
454.618	4392.98
454.992	4497.61
455.365	4459.64
455.739	4587.1
456.112	4682.91
456.486	4678.39
456.859	4717.04
457.232	4789.8
457.606	4790.03
457.979	4924.94
458.352	4970.82
458.725	5110.7
459.099	5086.07
459.472	5147.99
459.845	5218.27
460.218	5296.91
460.591	5314.76
460.964	5385.95
461.337	5497.81
461.71	5521.31
462.083	5710.91
462.456	5643.34
462.829	5697.12
463.201	5828.42
463.574	5829.78
463.947	5893.28
464.32	6037.68
464.692	6040.84
465.065	6151.35
465.438	6246.26
465.81	6278.13
466.183	6364.45
466.555	6532.36
466.928	6550.89
467.3	6549.53
467.672	6709.3
468.045	6872.01
468.417	6856.87
468.789	6934.83
469.161	7081.72
469.534	7138.89
469.906	7337.99
470.278	7384.99
470.65	7468.15
471.022	7604.19
471.394	7743.85
471.766	7819.1
472.138	7885.32
472.51	8071.07
472.882	8222.93
473.253	8370.27
473.625	8436.49
473.997	8657.27
474.369	8650.72
474.74	8796.03
475.112	8952.18
475.484	9111.72
475.855	9268.56
476.227	9376.12
476.598	9562.11
476.97	9643.46
477.341	9887.52
477.713	10064.24
478.084	10115.31
478.455	10462.42
478.827	10502.42
479.198	10780.15
479.569	10777.89
479.94	11113.03
480.311	11186.02
480.682	11503.3
481.053	11808.15
481.424	11905.1
481.795	12036.84
482.166	12294.69
482.537	12447.23
482.908	12747.33
483.279	12788.46
483.65	13045.41
484.021	13293.76
484.391	13410.59
484.762	13529.23
485.133	13724.94
485.503	13906.63
485.874	14207.41
486.244	14388.65
486.615	14616.89
486.985	14807.85
487.356	15083.77
487.726	15147.5
488.097	15448.96
488.467	15555.17
488.837	15905.44
489.207	16102.05
489.578	16322.16
489.948	16366.67
490.318	16706.55
490.688	16787
491.058	17005.53
491.428	17252.07
491.798	17466.76
492.168	17791.5
492.538	17871.72
492.908	18018.16
493.278	18439.16
493.648	18251.37
494.017	18636.45
494.387	18729.1
494.757	18905.82
495.126	19125.47
495.496	19323.21
495.866	19321.4
496.235	19565.23
496.605	19758.9
496.974	19896.75
497.344	20019.69
497.713	20204.09
498.082	20370.64
498.452	20577.64
498.821	20669.84
499.19	20806.78
499.559	20988.25
499.928	21060.56
500.298	21277.05
500.667	21484.51
501.036	21465.98
501.405	21787.77
501.774	21758.4
502.143	22098.73
502.512	22040.65
502.88	22305.28
503.249	22378.04
503.618	22555.89
503.987	22530.58
504.356	22820.06
504.724	22956.56
505.093	23129.21
505.462	23211.24
505.83	23279.71
506.199	23553.38
506.567	23906.81
506.936	23858.45
507.304	24141.61
507.672	24373.7
508.041	24460.47
508.409	24553.58
508.777	24797.41
509.145	24946.11
509.514	25099.33
509.882	25157.18
510.25	25364.18
510.618	25654.11
510.986	25655.24
511.354	25987.89
511.722	26193.08
512.09	26482.57
512.458	26445.73
512.826	26706.29
513.193	26823.35
513.561	27006.39
513.929	27092.95
514.297	27444.8
514.664	27566.15
515.032	27673.04
515.4	27950.1
515.767	28199.81
516.135	28231.9
516.502	28221.73
516.869	28707.59
517.237	28863.97
517.604	28771.77
517.972	29261.48
518.339	29444.97
518.706	29437.52
519.073	29778.52
519.44	29829.6
519.808	30171.51
520.175	30254.22
520.542	30642.68
520.909	30886.07
521.276	30892.17
521.643	31268.43
522.009	31502.55
522.376	31539.83
522.743	31952.71
523.11	32225.69
523.477	32404.44
523.843	32776.41
524.21	33096.18
524.577	33280.35
524.943	33451.87
525.31	33771.41
525.676	33928.47
526.043	34041.69
526.409	34390.16
526.776	34650.71
527.142	34885.28
527.508	35057.48
527.874	35301.09
528.241	35384.93
528.607	35629.67
528.973	35997.12
529.339	36012.71
529.705	36314.62
530.071	36681.39
530.437	36827.83
530.803	37065.11
531.169	37255.84
531.535	37214.71
531.901	37362.73
532.267	37533.35
532.632	37770.63
532.998	37913.23
533.364	38279.09
533.73	38313.89
534.095	38707.56
534.461	38719.76
534.826	38946.65
535.192	38932.41
535.557	39402.9
535.923	39398.61
536.288	39537.14
536.653	39868.2
537.019	39596.57
537.384	40019.61
537.749	40143.68
538.114	40222.54
538.479	40284.69
538.845	40482.2
539.21	40533.95
539.575	40675.41
539.94	40887.16
540.305	41060.04
540.67	41151.33
541.034	41302.29
541.399	41417.09
541.764	41581.15
542.129	41776.18
542.494	41766.46
542.858	42016.85
543.223	41981.37
543.587	42296.84
543.952	42355.37
544.316	42405.54
544.681	42687.79
545.045	42772.08
545.41	42938.18
545.774	43038.52
546.138	43005.3
546.503	43397.83
546.867	43301.79
547.231	43664.26
547.595	43774.32
547.959	43939.06
548.324	43956.23
548.688	44096.79
549.052	44192.38
549.416	44447.97
549.779	44437.57
550.143	44551.24
550.507	44926.6
550.871	44903.55
551.235	44927.96
551.599	45273.03
551.962	45327.95
552.326	45465.12
552.689	45820.14
553.053	45544.89
553.417	45889.06
553.78	46239.56
554.143	46091.32
554.507	46306.45
554.87	46470.74
555.234	46826.21
555.597	46747.57
555.96	46852.88
556.323	47025.53
556.686	47188.91
557.05	47516.14
557.413	47496.93
557.776	47612.18
558.139	47968.33
558.502	47976.46
558.865	48190.24
559.228	48448.09
559.59	48629.78
559.953	48583
560.316	49102.54
560.679	49102.08
561.041	49236.54
561.404	49385.69
561.767	49607.61
562.129	49556.54
562.492	50034.94
562.854	49888.96
563.217	50019.35
563.579	50175.73
563.941	50413.69
564.304	50453.69
564.666	50734.58
565.028	50770.74
565.39	50923.73
565.753	51127.79
566.115	51215.48
566.477	51408.69
566.839	51454.79
567.201	51684.16
567.563	51734.78
567.925	51992.18
568.287	51934.78
568.648	52047.77
569.01	52286.86
569.372	52414.09
569.734	52328.67
570.095	52581.09
570.457	52718.26
570.819	52773.85
571.18	52770.46
571.542	53031.02
571.903	53084.58
572.265	53211.13
572.626	53222.2
572.987	53350.33
573.349	53327.28
573.71	53430.78
574.071	53530.22
574.432	53580.84
574.794	53857.21
575.155	53853.37
575.516	53712.13
575.877	53985.8
576.238	53963.43
576.599	54075.97
576.96	54116.87
577.32	54126.13
577.681	54258.11
578.042	54274.15
578.403	54257.88
578.763	54346.92
579.124	54376.3
579.485	54480.7
579.845	54555.5
580.206	54565.22
580.566	54566.57
580.927	54542.62
581.287	54692.67
581.648	54500.81
582.008	54703.07
582.368	54619.91
582.728	54721.37
583.089	54699
583.449	54695.61
583.809	54763.86
584.169	54793.23
584.529	54753.24
584.889	54998.2
585.249	54748.72
585.609	54699
585.969	54844.53
586.329	54766.57
586.688	54833.01
587.048	54809.73
587.408	54740.13
587.768	54771.54
588.127	54821.48
588.487	54816.51
588.846	54968.6
589.206	54727.93
589.565	54702.84
589.925	54832.33
590.284	54821.48
590.643	54839.56
591.003	54942.61
591.362	55080.68
591.721	54930.41
592.08	54987.58
592.44	54988.03
592.799	54977.18
593.158	54922.04
593.517	54947.13
593.876	55050.18
594.235	54948.26
594.593	55021.03
594.952	55072.78
595.311	54979.9
595.67	55002.72
596.029	55164.07
596.387	55256.27
596.746	55219.21
597.104	55081.81
597.463	55136.73
597.822	55222.15
598.18	55117.97
598.538	55107.8
598.897	55219.66
599.255	55075.71
599.613	55394.57
599.972	55276.84
600.33	55389.6
600.688	55256.5
601.046	55343.95
601.404	55386.67
601.762	55375.37
602.12	55544.18
602.478	55460.79
602.836	55458.75
603.194	55341.24
603.552	55444.06
603.91	55349.83
604.268	55543.5
604.625	55444.29
604.983	55614.68
605.341	55449.94
605.698	55582.82
606.056	55680.67
606.413	55609.71
606.771	55650.61
607.128	55741.01
607.485	55623.5
607.843	55665.08
608.2	55778.07
608.557	55858.07
608.914	55802.93
609.272	55916.82
609.629	55923.37
609.986	56049.47
610.343	55940.55
610.7	56086.76
611.057	56079.3
611.414	56022.81
611.771	56108.68
612.127	56141
612.484	56136.02
612.841	56272.74
613.198	56080.66
613.554	56206.08
613.911	56292.63
614.267	56265.29
614.624	56201.78
614.98	56326.3
615.337	56383.7
615.693	56352.74
616.05	56352.74
616.406	56422.8
616.762	56397.49
617.118	56266.42
617.475	56412.17
617.831	56499.86
618.187	56509.8
618.543	56456.92
618.899	56612.62
619.255	56508.67
619.611	56528.78
619.967	56603.81
620.323	56710.47
620.678	56496.01
621.034	56517.93
621.39	56489.24
621.746	56499.18
622.101	56789.57
622.457	56482.68
622.812	56652.62
623.168	56643.36
623.523	56662.34
623.879	56655.33
624.234	56493.08
624.589	56567.43
624.945	56600.42
625.3	56612.4
625.655	56616.01
626.01	56603.81
626.365	56706.18
626.72	56642.68
627.075	56514.77
627.43	56609.46
627.785	56541.89
628.14	56630.47
628.495	56613.75
628.85	56567.88
629.205	56410.82
629.559	56700.75
629.914	56545.73
630.269	56503.02
630.623	56411.27
630.978	56417.6
631.332	56450.59
631.687	56505.51
632.041	56323.59
632.396	56369.01
632.75	56294.21
633.104	56309.35
633.459	56202.46
633.813	56203.82
634.167	56191.16
634.521	56152.07
634.875	56141.67
635.229	56151.62
635.583	55931.96
635.937	55957.72
636.291	55960.66
636.645	55953.43
636.999	55875.01
637.352	55967.89
637.706	55779.65
638.06	55964.05
638.413	55788.91
638.767	55752.31
639.121	55724.06
639.474	55606.32
639.828	55620.56
640.181	55627.56
640.534	55669.14
640.888	55465.31
641.241	55411.52
641.594	55515.7
641.947	55577.39
642.301	55449.04
642.654	55435.93
643.007	55436.83
643.36	55389.6
643.713	55296.05
644.066	55384.41
644.419	55205.88
644.771	54974.7
645.124	54686.8
645.477	54717.76
645.83	54461.27
646.182	54433.24
646.535	54350.76
646.888	54317.99
647.24	54184.21
647.593	54384.21
647.945	54311.44
648.298	54128.17
648.65	54114.38
649.002	53965.46
649.355	54143.76
649.707	54005.68
650.059	54126.36
650.411	54431.21
650.763	54491.55
651.115	54800.01
651.467	54726.34
651.819	54612.67
652.171	54504.88
652.523	54543.98
652.875	54523.86
653.227	54364.09
653.578	54494.26
653.93	54495.62
654.282	54369.97
654.633	54273.7
654.985	54252.91
655.337	54224.89
655.688	54274.83
656.039	54387.6
656.391	54092.91
656.742	54116.64
657.094	54190.31
657.445	54187.6
657.796	54138.11
658.147	54097.43
658.498	54079.35
658.849	54130.65
659.2	54026.93
659.551	53911.22
659.902	54000.26
660.253	53936.76
660.604	54081.39
660.955	53902.41
661.306	54016.53
661.656	53903.77
662.007	53934.27
662.358	53888.17
662.708	53787.84
663.059	53888.63
663.409	53633.94
663.76	53901.28
664.11	53799.14
664.461	53894.95
664.811	53821.06
665.161	53770.44
665.511	53728.86
665.862	53675.98
666.212	53747.84
666.562	53753.26
666.912	53652.7
667.262	53580.84
667.612	53600.05
667.962	53538.13
668.312	53555.75
668.662	53655.64
669.011	53615.86
669.361	53569.99
669.711	53473.5
670.06	53474.63
670.41	53437.34
670.76	53322.76
671.109	53451.35
671.459	53429.43
671.808	53294.74
672.157	53387.17
672.507	53112.37
672.856	53205.48
673.205	53103.34
673.554	53274.4
673.904	53173.62
674.253	53361.63
674.602	53151.7
674.951	52776.11
675.3	52670.13
675.649	53056.78
675.998	53063.11
676.346	52994.19
676.695	53139.27
677.044	52915.32
677.393	52948.99
677.741	52990.34
678.09	52868.77
678.438	52860.18
678.787	52946.5
679.135	52913.96
679.484	52647.98
679.832	52800.74
680.181	52645.49
680.529	52673.97
680.877	52605.95
681.225	52593.07
681.573	52750.8
681.922	52390.59
682.27	52346.75
682.618	52401.43
682.966	52184.72
683.314	52347.87
683.661	52201.44
684.009	52093.42
684.357	52019.07
684.705	51923.48
685.053	51938.85
685.4	51969.35
685.748	51704.28
686.095	51789.92
686.443	51631.96
686.79	51556.48
687.138	51584.73
687.485	51594.22
687.832	51485.98
688.18	51407.11
688.527	51157.4
688.874	51278.98
689.221	51100.9
689.568	51012.09
689.915	51000.11
690.262	50953.11
690.609	50810.51
690.956	50719.67
691.303	50720.57
691.65	50539.11
691.997	50552.89
692.344	50233.58
692.69	50222.73
693.037	50143.64
693.383	49927.6
693.73	50052.57
694.077	49886.7
694.423	49860.71
694.769	49807.38
695.116	49742.07
695.462	49602.18
695.808	49523.09
696.155	49479.48
696.501	49201.29
696.847	49154.06
697.193	49006.72
697.539	49095.08
697.885	48792.26
698.231	48666.62
698.577	48676.33
698.923	48637.46
699.269	48439.5
699.614	48292.39
699.96	48260.07
700.306	48269.79
700.651	48045.84
700.997	47908.67
701.342	47831.61
701.688	47791.84
702.033	47684.95
702.379	47619.19
702.724	47433.65
703.069	47632.52
703.415	47090.16
703.76	47096.49
704.105	47125.87
704.45	46954.34
704.795	46801.35
705.14	46661.24
705.485	46636.16
705.83	46401.14
706.175	46514.58
706.52	46409.27
706.865	46328.82
707.209	46116.4
707.554	45958.44
707.899	46009.74
708.243	45858.78
708.588	45784.66
708.932	45491.33
709.277	45629.86
709.621	45585.11
709.966	45367.72
710.31	45307.38
710.654	45015.64
710.998	45138.8
711.342	45111.91
711.687	44899.03
712.031	44784.91
712.375	44602.99
712.719	44597.12
713.063	44542.88
713.407	44609.55
713.75	44323
714.094	44431.7
714.438	44191.25
714.782	44217.02
715.125	44053.18
715.469	44153.29
715.812	43951.71
716.156	43640.08
716.499	43687.31
716.843	43680.31
717.186	43483.25
717.53	43579.52
717.873	43487.77
718.216	43339.75
718.559	43159.64
718.902	42967.1
719.246	43061.34
719.589	42860.21
719.932	42746.32
720.275	42708.81
720.617	42806.2
720.96	42689.6
721.303	42723.5
721.646	42645.98
721.989	42352.43
722.331	42484.86
722.674	42323.05
723.016	42392.43
723.359	42196.28
723.701	42196.73
724.044	42010.97
724.386	41664.54
724.729	41949.05
725.071	41938.88
725.413	41860.02
725.755	41785.67
726.097	41535.5
726.439	41512
726.782	41452.79
727.124	41529.4
727.465	41348.16
727.807	41338.9
728.149	41105.91
728.491	41178.23
728.833	41120.37
729.175	41012.81
729.516	40923.99
729.858	40694.4
730.199	40722.64
730.541	40680.61
730.882	40572.59
731.224	40662.53
731.565	40543.89
731.906	40549.54
732.248	40496.44
732.589	40197.01
732.93	40066.39
733.271	40215.09
733.612	40230
733.953	40285.37
734.294	40102.1
734.635	39915.89
734.976	40046.96
735.317	39781.88
735.658	39861.88
735.999	39598.83
736.339	39647.87
736.68	39735.78
737.021	39490.13
737.361	39472.51
737.702	39675.21
738.042	39421.89
738.383	39326.52
738.723	39429.8
739.063	39084.27
739.404	39308.67
739.744	39109.13
740.084	38868.23
740.424	38959.3
740.764	38816.25
741.104	38881.56
741.444	38765.63
741.784	38520.89
742.124	38703.94
742.464	38655.81
742.804	38574.45
743.143	38419.43
743.483	38418.52
743.823	38357.96
744.162	38311.18
744.502	38323.61
744.841	38141.69
745.181	38220.34
745.52	37967.24
745.86	38081.13
746.199	37860.57
746.538	37981.25
746.877	37932.21
747.216	37845.88
747.556	37718.66
747.895	37656.74
748.234	37469.62
748.573	37558.89
748.911	37296.29
749.25	37453.58
749.589	37196.18
749.928	37256.29
750.267	37247.48
750.605	37168.84
750.944	36988.73
751.283	36875.29
751.621	36920.71
751.96	36725.23
752.298	36678.91
752.636	36670.55
752.975	36356.66
753.313	36395.75
753.651	36558.01
753.989	36169.77
754.327	36188.98
754.666	36073.73
755.004	36030.56
755.342	36016.33
755.679	35929.55
756.017	35795.77
756.355	35881.64
756.693	35549.45
757.031	35559.84
757.368	35390.35
757.706	35262.67
758.044	35099.74
758.381	35240.08
758.719	35160.76
759.056	35087.76
759.394	34883.93
759.731	34647.32
760.068	34622.92
760.405	34743.14
760.743	34304.73
761.08	34501.11
761.417	34250.5
761.754	34191.74
762.091	34077.85
762.428	34020.22
762.765	33914.46
763.102	34003.95
763.438	33731.64
763.775	33675.37
764.112	33538.43
764.449	33621.59
764.785	33439.9
765.122	33294.59
765.458	33043.52
765.795	33004.43
766.131	32976.86
766.467	33019.8
766.804	32630.88
767.14	32602.41
767.476	32637.43
767.812	32359.02
768.148	32291
768.485	32070.67
768.821	32084.45
769.157	31946.6
769.492	31783.22
769.828	31794.97
770.164	31594.75
770.5	31438.37
770.836	31363.79
771.171	31273.63
771.507	31232.95
771.842	31009.45
772.178	31002
772.513	30860.3
772.849	30811.27
773.184	30615.34
773.519	30658.05
773.855	30488.79
774.19	30329.24
774.525	30108.23
774.86	30247.21
775.195	30072.98
775.53	29919.54
775.865	29789.82
776.2	29570.39
776.535	29311.19
776.87	29384.41
777.205	29235.04
777.539	29153.23
777.874	29180.12
778.209	28848.83
778.543	28934.48
778.878	28707.59
779.212	28737.65
779.547	28608.84
779.881	28556.18
780.215	28382.18
780.55	28421.05
780.884	28171.56
781.218	28131.79
781.552	28101.28
781.886	28033.26
782.22	27842.98
782.554	27636.66
782.888	27444.35
783.222	27459.49
783.556	27349.66
783.889	27230.34
784.223	27062.21
784.557	26978.6
784.89	27102.21
785.224	26867.42
785.557	26736.12
785.891	26788.77
786.224	26617.25
786.558	26496.35
786.891	26378.16
787.224	26205.74
787.557	26111.5
787.891	26169.81
788.224	26042.13
788.557	26071.96
788.89	26050.04
789.223	25854.11
789.556	25691.85
789.888	25643.04
790.221	25502.03
790.554	25227.91
790.887	25282.82
791.219	25245.08
791.552	25298.19
791.884	25048.71
792.217	25022.72
792.549	24811.88
792.882	24692.78
793.214	24559
793.546	24676.96
793.879	24436.07
794.211	24342.06
794.543	24471.77
794.875	24227.71
795.207	24333.24
795.539	24010.09
795.871	24169.86
796.203	23941.84
796.535	23771.45
796.867	23801.28
797.198	23687.61
797.53	23674.73
797.862	23579.59
798.193	23568.97
798.525	23403.78
798.856	23434.96
799.188	23237.23
799.519	23125.14
799.85	23095.76
800.182	22996.56
800.513	23101.64
800.844	22795.43
801.175	22964.24
801.506	22816
801.837	22571.93
802.168	22713.4
802.499	22476.34
802.83	22532.84
803.161	22314.31
803.491	22369.45
803.822	22424.59
804.153	22296.91
804.483	22095.79
804.814	22004.27
805.145	22002.68
805.475	21972.85
805.805	21871.16
806.136	21860.09
806.466	21785.06
806.796	21736.93
807.126	21584.62
807.457	21595.01
807.787	21617.38
808.117	21446.31
808.447	21356.37
808.777	21302.36
809.107	21310.72
809.436	21276.6
809.766	21215.81
810.096	21118.64
810.426	21083.61
810.755	21072.99
811.085	21000.22
811.414	20843.84
811.744	20692.44
812.073	20703.06
812.403	20682.27
812.732	20472.55
813.061	20661.7
813.39	20406.79
813.719	20408.15
814.049	20544.42
814.378	20347.59
814.707	20252.22
815.036	20228.72
815.365	20054.03
815.693	19901.27
816.022	20015.62
816.351	19899.01
816.68	19803.42
817.008	19986.47
817.337	19657.21
817.665	19703.76
817.994	19804.55
818.322	19661.73
818.651	19643.88
818.979	19474.16
819.307	19608.62
819.636	19482.52
819.964	19411.57
820.292	19457.21
820.62	19425.58
820.948	19365.01
821.276	19482.52
821.604	19344
821.932	19383.77
822.259	19455.86
822.587	19412.47
822.915	19242.08
823.243	19336.54
823.57	19187.16
823.898	19296.31
824.225	19257.9
824.553	19283.89
824.88	19268.29
825.207	19373.6
825.535	19265.36
825.862	19309.42
826.189	19273.04
826.516	19301.74
826.843	19280.72
827.17	19319.82
827.497	19257.22
827.824	19301.96
828.151	19306.03
828.478	19262.19
828.805	19335.64
829.131	19143.55
829.458	19226.49
829.785	19153.95
830.111	19167.05
830.438	19240.95
830.764	19124.57
831.09	19203.89
831.417	19070.56
831.743	19139.71
832.069	19169.09
832.395	19005.02
832.722	19135.64
833.048	19057.45
833.374	19052.71
833.7	18885.93
834.026	19026.94
834.351	19029.66
834.677	18906.72
835.003	18973.39
835.329	18980.39
835.654	18942.65
835.98	18796.44
836.306	18864.69
836.631	18807.51
836.956	18819.72
837.282	18769.1
837.607	18677.35
837.932	18679.16
838.258	18645.03
838.583	18655.65
838.908	18514.87
839.233	18598.25
839.558	18450.91
839.883	18466.73
840.208	18468.09
840.533	18428.99
840.858	18415.89
841.182	18397.36
841.507	18402.1
841.832	18168.89
842.156	18246.4
842.481	18241.2
842.805	18118.04
843.13	18095.44
843.454	18012.96
843.778	18026.97
844.103	18020.87
844.427	17905.62
844.751	17945.16
845.075	17826.3
845.399	17798.95
845.723	17686.64
846.047	17765.51
846.371	17581.56
846.695	17590.82
847.019	17400.77
847.343	17413.2
847.666	17271.96
847.99	17227.67
848.313	17221.79
848.637	17082.59
848.96	17008.47
849.284	17075.13
849.607	16863.16
849.931	16782.93
850.254	16753.78
850.577	16614.13
850.9	16556.5
851.223	16523.28
851.546	16378.88
851.869	16167.58
852.192	16418.65
852.515	16201.03
852.838	16212.78
853.161	16152.89
853.483	16038.77
853.806	16058.21
854.129	16027.47
854.451	15930.08
854.774	15875.84
855.096	15780.7
855.419	15712.23
855.741	15744.54
856.063	15649.18
856.385	15552.68
856.708	15583.87
857.03	15508.62
857.352	15529.41
857.674	15431.78
857.996	15348.62
858.318	15340.03
858.64	15318.11
858.961	15208.74
859.283	15139.59
859.605	15220.94
859.926	15172.81
860.248	15167.84
860.57	15000.61
860.891	14922.42
861.212	14943.89
861.534	14895.07
861.855	14910.44
862.176	14927.39
862.498	14905.7
862.819	14904.57
863.14	14771.01
863.461	14808.52
863.782	14670
864.103	14761.97
864.424	14611.69
864.745	14617.12
865.065	14599.71
865.386	14573.5
865.707	14596.33
866.027	14601.75
866.348	14538.93
866.668	14464.58
866.989	14457.57
867.309	14392.04
867.63	14365.82
867.95	14310.01
868.27	14166.96
868.59	14242.89
868.91	14236.56
869.23	14212.61
869.55	14130.35
869.87	14222.78
870.19	14221.42
870.51	14115.66
870.83	14190.23
871.15	14000.41
871.469	14058.49
871.789	14069.11
872.109	14095.77
872.428	13940.98
872.748	14037.02
873.067	13978.94
873.386	14022.33
873.706	13954.53
874.025	13887.42
874.344	13864.82
874.663	13879.51
874.982	13865.05
875.301	13814.65
875.62	13734.2
875.939	13719.51
876.258	13698.5
876.577	13670.47
876.896	13616.01
877.214	13643.13
877.533	13594.32
877.852	13597.26
878.17	13669.12
878.489	13620.98
878.807	13648.78
879.125	13573.75
879.444	13538.95
879.762	13424.15
880.08	13434.32
880.398	13351.84
880.716	13452.85
881.034	13348.9
881.352	13399.52
881.67	13331.95
881.988	13237.26
882.306	13251.95
882.624	13207.89
882.941	13074.78
883.259	13121.34
883.577	13084.73
883.894	13077.04
884.212	13067.78
884.529	13031.62
884.846	12990.94
885.164	12933.09
885.481	12992.53
885.798	13011.51
886.115	12829.37
886.432	12824.17
886.75	12833.43
887.067	12821.46
887.383	12730.84
887.7	12778.07
888.017	12695.58
888.334	12666.43
888.651	12594.12
888.967	12568.13
889.284	12595.93
889.6	12524.52
889.917	12411.07
890.233	12465.08
890.55	12357.29
890.866	12412.65
891.182	12394.8
891.498	12270.96
891.815	12283.62
892.131	12217.86
892.447	12183.73
892.763	12111.87
893.079	12051.31
893.395	12103.28
893.71	12083.17
894.026	12117.75
894.342	11904.42
894.657	11909.84
894.973	11955.94
895.289	11941.48
895.604	11892.89
895.92	11762.28
896.235	11723.86
896.55	11779.9
896.865	11678.89
897.181	11576.74
897.496	11636.63
897.811	11557.76
898.126	11537.42
898.441	11483.41
898.756	11460.14
899.071	11414.94
899.386	11355.51
899.7	11278.22
900.015	11214.72
900.33	11145.34
900.644	11193.02
900.959	11133.14
901.273	11131.33
901.588	11023.09
901.902	10988.51
902.216	10975.4
902.531	10982.86
902.845	10858.57
903.159	10832.81
903.473	10789.19
903.787	10795.3
904.101	10716.2
904.415	10692.93
904.729	10606.15
905.042	10588.52
905.356	10530.22
905.67	10534.29
905.984	10489.54
906.297	10461.52
906.611	10398.92
906.924	10308.75
907.237	10344.01
907.551	10261.07
907.864	10220.4
908.177	10223.78
908.491	10117.12
908.804	10097.23
909.117	10090.46
909.43	10042.09
909.743	9990.8
910.056	9965.03
910.368	9923.45
910.681	9874.42
910.994	9773.18
911.307	9794.42
911.619	9732.72
911.932	9729.56
912.244	9621.77
912.557	9632.16
912.869	9576.57
913.181	9536.35
913.494	9560.98
913.806	9532.73
914.118	9444.6
914.43	9383.13
914.742	9362.56
915.054	9332.06
915.366	9253.19
915.678	9283.92
915.99	9251.61
916.302	9105.17
916.613	9121.67
916.925	9130.25
917.236	9095.45
917.548	8970.26
917.859	9066.08
918.171	8870.83
918.482	8923.25
918.794	8859.98
919.105	8829.02
919.416	8781.34
919.727	8721.68
920.038	8736.82
920.349	8654.79
920.66	8606.65
920.971	8601.68
921.282	8511.06
921.593	8504.73
921.903	8443.04
922.214	8422.48
922.525	8405.53
922.835	8344.51
923.146	8245.31
923.456	8314.68
923.767	8259.32
924.077	8233.55
924.387	8187.23
924.697	8171.41
925.008	8090.06
925.318	8045.31
925.628	8062.03
925.938	8013.9
926.248	7932.32
926.558	7930.51
926.867	7880.8
927.177	7884.86
927.487	7789.72
927.796	7765.09
928.106	7780.01
928.416	7712.89
928.725	7717.64
929.034	7647.13
929.344	7660.91
929.653	7566.68
929.962	7544.08
930.271	7507.47
930.581	7464.76
930.89	7395.84
931.199	7436.51
931.508	7346.35
931.817	7391.54
932.125	7258.89
932.434	7349.28
932.743	7187.71
933.051	7210.53
933.36	7214.15
933.669	7128.05
933.977	7163.98
934.286	7103.19
934.594	7111.55
934.902	7019.8
935.21	7009.41
935.519	7003.98
935.827	6947.03
936.135	6906.81
936.443	6872.01
936.751	6838.11
937.059	6786.81
937.367	6762.86
937.674	6768.96
937.982	6738.23
938.29	6672.24
938.597	6680.6
938.905	6627.95
939.213	6539.14
939.52	6562.41
939.827	6587.72
940.135	6552.02
940.442	6513.15
940.749	6487.84
941.056	6431.12
941.363	6389.08
941.67	6378.91
941.977	6322.19
942.284	6314.28
942.591	6316.54
942.898	6308.86
943.205	6239.71
943.511	6270.89
943.818	6206.04
944.125	6140.5
944.431	6135.76
944.738	6080.39
945.044	6081.29
945.35	5999.94
945.657	5990.22
945.963	6013.95
946.269	5977.34
946.575	5972.15
946.881	5866.16
947.187	5871.36
947.493	5860.96
947.799	5802.88
948.105	5828.65
948.41	5776.44
948.716	5737.58
949.022	5694.86
949.327	5750.68
949.633	5669.1
949.938	5676.56
950.244	5708.65
950.549	5580.07
950.854	5584.58
951.16	5563.57
951.465	5542.33
951.77	5509.78
952.075	5475.66
952.38	5462.55
952.685	5439.73
952.99	5399.5
953.294	5397.25
953.599	5327.64
953.904	5340.98
954.209	5311.37
954.513	5277.47
954.818	5266.85
955.122	5223.69
955.426	5203.13
955.731	5181.21
956.035	5153.64
956.339	5153.86
956.643	5125.84
956.948	5093.52
957.252	5075.9
957.556	5072.06
957.86	5037.93
958.163	4999.29
958.467	4936.01
958.771	5008.33
959.075	4965.84
959.378	4903.25
959.682	4933.3
959.985	4912.06
960.289	4885.17
960.592	4864.6
960.896	4843.59
961.199	4759.52
961.502	4783.93
961.805	4734.66
962.108	4723.59
962.411	4692.4
962.714	4655.12
963.017	4626.64
963.32	4652.63
963.623	4628
963.926	4599.3
964.228	4559.75
964.531	4542.58
964.833	4535.12
965.136	4527.21
965.438	4528.34
965.741	4451.73
966.043	4484.95
966.345	4412.86
966.648	4419.19
966.95	4379.42
967.252	4354.11
967.554	4355.24
967.856	4312.53
968.158	4309.14
968.46	4321.12
968.761	4292.42
969.063	4249.93
969.365	4246.09
969.666	4176.71
969.968	4146.2
970.269	4134.91
970.571	4164.51
970.872	4144.62
971.174	4117.28
971.475	4072.99
971.776	4092.87
972.077	4040.22
972.378	4051.07
972.679	3985.53
972.98	4024.85
973.281	4013.78
973.582	3956.61
973.883	3954.57
974.183	3945.76
974.484	3931.52
974.785	3865.31
975.085	3893.78
975.386	3904.18
975.686	3847.91
975.986	3854.69
976.287	3859.66
976.587	3778.53
976.887	3803.61
977.187	3806.78
977.487	3769.04
977.787	3718.65
978.087	3745.54
978.387	3728.36
978.687	3664.64
978.987	3675.03
979.286	3637.07
979.586	3625.99
979.885	3648.36
980.185	3612.43
980.484	3513.23
980.784	3574.24
981.083	3562.49
981.382	3513.68
981.682	3502.15
981.981	3504.19
982.28	3496.5
982.579	3449.95
982.878	3457.64
983.177	3409.27
983.475	3427.13
983.774	3395.04
984.073	3365.66
984.372	3352.1
984.67	3338.77
984.969	3316.85
985.267	3344.64
985.566	3322.27
985.864	3298.77
986.162	3271.88
986.461	3282.5
986.759	3243.4
987.057	3212.67
987.355	3189.39
987.653	3231.2
987.951	3168.6
988.249	3182.84
988.547	3181.71
988.844	3131.54
989.142	3146.23
989.44	3107.14
989.737	3119.79
990.035	3074.37
990.332	3099.68
990.63	3075.72
990.927	3058.78
991.224	3017.87
991.521	2995.95
991.819	3021.04
992.116	3001.6
992.413	3042.05
992.71	2920.47
993.006	2923.19
993.303	2974.48
993.6	2903.3
993.897	2897.42
994.193	2851.32
994.49	2874.15
994.787	2844.32
995.083	2828.95
995.379	2814.26
995.676	2798.44
995.972	2786.69
996.268	2750.08
996.565	2773.13
996.861	2743.08
997.157	2754.38
997.453	2705.11
997.749	2686.36
998.044	2678.9
998.34	2688.84
998.636	2679.12
998.932	2662.85
999.227	2637.32
999.523	2630.99
999.818	2644.55
1000.114	2594.15
1000.409	2581.05
1000.704	2580.82
1001	2543.31
1001.295	2524.78
1001.59	2517.55
1001.885	2545.57
1002.18	2502.18
1002.475	2453.82
1002.77	2451.33
1003.065	2429.19
1003.359	2460.15
1003.654	2467.38
1003.949	2399.58
1004.243	2425.35
1004.538	2371.79
1004.832	2398
1005.127	2373.14
1005.421	2339.92
1005.715	2340.15
1006.009	2325.01
1006.304	2302.41
1006.598	2315.52
1006.892	2289.76
1007.186	2247.95
1007.48	2260.83
1007.773	2245.46
1008.067	2233.03
1008.361	2207.72
1008.655	2183.32
1008.948	2167.95
1009.242	2151.45
1009.535	2139.25
1009.829	2149.87
1010.122	2144.68
1010.415	2127.05
1010.708	2123.21
1011.001	2129.31
1011.295	2110.78
1011.588	2051.12
1011.881	2075.52
1012.173	2042.31
1012.466	2069.2
1012.759	2027.84
1013.052	2009.54
1013.344	1999.82
1013.637	1995.07
1013.93	1960.95
1014.222	1970.89
1014.514	1948.75
1014.807	1934.51
1015.099	1939.93
1015.391	1907.17
1015.683	1871.24
1015.976	1870.33
1016.268	1896.32
1016.56	1873.27
1016.851	1822.65
1017.143	1825.81
1017.435	1839.37
1017.727	1860.61
1018.018	1803.89
1018.31	1780.17
1018.602	1794.85
1018.893	1757.11
1019.185	1764.57
1019.476	1765.93
1019.767	1725.7
1020.058	1742.43
1020.35	1718.92
1020.641	1653.61
1020.932	1679.6
1021.223	1670.56
1021.514	1639.83
1021.804	1664.46
1022.095	1654.07
1022.386	1640.51
1022.677	1595.76
1022.967	1596.89
1023.258	1577.91
1023.548	1581.3
1023.839	1570.45
1024.129	1572.26
1024.419	1567.97
1024.709	1541.08
1025	1538.14
1025.29	1518.25
1025.58	1519.15
1025.87	1507.18
1026.16	1503.34
1026.449	1472.38
1026.739	1466.5
1027.029	1452.72
1027.319	1459.72
1027.608	1430.34
1027.898	1431.02
1028.187	1415.2
1028.477	1441.87
1028.766	1398.93
1029.055	1361.64
1029.344	1397.58
1029.634	1372.72
1029.923	1364.36
1030.212	1338.37
1030.501	1360.52
1030.79	1346.96
1031.078	1305.15
1031.367	1313.51
1031.656	1303.79
1031.945	1278.26
1032.233	1295.43
1032.522	1271.25
1032.81	1276.9
1033.099	1254.98
1033.387	1254.53
1033.675	1230.57
1033.963	1230.57
1034.251	1224.25
1034.54	1239.84
1034.828	1205.94
1035.116	1183.12
1035.403	1188.77
1035.691	1195.77
1035.979	1189.45
1036.267	1180.86
1036.554	1157.36
1036.842	1166.4
1037.129	1140.86
1037.417	1170.69
1037.704	1143.35
1037.992	1121.43
1038.279	1092.95
1038.566	1119.84
1038.853	1119.84
1039.14	1119.84
