Data from White_reflection_standard_FLMS001491_037.txt Node
Date: Tue Feb 07 10:32:02 GMT 2017
User: dcchb
Spectrometer: FLMS00149
Trigger mode: 0
Integration Time (sec): 2.000000E-2
Scans to average: 10
Electric dark correction enabled: true
Nonlinearity correction enabled: false
Boxcar width: 0
XAxis mode: Wavelengths
Number of Pixels in Spectrum: 2048
>>>>>Begin Spectral Data<<<<<
341.393	-14.9
341.776	-14.9
342.16	-14.9
342.543	-68.91
342.927	-61
343.31	-68.68
343.693	-67.78
344.077	-73.88
344.46	-60.55
344.843	-48.8
345.226	-58.06
345.61	-39.08
345.993	-22.36
346.376	-3.15
346.759	4.99
347.142	35.04
347.525	42.5
347.908	65.55
348.291	81.14
348.674	100.12
349.057	113.01
349.44	126.34
349.823	135.6
350.206	180.12
350.588	230.74
350.971	244.08
351.354	265.77
351.737	282.94
352.119	296.96
352.502	320.46
352.884	347.35
353.267	333.79
353.65	352.32
354.032	350.74
354.414	348.03
354.797	351.19
355.179	374.69
355.562	384.86
355.944	365.88
356.326	370.85
356.709	413.34
357.091	369.27
357.473	405.2
357.855	396.61
358.238	403.17
358.62	404.98
359.002	412.88
359.384	404.3
359.766	399.1
360.148	404.98
360.53	410.62
360.912	410.17
361.294	410.4
361.676	408.59
362.057	389.61
362.439	387.8
362.821	421.25
363.203	418.99
363.584	402.49
363.966	394.58
364.348	405.88
364.729	423.05
365.111	423.28
365.493	418.53
365.874	431.87
366.256	428.25
366.637	445.43
367.019	395.48
367.4	421.02
367.781	412.21
368.163	425.99
368.544	430.29
368.925	418.31
369.306	407.24
369.688	425.99
370.069	420.34
370.45	417.18
370.831	432.77
371.212	457.18
371.593	438.19
371.974	437.97
372.355	460.34
372.736	458.08
373.117	458.31
373.498	478.65
373.879	492.88
374.26	438.87
374.641	454.01
375.021	470.51
375.402	447.01
375.783	479.78
376.163	515.71
376.544	518.42
376.925	485.88
377.305	509.83
377.686	498.98
378.066	515.25
378.447	518.87
378.827	493.33
379.208	500.11
379.588	503.5
379.968	511.64
380.349	529.27
380.729	542.15
381.109	550.73
381.489	533.11
381.87	564.97
382.25	554.8
382.63	556.61
383.01	559.1
383.39	575.82
383.77	553.45
384.15	584.18
384.53	576.04
384.91	588.25
385.29	605.2
385.67	595.48
386.049	609.94
386.429	613.11
386.809	618.53
387.189	648.13
387.568	639.55
387.948	624.86
388.328	658.08
388.707	665.76
389.087	672.09
389.466	670.73
389.846	674.35
390.225	658.98
390.605	692.65
390.984	698.53
391.363	713.44
391.743	712.76
392.122	732.42
392.501	719.54
392.881	744.4
393.26	760.9
393.639	748.92
394.018	771.75
394.397	769.49
394.776	787.34
395.155	803.38
395.534	801.35
395.913	800.9
396.292	808.81
396.671	845.42
397.05	836.38
397.429	833.89
397.808	834.12
398.186	872.08
398.565	859.88
398.944	866.43
399.323	858.3
399.701	885.41
400.08	894.45
400.458	910.05
400.837	900.33
401.215	927.22
401.594	918.63
401.972	951.63
402.351	952.31
402.729	981.46
403.107	971.06
403.486	973.32
403.864	995.24
404.242	1002.25
404.62	1007.67
404.999	1053.55
405.377	1019.65
405.755	1069.36
406.133	1074.56
406.511	1089.03
406.889	1097.39
407.267	1105.07
407.645	1117.72
408.023	1157.5
408.401	1159.98
408.779	1163.37
409.156	1210.15
409.534	1190.49
409.912	1229.13
410.29	1230.26
410.667	1269.59
411.045	1277.95
411.422	1278.4
411.8	1318.4
412.178	1323.37
412.555	1340.77
412.933	1360.66
413.31	1361.56
413.687	1411.95
414.065	1430.03
414.442	1425.51
414.819	1447.21
415.197	1451.05
415.574	1486.98
415.951	1501.9
416.328	1519.3
416.705	1538.96
417.082	1550.48
417.46	1551.16
417.837	1604.04
418.214	1588.22
418.591	1604.49
418.967	1587.99
419.344	1634.1
419.721	1679.97
420.098	1655.79
420.475	1668.22
420.852	1726.75
421.228	1732.4
421.605	1704.83
421.982	1764.04
422.358	1784.83
422.735	1831.83
423.111	1802.23
423.488	1842.23
423.864	1858.27
424.241	1898.04
424.617	1916.57
424.994	1926.97
425.37	1936.23
425.746	1962
426.123	2005.16
426.499	2001.32
426.875	2030.47
427.251	2068.21
427.627	2101.65
428.003	2122.67
428.379	2176.91
428.756	2162.67
429.132	2220.07
429.507	2230.01
429.883	2293.97
430.259	2314.98
430.635	2354.53
431.011	2347.75
431.387	2422.1
431.763	2473.85
432.138	2459.16
432.514	2513.17
432.89	2529.67
433.265	2565.6
433.641	2587.52
434.016	2598.82
434.392	2694.41
434.767	2696.67
435.143	2718.59
435.518	2738.47
435.894	2789.77
436.269	2812.82
436.644	2890.79
437.02	2888.75
437.395	2923.78
437.77	2973.5
438.145	3029.54
438.52	3050.1
438.895	3067.5
439.271	3067.28
439.646	3135.98
440.021	3164
440.395	3222.53
440.77	3216.2
441.145	3239.7
441.52	3272.7
441.895	3250.1
442.27	3312.7
442.645	3317.22
443.019	3316.99
443.394	3375.97
443.769	3406.48
444.143	3369.64
444.518	3448.51
444.892	3464.1
445.267	3485.8
445.641	3519.02
446.016	3572.58
446.39	3613.48
446.764	3643.31
447.139	3656.19
447.513	3665.45
447.887	3650.31
448.262	3702.06
448.636	3763.98
449.01	3780.25
449.384	3828.61
449.758	3861.38
450.132	3910.65
450.506	3940.25
450.88	3965.56
451.254	3989.29
451.628	4027.7
452.002	4081.26
452.376	4083.97
452.75	4142.73
453.123	4181.15
453.497	4255.5
453.871	4264.99
454.244	4352.22
454.618	4428.37
454.992	4472.89
455.365	4476.96
455.739	4638.31
456.112	4612.77
456.486	4664.3
456.859	4719.21
457.232	4797.18
457.606	4804.18
457.979	4861.36
458.352	5005.53
458.725	5037.85
459.099	5082.82
459.472	5142.7
459.845	5235.58
460.218	5289.14
460.591	5300.21
460.964	5354.45
461.337	5457.27
461.71	5588.57
462.083	5678.51
462.456	5671.28
462.829	5698.85
463.201	5809.8
463.574	5822.01
463.947	5951.04
464.32	6055
464.692	6108.33
465.065	6142
465.438	6219.74
465.81	6341.99
466.183	6388.55
466.555	6521.65
466.928	6588.54
467.3	6530.69
467.672	6646.17
468.045	6891.13
468.417	6847.74
468.789	6897.91
469.161	7034.63
469.534	7155.76
469.906	7302.2
470.278	7395.3
470.65	7472.36
471.022	7623.54
471.394	7769.3
471.766	7814.95
472.138	7910.09
472.51	8069.86
472.882	8226.24
473.253	8332.9
473.625	8493.8
473.997	8671.65
474.369	8702.61
474.74	8812.66
475.112	8992.77
475.484	9133.33
475.855	9288.36
476.227	9313.67
476.598	9590.27
476.97	9621.23
477.341	9921.56
477.713	10063.03
478.084	10091.5
478.455	10398.16
478.827	10514.09
479.198	10850.58
479.569	10816
479.94	11149.33
480.311	11236.55
480.682	11495.53
481.053	11724.23
481.424	11955.41
481.795	12028.4
482.166	12203.08
482.537	12381.84
482.908	12674.94
483.279	12796.51
483.65	13021.37
484.021	13341.13
484.391	13412.77
484.762	13588.13
485.133	13714.91
485.503	13924.85
485.874	14219.08
486.244	14374.33
486.615	14592.17
486.985	14834.2
487.356	15075.32
487.726	15159.84
488.097	15460.85
488.467	15600.73
488.837	15912.82
489.207	15974.96
489.578	16313.71
489.948	16451.33
490.318	16790.99
490.688	16730.42
491.058	17026.91
491.428	17330.41
491.798	17459.22
492.168	17747.57
492.538	17899.66
492.908	18104.17
493.278	18285.86
493.648	18348.23
494.017	18656.02
494.387	18711.16
494.757	18889.01
495.126	19149.57
495.496	19138.72
495.866	19352.5
496.235	19513.63
496.605	19830
496.974	19944.57
497.344	20081.75
497.713	20184.79
498.082	20472.7
498.452	20622.3
498.821	20678.11
499.19	20855.96
499.559	20976.19
499.928	21092.34
500.298	21252.79
500.667	21512.22
501.036	21474.03
501.405	21831.98
501.774	21747.24
502.143	22108.59
502.512	22143.84
502.88	22306.77
503.249	22340.9
503.618	22513.09
503.987	22664.28
504.356	22879.41
504.724	22978.39
505.093	23068.11
505.462	23164.83
505.83	23426.52
506.199	23602.11
506.567	23910.57
506.936	23896.79
507.304	24234.63
507.672	24211.58
508.041	24386.72
508.409	24609.31
508.777	24847.04
509.145	24998.68
509.514	24988.74
509.882	25191.89
510.25	25285.45
510.618	25629.85
510.986	25692.67
511.354	25943.96
511.722	26140.57
512.09	26316.38
512.458	26276.39
512.826	26618.98
513.193	26814.22
513.561	27023.94
513.929	27103.48
514.297	27366.07
514.664	27491.95
515.032	27757.93
515.4	27956.34
515.767	28064.13
516.135	28304.58
516.502	28091.25
516.869	28756.09
517.237	28695.53
517.604	28861.18
517.972	29210.32
518.339	29412.57
518.706	29462.29
519.073	29635.62
519.44	29785.67
519.808	30282.38
520.175	30263.4
520.542	30663.16
520.909	30921.69
521.276	30815.48
521.643	31159.19
522.009	31409.13
522.376	31758.95
522.743	31885.28
523.11	32284.14
523.477	32508.76
523.843	32685.48
524.21	32898.58
524.577	33264.68
524.943	33285.69
525.31	33549.64
525.676	33957.09
526.043	34171.55
526.409	34344.87
526.776	34634.36
527.142	34745.99
527.508	35101.46
527.874	35396.15
528.241	35523.37
528.607	35570.15
528.973	35976.02
529.339	36081.33
529.705	36493.52
530.071	36619.16
530.437	36694.19
530.803	37039.94
531.169	37118.36
531.535	37246.72
531.901	37379.82
532.267	37571.91
532.632	37805.12
532.998	37994.27
533.364	38272
533.73	38348.16
534.095	38613.01
534.461	38870.4
534.826	39017.29
535.192	38981.81
535.557	39443.72
535.923	39393.78
536.288	39569.82
536.653	39837.84
537.019	39822.92
537.384	39875.12
537.749	40136.13
538.114	40191.73
538.479	40233.76
538.845	40504.03
539.21	40475.33
539.575	40752.39
539.94	40772.05
540.305	41072.83
540.67	41169.55
541.034	41287.06
541.399	41368.19
541.764	41654.06
542.129	41738.8
542.494	41793.04
542.858	42115.06
543.223	42079.59
543.587	42339.69
543.952	42257.21
544.316	42512.12
544.681	42444.77
545.045	42893.8
545.41	43030.75
545.774	42940.58
546.138	42974.48
546.503	43254.47
546.867	43390.74
547.231	43810.84
547.595	43730.39
547.959	43927.22
548.324	44110.72
548.688	44011.29
549.052	44192.3
549.416	44312.07
549.779	44446.98
550.143	44555.23
550.507	44811.72
550.871	44973.97
551.235	44884.94
551.599	45302.33
551.962	45405.83
552.326	45643.79
552.689	45821.63
553.053	45662.99
553.417	45837.9
553.78	46219.14
554.143	46107.28
554.507	46437.89
554.87	46549.07
555.234	46855.28
555.597	46713.14
555.96	46843.3
556.323	47108.38
556.686	47153.12
557.05	47503.85
557.413	47576.16
557.776	47636.05
558.139	47867.91
558.502	48161.01
558.865	48136.83
559.228	48481.9
559.59	48687.55
559.953	48744.04
560.316	48970.25
560.679	48982
561.041	49210.25
561.404	49376.34
561.767	49628.54
562.129	49452.95
562.492	49941.75
562.854	50009.77
563.217	49985.82
563.579	50226.26
563.941	50383.55
564.304	50520.04
564.666	50805.91
565.028	50770.2
565.39	50964.78
565.753	51194.6
566.115	51284.09
566.477	51395.5
566.839	51553.23
567.201	51774.02
567.563	51794.58
567.925	51964.3
568.287	52051.07
568.648	52052.88
569.01	52218.75
569.372	52423.95
569.734	52371.97
570.095	52573.32
570.457	52730.61
570.819	52789.59
571.18	52844.05
571.542	52981.67
571.903	53054.66
572.265	53206.98
572.626	53236.58
572.987	53215.34
573.349	53355.67
573.71	53498.49
574.071	53578.94
574.432	53714.99
574.794	53807.41
575.155	53906.17
575.516	53706.85
575.877	53966.96
576.238	53982.55
576.599	54032.04
576.96	54138.48
577.32	54100.06
577.681	54194.52
578.042	54256.67
578.403	54275.2
578.763	54345.03
579.124	54448.98
579.485	54500.28
579.845	54557.22
580.206	54519.48
580.566	54504.12
580.927	54591.12
581.287	54702.53
581.648	54587.96
582.008	54667.96
582.368	54726.48
582.728	54631.35
583.089	54776.65
583.449	54702.08
583.809	54730.55
584.169	54834.5
584.529	54753.38
584.889	54910.66
585.249	54724.68
585.609	54733.04
585.969	54893.03
586.329	54770.1
586.688	54833.15
587.048	54829.76
587.408	54773.94
587.768	54819.82
588.127	54754.51
588.487	54705.92
588.846	54970.55
589.206	54701.63
589.565	54795.86
589.925	54952.92
590.284	54848.52
590.643	54834.05
591.003	54916.99
591.362	54999.47
591.721	54925.12
592.08	54974.61
592.44	55006.03
592.799	55017.32
593.158	54924.45
593.517	55039.24
593.876	55002.18
594.235	54982.07
594.593	55036.31
594.952	55074.05
595.311	55020.04
595.67	55081.5
596.029	55152.91
596.387	55213.48
596.746	55135.29
597.104	55102.97
597.463	55074.95
597.822	55195.17
598.18	55146.36
598.538	55110.43
598.897	55237.88
599.255	54977.33
599.613	55466.58
599.972	55282.18
600.33	55314.27
600.688	55267.49
601.046	55294.61
601.404	55449.4
601.762	55322.4
602.12	55448.5
602.478	55480.14
602.836	55511.1
603.194	55402.17
603.552	55460.93
603.91	55394.26
604.268	55536.86
604.625	55381.38
604.983	55570.08
605.341	55490.08
605.698	55676.29
606.056	55615.95
606.413	55702.05
606.771	55683.52
607.128	55770.53
607.485	55604.65
607.843	55629.06
608.2	55826.79
608.557	55918.09
608.914	55750.86
609.272	55898.88
609.629	56023.85
609.986	56077.64
610.343	55868.6
610.7	56107.47
611.057	56022.5
611.414	56071.76
611.771	56057.3
612.127	56195.82
612.484	56122.61
612.841	56218.42
613.198	56135.04
613.554	56167.12
613.911	56264.3
614.267	56293
614.624	56252.77
614.98	56281.7
615.337	56419.32
615.693	56299.1
616.05	56371.41
616.406	56390.4
616.762	56414.8
617.118	56393.11
617.475	56433.56
617.831	56466.1
618.187	56383.39
618.543	56497.29
618.899	56573.67
619.255	56543.61
619.611	56466.55
619.967	56604.63
620.323	56635.81
620.678	56619.54
621.034	56543.61
621.39	56587.45
621.746	56484.4
622.101	56775.02
622.457	56525.08
622.812	56576.61
623.168	56647.11
623.523	56600.56
623.879	56714.46
624.234	56572.76
624.589	56674.91
624.945	56615.7
625.3	56644.4
625.655	56688.69
626.01	56613.67
626.365	56662.25
626.72	56645.08
627.075	56643.95
627.43	56523.05
627.785	56517.4
628.14	56580
628.495	56613.67
628.85	56608.92
629.205	56485.99
629.559	56617.51
629.914	56424.07
630.269	56529.83
630.623	56403.73
630.978	56340.91
631.332	56475.59
631.687	56530.28
632.041	56408.47
632.396	56412.54
632.75	56278.31
633.104	56339.32
633.459	56177.07
633.813	56229.95
634.167	56169.84
634.521	56151.76
634.875	56203.06
635.229	56097.75
635.583	55989.05
635.937	55985.89
636.291	55967.36
636.645	55947.47
636.999	55873.12
637.352	55997.19
637.706	55829.28
638.06	55855.04
638.413	55862.27
638.767	55743.86
639.121	55782.28
639.474	55624.09
639.828	55636.97
640.181	55599.91
640.534	55673.58
640.888	55589.29
641.241	55441.95
641.594	55488.05
641.947	55516.52
642.301	55427.48
642.654	55413.7
643.007	55409.18
643.36	55405.79
643.713	55310.65
644.066	55339.12
644.419	55196.53
644.771	55102.29
645.124	54746.37
645.477	54645.81
645.83	54515.42
646.182	54395.87
646.535	54343.67
646.888	54420.5
647.24	54192.26
647.593	54384.12
647.945	54261.64
648.298	54061.87
648.65	54065.03
649.002	54082.66
649.355	54023.45
649.707	54043.11
650.059	54153.84
650.411	54477.68
650.763	54442.42
651.115	54790.66
651.467	54638.35
651.819	54660.5
652.171	54594.06
652.523	54538.02
652.875	54506.6
653.227	54401.3
653.578	54614.17
653.93	54468.19
654.282	54320.39
654.633	54200.85
654.985	54279.26
655.337	54278.81
655.688	54302.32
656.039	54350.68
656.391	54089.67
656.742	54157.46
657.094	54093.73
657.445	54267.51
657.796	54159.04
658.147	54124.47
658.498	54041.53
658.849	54150.68
659.2	54163.11
659.551	54067.29
659.902	54053.06
660.253	53935.09
660.604	53958.82
660.955	53833.17
661.306	54004.92
661.656	53896.68
662.007	53887.64
662.358	53932.16
662.708	53914.75
663.059	53819.84
663.409	53723.35
663.76	53860.97
664.11	53817.36
664.461	53789.33
664.811	53786.62
665.161	53806.06
665.511	53704.36
665.862	53701.88
666.212	53850.12
666.562	53764.02
666.912	53650.13
667.262	53649.9
667.612	53610.58
667.962	53644.71
668.312	53578.49
668.662	53677.25
669.011	53562.9
669.361	53500.08
669.711	53508.21
670.06	53483.58
670.41	53434.32
670.76	53407.65
671.109	53507.08
671.459	53366.07
671.808	53399.74
672.157	53376.01
672.507	53214.89
672.856	53244.94
673.205	53251.27
673.554	53284.04
673.904	53118.62
674.253	53269.8
674.602	53230.7
674.951	52764.05
675.3	52616.48
675.649	53075
675.998	53051.5
676.346	53135.79
676.695	53099.86
677.044	52969.92
677.393	53085.4
677.741	53091.5
678.09	52889.92
678.438	52829.81
678.787	52889.7
679.135	52921.79
679.484	52684.28
679.832	52722.47
680.181	52543.27
680.529	52594.34
680.877	52513.66
681.225	52564.73
681.573	52719.98
681.922	52502.81
682.27	52356.83
682.618	52428.47
682.966	52371.07
683.314	52398.64
683.661	52278.19
684.009	52082.49
684.357	51903.06
684.705	51953
685.053	52036.16
685.4	51924.07
685.748	51754.36
686.095	51755.94
686.443	51681.82
686.79	51598.66
687.138	51647.7
687.485	51613.8
687.832	51418.78
688.18	51447.93
688.527	51398.21
688.874	51252.9
689.221	51174.49
689.568	51080.48
689.915	50974.27
690.262	50894.27
690.609	50838.45
690.956	50698.34
691.303	50671.68
691.65	50469.65
691.997	50548.74
692.344	50193.5
692.69	50255.42
693.037	50335.87
693.383	50019.49
693.73	50115.08
694.077	49916.22
694.423	49859.95
694.769	49824.69
695.116	49631.7
695.462	49530.69
695.808	49515.77
696.155	49510.35
696.501	49269
696.847	49256.35
697.193	48981.1
697.539	48992.17
697.885	48764.16
698.231	48737.72
698.577	48734.1
698.923	48582.69
699.269	48424.28
699.614	48201.01
699.96	48249.82
700.306	48281.46
700.651	48028.36
700.997	47859.77
701.342	47893.9
701.688	47794.46
702.033	47626.11
702.379	47568.93
702.724	47615.49
703.069	47661.13
703.415	47022.51
703.76	47112.45
704.105	47141.6
704.45	47031.32
704.795	46708.16
705.14	46653.7
705.485	46649.41
705.83	46447.15
706.175	46489.41
706.52	46399.7
706.865	46174.62
707.209	46175.07
707.554	46042.19
707.899	46072.25
708.243	45787.06
708.588	45666.38
708.932	45551.36
709.277	45535.09
709.621	45563.34
709.966	45173.29
710.31	45254.64
710.654	44941.66
710.998	45081.09
711.342	45091.48
711.687	44952.5
712.031	44727.43
712.375	44617.6
712.719	44729.23
713.063	44565.4
713.407	44581.44
713.75	44466.19
714.094	44360.88
714.438	44128.8
714.782	44279.98
715.125	43881.57
715.469	44067.1
715.812	43899.42
716.156	43556.38
716.499	43767.9
716.843	43945.07
717.186	43413.34
717.53	43659.43
717.873	43559.55
718.216	43420.79
718.559	43202.72
718.902	42906.23
719.246	43177.86
719.589	42829.17
719.932	42839.57
720.275	42729.06
720.617	42755.95
720.96	42733.58
721.303	42643.64
721.646	42741.49
721.989	42405.68
722.331	42555.51
722.674	42333.36
723.016	42459.46
723.359	42241.39
723.701	42263.31
724.044	41939.93
724.386	41844.11
724.729	42012.02
725.071	41772.7
725.413	41806.15
725.755	41700.16
726.097	41620.16
726.439	41320.06
726.782	41420.39
727.124	41577.68
727.465	41165.03
727.807	41326.61
728.149	41255.2
728.491	41129.33
728.833	41152.15
729.175	40962.78
729.516	40966.17
729.858	40841.2
730.199	40843.46
730.541	40806.4
730.882	40822.67
731.224	40697.02
731.565	40399.86
731.906	40686.63
732.248	40533.41
732.589	40319.18
732.93	40247.32
733.271	40258.62
733.612	40225.4
733.953	40248.45
734.294	39892.52
734.635	39874.9
734.976	39956.7
735.317	39763.94
735.658	39834.9
735.999	39695.47
736.339	39626.77
736.68	39784.5
737.021	39496.6
737.361	39426.1
737.702	39715.81
738.042	39482.82
738.383	39205.99
738.723	39385.42
739.063	39089.16
739.404	39097.52
739.744	39102.94
740.084	39040.34
740.424	39016.62
740.764	38864.75
741.104	38930.06
741.444	38710.86
741.784	38631.99
742.124	38714.93
742.464	38719
742.804	38549.06
743.143	38584.76
743.483	38439.91
743.823	38259.35
744.162	38226.81
744.502	38126.7
744.841	38064.32
745.181	38218.9
745.52	37935.74
745.86	38056.64
746.199	37971.22
746.538	37739.36
746.877	37910.2
747.216	37897.55
747.556	37596.54
747.895	37555.86
748.234	37575.3
748.573	37465.92
748.911	37560.16
749.25	37543.21
749.589	37272.48
749.928	37331.69
750.267	37185.48
750.605	37026.61
750.944	37228.41
751.283	36849.44
751.621	37077.68
751.96	36683.12
752.298	36589.33
752.636	36747.52
752.975	36418.04
753.313	36432.73
753.651	36529
753.989	36312.28
754.327	36190.93
754.666	35973.53
755.004	36060.76
755.342	36013.76
755.679	35853.76
756.017	35711.84
756.355	35769.02
756.693	35631.39
757.031	35620.55
757.368	35319.31
757.706	35541.23
758.044	35267.11
758.381	35326.99
758.719	35038.19
759.056	35034.35
759.394	34964.97
759.731	34684.3
760.068	34750.29
760.405	34552.78
760.743	34520.24
761.08	34580.35
761.417	34209.96
761.754	34103.75
762.091	34100.13
762.428	34049.29
762.765	33820.82
763.102	33911.21
763.438	33748.96
763.775	33642.97
764.112	33622.86
764.449	33566.36
764.785	33345.8
765.122	33200.95
765.458	33205.24
765.795	33085.47
766.131	32958.92
766.467	32802.99
766.804	32730.68
767.14	32626.73
767.476	32529.78
767.812	32344.25
768.148	32381.31
768.485	32202.78
768.821	31967.08
769.157	31938.16
769.492	31906.97
769.828	31682.8
770.164	31572.29
770.5	31474.67
770.836	31427.89
771.171	31265.18
771.507	31266.76
771.842	31062.02
772.178	31017.96
772.513	30933.44
772.849	30821.12
773.184	30523.28
773.519	30667.23
773.855	30569.83
774.19	30341.59
774.525	30202.84
774.86	30269.95
775.195	30062.73
775.53	29912.22
775.865	29864.09
776.2	29570.31
776.535	29326.25
776.87	29421.61
777.205	29281.73
777.539	29189.3
777.874	29185.24
778.209	29051.68
778.543	28941.17
778.878	28774.17
779.212	28774.4
779.547	28565.82
779.881	28575.99
780.215	28361.08
780.55	28586.38
780.884	28279.27
781.218	28213.74
781.552	28157.24
781.886	27972.61
782.22	27834.76
782.554	27755.44
782.888	27500.99
783.222	27341.44
783.556	27275.68
783.889	27233.2
784.223	27086.99
784.557	26986.88
784.89	27016.93
785.224	26909.36
785.557	26825.3
785.891	26597.96
786.224	26613.55
786.558	26530.39
786.891	26310.73
787.224	26181.47
787.557	26265.54
787.891	26181.47
788.224	26048.14
788.557	26061.02
788.89	26044.98
789.223	25890.41
789.556	25622.84
789.888	25654.71
790.221	25499
790.554	25363.87
790.887	25226.02
791.219	25058.34
791.552	25167.49
791.884	25133.59
792.217	24943.99
792.549	24864.22
792.882	24662.42
793.214	24541.52
793.546	24681.4
793.879	24482.08
794.211	24346.94
794.543	24455.64
794.875	24317.79
795.207	24249.55
795.539	24168.64
795.871	24127.74
796.203	23947.63
796.535	23765.94
796.867	23748.54
797.198	23763.46
797.53	23680.07
797.862	23459.06
798.193	23471.04
798.525	23365.95
798.856	23473.3
799.188	23200.31
799.519	23106.07
799.85	23008.45
800.182	23094.55
800.513	22984.72
800.844	22738.4
801.175	22923.48
801.506	22892.07
801.837	22802.13
802.168	22629.48
802.499	22526.43
802.83	22368.92
803.161	22360.1
803.491	22357.62
803.822	22350.84
804.153	22300.22
804.483	22086.67
804.814	22064.74
805.145	21900
805.475	21928.25
805.805	21874.92
806.136	21899.1
806.466	21799.44
806.796	21748.82
807.126	21605.32
807.457	21549.96
807.787	21544.31
808.117	21495.95
808.447	21359
808.777	21395.38
809.107	21384.54
809.436	21150.19
809.766	21252.11
810.096	21041.72
810.426	20995.39
810.755	20931.44
811.085	20944.32
811.414	20904.32
811.744	20688.28
812.073	20680.37
812.403	20726.7
812.732	20569.87
813.061	20560.6
813.39	20575.52
813.719	20290.33
814.049	20484.22
814.378	20361.74
814.707	20208.52
815.036	20222.31
815.365	20089.2
815.693	20000.39
816.022	19923.56
816.351	19963.33
816.68	19865.03
817.008	19884.92
817.337	19740.51
817.665	19768.53
817.994	19737.35
818.322	19754.52
818.651	19579.61
818.979	19584.36
819.307	19644.47
819.636	19573.06
819.964	19368.32
820.292	19511.14
820.62	19385.27
820.948	19392.95
821.276	19366.51
821.604	19305.5
821.932	19436.11
822.259	19352.27
822.587	19392.27
822.915	19331.48
823.243	19373.74
823.57	19266.85
823.898	19323.8
824.225	19216.23
824.553	19232.28
824.88	19262.33
825.207	19318.83
825.535	19255.78
825.862	19439.73
826.189	19231.15
826.516	19401.99
826.843	19375.32
827.17	19300.52
827.497	19370.13
827.824	19281.77
828.151	19316.57
828.478	19261.65
828.805	19297.59
829.131	19279.06
829.458	19173.75
829.785	19148.66
830.111	19106.4
830.438	19181.88
830.764	19222.11
831.09	19223.24
831.417	18998.38
831.743	19199.06
832.069	19208.32
832.395	19060.53
832.722	19089
833.048	19099.62
833.374	19078.16
833.7	19041.77
834.026	18998.84
834.351	19042.23
834.677	19043.13
835.003	19044.71
835.329	18948.67
835.654	18951.61
835.98	18800.2
836.306	18837.26
836.631	18809.92
836.956	18836.58
837.282	18843.13
837.607	18703.48
837.932	18686.08
838.258	18620.54
838.583	18639.75
838.908	18546.65
839.233	18537.15
839.558	18505.74
839.883	18367.89
840.208	18430.26
840.533	18331.06
840.858	18358.4
841.182	18406.08
841.507	18370.15
841.832	18226.2
842.156	18140.55
842.481	18256.03
842.805	18148.24
843.13	18117.73
843.454	18043.38
843.778	17961.58
844.103	17940.79
844.427	17964.06
844.751	17952.99
845.075	17829.83
845.399	17827.79
845.723	17731.3
846.047	17737.85
846.371	17617.63
846.695	17540.8
847.019	17357.3
847.343	17394.81
847.666	17257.41
847.99	17231.43
848.313	17211.76
848.637	17114.14
848.96	17112.33
849.284	16991.21
849.607	16844.32
849.931	16895.39
850.254	16597.54
850.577	16565
850.9	16547.6
851.223	16532.91
851.546	16420.37
851.869	16237.1
852.192	16528.85
852.515	16222.41
852.838	16126.6
853.161	16123.43
853.483	16106.03
853.806	16007.73
854.129	15956.88
854.451	15920.73
854.774	15884.12
855.096	15789.43
855.419	15802.76
855.741	15738.58
856.063	15694.52
856.385	15675.31
856.708	15561.41
857.03	15423.11
857.352	15458.82
857.674	15546.95
857.996	15398.03
858.318	15318.26
858.64	15320.97
858.961	15307.41
859.283	15217.92
859.605	15145.15
859.926	15156.68
860.248	15126.17
860.57	15090.69
860.891	14993.29
861.212	14956.46
861.534	14916.01
861.855	14916.23
862.176	14962.78
862.498	14895.67
862.819	14898.38
863.14	14795.78
863.461	14668.78
863.782	14754.65
864.103	14623.36
864.424	14694.99
864.745	14769.12
865.065	14612.06
865.386	14576.58
865.707	14575.22
866.027	14527.99
866.348	14542.68
866.668	14486.19
866.989	14369.81
867.309	14351.05
867.63	14430.82
867.95	14314.21
868.27	14245.52
868.59	14282.58
868.91	14252.75
869.23	14265.18
869.55	14133.2
869.87	14233.31
870.19	14146.08
870.51	14182.01
870.83	14153.99
871.15	14053.43
871.469	14053.2
871.789	14063.6
872.109	14095.24
872.428	13987.67
872.748	14059.08
873.067	14050.94
873.386	13992.19
873.706	13976.82
874.025	13887.33
874.344	13819.99
874.663	13892.53
874.982	13851.18
875.301	13782.25
875.62	13761.23
875.939	13735.47
876.258	13691.41
876.577	13728.01
876.896	13737.73
877.214	13550.39
877.533	13616.61
877.852	13635.81
878.17	13612.54
878.489	13607.11
878.807	13588.13
879.125	13593.78
879.444	13536.16
879.762	13453.9
880.08	13494.57
880.398	13419.1
880.716	13399.21
881.034	13305.2
881.352	13316.95
881.67	13298.2
881.988	13284.86
882.306	13296.84
882.624	13163.96
882.941	13201.25
883.259	13138.88
883.577	13160.8
883.894	13043.06
884.212	13129.84
884.529	13104.75
884.846	12999.45
885.164	13010.75
885.481	12944.53
885.798	13000.35
886.115	12879.68
886.432	12849.17
886.75	12863.63
887.067	12772.11
887.383	12723.07
887.7	12789.96
888.017	12660.7
888.334	12681.04
888.651	12588.61
888.967	12563.07
889.284	12523.98
889.6	12495.28
889.917	12403.98
890.233	12480.14
890.55	12459.57
890.866	12445.11
891.182	12405.79
891.498	12266.58
891.815	12219.81
892.131	12307.94
892.447	12200.82
892.763	12160.37
893.079	12139.13
893.395	12119.7
893.71	12083.31
894.026	12020.26
894.342	12006.25
894.657	11919.93
894.973	11873.6
895.289	11888.29
895.604	11944.56
895.92	11818.23
896.235	11665.7
896.55	11731.23
896.865	11660.95
897.181	11604.91
897.496	11631.57
897.811	11519.94
898.126	11519.26
898.441	11439.94
898.756	11431.13
899.071	11363.33
899.386	11381.41
899.7	11295.08
900.015	11276.1
900.33	11150.91
900.644	11101.19
900.959	11187.74
901.273	11078.37
901.588	11023
901.902	10950.23
902.216	10938.26
902.531	10939.84
902.845	10891.93
903.159	10873.4
903.473	10747.98
903.787	10799.96
904.101	10745.95
904.415	10651.94
904.729	10611.94
905.042	10580.98
905.356	10546.4
905.67	10506.86
905.984	10506.18
906.297	10472.96
906.611	10343.47
906.924	10384.6
907.237	10277.03
907.551	10371.94
907.864	10275.45
908.177	10213.98
908.491	10142.8
908.804	10127.21
909.117	10038.85
909.43	10004.04
909.743	10025.29
910.056	9934.67
910.368	9985.74
910.681	9918.4
910.994	9849.92
911.307	9776.03
911.619	9673.66
911.932	9777.61
912.244	9693.77
912.557	9670.27
912.869	9592.53
913.181	9524.28
913.494	9545.53
913.806	9427.79
914.118	9432.08
914.43	9337.4
914.742	9416.72
915.054	9274.35
915.366	9288.13
915.678	9253.33
915.99	9245.42
916.302	9166.55
916.613	9131.53
916.925	9075.03
917.236	9074.13
917.548	9030.74
917.859	8976.05
918.171	8927.91
918.482	8854.02
918.794	8836.17
919.105	8880.91
919.416	8757.75
919.727	8794.81
920.038	8679.79
920.349	8638.66
920.66	8676.85
920.971	8587.13
921.282	8586
921.593	8487.93
921.903	8433.92
922.214	8420.81
922.525	8373.13
922.835	8368.83
923.146	8361.15
923.456	8292.23
923.767	8306.01
924.077	8233.02
924.387	8228.72
924.697	8157.77
925.008	8118.22
925.318	8105.79
925.628	8102.85
925.938	8046.13
926.248	7942.63
926.558	7968.62
926.867	7853.59
927.177	7872.35
927.487	7823.31
927.796	7727.95
928.106	7756.65
928.416	7745.12
928.725	7741.96
929.034	7634.62
929.344	7666.48
929.653	7585.13
929.962	7512.81
930.271	7549.42
930.581	7519.14
930.89	7499.93
931.199	7423.1
931.508	7401.63
931.817	7358.69
932.125	7311.23
932.434	7365.7
932.743	7294.29
933.051	7252.03
933.36	7220.84
933.669	7161.18
933.977	7094.97
934.286	7153.27
934.594	7091.58
934.902	7077.57
935.21	6982.66
935.519	7050.45
935.827	6917.12
936.135	6908.99
936.443	6838.48
936.751	6789.89
937.059	6812.72
937.367	6772.04
937.674	6750.12
937.982	6755.09
938.29	6647.75
938.597	6712.61
938.905	6590.58
939.213	6619.95
939.52	6537.24
939.827	6534.76
940.135	6497.47
940.442	6487.08
940.749	6485.72
941.056	6487.98
941.363	6412.73
941.67	6377.7
941.977	6366.85
942.284	6340.86
942.591	6287.98
942.898	6290.24
943.205	6278.95
943.511	6165.28
943.818	6208.89
944.125	6149.23
944.431	6080.98
944.738	6047.31
945.044	6086.41
945.35	6060.65
945.657	6005.05
945.963	6040.99
946.269	5952.17
946.575	5957.82
946.881	5904.72
947.187	5883.48
947.493	5830.82
947.799	5789.01
948.105	5807.32
948.41	5743.82
948.716	5727.1
949.022	5742.01
949.327	5692.07
949.633	5634.67
949.938	5648.91
950.244	5645.97
950.549	5559.42
950.854	5630.83
951.16	5548.79
951.465	5533.43
951.77	5490.27
952.075	5420.66
952.38	5428.57
952.685	5462.92
952.99	5373.21
953.294	5434.45
953.599	5370.72
953.904	5390.83
954.209	5292.3
954.513	5272.42
954.818	5273.55
955.122	5288.01
955.426	5198.75
955.731	5212.53
956.035	5182.25
956.339	5184.96
956.643	5158.07
956.948	5063.61
957.252	5079.2
957.556	5032.88
957.86	5056.38
958.163	5008.24
958.467	4998.53
958.771	4908.36
959.075	4949.71
959.378	4928.25
959.682	4930.28
959.985	4857.51
960.289	4851.64
960.592	4851.19
960.896	4800.34
961.199	4825.65
961.502	4804.86
961.805	4757.4
962.108	4694.35
962.411	4688.48
962.714	4670.4
963.017	4657.97
963.32	4676.5
963.623	4581.59
963.926	4583.62
964.228	4583.17
964.531	4552.44
964.833	4581.36
965.136	4525.77
965.438	4491.2
965.741	4444.64
966.043	4455.04
966.345	4427.02
966.648	4392.89
966.95	4405.32
967.252	4400.12
967.554	4402.61
967.856	4377.75
968.158	4298.21
968.46	4308.38
968.761	4217.3
969.063	4265.66
969.365	4249.39
969.666	4175.72
969.968	4198.32
970.269	4148.61
970.571	4169.85
970.872	4177.08
971.174	4160.81
971.475	4103.64
971.776	4146.12
972.077	4073.13
972.378	4081.71
972.679	4073.13
972.98	4028.16
973.281	3999.46
973.582	3990.64
973.883	3948.38
974.183	3944.77
974.484	3960.36
974.785	3914.49
975.085	3882.85
975.386	3860.03
975.686	3918.78
975.986	3873.36
976.287	3846.47
976.587	3796.75
976.887	3814.38
977.187	3787.26
977.487	3782.29
977.787	3721.72
978.087	3721.5
978.387	3706.58
978.687	3676.53
978.987	3662.74
979.286	3662.74
979.586	3660.48
979.885	3618.22
980.185	3566.93
980.484	3571.45
980.784	3568.96
981.083	3564.44
981.382	3537.32
981.682	3526.02
981.981	3502.07
982.28	3458.91
982.579	3484.44
982.878	3486.25
983.177	3441.51
983.475	3432.24
983.774	3383.2
984.073	3399.47
984.372	3374.16
984.67	3373.03
984.969	3345.01
985.267	3350.21
985.566	3309.08
985.864	3333.03
986.162	3303.43
986.461	3251.45
986.759	3279.25
987.057	3214.17
987.355	3221.4
987.653	3168.29
987.951	3218.01
988.249	3166.26
988.547	3170.33
988.844	3162.87
989.142	3153.6
989.44	3105.7
989.737	3055.75
990.035	3047.62
990.332	3091.23
990.63	3048.3
990.927	3020.05
991.224	3072.93
991.521	3028.64
991.819	2990.9
992.116	2983.44
992.413	2973.95
992.71	2934.17
993.006	2977.56
993.303	2940.73
993.6	2906.15
993.897	2934.63
994.193	2925.13
994.49	2865.93
994.787	2828.64
995.083	2880.84
995.379	2840.39
995.676	2783.44
995.972	2787.51
996.268	2766.27
996.565	2766.04
996.861	2746.83
997.157	2724.91
997.453	2733.73
997.749	2748.42
998.044	2680.62
998.34	2667.06
998.636	2680.4
998.932	2629.78
999.227	2609.21
999.523	2644.24
999.818	2624.58
1000.114	2635.65
1000.409	2595.88
1000.704	2575.31
1001	2556.56
1001.295	2522.89
1001.59	2534.86
1001.885	2555.43
1002.18	2525.82
1002.475	2457.8
1002.77	2455.32
1003.065	2418.48
1003.359	2434.53
1003.654	2406.73
1003.949	2437.92
1004.243	2385.94
1004.538	2371.7
1004.832	2420.74
1005.127	2337.58
1005.421	2351.59
1005.715	2344.59
1006.009	2313.85
1006.304	2300.97
1006.598	2285.15
1006.892	2251.93
1007.186	2271.37
1007.48	2250.58
1007.773	2269.33
1008.067	2215.55
1008.361	2199.28
1008.655	2185.72
1008.948	2206.06
1009.242	2193.4
1009.535	2180.3
1009.829	2178.94
1010.122	2154.53
1010.415	2136.68
1010.708	2118.83
1011.001	2093.52
1011.295	2105.95
1011.588	2070.24
1011.881	2040.64
1012.173	2081.32
1012.466	2054.65
1012.759	2031.83
1013.052	2028.44
1013.344	2016.46
1013.637	1994.09
1013.93	1988.21
1014.222	1979.17
1014.514	1951.6
1014.807	1943.92
1015.099	1924.26
1015.391	1923.81
1015.683	1897.59
1015.976	1877.7
1016.268	1865.05
1016.56	1839.74
1016.851	1868.44
1017.143	1836.12
1017.435	1838.38
1017.727	1834.32
1018.018	1821.44
1018.31	1813.07
1018.602	1818.72
1018.893	1776.69
1019.185	1785.73
1019.476	1750.7
1019.767	1749.12
1020.058	1733.75
1020.35	1693.3
1020.641	1715.22
1020.932	1685.62
1021.223	1660.76
1021.514	1681.78
1021.804	1654.21
1022.095	1619.41
1022.386	1628.67
1022.677	1630.93
1022.967	1582.57
1023.258	1577.37
1023.548	1596.58
1023.839	1590.71
1024.129	1604.49
1024.419	1609.01
1024.709	1553.65
1025	1534.89
1025.29	1506.64
1025.58	1528.11
1025.87	1509.58
1026.16	1482.24
1026.449	1493.08
1026.739	1479.07
1027.029	1469.58
1027.319	1430.94
1027.608	1468.22
1027.898	1437.04
1028.187	1417.38
1028.477	1423.25
1028.766	1397.04
1029.055	1393.42
1029.344	1368.57
1029.634	1373.09
1029.923	1346.19
1030.212	1348.91
1030.501	1362.92
1030.79	1343.71
1031.078	1333.09
1031.367	1365.18
1031.656	1285.86
1031.945	1298.51
1032.233	1277.49
1032.522	1300.54
1032.81	1273.65
1033.099	1275.91
1033.387	1265.29
1033.675	1253.31
1033.963	1228.68
1034.251	1248.12
1034.54	1225.07
1034.828	1199.53
1035.116	1213.09
1035.403	1200.66
1035.691	1207.89
1035.979	1196.59
1036.267	1129.93
1036.554	1157.5
1036.842	1137.16
1037.129	1171.06
1037.417	1128.8
1037.704	1136.48
1037.992	1130.61
1038.279	1119.53
1038.566	1100.78
1038.853	1100.78
1039.14	1100.78
