Data from white_steel_sheet_FLMS001491_018.txt Node
Date: Tue Feb 07 10:57:28 GMT 2017
User: dcchb
Spectrometer: FLMS00149
Trigger mode: 0
Integration Time (sec): 2.000000E-2
Scans to average: 10
Electric dark correction enabled: true
Nonlinearity correction enabled: false
Boxcar width: 0
XAxis mode: Wavelengths
Number of Pixels in Spectrum: 2048
>>>>>Begin Spectral Data<<<<<
341.393	8.66
341.776	8.66
342.16	8.66
342.543	-54.62
342.927	-56.2
343.31	-74.96
343.693	-79.02
344.077	-74.28
344.46	-53.94
344.843	-25.01
345.226	-33.37
345.61	-35.86
345.993	-26.82
346.376	3.69
346.759	27.87
347.142	30.35
347.525	39.84
347.908	55.89
348.291	56.57
348.674	92.72
349.057	96.34
349.44	99.73
349.823	140.63
350.206	153.74
350.588	206.39
350.971	215.21
351.354	215.66
351.737	248.2
352.119	253.62
352.502	259.5
352.884	285.03
353.267	281.42
353.65	308.09
354.032	299.72
354.414	312.38
354.797	298.82
355.179	305.15
355.562	331.14
355.944	324.58
356.326	343.11
356.709	358.03
357.091	360.29
357.473	341.08
357.855	350.57
358.238	362.09
358.62	341.76
359.002	366.61
359.384	345.37
359.766	344.02
360.148	328.88
360.53	339.04
360.912	330.01
361.294	367.29
361.676	343.79
362.057	360.97
362.439	334.3
362.821	324.81
363.203	341.98
363.584	358.48
363.966	335.66
364.348	328.2
364.729	307.86
365.111	356.45
365.493	332.27
365.874	338.82
366.256	332.94
366.637	324.13
367.019	340.63
367.4	337.01
367.781	313.73
368.163	349.89
368.544	335.2
368.925	318.71
369.306	309.67
369.688	328.65
370.069	342.89
370.45	327.52
370.831	330.01
371.212	325.94
371.593	308.31
371.974	320.29
372.355	337.69
372.736	333.4
373.117	319.16
373.498	327.75
373.879	316.45
374.26	332.94
374.641	313.28
375.021	319.61
375.402	353.96
375.783	355.32
376.163	369.78
376.544	357.8
376.925	344.47
377.305	343.56
377.686	339.04
378.066	329.78
378.447	350.57
378.827	335.2
379.208	349.44
379.588	355.99
379.968	365.03
380.349	374.52
380.729	358.03
381.109	370
381.489	370.91
381.87	363
382.25	370.46
382.63	365.94
383.01	350.8
383.39	386.05
383.77	379.04
384.15	377.46
384.53	363.45
384.91	387.63
385.29	373.85
385.67	387.41
386.049	396.22
386.429	392.15
386.809	394.41
387.189	382.21
387.568	392.15
387.948	401.87
388.328	408.65
388.707	404.35
389.087	409.33
389.466	406.84
389.846	416.33
390.225	391.92
390.605	413.17
390.984	404.58
391.363	420.85
391.743	449.55
392.122	437.12
392.501	460.62
392.881	461.98
393.26	460.62
393.639	465.14
394.018	461.08
394.397	464.69
394.776	458.14
395.155	458.14
395.534	496.33
395.913	471.92
396.292	478.48
396.671	496.1
397.05	501.3
397.429	497.01
397.808	492.71
398.186	508.31
398.565	510.57
398.944	516.22
399.323	518.48
399.701	525.25
400.08	529.55
400.458	530.23
400.837	556.89
401.215	561.19
401.594	566.38
401.972	574.97
402.351	591.69
402.729	574.52
403.107	590.56
403.486	609.55
403.864	605.25
404.242	605.93
404.62	634.18
404.999	617.68
405.377	645.48
405.755	646.83
406.133	656.55
406.511	676.89
406.889	678.92
407.267	685.25
407.645	713.95
408.023	709.88
408.401	722.54
408.779	733.61
409.156	746.27
409.534	739.49
409.912	761.63
410.29	767.96
410.667	783.1
411.045	769.32
411.422	820.16
411.8	835.53
412.178	813.61
412.555	845.7
412.933	854.06
413.31	878.47
413.687	855.42
414.065	855.64
414.442	857
414.819	925.02
415.197	906.71
415.574	925.92
415.951	917.11
416.328	964.34
416.705	971.57
417.082	959.37
417.46	976.99
417.837	979.25
418.214	1009.76
418.591	994.85
418.967	1013.6
419.344	1025.13
419.721	1034.39
420.098	1030.55
420.475	1048.63
420.852	1075.52
421.228	1040.5
421.605	1069.65
421.982	1104.9
422.358	1109.42
422.735	1101.74
423.111	1134.5
423.488	1124.11
423.864	1156.42
424.241	1163.66
424.617	1181.28
424.994	1181.06
425.37	1219.25
425.746	1203.2
426.123	1205.46
426.499	1224.22
426.875	1256.31
427.251	1246.59
427.627	1268.74
428.003	1268.51
428.379	1334.05
428.756	1344.22
429.132	1332.92
429.507	1366.36
429.883	1353.93
430.259	1418.79
430.635	1391.45
431.011	1412.91
431.387	1450.2
431.763	1488.17
432.138	1468.05
432.514	1510.77
432.89	1510.31
433.265	1516.64
433.641	1533.59
434.016	1585.34
434.392	1620.37
434.767	1596.86
435.143	1630.54
435.518	1640.25
435.894	1686.13
436.269	1715.28
436.644	1731.32
437.02	1744.66
437.395	1725
437.77	1764.77
438.145	1798.67
438.52	1807.93
438.895	1835.73
439.271	1831.21
439.646	1905.33
440.021	1896.52
440.395	1868.04
440.77	1876.18
441.145	1905.56
441.52	1916.63
441.895	1942.39
442.27	1920.47
442.645	1966.35
443.019	1982.39
443.394	2008.61
443.769	2003.63
444.143	2034.14
444.518	2067.59
444.892	2041.37
445.267	2097.42
445.641	2054.93
446.016	2129.73
446.39	2167.02
446.764	2141.26
447.139	2173.12
447.513	2183.06
447.887	2194.59
448.262	2202.72
448.636	2245.66
449.01	2238.43
449.384	2254.47
449.758	2269.16
450.132	2325.21
450.506	2320.01
450.88	2321.82
451.254	2329.27
451.628	2390.52
452.002	2404.3
452.376	2413.79
452.75	2429.61
453.123	2468.93
453.497	2534.24
453.871	2487.69
454.244	2584.64
454.618	2579.44
454.992	2626.89
455.365	2654.46
455.739	2712.54
456.112	2712.77
456.486	2749.6
456.859	2777.17
457.232	2797.29
457.606	2788.92
457.979	2854.23
458.352	2949.15
458.725	2909.37
459.099	2948.92
459.472	3008.35
459.845	3050.39
460.218	3026.21
460.591	3124.51
460.964	3117.5
461.337	3196.37
461.71	3234.11
462.083	3241.79
462.456	3269.14
462.829	3263.71
463.201	3355.91
463.574	3393.2
463.947	3432.52
464.32	3486.98
464.692	3490.37
465.065	3524.95
465.438	3553.88
465.81	3631.61
466.183	3675.23
466.555	3776.69
466.928	3751.16
467.3	3785.51
467.672	3835.9
468.045	3939.85
468.417	3906.86
468.789	3990.02
469.161	4061.21
469.534	4072.51
469.906	4174.65
470.278	4169
470.65	4270.69
471.022	4353.63
471.394	4379.39
471.766	4426.39
472.138	4497.81
472.51	4596.11
472.882	4677.91
473.253	4721.98
473.625	4747.52
473.997	4839.94
474.369	4918.13
474.74	4892.6
475.112	5070.9
475.484	5076.1
475.855	5176.43
476.227	5193.38
476.598	5387.27
476.97	5415.07
477.341	5547.72
477.713	5678.34
478.084	5724.89
478.455	5781.84
478.827	5853.25
479.198	6071.32
479.569	6064.77
479.94	6260.47
480.311	6268.38
480.682	6473.35
481.053	6549.73
481.424	6705.88
481.795	6683.28
482.166	6792.89
482.537	6924.18
482.908	7079.21
483.279	7128.02
483.65	7206.89
484.021	7396.03
484.391	7474.68
484.762	7560.78
485.133	7670.38
485.503	7796.48
485.874	7963.7
486.244	8024.04
486.615	8211.83
486.985	8249.8
487.356	8417.25
487.726	8487.08
488.097	8629.45
488.467	8697.7
488.837	8860.85
489.207	8920.06
489.578	9043
489.948	9124.58
490.318	9287.06
490.688	9320.5
491.058	9505.81
491.428	9592.36
491.798	9735.18
492.168	9908.96
492.538	9948.74
492.908	10039.58
493.278	10205.9
493.648	10214.94
494.017	10397.76
494.387	10494.03
494.757	10499.23
495.126	10675.95
495.496	10683.18
495.866	10810.18
496.235	10918.2
496.605	11037.75
496.974	11060.57
497.344	11198.42
497.713	11249.49
498.082	11347.79
498.452	11475.48
498.821	11557.73
499.19	11553.44
499.559	11707.11
499.928	11816.48
500.298	11937.38
500.667	11963.82
501.036	11962.47
501.405	12157.04
501.774	12223.48
502.143	12305.96
502.512	12361.1
502.88	12476.13
503.249	12499.85
503.618	12601.1
503.987	12674.54
504.356	12743.24
504.724	12886.74
505.093	13036.56
505.462	13073.63
505.83	13135.32
506.199	13188.2
506.567	13390
506.936	13378.7
507.304	13579.37
507.672	13666.38
508.041	13659.6
508.409	13762.65
508.777	13936.88
509.145	14085.12
509.514	14055.29
509.882	14187.04
510.25	14255.51
510.618	14318.11
510.986	14435.85
511.354	14532.12
511.722	14694.83
512.09	14885.55
512.458	14852.34
512.826	15029.28
513.193	15075.38
513.561	15134.14
513.929	15331.19
514.297	15487.8
514.664	15538.65
515.032	15606.67
515.4	15845.3
515.767	15906.77
516.135	15965.53
516.502	15902.25
516.869	16263.37
517.237	16256.14
517.604	16326.2
517.972	16449.13
518.339	16605.28
518.706	16715.34
519.073	16788.1
519.44	16859.29
519.808	17103.12
520.175	17172.95
520.542	17397.35
520.909	17519.16
521.276	17452.27
521.643	17726.84
522.009	17884.35
522.376	18007.05
522.743	18230.1
523.11	18253.83
523.477	18447.04
523.843	18524.56
524.21	18789.63
524.577	18886.81
524.943	19058.1
525.31	19171.54
525.676	19308.49
526.043	19476.17
526.409	19447.47
526.776	19766.78
527.142	19851.75
527.508	19866.21
527.874	20131.97
528.241	20202.7
528.607	20252.42
528.973	20454
529.339	20519.31
529.705	20712.75
530.071	20904.38
530.437	21051.04
530.803	21120.65
531.169	21366.51
531.535	21385.05
531.901	21381.43
532.267	21620.97
532.632	21621.65
532.998	21753.4
533.364	21888.76
533.73	21994.97
534.095	22170.79
534.461	22032.71
534.826	22251.69
535.192	22442.42
535.557	22492.81
535.923	22588.86
536.288	22702.52
536.653	22770.77
537.019	22810.09
537.384	22886.02
537.749	23009.86
538.114	23175.73
538.479	23168.05
538.845	23284.66
539.21	23237.65
539.575	23424.54
539.94	23535.72
540.305	23658.21
540.67	23654.36
541.034	23751.76
541.399	24024.98
541.764	23956.05
542.129	24093.22
542.494	24101.36
542.858	24133.67
543.223	24220.9
543.587	24357.4
543.952	24447.34
544.316	24453.44
544.681	24428.35
545.045	24875.12
545.41	24822.92
545.774	24929.58
546.138	24858.17
546.503	24991.96
546.867	25019.98
547.231	25240.54
547.595	25290.93
547.959	25301.78
548.324	25429.68
548.688	25453.19
549.052	25562.79
549.416	25523.24
549.779	25713.52
550.143	25775.89
550.507	25998.48
550.871	26083.9
551.235	25963.46
551.599	26282.09
551.962	26272.37
552.326	26362.99
552.689	26554.4
553.053	26447.51
553.417	26604.34
553.78	26906.03
554.143	26785.58
554.507	27029.87
554.87	27005.91
555.234	27266.7
555.597	27098.79
555.96	27315.74
556.323	27400.71
556.686	27421.72
557.05	27684.09
557.413	27720.02
557.776	27882.73
558.139	28057.86
558.502	28038.88
558.865	28192.1
559.228	28416.05
559.59	28422.15
559.953	28549.83
560.316	28724.74
560.679	28794.12
561.041	29023.71
561.404	29087.67
561.767	29238.17
562.129	29220.55
562.492	29573.3
562.854	29517.49
563.217	29531.72
563.579	29691.72
563.941	30015.33
564.304	30105.72
564.666	30140.52
565.028	30239.73
565.39	30238.6
565.753	30557.46
566.115	30648.76
566.477	30860.95
566.839	30964.45
567.201	31097.78
567.563	31046.03
567.925	31363.09
568.287	31359.25
568.648	31371.45
569.01	31561.95
569.372	31712.23
569.734	31641.05
570.095	31836.75
570.457	32024.31
570.819	32063.41
571.18	32177.53
571.542	32291.2
571.903	32462.27
572.265	32394.7
572.626	32439.9
572.987	32624.52
573.349	32668.14
573.71	32788.59
574.071	32839.89
574.432	32880.11
574.794	33236.03
575.155	33090.05
575.516	33035.81
575.877	33222.25
576.238	33201.68
576.599	33309.93
576.96	33429.7
577.32	33525.52
577.681	33568.68
578.042	33565.29
578.403	33511.73
578.763	33631.95
579.124	33628.56
579.485	33812.74
579.845	33949.69
580.206	33794.21
580.566	33725.74
580.927	33876.24
581.287	34059.29
581.648	33921.66
582.008	34153.07
582.368	33916.47
582.728	34117.59
583.089	33972.28
583.449	34046.41
583.809	34118.72
584.169	34085.05
584.529	34007.99
584.889	34224.26
585.249	34001.21
585.609	34007.54
585.969	34195.78
586.329	34066.75
586.688	34117.14
587.048	34183.13
587.408	34026.29
587.768	34098.61
588.127	34155.78
588.487	34057.71
588.846	34318.49
589.206	33959.63
589.565	34086.63
589.925	34232.62
590.284	34197.14
590.643	34293.63
591.003	34234.2
591.362	34284.14
591.721	34323.46
592.08	34188.78
592.44	34390.58
592.799	34156.69
593.158	34245.27
593.517	34223.35
593.876	34384.25
594.235	34204.37
594.593	34238.04
594.952	34222.45
595.311	34174.31
595.67	34241.88
596.029	34382.22
596.387	34248.44
596.746	34485.72
597.104	34213.86
597.463	34192.62
597.822	34435.32
598.18	34264.25
598.538	34316.46
598.897	34539.95
599.255	34168.89
599.613	34589.44
599.972	34329.79
600.33	34545.83
600.688	34241.43
601.046	34540.63
601.404	34586.28
601.762	34499.73
602.12	34684.13
602.478	34603.23
602.836	34579.05
603.194	34377.25
603.552	34505.6
603.91	34465.38
604.268	34546.05
604.625	34417.02
604.983	34681.87
605.341	34413.4
605.698	34593.29
606.056	34708.08
606.413	34705.6
606.771	34754.19
607.128	34750.8
607.485	34577.24
607.843	34652.72
608.2	34823.56
608.557	34828.99
608.914	34749.67
609.272	34990.56
609.629	34983.78
609.986	35113.05
610.343	34976.1
610.7	35166.38
611.057	35113.72
611.414	35235.3
611.771	35176.77
612.127	35337.67
612.484	35399.82
612.841	35401.17
613.198	35195.76
613.554	35175.19
613.911	35451.34
614.267	35442.98
614.624	35464
614.98	35551
615.337	35773.59
615.693	35650.88
616.05	35621.73
616.406	35929.52
616.762	35788.73
617.118	35852.01
617.475	35715.06
617.831	35860.82
618.187	35778.56
618.543	35884.32
618.899	35988.05
619.255	36002.97
619.611	36058.33
619.967	36071.21
620.323	36048.84
620.678	35996.64
621.034	35986.02
621.39	35984.66
621.746	35954.83
622.101	36386.46
622.457	36125.22
622.812	36012.01
623.168	36195.05
623.523	36167.48
623.879	36306.23
624.234	36081.83
624.589	36260.81
624.945	36313.01
625.3	36224.88
625.655	36158.89
626.01	36152.57
626.365	36169.29
626.72	36218.1
627.075	36087.94
627.43	36165.9
627.785	36120.25
628.14	36134.94
628.495	36074.38
628.85	36158.44
629.205	35901.5
629.559	36262.39
629.914	35976.53
630.269	36037.99
630.623	36027.82
630.978	35965
631.332	36077.09
631.687	36063.76
632.041	35798.68
632.396	35932.01
632.75	35844.1
633.104	35840.71
633.459	35687.04
633.813	35733.82
634.167	35673.71
634.521	35540.38
634.875	35556.2
635.229	35544.67
635.583	35481.85
635.937	35409.31
636.291	35513.04
636.645	35280.72
636.999	35297.9
637.352	35393.49
637.706	35045.7
638.06	35266.49
638.413	35158.92
638.767	34991.01
639.121	35161.41
639.474	34879.38
639.828	34865.14
640.181	34944.69
640.534	34876.44
640.888	34804.58
641.241	34568.2
641.594	34735.43
641.947	34755.09
642.301	34731.13
642.654	34677.12
643.007	34604.13
643.36	34585.6
643.713	34494.98
644.066	34556
644.419	34414.08
644.771	34061.32
645.124	33661.78
645.477	33718.51
645.83	33419.53
646.182	33415.24
646.535	33362.36
646.888	33411.85
647.24	33102.7
647.593	33373.43
647.945	33371.62
648.298	33145.19
648.65	33098.86
649.002	33044.63
649.355	33151.74
649.707	33032.2
650.059	33043.04
650.411	33515.57
650.763	33533.2
651.115	33855.45
651.467	33750.6
651.819	33611.16
652.171	33697.94
652.523	33725.06
652.875	33636.02
653.227	33471.28
653.578	33681.44
653.93	33525.29
654.282	33309.48
654.633	33450.49
654.985	33628.34
655.337	33404.62
655.688	33402.13
656.039	33392.64
656.391	33289.36
656.742	33264.05
657.094	33231.51
657.445	33463.37
657.796	33230.16
658.147	33202.36
658.498	33148.8
658.849	33066.55
659.2	33170.27
659.551	33039.88
659.902	33106.32
660.253	33187.67
660.604	33141.8
660.955	32940.9
661.306	32980.22
661.656	32965.53
662.007	32852.54
662.358	32877.4
662.708	32726.44
663.059	32781.81
663.409	32593.11
663.76	32607.8
664.11	32685.31
664.461	32650.74
664.811	32560.8
665.161	32595.37
665.511	32326.9
665.862	32494.36
666.212	32537.52
666.562	32363.97
666.912	32167.36
667.262	32172.78
667.612	32208.94
667.962	32040.58
668.312	31927.14
668.662	31995.16
669.011	31899.34
669.361	31670.65
669.711	31748.61
670.06	31547.04
670.41	31519.24
670.76	31373.48
671.109	31477.66
671.459	31407.83
671.808	31326.93
672.157	31324.22
672.507	31107.05
672.856	31112.92
673.205	31033.6
673.554	31144.11
673.904	31011.68
674.253	31079.93
674.602	30843.33
674.951	30410.12
675.3	30285.83
675.649	30763.33
675.998	30758.36
676.346	30708.42
676.695	30824.8
677.044	30575.31
677.393	30619.6
677.741	30780.96
678.09	30478.82
678.438	30443.56
678.787	30588.87
679.135	30539.15
679.484	30342.78
679.832	30626.38
680.181	30310.46
680.529	30402.66
680.877	30349.1
681.225	30296.68
681.573	30483.34
681.922	30265.26
682.27	30266.17
682.618	30267.75
682.966	30217.13
683.314	30436.33
683.661	30295.09
684.009	30173.74
684.357	30231.59
684.705	30218.94
685.053	30278.82
685.4	30331.48
685.748	30126.51
686.095	30170.8
686.443	30067.53
686.79	30174.42
687.138	30137.58
687.485	30182.78
687.832	30193.18
688.18	30171.25
688.527	30120.63
688.874	30084.93
689.221	30114.76
689.568	30079.96
689.915	29891.94
690.262	30021.43
690.609	29921.32
690.956	29878.38
691.303	29947.98
691.65	29710.48
691.997	29897.14
692.344	29755.9
692.69	29578.28
693.037	29700.98
693.383	29498.73
693.73	29585.28
694.077	29451.5
694.423	29524.27
694.769	29435.91
695.116	29363.82
695.462	29376.25
695.808	29290.83
696.155	29411.05
696.501	29160.66
696.847	29211.96
697.193	28971.96
697.539	29190.26
697.885	28930.61
698.231	28823.72
698.577	28823.72
698.923	28724.06
699.269	28726.32
699.614	28512.99
699.96	28581.47
700.306	28549.6
700.651	28400.68
700.997	28301.25
701.342	28248.59
701.688	28225.32
702.033	28101.25
702.379	28177.63
702.724	27957.75
703.069	28098.99
703.415	27817.64
703.76	27775.84
704.105	27801.37
704.45	27696.29
704.795	27568.39
705.14	27485.22
705.485	27521.38
705.83	27359.8
706.175	27269.86
706.52	27400.48
706.865	27214.04
707.209	27114.16
707.554	27002.52
707.899	27096.31
708.243	26976.31
708.588	26977.89
708.932	26717.11
709.277	26841.4
709.621	26828.07
709.966	26562.08
710.31	26573.38
710.654	26382.65
710.998	26511.69
711.342	26464.23
711.687	26351.69
712.031	26287.52
712.375	26298.59
712.719	26371.58
713.063	26268.31
713.407	26268.98
713.75	26102.66
714.094	26101.76
714.438	26018.6
714.782	26104.02
715.125	25908.32
715.469	25798.94
715.812	25768.43
716.156	25649.34
716.499	25633.75
716.843	25685.04
717.186	25466.75
717.53	25647.76
717.873	25622
718.216	25530.92
718.559	25403.02
718.902	25241.21
719.246	25278.28
719.589	25192.18
719.932	25080.32
720.275	25129.81
720.617	25039.19
720.96	25032.86
721.303	25008.23
721.646	25092.97
721.989	24889.36
722.331	24950.83
722.674	24938.62
723.016	24822.47
723.359	24737.73
723.701	24883.03
724.044	24635.58
724.386	24570.95
724.729	24601.46
725.071	24665.64
725.413	24556.49
725.755	24484.85
726.097	24476.49
726.439	24280.34
726.782	24348.36
727.124	24385.64
727.465	24353.78
727.807	24204.86
728.149	24252.31
728.491	24224.07
728.833	24205.08
729.175	24088.48
729.516	24071.53
729.858	24017.97
730.199	24015.94
730.541	24044.18
730.882	24039.44
731.224	23998.08
731.565	23804.42
731.906	23796.96
732.248	23799.67
732.589	23606.91
732.93	23530.3
733.271	23633.35
733.612	23682.84
733.953	23616.62
734.294	23470.64
734.635	23464.76
734.976	23441.49
735.317	23337.54
735.658	23334.15
735.999	23381.15
736.339	23327.59
736.68	23348.84
737.021	23176.64
737.361	23094.15
737.702	23218.67
738.042	23026.58
738.383	23102.06
738.723	23069.07
739.063	23003.53
739.404	23020.71
739.744	23035.85
740.084	22905.68
740.424	22845.12
740.764	22827.49
741.104	22960.37
741.444	22761.96
741.784	22658.46
742.124	22773.03
742.464	22743.2
742.804	22650.55
743.143	22672.92
743.483	22632.92
743.823	22501.17
744.162	22490.1
744.502	22573.26
744.841	22415.53
745.181	22532.36
745.52	22367.39
745.86	22380.27
746.199	22263.44
746.538	22246.72
746.877	22277.9
747.216	22349.54
747.556	22196.32
747.895	22159.26
748.234	22163.56
748.573	21982.32
748.911	22073.16
749.25	22060.51
749.589	21822.55
749.928	21921.98
750.267	21871.36
750.605	21889.89
750.944	21748.65
751.283	21653.96
751.621	21686.96
751.96	21598.6
752.298	21505.27
752.636	21545.49
752.975	21512.5
753.313	21367.64
753.651	21469.79
753.989	21307.53
754.327	21384.59
754.666	21249
755.004	21240.87
755.342	21292.84
755.679	21145.96
756.017	21100.76
756.355	21043.36
756.693	20881.33
757.031	21037.03
757.368	20894.66
757.706	20870.71
758.044	20737.15
758.381	20672.75
758.719	20705.97
759.056	20649.47
759.394	20530.15
759.731	20381
760.068	20353.43
760.405	20315.24
760.743	20227.56
761.08	20180.1
761.417	20137.62
761.754	20148.47
762.091	20012.88
762.428	19936.95
762.765	19937.63
763.102	20018.53
763.438	19854.01
763.775	19709.38
764.112	19695.15
764.449	19687.24
764.785	19514.13
765.122	19377.87
765.458	19384.65
765.795	19335.16
766.131	19332.22
766.467	19309.85
766.804	19112.56
767.14	19078.89
767.476	19098.78
767.812	19028.95
768.148	18989.63
768.485	18882.51
768.821	18801.84
769.157	18767.03
769.492	18777.43
769.828	18676.19
770.164	18426.03
770.5	18562.52
770.836	18351.45
771.171	18358.46
771.507	18275.52
771.842	18269.42
772.178	18260.83
772.513	18145.58
772.849	18109.65
773.184	17981.97
773.519	17985.59
773.855	17911.69
774.19	17704.69
774.525	17715.99
774.86	17726.16
775.195	17615.43
775.53	17646.84
775.865	17500.4
776.2	17380.63
776.535	17186.29
776.87	17259.05
777.205	17209.56
777.539	17221.54
777.874	17141.09
778.209	17030.81
778.543	16933.18
778.878	16875.56
779.212	16884.82
779.547	16895.45
779.881	16764.15
780.215	16586.08
780.55	16629.69
780.884	16486.42
781.218	16440.77
781.552	16469.02
781.886	16394.44
782.22	16281.9
782.554	16238.06
782.888	16055.24
783.222	16026.54
783.556	16044.62
783.889	15948.58
784.223	15985.64
784.557	15851.18
784.89	15869.03
785.224	15786.77
785.557	15702.03
785.891	15647.57
786.224	15560.11
786.558	15596.5
786.891	15526.22
787.224	15444.86
787.557	15390.4
787.891	15283.28
788.224	15399.67
788.557	15333.68
788.89	15288.48
789.223	15172.78
789.556	15104.53
789.888	15054.59
790.221	14984.76
790.554	14804.65
790.887	14887.81
791.219	14825.9
791.552	14736.63
791.884	14764.43
792.217	14605.34
792.549	14598.1
792.882	14483.76
793.214	14447.6
793.546	14506.58
793.879	14393.59
794.211	14237.66
794.543	14370.77
794.875	14273.14
795.207	14262.97
795.539	14281.73
795.871	14168.06
796.203	14069.08
796.535	14053.03
796.867	13993.83
797.198	13854.4
797.53	13860.5
797.862	13819.14
798.193	13886.71
798.525	13757.22
798.856	13761.74
799.188	13606.04
799.519	13498.02
799.85	13475.2
800.182	13516.55
800.513	13496.21
800.844	13331.47
801.175	13463.9
801.506	13333.73
801.837	13264.13
802.168	13255.54
802.499	13237.24
802.83	13224.13
803.161	13100.52
803.491	13168.09
803.822	13133.28
804.153	12976.23
804.483	12925.83
804.814	12934.42
805.145	12849.22
805.475	12865.5
805.805	12780.53
806.136	12821.43
806.466	12841.77
806.796	12743.01
807.126	12643.35
807.457	12689.45
807.787	12566.07
808.117	12559.29
808.447	12536.46
808.777	12541.89
809.107	12436.81
809.436	12382.57
809.766	12437.03
810.096	12307.32
810.426	12345.06
810.755	12228.45
811.085	12221.67
811.414	12217.15
811.744	12027.32
812.073	12113.2
812.403	12102.35
812.732	12062.35
813.061	12036.59
813.39	12056.02
813.719	12010.83
814.049	11998.4
814.378	11916.14
814.707	11918.4
815.036	11858.52
815.365	11814
815.693	11717.95
816.022	11706.66
816.351	11664.85
816.68	11660.1
817.008	11658.07
817.337	11563.83
817.665	11504.85
817.994	11629.37
818.322	11514.12
818.651	11466.89
818.979	11437.06
819.307	11478.64
819.636	11473.22
819.964	11342.37
820.292	11404.74
820.62	11357.29
820.948	11412.2
821.276	11416.49
821.604	11405.19
821.932	11402.03
822.259	11339.66
822.587	11393.67
822.915	11356.83
823.243	11285.2
823.57	11308.7
823.898	11266.22
824.225	11322.94
824.553	11242.49
824.88	11253.33
825.207	11360.45
825.535	11320.45
825.862	11259.89
826.189	11256.5
826.516	11292.2
826.843	11249.94
827.17	11299.89
827.497	11372.2
827.824	11323.39
828.151	11293.56
828.478	11246.33
828.805	11342.6
829.131	11236.61
829.458	11254.01
829.785	11190.96
830.111	11218.31
830.438	11250.17
830.764	11300.56
831.09	11300.34
831.417	11192.77
831.743	11204.52
832.069	11134.02
832.395	11195.26
832.722	11184.18
833.048	11106.45
833.374	11178.99
833.7	11138.53
834.026	11169.95
834.351	11105.77
834.677	11155.03
835.003	11124.98
835.329	11130.63
835.654	11078.88
835.98	11076.16
836.306	11141.47
836.631	11001.82
836.956	11087.46
837.282	11011.08
837.607	10960.91
837.932	10927.01
838.258	10945.09
838.583	10891.54
838.908	10809.05
839.233	10901.03
839.558	10842.95
839.883	10846.79
840.208	10906.45
840.533	10796.62
840.858	10838.66
841.182	10757.98
841.507	10827.36
841.832	10653.58
842.156	10694.25
842.481	10686.8
842.805	10632.33
843.13	10656.51
843.454	10663.29
843.778	10551.88
844.103	10535.84
844.427	10494.94
844.751	10484.09
845.075	10421.04
845.399	10427.82
845.723	10390.98
846.047	10424.66
846.371	10283.87
846.695	10307.82
847.019	10266.24
847.343	10213.14
847.666	10119.35
847.99	10158.45
848.313	10107.15
848.637	10017.43
848.96	9974.27
849.284	9941.5
849.607	9926.14
849.931	9927.49
850.254	9901.05
850.577	9773.82
850.9	9709.19
851.223	9664
851.546	9656.54
851.869	9641.4
852.192	9652.7
852.515	9528.63
852.838	9490.89
853.161	9511.23
853.483	9471.23
853.806	9414.06
854.129	9374.06
854.451	9275.53
854.774	9279.37
855.096	9369.09
855.419	9275.08
855.741	9226.27
856.063	9150.34
856.385	9153.5
856.708	9212.03
857.03	9079.38
857.352	9087.52
857.674	9062.43
857.996	9123.9
858.318	9019.27
858.64	9049.1
858.961	8910.57
859.283	8928.2
859.605	8877.13
859.926	8917.8
860.248	8896.56
860.57	8794.87
860.891	8813.85
861.212	8858.37
861.534	8832.83
861.855	8814.3
862.176	8704.02
862.498	8708.09
862.819	8740.41
863.14	8776.34
863.461	8659.28
863.782	8683.46
864.103	8680.07
864.424	8616.34
864.745	8639.84
865.065	8674.42
865.386	8604.14
865.707	8667.64
866.027	8564.37
866.348	8535.67
866.668	8565.04
866.989	8467.19
867.309	8378.61
867.63	8407.53
867.95	8426.52
868.27	8374.77
868.59	8431.94
868.91	8409.79
869.23	8385.16
869.55	8374.99
869.87	8400.98
870.19	8352.39
870.51	8299.51
870.83	8361.88
871.15	8307.65
871.469	8298.61
871.789	8297.93
872.109	8292.51
872.428	8212.28
872.748	8287.08
873.067	8240.98
873.386	8263.58
873.706	8280.53
874.025	8130.93
874.344	8165.96
874.663	8192.17
874.982	8175.67
875.301	8176.35
875.62	8114.21
875.939	8048.67
876.258	8089.8
876.577	8040.09
876.896	8093.19
877.214	8024.04
877.533	8073.53
877.852	8051.16
878.17	7977.71
878.489	8076.69
878.807	7970.71
879.125	7989.24
879.444	7981.78
879.762	7993.98
880.08	7956.02
880.398	7878.06
880.716	7995.57
881.034	7865.4
881.352	7941.56
881.67	7770.04
881.988	7883.25
882.306	7807.32
882.624	7830.6
882.941	7798.74
883.259	7751.05
883.577	7687.1
883.894	7714.9
884.212	7709.47
884.529	7714.67
884.846	7679.87
885.164	7650.72
885.481	7650.94
885.798	7623.82
886.115	7612.75
886.432	7587.22
886.75	7541.34
887.067	7529.14
887.383	7515.58
887.7	7488.91
888.017	7495.24
888.334	7471.74
888.651	7492.75
888.967	7438.29
889.284	7365.75
889.6	7337.73
889.917	7329.14
890.233	7318.97
890.55	7337.96
890.866	7298.18
891.182	7306.09
891.498	7281.69
891.815	7218.64
892.131	7191.29
892.447	7144.29
892.763	7116.72
893.079	7128.92
893.395	7106.78
893.71	7063.16
894.026	7087.34
894.342	7069.49
894.657	7006.89
894.973	7000.56
895.289	7065.2
895.604	7029.26
895.92	6945.42
896.235	6906.33
896.55	6957.63
896.865	6897.74
897.181	6860.68
897.496	6870.62
897.811	6797.41
898.126	6771.64
898.441	6776.16
898.756	6733
899.071	6715.83
899.386	6770.97
899.7	6703.4
900.015	6614.13
900.33	6596.06
900.644	6649.61
900.959	6631.31
901.273	6555.15
901.588	6559.22
901.902	6537.3
902.216	6505.89
902.531	6476.96
902.845	6475.83
903.159	6395.16
903.473	6366.23
903.787	6366.68
904.101	6354.71
904.415	6354.03
904.729	6300.02
905.042	6249.4
905.356	6248.04
905.67	6250.08
905.984	6195.84
906.297	6198.1
906.611	6142.96
906.924	6111.1
907.237	6166.69
907.551	6096.63
907.864	6039.23
908.177	6025.9
908.491	6010.76
908.804	5966.47
909.117	5985.45
909.43	5933.02
909.743	5900.48
910.056	5863.87
910.368	5857.54
910.681	5813.48
910.994	5833.82
911.307	5807.38
911.619	5761.95
911.932	5778.9
912.244	5735.29
912.557	5751.56
912.869	5723.54
913.181	5645.8
913.494	5717.43
913.806	5609.19
914.118	5572.58
914.43	5553.6
914.742	5523.09
915.054	5546.37
915.366	5526.25
915.678	5496.88
915.99	5448.29
916.302	5448.51
916.613	5451.23
916.925	5453.94
917.236	5403.77
917.548	5340.27
917.859	5353.38
918.171	5305.24
918.482	5283.55
918.794	5286.94
919.105	5295.07
919.416	5216.2
919.727	5234.96
920.038	5153.83
920.349	5139.6
920.66	5194.96
920.971	5135.75
921.282	5119.26
921.593	5068.64
921.903	5038.58
922.214	5041.97
922.525	5012.82
922.835	5001.97
923.146	4964.46
923.456	4955.87
923.767	4909.09
924.077	4926.95
924.387	4928.08
924.697	4890.11
925.008	4868.19
925.318	4851.24
925.628	4841.07
925.938	4771.7
926.248	4785.48
926.558	4744.8
926.867	4767.63
927.177	4726.05
927.487	4719.72
927.796	4658.48
928.106	4647.63
928.416	4620.29
928.725	4620.06
929.034	4586.62
929.344	4554.75
929.653	4572.61
929.962	4551.14
930.271	4513.85
930.581	4505.49
930.89	4474.53
931.199	4418.71
931.508	4452.38
931.817	4491.25
932.125	4440.63
932.434	4399.73
932.743	4391.14
933.051	4351.82
933.36	4347.53
933.669	4312.27
933.977	4278.6
934.286	4275.89
934.594	4238.38
934.902	4203.58
935.21	4187.53
935.519	4226.85
935.827	4173.07
936.135	4147.76
936.443	4154.09
936.751	4142.56
937.059	4106.86
937.367	4079.29
937.674	4110.47
937.982	4054.43
938.29	4018.27
938.597	4038.38
938.905	3997.48
939.213	3988.44
939.52	3982.11
939.827	4007.42
940.135	3887.65
940.442	3925.17
940.749	3964.71
941.056	3935.11
941.363	3887.2
941.67	3847.65
941.977	3868.67
942.284	3837.03
942.591	3807.2
942.898	3768.56
943.205	3779.86
943.511	3768.79
943.818	3786.86
944.125	3727.2
944.431	3691.27
944.738	3687.21
945.044	3685.4
945.35	3648.56
945.657	3654.21
945.963	3630.71
946.269	3561.78
946.575	3590.94
946.881	3546.19
947.187	3563.37
947.493	3563.59
947.799	3572.41
948.105	3564.72
948.41	3527.21
948.716	3486.08
949.022	3474.33
949.327	3458.74
949.633	3419.42
949.938	3446.99
950.244	3437.27
950.549	3413.99
950.854	3333.99
951.16	3396.82
951.465	3378.29
951.77	3346.2
952.075	3343.94
952.38	3284.05
952.685	3300.77
952.99	3267.78
953.294	3267.33
953.599	3287.22
953.904	3249.02
954.209	3230.49
954.513	3247.89
954.818	3167.9
955.122	3178.52
955.426	3185.52
955.731	3177.39
956.035	3138.29
956.339	3132.42
956.643	3146.88
956.948	3091.74
957.252	3094.68
957.556	3082.02
957.86	3096.26
958.163	3036.83
958.467	3061.23
958.771	3036.83
959.075	3021.23
959.378	3024.85
959.682	3025.3
959.985	2964.06
960.289	2975.36
960.592	2997.28
960.896	2955.7
961.199	2921.58
961.502	2932.2
961.805	2909.37
962.108	2905.3
962.411	2896.72
962.714	2850.62
963.017	2884.74
963.32	2816.04
963.623	2839.77
963.926	2812.43
964.228	2836.83
964.531	2829.83
964.833	2803.61
965.136	2740.79
965.438	2756.83
965.741	2743.73
966.043	2735.14
966.345	2708.02
966.648	2742.37
966.95	2675.03
967.252	2674.8
967.554	2677.74
967.856	2679.32
968.158	2641.81
968.46	2662.37
968.761	2638.65
969.063	2631.19
969.365	2638.65
969.666	2565.2
969.968	2585.09
970.269	2552.32
970.571	2585.31
970.872	2583.96
971.174	2572.66
971.475	2538.53
971.776	2552.09
972.077	2533.56
972.378	2493.34
972.679	2515.03
972.98	2480.46
973.281	2474.13
973.582	2495.37
973.883	2478.42
974.183	2431.65
974.484	2439.1
974.785	2409.5
975.085	2453.79
975.386	2426.67
975.686	2383.06
975.986	2383.06
976.287	2392.55
976.587	2331.76
976.887	2379.22
977.187	2344.19
977.487	2330.63
977.787	2325.89
978.087	2335.6
978.387	2328.82
978.687	2319.78
978.987	2277.07
979.286	2245.44
979.586	2281.37
979.885	2222.61
980.185	2237.53
980.484	2261.03
980.784	2227.81
981.083	2221.26
981.382	2193.23
981.682	2197.98
981.981	2178.77
982.28	2145.32
982.579	2157.08
982.878	2151.2
983.177	2122.73
983.475	2137.19
983.774	2140.58
984.073	2104.2
984.372	2147.81
984.67	2100.81
984.969	2099.45
985.267	2085.21
985.566	2097.87
985.864	2057.64
986.162	2075.04
986.461	2084.76
986.759	2016.51
987.057	2018.55
987.355	2030.98
987.653	2009.96
987.951	2012.22
988.249	2022.16
988.547	1962.5
988.844	1990.98
989.142	1953.69
989.44	1943.97
989.737	1936.29
990.035	1945.33
990.332	1940.58
990.63	1922.28
990.927	1936.52
991.224	1919.57
991.521	1909.85
991.819	1889.51
992.116	1888.61
992.413	1884.99
992.71	1860.13
993.006	1875.73
993.303	1867.59
993.6	1866.69
993.897	1842.73
994.193	1819.46
994.49	1838.67
994.787	1795.96
995.083	1782.62
995.379	1782.62
995.676	1817.2
995.972	1773.58
996.268	1750.53
996.565	1757.99
996.861	1770.19
997.157	1717.54
997.453	1751.21
997.749	1748.05
998.044	1696.98
998.34	1683.19
998.636	1706.01
998.932	1713.47
999.227	1672.79
999.523	1700.59
999.818	1677.99
1000.114	1668.5
1000.409	1652
1000.704	1626.92
1001	1651.55
1001.295	1640.93
1001.59	1621.5
1001.885	1605.45
1002.18	1591.89
1002.475	1613.59
1002.77	1593.25
1003.065	1569.29
1003.359	1553.25
1003.654	1560.26
1003.949	1576.53
1004.243	1532.23
1004.538	1556.41
1004.832	1533.36
1005.127	1516.41
1005.421	1532.91
1005.715	1508.73
1006.009	1508.28
1006.304	1489.07
1006.598	1489.52
1006.892	1496.3
1007.186	1489.75
1007.48	1451.56
1007.773	1439.35
1008.067	1437.32
1008.361	1438.22
1008.655	1422.18
1008.948	1410.43
1009.242	1411.56
1009.535	1409.75
1009.829	1390.99
1010.122	1396.64
1010.415	1375.85
1010.708	1370.2
1011.001	1350.32
1011.295	1381.05
1011.588	1367.72
1011.881	1331.11
1012.173	1333.14
1012.466	1334.27
1012.759	1322.07
1013.052	1304.22
1013.344	1319.58
1013.637	1316.87
1013.93	1271
1014.222	1295.86
1014.514	1294.05
1014.807	1261.73
1015.099	1256.99
1015.391	1258.12
1015.683	1238.46
1015.976	1265.8
1016.268	1255.63
1016.56	1208.17
1016.851	1241.17
1017.143	1205.01
1017.435	1202.52
1017.727	1209.3
1018.018	1206.14
1018.31	1193.94
1018.602	1175.63
1018.893	1191
1019.185	1165.24
1019.476	1177.44
1019.767	1175.41
1020.058	1184.9
1020.35	1149.19
1020.641	1119.36
1020.932	1147.84
1021.223	1113.49
1021.514	1126.37
1021.804	1106.26
1022.095	1104.9
1022.386	1113.94
1022.677	1106.71
1022.967	1082.98
1023.258	1069.2
1023.548	1052.7
1023.839	1044.79
1024.129	1064.22
1024.419	1064.22
1024.709	1041.85
1025	1037.56
1025.29	1018.12
1025.58	1018.57
1025.87	1010.21
1026.16	1005.92
1026.449	1006.37
1026.739	996.88
1027.029	980.84
1027.319	982.64
1027.608	979.93
1027.898	973.38
1028.187	982.64
1028.477	932.02
1028.766	972.47
1029.055	953.27
1029.344	958.01
1029.634	924.34
1029.923	951.68
1030.212	937.22
1030.501	898.13
1030.79	923.66
1031.078	925.02
1031.367	914.4
1031.656	904.91
1031.945	915.98
1032.233	891.57
1032.522	893.61
1032.81	873.27
1033.099	872.59
1033.387	861.74
1033.675	870.33
1033.963	876.66
1034.251	865.36
1034.54	855.64
1034.828	839.37
1035.116	842.99
1035.403	822.2
1035.691	869.88
1035.979	836.43
1036.267	815.19
1036.554	829.88
1036.842	812.25
1037.129	796.43
1037.417	802.76
1037.704	799.6
1037.992	809.77
1038.279	789.65
1038.566	779.49
1038.853	779.49
1039.14	779.49
