Data from white_steel_sheet_FLMS001491_029.txt Node
Date: Tue Feb 07 10:57:37 GMT 2017
User: dcchb
Spectrometer: FLMS00149
Trigger mode: 0
Integration Time (sec): 2.000000E-2
Scans to average: 10
Electric dark correction enabled: true
Nonlinearity correction enabled: false
Boxcar width: 0
XAxis mode: Wavelengths
Number of Pixels in Spectrum: 2048
>>>>>Begin Spectral Data<<<<<
341.393	-16.57
341.776	-16.57
342.16	-16.57
342.543	-61.31
342.927	-68.77
343.31	-67.64
343.693	-76.23
344.077	-70.8
344.46	-55.66
344.843	-55.21
345.226	-40.52
345.61	-12.5
345.993	-34.42
346.376	-0.52
346.759	11.68
347.142	16.43
347.525	34.73
347.908	76.09
348.291	89.64
348.674	77.67
349.057	107.27
349.44	105.24
349.823	133.94
350.206	164.9
350.588	182.52
350.971	208.29
351.354	225.69
351.737	253.48
352.119	255.29
352.502	270.88
352.884	272.69
353.267	282.18
353.65	281.96
354.032	295.74
354.414	303.2
354.797	323.76
355.179	331.9
355.562	320.6
355.944	322.63
356.326	302.52
356.709	347.49
357.091	342.52
357.473	338.9
357.855	340.03
358.238	336.87
358.62	326.02
359.002	342.07
359.384	341.84
359.766	347.72
360.148	342.07
360.53	371.45
360.912	344.33
361.294	347.72
361.676	353.59
362.057	331.45
362.439	343.42
362.821	346.81
363.203	354.5
363.584	349.75
363.966	321.5
364.348	344.55
364.729	333.93
365.111	328.73
365.493	309.07
365.874	332.35
366.256	335.06
366.637	341.39
367.019	334.16
367.4	295.29
367.781	326.25
368.163	325.8
368.544	314.05
368.925	305.23
369.306	351.78
369.688	324.67
370.069	332.8
370.45	348.62
370.831	336.87
371.212	324.89
371.593	331.22
371.974	327.15
372.355	333.48
372.736	328.06
373.117	338
373.498	333.93
373.879	327.83
374.26	341.39
374.641	316.76
375.021	325.12
375.402	337.55
375.783	331.67
376.163	341.84
376.544	330.99
376.925	339.13
377.305	335.97
377.686	358.11
378.066	354.95
378.447	350.2
378.827	339.81
379.208	345.23
379.588	353.14
379.968	363.99
380.349	330.09
380.729	370.99
381.109	370.09
381.489	351.11
381.87	354.72
382.25	376.19
382.63	369.41
383.01	382.29
383.39	366.47
383.77	375.74
384.15	364.67
384.53	377.32
384.91	367.15
385.29	380.26
385.67	376.42
386.049	381.39
386.429	409.41
386.809	382.52
387.189	401.05
387.568	402.86
387.948	405.57
388.328	395.17
388.707	424.55
389.087	389.75
389.466	419.13
389.846	425.91
390.225	417.09
390.605	429.97
390.984	423.65
391.363	435.62
391.743	427.71
392.122	424.33
392.501	441.95
392.881	466.81
393.26	456.41
393.639	451.22
394.018	469.97
394.397	478.79
394.776	468.84
395.155	444.89
395.534	488.28
395.913	464.78
396.292	493.48
396.671	477.2
397.05	499.35
397.429	504.77
397.808	507.03
398.186	501.16
398.565	509.97
398.944	515.62
399.323	514.27
399.701	531.44
400.08	520.14
400.458	565.56
400.837	567.6
401.215	569.18
401.594	569.86
401.972	568.28
402.351	581.16
402.729	604.43
403.107	589.74
403.486	602.17
403.864	605.56
404.242	607.37
404.62	640.14
404.999	642.4
405.377	654.6
405.755	671.55
406.133	689.63
406.511	664.77
406.889	672.23
407.267	693.24
407.645	692.34
408.023	725.11
408.401	747.48
408.779	746.35
409.156	755.16
409.534	769.85
409.912	789.74
410.29	801.94
410.667	810.98
411.045	802.39
411.422	811.43
411.8	829.96
412.178	862.05
412.555	887.14
412.933	875.39
413.31	879.23
413.687	885.56
414.065	910.87
414.442	927.59
414.819	907.25
415.197	930.75
415.574	925.55
415.951	958.1
416.328	971.66
416.705	983.86
417.082	983.18
417.46	982.28
417.837	1029.28
418.214	1028.6
418.591	1047.36
418.967	1029.51
419.344	1042.61
419.721	1071.99
420.098	1071.99
420.475	1059.79
420.852	1065.89
421.228	1093.46
421.605	1095.49
421.982	1126.91
422.358	1128.26
422.735	1169.16
423.111	1167.36
423.488	1184.53
423.864	1169.39
424.241	1199.67
424.617	1210.07
424.994	1208.94
425.37	1225.43
425.746	1237.18
426.123	1240.8
426.499	1260.69
426.875	1258.2
427.251	1305.88
427.627	1329.16
428.003	1360.57
428.379	1354.92
428.756	1377.52
429.132	1362.38
429.507	1406.22
429.883	1411.87
430.259	1437.18
430.635	1475.14
431.011	1497.74
431.387	1502.04
431.763	1540.91
432.138	1532.32
432.514	1569.83
432.89	1586.1
433.265	1587.01
433.641	1616.16
434.016	1636.95
434.392	1645.31
434.767	1694.8
435.143	1671.98
435.518	1710.17
435.894	1711.75
436.269	1771.86
436.644	1766.89
437.02	1803.72
437.395	1789.26
437.77	1867.68
438.145	1868.35
438.52	1866.32
438.895	1907.45
439.271	1887.34
439.646	1947.67
440.021	1952.19
440.395	1974.79
440.77	1935.25
441.145	2033.77
441.52	1994.91
441.895	2019.09
442.27	2048.92
442.645	2066.32
443.019	2051.85
443.394	2067.9
443.769	2111.74
444.143	2076.48
444.518	2144.51
444.892	2148.35
445.267	2155.58
445.641	2185.41
446.016	2193.77
446.39	2243.94
446.764	2241.9
447.139	2235.35
447.513	2254.33
447.887	2248.01
448.262	2304.05
448.636	2287.55
449.01	2344.5
449.384	2357.61
449.758	2396.93
450.132	2391.96
450.506	2407.32
450.88	2452.29
451.254	2462.46
451.628	2474.44
452.002	2502.24
452.376	2532.07
452.75	2531.61
453.123	2577.04
453.497	2611.39
453.871	2617.04
454.244	2708.78
454.618	2693.87
454.992	2730.71
455.365	2745.17
455.739	2813.41
456.112	2822.68
456.486	2839.18
456.859	2895.45
457.232	2919.4
457.606	2909.46
457.979	2966.18
458.352	3048.89
458.725	3058.83
459.099	3119.17
459.472	3118.04
459.845	3176.57
460.218	3232.61
460.591	3238.26
460.964	3237.13
461.337	3318.03
461.71	3376.79
462.083	3425.38
462.456	3416.56
462.829	3418.37
463.201	3514.19
463.574	3506.05
463.947	3574.75
464.32	3664.24
464.692	3669.89
465.065	3688.19
465.438	3733.16
465.81	3798.93
466.183	3828.3
466.555	3944.01
466.928	3967.51
467.3	3953.05
467.672	4025.13
468.045	4094.96
468.417	4081.18
468.789	4186.94
469.161	4242.53
469.534	4258.8
469.906	4380.61
470.278	4423.54
470.65	4501.51
471.022	4537.66
471.394	4650.88
471.766	4654.72
472.138	4672.8
472.51	4772.69
472.882	4824.44
473.253	4927.71
473.625	4981.72
473.997	5077.08
474.369	5150.53
474.74	5212.22
475.112	5278.89
475.484	5372.9
475.855	5468.94
476.227	5495.83
476.598	5662.38
476.97	5676.16
477.341	5868.48
477.713	5926.55
478.084	5990.05
478.455	6137.4
478.827	6134.91
479.198	6318.18
479.569	6360.44
479.94	6520.44
480.311	6562.92
480.682	6768.79
481.053	6849.69
481.424	6952.97
481.795	7001.55
482.166	7177.14
482.537	7263.47
482.908	7418.94
483.279	7498.72
483.65	7627.75
484.021	7822.55
484.391	7827.97
484.762	7949.32
485.133	8021.64
485.503	8159.04
485.874	8383.66
486.244	8385.47
486.615	8522.19
486.985	8608.52
487.356	8816.42
487.726	8926.93
488.097	9079.46
488.467	9094.61
488.837	9307.03
489.207	9408.72
489.578	9534.14
489.948	9620.47
490.318	9812.78
490.688	9817.98
491.058	9918.09
491.428	10065.88
491.798	10150.17
492.168	10387
492.538	10423.84
492.908	10601.91
493.278	10707.67
493.648	10748.35
494.017	10877.84
494.387	10920.32
494.757	11082.35
495.126	11220.65
495.496	11222.91
495.866	11313.3
496.235	11483.92
496.605	11635.1
496.974	11586.07
497.344	11769.34
497.713	11841.65
498.082	11946.51
498.452	12129.78
498.821	12132.49
499.19	12243
499.559	12335.88
499.928	12424.91
500.298	12501.97
500.667	12570.9
501.036	12584.23
501.405	12688.64
501.774	12676.66
502.143	12967.5
502.512	12920.04
502.88	13087.49
503.249	13105.35
503.618	13324.1
503.987	13360.48
504.356	13407.26
504.724	13534.04
505.093	13573.58
505.462	13745.78
505.83	13772.67
506.199	13909.39
506.567	14066.68
506.936	13989.39
507.304	14181.7
507.672	14357.97
508.041	14420.34
508.409	14512.99
508.777	14584.86
509.145	14725.19
509.514	14739.43
509.882	14885.87
510.25	14947.78
510.618	15157.04
510.986	15141.68
511.354	15369.47
511.722	15468
512.09	15560.65
512.458	15622.57
512.826	15676.13
513.193	15916.12
513.561	15938.95
513.929	16161.76
514.297	16211.48
514.664	16369.67
515.032	16425.94
515.4	16641.53
515.767	16608.08
516.135	16842.2
516.502	16722.2
516.869	17143.89
517.237	17111.57
517.604	17021.4
517.972	17335.52
518.339	17399.02
518.706	17518.56
519.073	17674.94
519.44	17694.38
519.808	17938.89
520.175	18075.84
520.542	18220.47
520.909	18268.6
521.276	18310.18
521.643	18621.81
522.009	18723.73
522.376	18838.53
522.743	18985.19
523.11	19301.79
523.477	19392.19
523.843	19558.06
524.21	19632.41
524.577	19856.81
524.943	19951.27
525.31	20116.91
525.676	20269.68
526.043	20387.19
526.409	20596.9
526.776	20798.03
527.142	20804.81
527.508	20849.32
527.874	21066.04
528.241	21303.78
528.607	21314.62
528.973	21555.75
529.339	21591.9
529.705	21765.68
530.071	21945.12
530.437	22031.89
530.803	22210.42
531.169	22256.52
531.535	22359.12
531.901	22499.9
532.267	22636.4
532.632	22701.25
532.998	22869.38
533.364	22907.35
533.73	23019.21
534.095	23305.76
534.461	23312.76
534.826	23457.84
535.192	23540.1
535.557	23646.99
535.923	23726.76
536.288	23831.62
536.653	23955.68
537.019	23985.97
537.384	24210.14
537.749	24169.69
538.114	24300.53
538.479	24324.94
538.845	24507.76
539.21	24405.62
539.575	24656.91
539.94	24659.85
540.305	24877.69
540.67	24789.79
541.034	25048.08
541.399	25019.16
541.764	25195.88
542.129	25310.22
542.494	25368.3
542.858	25471.12
543.223	25528.52
543.587	25604.45
543.952	25502.54
544.316	25849.65
544.681	25870.89
545.045	25939.36
545.41	26140.94
545.774	26158.11
546.138	26259.58
546.503	26220.71
546.867	26323.76
547.231	26563.07
547.595	26573.92
547.959	26788.6
548.324	26748.38
548.688	26777.53
549.052	26947.02
549.416	26967.81
549.779	27132.55
550.143	27177.97
550.507	27194.02
550.871	27368.25
551.235	27497.06
551.599	27798.75
551.962	27679.88
552.326	27660.9
552.689	27887.78
553.053	27836.71
553.417	27945.18
553.78	28304.04
554.143	28224.05
554.507	28380.43
554.87	28438.28
555.234	28699.51
555.597	28586.52
555.96	28718.95
556.323	28863.35
556.686	28911.03
557.05	29217.47
557.413	29211.14
557.776	29208.88
558.139	29490.23
558.502	29538.81
558.865	29624.69
559.228	29748.3
559.59	29936.32
559.953	30044.11
560.316	30341.05
560.679	30359.81
561.041	30442.52
561.404	30613.81
561.767	30734.49
562.129	30640.48
562.492	31086.57
562.854	31025.1
563.217	31037.76
563.579	31163.86
563.941	31455.37
564.304	31489.95
564.666	31800.68
565.028	31904.18
565.39	31943.27
565.753	32039.31
566.115	32168.35
566.477	32414.9
566.839	32325.86
567.201	32675.23
567.563	32739.63
567.925	32841.55
568.287	32978.27
568.648	32898.05
569.01	33213.75
569.372	33345.72
569.734	33366.28
570.095	33411.48
570.457	33720.17
570.819	33695.77
571.18	33683.11
571.542	34003.56
571.903	33896.44
572.265	34039.03
572.626	34193.38
572.987	34255.75
573.349	34404.45
573.71	34515.63
574.071	34566.48
574.432	34586.36
574.794	34771.9
575.155	35014.38
575.516	34714.72
575.877	34910.65
576.238	35043.75
576.599	35161.26
576.96	35076.75
577.32	35005.11
577.681	35308.38
578.042	35384.99
578.403	35310.87
578.763	35300.24
579.124	35502.72
579.485	35563.74
579.845	35544.76
580.206	35556.28
580.566	35558.32
580.927	35584.98
581.287	35827.01
581.648	35745.88
582.008	35802.6
582.368	35827.91
582.728	35883.73
583.089	35733.68
583.449	35817.74
583.809	35848.93
584.169	35898.19
584.529	35757.18
584.889	36062.03
585.249	35896.16
585.609	35709.5
585.969	35995.37
586.329	35798.08
586.688	35950.62
587.048	35860.91
587.408	35853.68
587.768	35917.63
588.127	35896.61
588.487	35872.88
588.846	35914.01
589.206	35769.38
589.565	35767.12
589.925	36059.77
590.284	35824.98
590.643	35976.84
591.003	36010.96
591.362	36148.36
591.721	36011.19
592.08	35921.7
592.44	35975.93
592.799	35924.18
593.158	35882.15
593.517	35970.28
593.876	36005.08
594.235	36038.76
594.593	36031.75
594.952	36094.12
595.311	36017.97
595.67	36031.98
596.029	36291.4
596.387	36176.83
596.746	36217.28
597.104	36007.34
597.463	36095.25
597.822	36149.71
598.18	36098.42
598.538	36008.02
598.897	36402.59
599.255	35903.84
599.613	36569.36
599.972	36362.14
600.33	36338.63
600.688	36018.64
601.046	36189.94
601.404	36320.56
601.762	36438.75
602.12	36235.59
602.478	36441.91
602.836	36431.06
603.194	36224.06
603.552	36266.32
603.91	36354.45
604.268	36570.95
604.625	36332.99
604.983	36381.57
605.341	36318.3
605.698	36494.11
606.056	36583.6
606.413	36480.78
606.771	36605.75
607.128	36680.32
607.485	36506.09
607.843	36487.33
608.2	36765.52
608.557	36710.15
608.914	36634.45
609.272	36812.52
609.629	36778.4
609.986	37043.48
610.343	36831.28
610.7	36990.14
611.057	36938.39
611.414	36927.55
611.771	37008
612.127	37132.74
612.484	37030.59
612.841	37322.34
613.198	36990.14
613.554	37229.01
613.911	37364.37
614.267	37252.96
614.624	37335.9
614.98	37344.48
615.337	37501.32
615.693	37548.32
616.05	37490.24
616.406	37644.82
616.762	37459.06
617.118	37642.33
617.475	37478.27
617.831	37666.74
618.187	37768.2
618.543	37605.04
618.899	38110.34
619.255	37798.26
619.611	37760.52
619.967	37764.81
620.323	38047.74
620.678	37862.21
621.034	37731.14
621.39	37758.94
621.746	37888.65
622.101	38206.16
622.457	37787.64
622.812	38046.84
623.168	38042.09
623.523	38134.52
623.879	38266.72
624.234	37896.11
624.589	38110.79
624.945	38103.11
625.3	38095.42
625.655	38081.87
626.01	38200.73
626.365	38122.99
626.72	37953.51
627.075	38110.79
627.43	37959.16
627.785	37850.46
628.14	37970.46
628.495	38073.5
628.85	37905.6
629.205	37747.19
629.559	37832.83
629.914	37751.25
630.269	37902.44
630.623	37752.61
630.978	37598.49
631.332	37806.17
631.687	37808.88
632.041	37591.26
632.396	37832.83
632.75	37671.26
633.104	37779.28
633.459	37312.85
633.813	37597.13
634.167	37426.29
634.521	37366.63
634.875	37483.69
635.229	37360.08
635.583	37341.32
635.937	37321.21
636.291	37115.79
636.645	37183.58
636.999	37045.28
637.352	37201.89
637.706	36984.49
638.06	37128.67
638.413	37000.76
638.767	36907.89
639.121	37034.44
639.474	36669.47
639.828	36718.96
640.181	36713.99
640.534	36723.71
640.888	36647.1
641.241	36514.9
641.594	36445.07
641.947	36606.42
642.301	36432.87
642.654	36402.59
643.007	36417.73
643.36	36508.35
643.713	36163.27
644.066	36477.39
644.419	36242.14
644.771	35959.89
645.124	35620.01
645.477	35553.57
645.83	35189.74
646.182	35316.97
646.535	35071.78
646.888	35118.33
647.24	35081.49
647.593	35207.14
647.945	35156.97
648.298	34920.14
648.65	34834.27
649.002	34711.11
649.355	34953.81
649.707	34760.6
650.059	34865.23
650.411	35258.66
650.763	35393.12
651.115	35747.69
651.467	35529.16
651.819	35653.23
652.171	35610.29
652.523	35519
652.875	35435.83
653.227	35229.51
653.578	35566
653.93	35423.86
654.282	35204.43
654.633	35198.55
654.985	35310.64
655.337	35294.14
655.688	35256.63
656.039	35320.58
656.391	34915.17
656.742	35029.29
657.094	35000.37
657.445	35185.44
657.796	35027.71
658.147	34901.84
658.498	34862.97
658.849	34961.5
659.2	34920.82
659.551	34799.69
659.902	34940.03
660.253	34755.4
660.604	34883.53
660.955	34522.19
661.306	34714.04
661.656	34683.09
662.007	34606.7
662.358	34601.51
662.708	34439.93
663.059	34430.89
663.409	34166.49
663.76	34468.63
664.11	34395.64
664.461	34421.17
664.811	34428.18
665.161	34231.35
665.511	34101.86
665.862	33992.71
666.212	34205.36
666.562	34025.48
666.912	33928.53
667.262	33924.46
667.612	33754.75
667.962	33686.28
668.312	33668.87
668.662	33787.29
669.011	33729.44
669.361	33503
669.711	33350.92
670.06	33452.61
670.41	33149.79
670.76	33134.88
671.109	33102.56
671.459	33079.06
671.808	33030.47
672.157	32935.33
672.507	32798.84
672.856	32808.33
673.205	32816.47
673.554	32882.91
673.904	32516.36
674.253	32748.45
674.602	32453.77
674.951	32102.36
675.3	31951.63
675.649	32431.17
675.998	32420.09
676.346	32492.63
676.695	32457.61
677.044	32199.76
677.393	32230.27
677.741	32395.24
678.09	32220.78
678.438	32063.27
678.787	32154.79
679.135	32209.93
679.484	31907.79
679.832	32081.8
680.181	32069.14
680.529	32018.75
680.877	32059.2
681.225	31833.67
681.573	32231.4
681.922	31931.52
682.27	31872.76
682.618	32101.68
682.966	31807.91
683.314	31968.35
683.661	31940.78
684.009	31810.17
684.357	31779.66
684.705	31774.69
685.053	31869.6
685.4	31843.61
685.748	31721.36
686.095	31748.02
686.443	31661.02
686.79	31672.32
687.138	31864.85
687.485	31801.35
687.832	31704.18
688.18	31821.69
688.527	31664.63
688.874	31761.81
689.221	31836.15
689.568	31620.57
689.915	31584.41
690.262	31555.71
690.609	31510.74
690.956	31447.01
691.303	31445.43
691.65	31286.79
691.997	31408.6
692.344	31311.87
692.69	31385.09
693.037	31296.96
693.383	31160.69
693.73	31313
694.077	30936.52
694.423	31050.19
694.769	31150.97
695.116	30927.7
695.462	30852.68
695.808	30908.72
696.155	30912.79
696.501	30601.38
696.847	30713.7
697.193	30606.81
697.539	30726.58
697.885	30475.29
698.231	30291.11
698.577	30486.36
698.923	30265.8
699.269	30268.29
699.614	30171.34
699.96	30099.25
700.306	30092.92
700.651	29978.8
700.997	29806.83
701.342	29931.12
701.688	29815.42
702.033	29784.68
702.379	29625.14
702.724	29514.41
703.069	29641.18
703.415	29160.29
703.76	29286.39
704.105	29279.61
704.45	29255.88
704.795	28967.76
705.14	29059.05
705.485	28974.31
705.83	28967.98
706.175	28946.74
706.52	28864.93
706.865	28668.33
707.209	28725.05
707.554	28517.37
707.899	28687.54
708.243	28527.99
708.588	28417.71
708.932	28221.56
709.277	28275.57
709.621	28226.08
709.966	28084.16
710.31	28257.72
710.654	27929.36
710.998	27962.36
711.342	27981.34
711.687	27864.96
712.031	27775.7
712.375	27644.85
712.719	27726.21
713.063	27589.71
713.407	27657.28
713.75	27401.47
714.094	27478.08
714.438	27423.39
714.782	27424.97
715.125	27238.99
715.469	27458.87
715.812	27136.84
716.156	27014.13
716.499	27062.27
716.843	27080.57
717.186	26885.1
717.53	26998.99
717.873	26993.34
718.216	26884.42
718.559	26813.46
718.902	26676.06
719.246	26721.26
719.589	26664.09
719.932	26529.63
720.275	26476.07
720.617	26519.23
720.96	26503.87
721.303	26477.2
721.646	26436.3
721.989	26258.9
722.331	26254.61
722.674	26219.35
723.016	26245.34
723.359	26229.07
723.701	26196.53
724.044	25937.55
724.386	25810.1
724.729	25985.91
725.071	25926.48
725.413	25910.21
725.755	25860.72
726.097	25798.8
726.439	25686.94
726.782	25733.94
727.124	25858.46
727.465	25630.89
727.807	25555.64
728.149	25511.35
728.491	25507.96
728.833	25547.05
729.175	25406.49
729.516	25278.36
729.858	25323.33
730.199	25353.39
730.541	25355.19
730.882	25279.94
731.224	25302.09
731.565	25077.24
731.906	25037.01
732.248	25074.52
732.589	24900.29
732.93	24881.76
733.271	24899.16
733.612	24936.45
733.953	24947.52
734.294	24884.47
734.635	24700.3
734.976	24792.5
735.317	24667.53
735.658	24644.25
735.999	24575.55
736.339	24478.83
736.68	24655.1
737.021	24521.32
737.361	24462.56
737.702	24545.95
738.042	24405.62
738.383	24350.93
738.723	24378.72
739.063	24239.29
739.404	24364.26
739.744	24334.43
740.084	24214.66
740.424	24167.2
740.764	24117.71
741.104	24176.47
741.444	24127.43
741.784	23976.47
742.124	24038.39
742.464	23947.77
742.804	23932.86
743.143	23874.1
743.483	23910.71
743.823	23847.66
744.162	23850.15
744.502	23776.48
744.841	23740.77
745.181	23757.27
745.52	23595.24
745.86	23688.8
746.199	23543.27
746.538	23457.39
746.877	23593.66
747.216	23594.79
747.556	23430.5
747.895	23534.68
748.234	23454.91
748.573	23255.14
748.911	23287.9
749.25	23270.05
749.589	23058.53
749.928	23139.89
750.267	23178.3
750.605	23070.74
750.944	23028.93
751.283	22978.53
751.621	22976.05
751.96	22755.49
752.298	22846.56
752.636	22730.86
752.975	22665.1
753.313	22572.44
753.651	22691.99
753.989	22573.35
754.327	22455.16
754.666	22431.88
755.004	22445.21
755.342	22408.61
755.679	22332.22
756.017	22233.47
756.355	22258.78
756.693	22087.48
757.031	22115.51
757.368	21984.21
757.706	21954.61
758.044	21889.98
758.381	21905.57
758.719	21772.01
759.056	21833.71
759.394	21728.62
759.731	21591.23
760.068	21555.75
760.405	21465.13
760.743	21309.88
761.08	21364.34
761.417	21254.06
761.754	21110.11
762.091	21263.78
762.428	21140.39
762.765	20968.42
763.102	21087.51
763.438	21045.48
763.775	20765.71
764.112	20834.86
764.449	20879.38
764.785	20639.16
765.122	20560.74
765.458	20410.69
765.795	20477.13
766.131	20544.47
766.467	20335.44
766.804	20286.18
767.14	20162.56
767.476	20116.46
767.812	20007.99
768.148	20087.31
768.485	19936.35
768.821	19800.09
769.157	19783.36
769.492	19896.58
769.828	19735.68
770.164	19571.17
770.5	19464.73
770.836	19570.49
771.171	19326.65
771.507	19397.84
771.842	19281.46
772.178	19176.83
772.513	19195.13
772.849	19168.69
773.184	19064.51
773.519	19030.39
773.855	18942.93
774.19	18876.5
774.525	18750.17
774.86	18723.73
775.195	18566.45
775.53	18621.13
775.865	18467.01
776.2	18379.11
776.535	18285.32
776.87	18252.56
777.205	18198.09
777.539	18150.19
777.874	18209.39
778.209	17929.18
778.543	17930.76
778.878	17856.18
779.212	17856.41
779.547	17752.91
779.881	17724.89
780.215	17584.78
780.55	17625.91
780.884	17462.3
781.218	17413.03
781.552	17401.05
781.886	17338.23
782.22	17264.56
782.554	17223.88
782.888	17093.94
783.222	17035.87
783.556	16907.28
783.889	16858.7
784.223	16660.96
784.557	16740.51
784.89	16800.84
785.224	16618.48
785.557	16665.71
785.891	16469.78
786.224	16564.24
786.558	16461.87
786.891	16295.32
787.224	16301.65
787.557	16247.64
787.891	16214.64
788.224	16213.74
788.557	16211.93
788.89	16029.56
789.223	16087.42
789.556	16033.18
789.888	15970.13
790.221	15901.21
790.554	15769.01
790.887	15712.28
791.219	15587.54
791.552	15554.55
791.884	15472.52
792.217	15487.43
792.549	15388
792.882	15266.65
793.214	15294.67
793.546	15198.17
793.879	15165.63
794.211	15074.34
794.543	15125.86
794.875	15081.57
795.207	15152.75
795.539	14939.42
795.871	14991.17
796.203	14925.41
796.535	14749.6
796.867	14780.33
797.198	14684.52
797.53	14671.18
797.862	14575.59
798.193	14656.04
798.525	14416.27
798.856	14555.25
799.188	14351.87
799.519	14319.33
799.85	14187.8
800.182	14274.58
800.513	14259.67
800.844	14094.93
801.175	14203.62
801.506	14154.36
801.837	14095.38
802.168	14031.2
802.499	14045.89
802.83	13955.04
803.161	13931.77
803.491	13873.46
803.822	13803.41
804.153	13778.32
804.483	13646.58
804.814	13580.82
805.145	13578.33
805.475	13588.27
805.805	13543.08
806.136	13556.18
806.466	13548.95
806.796	13499.01
807.126	13320.71
807.457	13320.26
807.787	13332.91
808.117	13248.17
808.447	13247.49
808.777	13256.53
809.107	13140.83
809.436	13141.5
809.766	13075.29
810.096	13050.21
810.426	13068.06
810.755	13116.19
811.085	12977.89
811.414	12938.12
811.744	12851.12
812.073	12892.92
812.403	12836.88
812.732	12767.96
813.061	12719.37
813.39	12673.95
813.719	12625.13
814.049	12738.35
814.378	12648.18
814.707	12619.26
815.036	12566.15
815.365	12493.84
815.693	12373.84
816.022	12422.65
816.351	12332.03
816.68	12292.26
817.008	12358.93
817.337	12254.3
817.665	12202.77
817.994	12252.94
818.322	12207.97
818.651	12130.46
818.979	12145.37
819.307	12160.51
819.636	12065.6
819.964	12095.43
820.292	12078.71
820.62	12092.94
820.948	11967.52
821.276	12020.4
821.604	12022.66
821.932	12073.28
822.259	12032.16
822.587	11913.06
822.915	12001.87
823.243	11996.22
823.57	11935.89
823.898	11951.03
824.225	11911.93
824.553	11896.11
824.88	12005.04
825.207	11949.67
825.535	11931.14
825.862	11953.97
826.189	11824.25
826.516	11949.9
826.843	11855.66
827.17	11948.32
827.497	11972.95
827.824	11947.41
828.151	12053.85
828.478	11928.66
828.805	11931.14
829.131	11903.35
829.458	11907.86
829.785	11787.42
830.111	11923.68
830.438	11967.75
830.764	11902.67
831.09	11842.1
831.417	11836.23
831.743	11873.97
832.069	11834.87
832.395	11742.67
832.722	11770.69
833.048	11784.03
833.374	11835.78
833.7	11766.17
834.026	11771.15
834.351	11794.65
834.677	11756.46
835.003	11793.52
835.329	11782.9
835.654	11727.08
835.98	11677.81
836.306	11727.98
836.631	11609.57
836.956	11651.15
837.282	11628.1
837.607	11595.33
837.932	11525.05
838.258	11590.36
838.583	11587.42
838.908	11510.81
839.233	11513.75
839.558	11497.93
839.883	11451.61
840.208	11462.45
840.533	11357.37
840.858	11389.46
841.182	11407.31
841.507	11347.88
841.832	11349.91
842.156	11281.21
842.481	11243.48
842.805	11193.76
843.13	11240.76
843.454	11222.91
843.778	11217.26
844.103	11129.58
844.427	11095.68
844.751	11144.72
845.075	11090.71
845.399	11050.71
845.723	10990.6
846.047	10988.79
846.371	10921.45
846.695	10860.21
847.019	10806.42
847.343	10793.09
847.666	10664.06
847.99	10704.51
848.313	10781.11
848.637	10603.94
848.96	10577.5
849.284	10521.69
849.607	10463.84
849.931	10406.66
850.254	10392.2
850.577	10363.72
850.9	10312.88
851.223	10262.71
851.546	10186.55
851.869	10177.51
852.192	10191.75
852.515	10088.93
852.838	10050.29
853.161	10062.72
853.483	10043.96
853.806	10028.82
854.129	10011.19
854.451	9878.54
854.774	9857.75
855.096	9828.15
855.419	9763.97
855.741	9766
856.063	9727.13
856.385	9728.49
856.708	9628.6
857.03	9693.69
857.352	9686.23
857.674	9631.99
857.996	9656.4
858.318	9519
858.64	9520.13
858.961	9482.84
859.283	9467.25
859.605	9407.14
859.926	9453.47
860.248	9422.28
860.57	9373.47
860.891	9392.45
861.212	9293.7
861.534	9296.41
861.855	9288.05
862.176	9249.4
862.498	9239.69
862.819	9227.71
863.14	9191.78
863.461	9183.64
863.782	9109.29
864.103	9140.93
864.424	9102.74
864.745	9146.58
865.065	9057.09
865.386	9058.22
865.707	9116.75
866.027	9130.08
866.348	9036.3
866.668	8999.47
866.989	8962.86
867.309	8953.59
867.63	8982.07
867.95	8961.05
868.27	8934.16
868.59	8949.52
868.91	8864.78
869.23	8898.68
869.55	8916.08
869.87	8827.49
870.19	8841.5
870.51	8850.77
870.83	8829.53
871.15	8780.94
871.469	8724.67
871.789	8765.57
872.109	8731.68
872.428	8726.25
872.748	8783.43
873.067	8752.02
873.386	8737.1
873.706	8694.62
874.025	8665.92
874.344	8576.88
874.663	8637.22
874.982	8660.04
875.301	8603.54
875.62	8575.07
875.939	8563.77
876.258	8539.59
876.577	8509.99
876.896	8531
877.214	8455.98
877.533	8534.62
877.852	8531.91
878.17	8410.1
878.489	8481.97
878.807	8451.91
879.125	8419.6
879.444	8457.33
879.762	8459.59
880.08	8435.87
880.398	8318.35
880.716	8397.67
881.034	8389.09
881.352	8399.93
881.67	8304.34
881.988	8361.74
882.306	8279.03
882.624	8283.78
882.941	8152.48
883.259	8196.1
883.577	8166.04
883.894	8175.76
884.212	8134.4
884.529	8108.87
884.846	8134.86
885.164	8079.04
885.481	8092.15
885.798	8093.73
886.115	8016.89
886.432	8011.24
886.75	8001.98
887.067	8012.83
887.383	7954.75
887.7	7950.91
888.017	7919.04
888.334	7940.74
888.651	7871.59
888.967	7885.15
889.284	7824.58
889.6	7835.43
889.917	7747.07
890.233	7778.48
890.55	7734.64
890.866	7745.94
891.182	7747.3
891.498	7636.56
891.815	7687.18
892.131	7624.36
892.447	7529.67
892.763	7554.53
893.079	7571.03
893.395	7561.76
893.71	7498.04
894.026	7498.94
894.342	7440.64
894.657	7446.51
894.973	7353.18
895.289	7406.74
895.604	7435.89
895.92	7362.45
896.235	7317.25
896.55	7295.56
896.865	7319.28
897.181	7241.77
897.496	7256.24
897.811	7217.14
898.126	7191.6
898.441	7145.96
898.756	7159.52
899.071	7053.3
899.386	7115.45
899.7	7028.22
900.015	7015.34
900.33	6976.92
900.644	6983.25
900.959	7025.51
901.273	6950.26
901.588	6925.85
901.902	6885.85
902.216	6867.09
902.531	6851.95
902.845	6790.94
903.159	6746.42
903.473	6757.94
903.787	6727.21
904.101	6693.09
904.415	6698.96
904.729	6657.38
905.042	6666.87
905.356	6524.05
905.67	6579.42
905.984	6589.13
906.297	6499.87
906.611	6496.26
906.924	6482.92
907.237	6453.32
907.551	6450.61
907.864	6362.47
908.177	6374
908.491	6398.41
908.804	6338.75
909.117	6271.4
909.43	6261.23
909.743	6217.17
910.056	6220.78
910.368	6207.68
910.681	6162.93
910.994	6158.41
911.307	6133.33
911.619	6113.89
911.932	6085.65
912.244	6068.92
912.557	6100.33
912.869	5984.86
913.181	6032.54
913.494	6000.22
913.806	5921.58
914.118	5942.37
914.43	5868.7
914.742	5834.58
915.054	5823.28
915.366	5814.24
915.678	5775.37
915.99	5779.66
916.302	5763.62
916.613	5730.4
916.925	5735.82
917.236	5702.15
917.548	5618.76
917.859	5718.2
918.171	5575.15
918.482	5594.13
918.794	5531.99
919.105	5567.01
919.416	5521.14
919.727	5529.28
920.038	5440.46
920.349	5495.15
920.66	5408.15
920.971	5386.68
921.282	5332.67
921.593	5374.03
921.903	5347.81
922.214	5312.56
922.525	5321.82
922.835	5259.68
923.146	5220.58
923.456	5246.12
923.767	5237.76
924.077	5167.7
924.387	5212.9
924.697	5173.13
925.008	5114.82
925.318	5157.08
925.628	5084.54
925.938	5092.68
926.248	5010.65
926.558	5004.54
926.867	4997.76
927.177	4956.86
927.487	4972.45
927.796	4892.91
928.106	4922.06
928.416	4876.86
928.725	4892.91
929.034	4864.21
929.344	4880.03
929.653	4820.14
929.962	4716.87
930.271	4749.86
930.581	4763.87
930.89	4679.58
931.199	4696.98
931.508	4666.47
931.817	4669.19
932.125	4654.04
932.434	4637.55
932.743	4605.46
933.051	4594.61
933.36	4534.5
933.669	4502.41
933.977	4527.72
934.286	4473.94
934.594	4548.06
934.902	4440.94
935.21	4431.23
935.519	4422.41
935.827	4427.38
936.135	4414.73
936.443	4330.66
936.751	4383.09
937.059	4348.74
937.367	4259.48
937.674	4302.87
937.982	4301.74
938.29	4264.9
938.597	4284.11
938.905	4235.75
939.213	4209.08
939.52	4191.46
939.827	4188.97
940.135	4165.24
940.442	4177.9
940.749	4159.37
941.056	4086.6
941.363	4089.77
941.67	4075.75
941.977	4098.58
942.284	4001.63
942.591	4023.78
942.898	4006.83
943.205	4019.26
943.511	3998.92
943.818	3947.85
944.125	3891.58
944.431	3958.02
944.738	3899.94
945.044	3885.02
945.35	3863.56
945.657	3870.11
945.963	3838.25
946.269	3794.18
946.575	3835.08
946.881	3799.15
947.187	3766.61
947.493	3722.09
947.799	3724.58
948.105	3719.15
948.41	3703.33
948.716	3683.22
949.022	3675.76
949.327	3674.86
949.633	3658.59
949.938	3616.11
950.244	3615.65
950.549	3593.28
950.854	3603.68
951.16	3572.49
951.465	3528.88
951.77	3531.36
952.075	3498.59
952.38	3517.58
952.685	3532.27
952.99	3462.21
953.294	3470.35
953.599	3452.27
953.904	3476.9
954.209	3363.91
954.513	3409.11
954.818	3349.45
955.122	3364.13
955.426	3351.48
955.731	3386.51
956.035	3314.19
956.339	3330.69
956.643	3279.84
956.948	3232.39
957.252	3244.36
957.556	3209.11
957.86	3193.29
958.163	3220.86
958.467	3259.5
958.771	3200.07
959.075	3202.56
959.378	3178.6
959.682	3145.84
959.985	3148.55
960.289	3121.2
960.592	3111.03
960.896	3121.43
961.199	3088.44
961.502	3081.43
961.805	3040.08
962.108	3040.98
962.411	3051.15
962.714	3027.87
963.017	3002.34
963.32	3006.4
963.623	2983.81
963.926	2968.44
964.228	2978.16
964.531	2971.83
964.833	2952.17
965.136	2910.36
965.438	2915.56
965.741	2868.33
966.043	2890.7
966.345	2880.31
966.648	2879.18
966.95	2878.05
967.252	2838.72
967.554	2820.19
967.856	2806.86
968.158	2776.58
968.46	2769.12
968.761	2739.29
969.063	2740.2
969.365	2731.16
969.666	2771.61
969.968	2730.71
970.269	2733.64
970.571	2703.59
970.872	2690.71
971.174	2687.54
971.475	2646.64
971.776	2666.53
972.077	2673.53
972.378	2647.77
972.679	2604.38
972.98	2569.35
973.281	2617.71
973.582	2576.13
973.883	2588.79
974.183	2543.37
974.484	2575.91
974.785	2522.12
975.085	2544.95
975.386	2521.67
975.686	2513.54
975.986	2495.23
976.287	2502.69
976.587	2450.94
976.887	2484.61
977.187	2448.45
977.487	2449.81
977.787	2422.46
978.087	2414.33
978.387	2426.31
978.687	2426.08
978.987	2373.43
979.286	2383.82
979.586	2397.83
979.885	2395.57
980.185	2367.55
980.484	2368.68
980.784	2339.08
981.083	2329.59
981.382	2318.29
981.682	2288
981.981	2282.36
982.28	2275.58
982.579	2273.32
982.878	2257.5
983.177	2243.71
983.475	2228.35
983.774	2224.96
984.073	2250.04
984.372	2226.54
984.67	2202.58
984.969	2212.3
985.267	2182.02
985.566	2207.55
985.864	2181.57
986.162	2172.3
986.461	2135.47
986.759	2129.59
987.057	2103.15
987.355	2111.96
987.653	2105.18
987.951	2110.83
988.249	2084.39
988.547	2045.3
988.844	2044.85
989.142	2091.85
989.44	2061.8
989.737	2051.63
990.035	2036.71
990.332	2051.4
990.63	2014.34
990.927	1987.22
991.224	1987.45
991.521	2008.24
991.819	1962.14
992.116	1983.15
992.413	1956.49
992.71	1933.21
993.006	1954
993.303	1925.3
993.6	1927.56
993.897	1910.84
994.193	1901.8
994.49	1933.44
994.787	1917.17
995.083	1897.96
995.379	1888.24
995.676	1890.73
995.972	1878.52
996.268	1820.45
996.565	1810.96
996.861	1835.36
997.157	1807.11
997.453	1789.49
997.749	1818.86
998.044	1800.79
998.34	1765.08
998.636	1765.08
998.932	1761.46
999.227	1730.96
999.523	1786.32
999.818	1767.57
1000.114	1750.17
1000.409	1712.65
1000.704	1689.38
1001	1703.84
1001.295	1691.64
1001.59	1711.75
1001.885	1692.54
1002.18	1681.92
1002.475	1636.5
1002.77	1655.03
1003.065	1674.24
1003.359	1636.27
1003.654	1627.23
1003.949	1631.3
1004.243	1611.86
1004.538	1615.71
1004.832	1594.92
1005.127	1584.52
1005.421	1560.57
1005.715	1571.19
1006.009	1563.28
1006.304	1529.61
1006.598	1544.97
1006.892	1518.53
1007.186	1571.41
1007.48	1521.02
1007.773	1507.01
1008.067	1509.72
1008.361	1494.13
1008.655	1502.94
1008.948	1479.44
1009.242	1465.65
1009.535	1472.43
1009.829	1458.2
1010.122	1450.96
1010.415	1428.14
1010.708	1442.6
1011.001	1444.64
1011.295	1413
1011.588	1419.78
1011.881	1401.47
1012.173	1415.26
1012.466	1349.05
1012.759	1374.13
1013.052	1371.19
1013.344	1361.25
1013.637	1371.42
1013.93	1373.9
1014.222	1347.92
1014.514	1331.65
1014.807	1340.23
1015.099	1325.54
1015.391	1310.63
1015.683	1302.04
1015.976	1295.04
1016.268	1250.52
1016.56	1297.3
1016.851	1303.4
1017.143	1267.92
1017.435	1242.83
1017.727	1267.92
1018.018	1242.61
1018.31	1239.9
1018.602	1248.71
1018.893	1230.86
1019.185	1227.24
1019.476	1209.62
1019.767	1175.49
1020.058	1210.75
1020.35	1208.94
1020.641	1168.94
1020.932	1171.42
1021.223	1146.34
1021.514	1136.85
1021.804	1151.76
1022.095	1145.44
1022.386	1141.37
1022.677	1107.24
1022.967	1117.41
1023.258	1120.58
1023.548	1107.92
1023.839	1064.08
1024.129	1110.18
1024.419	1088.71
1024.709	1076.29
1025	1100.69
1025.29	1071.54
1025.58	1073.8
1025.87	1045.55
1026.16	1043.29
1026.449	1041.03
1026.739	1013.91
1027.029	1002.61
1027.319	1019.56
1027.608	1016.17
1027.898	1019.11
1028.187	1001.26
1028.477	1001.48
1028.766	973.01
1029.055	992.67
1029.344	989.28
1029.634	978.43
1029.923	945.67
1030.212	973.46
1030.501	976.17
1030.79	945.22
1031.078	941.37
1031.367	953.12
1031.656	959
1031.945	928.04
1032.233	945.44
1032.522	929.85
1032.81	940.24
1033.099	904.76
1033.387	895.27
1033.675	885.1
1033.963	910.64
1034.251	897.76
1034.54	890.53
1034.828	885.1
1035.116	867.25
1035.403	846.91
1035.691	876.29
1035.979	852.34
1036.267	854.14
1036.554	855.05
1036.842	815.73
1037.129	835.61
1037.417	846.01
1037.704	806.69
1037.992	796.52
1038.279	801.04
1038.566	822.51
1038.853	822.51
1039.14	822.51
