Data from white_poster_card_FLMS001491_00052.txt Node
Date: Wed Feb 08 11:51:42 GMT 2017
User: dcchb
Spectrometer: FLMS00149
Trigger mode: 0
Integration Time (sec): 2.000000E-2
Scans to average: 10
Electric dark correction enabled: true
Nonlinearity correction enabled: false
Boxcar width: 0
XAxis mode: Wavelengths
Number of Pixels in Spectrum: 2048
>>>>>Begin Spectral Data<<<<<
341.393	9.97
341.776	9.97
342.16	9.97
342.543	-67.31
342.927	-72.06
343.31	-85.17
343.693	-78.84
344.077	-46.07
344.46	-67.09
344.843	-56.47
345.226	-50.82
345.61	-35.68
345.993	-30.93
346.376	-11.5
346.759	9.29
347.142	32.8
347.525	36.86
347.908	42.29
348.291	98.78
348.674	92.46
349.057	150.08
349.44	128.61
349.823	139.69
350.206	164.09
350.588	190.53
350.971	221.94
351.354	224.2
351.737	235.5
352.119	245.67
352.502	266.91
352.884	276.18
353.267	294.94
353.65	304.88
354.032	276.86
354.414	315.27
354.797	328.61
355.179	309.4
355.562	324.99
355.944	342.17
356.326	314.14
356.709	335.84
357.091	347.59
357.473	346.91
357.855	320.02
358.238	350.08
358.62	352.56
359.002	347.14
359.384	339.91
359.766	338.55
360.148	350.08
360.53	340.58
360.912	358.21
361.294	344.88
361.676	366.12
362.057	352.56
362.439	347.82
362.821	325.9
363.203	326.57
363.584	315.5
363.966	332
364.348	312.34
364.729	338.32
365.111	331.32
365.493	329.06
365.874	332.45
366.256	315.05
366.637	302.17
367.019	333.35
367.4	315.5
367.781	325.22
368.163	312.34
368.544	317.08
368.925	308.49
369.306	320.25
369.688	304.43
370.069	330.19
370.45	332.9
370.831	332
371.212	334.03
371.593	319.34
371.974	303.98
372.355	324.31
372.736	306.69
373.117	322.05
373.498	324.77
373.879	318.66
374.26	324.54
374.641	319.12
375.021	321.15
375.402	343.52
375.783	315.5
376.163	321.83
376.544	334.71
376.925	318.89
377.305	348.04
377.686	322.96
378.066	338.1
378.447	357.08
378.827	351.21
379.208	348.95
379.588	343.3
379.968	359.34
380.349	353.01
380.729	349.17
381.109	334.03
381.489	330.42
381.87	354.82
382.25	332
382.63	354.14
383.01	345.1
383.39	353.69
383.77	353.47
384.15	346.23
384.53	368.15
384.91	362.73
385.29	357.31
385.67	350.75
386.049	357.53
386.429	364.54
386.809	362.96
387.189	350.98
387.568	369.28
387.948	381.71
388.328	373.8
388.707	367.48
389.087	367.93
389.466	365.22
389.846	379.68
390.225	378.55
390.605	392.56
390.984	403.41
391.363	389.85
391.743	381.49
392.122	387.14
392.501	409.28
392.881	394.14
393.26	386.68
393.639	411.54
394.018	395.72
394.397	378.1
394.776	426.68
395.155	409.06
395.534	414.25
395.913	397.53
396.292	409.28
396.671	421.49
397.05	417.64
397.429	407.93
397.808	412.67
398.186	432.11
398.565	441.82
398.944	433.69
399.323	433.69
399.701	450.64
400.08	447.25
400.458	450.64
400.837	434.82
401.215	449.73
401.594	444.31
401.972	466.91
402.351	454.93
402.729	450.19
403.107	476.63
403.486	485.67
403.864	476.85
404.242	468.49
404.62	497.42
404.999	474.59
405.377	496.06
405.755	493.57
406.133	513.69
406.511	522.05
406.889	522.5
407.267	520.01
407.645	526.79
408.023	525.44
408.401	539.68
408.779	543.52
409.156	559.11
409.534	551.65
409.912	584.42
410.29	582.16
410.667	608.15
411.045	609.28
411.422	619
411.8	632.33
412.178	609.28
412.555	684.3
412.933	663.06
413.31	662.16
413.687	688.37
414.065	694.93
414.442	719.33
414.819	718.88
415.197	752.55
415.574	772.44
415.951	776.28
416.328	800.23
416.705	800.69
417.082	838.88
417.46	816.05
417.837	847.24
418.214	825.09
418.591	862.83
418.967	876.39
419.344	883.17
419.721	901.47
420.098	921.81
420.475	939.66
420.852	944.41
421.228	955.94
421.605	992.54
421.982	996.16
422.358	1021.7
422.735	1014.46
423.111	1005.88
423.488	1044.75
423.864	1059.66
424.241	1062.6
424.617	1089.49
424.994	1094.46
425.37	1109.38
425.746	1112.32
426.123	1165.65
426.499	1154.57
426.875	1207
427.251	1184.4
427.627	1196.61
428.003	1210.62
428.379	1245.42
428.756	1261.01
429.132	1265.98
429.507	1287.9
429.883	1302.14
430.259	1335.81
430.635	1373.78
431.011	1362.93
431.387	1392.76
431.763	1425.98
432.138	1439.99
432.514	1433.89
432.89	1466.2
433.265	1483.83
433.641	1517.95
434.016	1526.54
434.392	1555.02
434.767	1574.68
435.143	1594.34
435.518	1566.31
435.894	1589.14
436.269	1646.99
436.644	1692.19
437.02	1676.14
437.395	1685.18
437.77	1717.5
438.145	1764.5
438.52	1760.21
438.895	1763.6
439.271	1790.49
439.646	1806.53
440.021	1858.74
440.395	1842.92
440.77	1823.26
441.145	1859.87
441.52	1885.63
441.895	1880.66
442.27	1913.42
442.645	1895.8
443.019	1966.3
443.394	1926.31
443.769	1952.97
444.143	1941.67
444.518	1983.93
444.892	1973.54
445.267	2011.5
445.641	2003.37
446.016	2044.27
446.39	2053.08
446.764	2021.67
447.139	2026.19
447.513	2087.43
447.887	2089.24
448.262	2091.05
448.636	2075.91
449.01	2122.01
449.384	2156.58
449.758	2193.64
450.132	2216.02
450.506	2183.7
450.88	2216.69
451.254	2222.57
451.628	2254.21
452.002	2265.96
452.376	2272.28
452.75	2307.99
453.123	2332.85
453.497	2362.68
453.871	2392.28
454.244	2431.38
454.618	2446.52
454.992	2489.23
455.365	2476.8
455.739	2518.38
456.112	2524.03
456.486	2591.37
456.859	2574.65
457.232	2646.06
457.606	2640.86
457.979	2715.21
458.352	2761.09
458.725	2743.46
459.099	2789.11
459.472	2819.62
459.845	2863.23
460.218	2882.66
460.591	2879.5
460.964	2908.43
461.337	2998.37
461.71	3035.43
462.083	3058.7
462.456	3087.86
462.829	3075.88
463.201	3167.18
463.574	3145.03
463.947	3176.89
464.32	3235.65
464.692	3277.46
465.065	3267.51
465.438	3354.52
465.81	3379.15
466.183	3450.78
466.555	3483.1
466.928	3525.36
467.3	3523.78
467.672	3592.02
468.045	3623.89
468.417	3669.08
468.789	3691.46
469.161	3772.58
469.534	3783.88
469.906	3877.44
470.278	3910.21
470.65	3980.49
471.022	4031.33
471.394	4089.41
471.766	4123.08
472.138	4133.48
472.51	4242.4
472.882	4270.2
473.253	4373.92
473.625	4412.12
473.997	4450.08
474.369	4490.53
474.74	4544.77
475.112	4692.56
475.484	4683.97
475.855	4838.77
476.227	4846
476.598	4914.93
476.97	5044.42
477.341	5126.22
477.713	5237.4
478.084	5166.67
478.455	5328.48
478.827	5386.55
479.198	5544.52
479.569	5540.9
479.94	5726.66
480.311	5749.93
480.682	5856.37
481.053	5996.48
481.424	6061.34
481.795	6178.62
482.166	6221.33
482.537	6300.43
482.908	6402.8
483.279	6500.87
483.65	6649.34
484.021	6782.9
484.391	6798.27
484.762	6885.72
485.133	6941.77
485.503	7046.62
485.874	7202.32
486.244	7241.65
486.615	7429.21
486.985	7452.49
487.356	7611.13
487.726	7713.27
488.097	7859.48
488.467	7892.93
488.837	8031.46
489.207	8186.03
489.578	8233.94
489.948	8313.48
490.318	8404.55
490.688	8512.35
491.058	8604.55
491.428	8709.18
491.798	8845.9
492.168	8978.78
492.538	9081.82
492.908	9179
493.278	9196.85
493.648	9302.16
494.017	9391.19
494.387	9509.16
494.757	9516.39
495.126	9661.47
495.496	9703.5
495.866	9792.09
496.235	9893.33
496.605	9993.66
496.974	10029.14
497.344	10134.68
497.713	10264.84
498.082	10261.91
498.452	10405.4
498.821	10491.5
499.19	10561.56
499.559	10598.62
499.928	10754.55
500.298	10766.75
500.667	10860.99
501.036	10879.74
501.405	10984.37
501.774	11026.86
502.143	11060.75
502.512	11168.1
502.88	11259.39
503.249	11239.96
503.618	11477.69
503.987	11523.79
504.356	11620.97
504.724	11592.94
505.093	11707.07
505.462	11800.4
505.83	11896.66
506.199	11899.83
506.567	12086.94
506.936	12129.65
507.304	12278.58
507.672	12383.21
508.041	12364.9
508.409	12493.71
508.777	12639.02
509.145	12579.58
509.514	12714.95
509.882	12804.66
510.25	12883.08
510.618	12995.62
510.986	13041.72
511.354	13157.87
511.722	13220.47
512.09	13410.3
512.458	13351.09
512.826	13489.84
513.193	13581.82
513.561	13647.58
513.929	13826.56
514.297	13948.36
514.664	14059.77
515.032	14064.07
515.4	14208.92
515.767	14337.5
516.135	14381.35
516.502	14311.52
516.869	14589.02
517.237	14694.78
517.604	14603.71
517.972	14878.96
518.339	14880.77
518.706	14994.44
519.073	15207.54
519.44	15182
519.808	15335.44
520.175	15344.03
520.542	15613.4
520.909	15674.64
521.276	15698.82
521.643	15920.06
522.009	16040.74
522.376	16149.66
522.743	16266.72
523.11	16377.68
523.477	16534.06
523.843	16652.92
524.21	16900.37
524.577	16860.6
524.943	17052.46
525.31	17204.77
525.676	17310.99
526.043	17422.17
526.409	17494.94
526.776	17767.92
527.142	17847.24
527.508	17889.5
527.874	18061.25
528.241	18155.94
528.607	18301.24
528.973	18532.2
529.339	18434.35
529.705	18555.7
530.071	18767.9
530.437	18919.53
530.803	18903.49
531.169	19133.31
531.535	19080.88
531.901	19246.3
532.267	19347.09
532.632	19468.67
532.998	19518.16
533.364	19574.88
533.73	19691.94
534.095	19921.31
534.461	20010.35
534.826	20003.12
535.192	20100.52
535.557	20249.89
535.923	20256.22
536.288	20409.89
536.653	20495.76
537.019	20339.38
537.384	20549.09
537.749	20688.3
538.114	20778.46
538.479	20778.01
538.845	20951.57
539.21	20898.69
539.575	20958.12
539.94	21065.01
540.305	21302.07
540.67	21181.84
541.034	21409.86
541.399	21435.4
541.764	21559.24
542.129	21657.31
542.494	21637.2
542.858	21697.76
543.223	21857.31
543.587	21992.67
543.952	22013.46
544.316	22078.77
544.681	22062.72
545.045	22228.6
545.41	22291.42
545.774	22421.13
546.138	22409.16
546.503	22481.47
546.867	22406.44
547.231	22752.42
547.595	22759.88
547.959	22858.64
548.324	22867.9
548.688	22878.52
549.052	23055.69
549.416	23135.24
549.779	23236.03
550.143	23216.37
550.507	23318.96
550.871	23496.59
551.235	23521.44
551.599	23610.48
551.962	23619.52
552.326	23745.39
552.689	23853.41
553.053	23915.78
553.417	23955.33
553.78	24247.53
554.143	24031.71
554.507	24206.17
554.87	24320.52
555.234	24660.85
555.597	24467.63
555.96	24631.92
556.323	24730.9
556.686	24888.19
557.05	25037.11
557.413	25067.17
557.776	25203.43
558.139	25273.71
558.502	25358.68
558.865	25473.48
559.228	25737.2
559.59	25783.31
559.953	25836.64
560.316	25999.12
560.679	26063.3
561.041	26188.04
561.404	26356.17
561.767	26564.75
562.129	26447.02
562.492	26846.33
562.854	26786.44
563.217	26828.7
563.579	26899.43
563.941	27086.77
564.304	27207.45
564.666	27359.53
565.028	27399.76
565.39	27478.18
565.753	27662.8
566.115	27756.81
566.477	27926.53
566.839	27921.33
567.201	28013.08
567.563	28130.14
567.925	28318.61
568.287	28495.32
568.648	28477.7
569.01	28559.05
569.372	28733.28
569.734	28654.87
570.095	28974.63
570.457	29002.88
570.819	29106.38
571.18	29087.4
571.542	29333.27
571.903	29424.57
572.265	29457.33
572.626	29542.3
572.987	29587.72
573.349	29735.74
573.71	29863.2
574.071	29910.65
574.432	30017.32
574.794	30151.55
575.155	30171.44
575.516	30144.09
575.877	30260.48
576.238	30308.84
576.599	30396.97
576.96	30508.15
577.32	30526.01
577.681	30562.39
578.042	30710.41
578.403	30705.89
578.763	30735.49
579.124	30826.11
579.485	30984.98
579.845	31025.65
580.206	30949.5
580.566	30984.75
580.927	30992.21
581.287	31248.02
581.648	31109.72
582.008	31255.93
582.368	31087.12
582.728	31265.65
583.089	31144.07
583.449	31190.39
583.809	31244.4
584.169	31289.6
584.529	31104.52
584.889	31455.92
585.249	31153.33
585.609	31200.11
585.969	31322.82
586.329	31160.79
586.688	31298.64
587.048	31224.07
587.408	31193.11
587.768	31251.64
588.127	31370.95
588.487	31231.98
588.846	31471.74
589.206	31250.96
589.565	31399.2
589.925	31489.14
590.284	31393.1
590.643	31381.35
591.003	31524.4
591.362	31577.73
591.721	31544.51
592.08	31557.62
592.44	31582.02
592.799	31491.63
593.158	31583.6
593.517	31528.01
593.876	31648.69
594.235	31559.65
594.593	31606.88
594.952	31535.7
595.311	31457.96
595.67	31614.11
596.029	31673.77
596.387	31711.74
596.746	31858.17
597.104	31654.56
597.463	31610.95
597.822	31799.19
598.18	31739.53
598.538	31664.05
598.897	31935.46
599.255	31616.6
599.613	32043.93
599.972	31921.22
600.33	31939.75
600.688	31868.57
601.046	32013.42
601.404	32092.52
601.762	31989.92
602.12	32259.52
602.478	32194.66
602.836	32252.29
603.194	32021.33
603.552	32188.56
603.91	32097.04
604.268	32157.6
604.625	32048.45
604.983	32220.42
605.341	32090.48
605.698	32336.58
606.056	32337.26
606.413	32202.8
606.771	32391.72
607.128	32435.33
607.485	32259.74
607.843	32327.54
608.2	32478.72
608.557	32632.84
608.914	32564.6
609.272	32710.58
609.629	32728.43
609.986	32829.22
610.343	32692.5
610.7	32909.22
611.057	32822.22
611.414	32856.79
611.771	32772.73
612.127	33017.69
612.484	32920.74
612.841	33133.17
613.198	32953.96
613.554	32909.22
613.911	33184.01
614.267	33153.73
614.624	33006.17
614.98	33118.25
615.337	33246.61
615.693	33260.17
616.05	33154.41
616.406	33402.31
616.762	33272.6
617.118	33308.98
617.475	33355.76
617.831	33464.69
618.187	33325.71
618.543	33509.2
618.899	33668.07
619.255	33511.24
619.611	33608.18
619.967	33607.05
620.323	33641.86
620.678	33570.44
621.034	33444.12
621.39	33533.84
621.746	33542.42
622.101	33866.26
622.457	33548.75
622.812	33540.62
623.168	33748.97
623.523	33703.55
623.879	33852.7
624.234	33629.2
624.589	33663.1
624.945	33758.69
625.3	33810.66
625.655	33709.42
626.01	33872.58
626.365	33729.54
626.72	33724.79
627.075	33559.15
627.43	33685.02
627.785	33628.97
628.14	33651.12
628.495	33626.49
628.85	33527.51
629.205	33335.2
629.559	33627.62
629.914	33464.46
630.269	33454.97
630.623	33275.99
630.978	33406.38
631.332	33439.83
631.687	33405.03
632.041	33281.87
632.396	33415.42
632.75	33239.38
633.104	33356.67
633.459	33163.68
633.813	33141.3
634.167	33200.29
634.521	33086.62
634.875	33096.79
635.229	33131.59
635.583	33008.43
635.937	32977.01
636.291	32887.53
636.645	32877.13
636.999	32845.72
637.352	32872.61
637.706	32611.83
638.06	32848.43
638.413	32793.74
638.767	32659.28
639.121	32687.76
639.474	32494.32
639.828	32508.78
640.181	32479.17
640.534	32559.4
640.888	32424.71
641.241	32191.72
641.594	32402.79
641.947	32451.6
642.301	32401.66
642.654	32408.89
643.007	32359.86
643.36	32235.56
643.713	32094.1
644.066	32322.34
644.419	32061.78
644.771	31809.59
645.124	31556.71
645.477	31514.68
645.83	31350.16
646.182	31104.52
646.535	31069.95
646.888	31107.68
647.24	30920.57
647.593	31109.27
647.945	31030.85
648.298	30862.04
648.65	30817.75
649.002	30760.35
649.355	30846
649.707	30751.99
650.059	30831.08
650.411	31269.04
650.763	31362.37
651.115	31628.8
651.467	31316.49
651.819	31378.64
652.171	31303.39
652.523	31178.64
652.875	31249.38
653.227	31132.09
653.578	31391.07
653.93	31267.68
654.282	31191.52
654.633	30993.79
654.985	31131.87
655.337	31039.21
655.688	31017.07
656.039	31193.56
656.391	30771.2
656.742	30986.56
657.094	30984.75
657.445	31053.45
657.796	31000.57
658.147	30888.71
658.498	30936.84
658.849	30920.35
659.2	30884.19
659.551	30796.96
659.902	31009.38
660.253	30702.05
660.604	30845.77
660.955	30657.75
661.306	30799.67
661.656	30635.83
662.007	30671.09
662.358	30660.01
662.708	30746.56
663.059	30632.9
663.409	30359.68
663.76	30620.47
664.11	30560.58
664.461	30628.15
664.811	30655.49
665.161	30560.81
665.511	30388.83
665.862	30378.21
666.212	30476.97
666.562	30565.78
666.912	30473.8
667.262	30393.58
667.612	30476.97
667.962	30517.19
668.312	30338.21
668.662	30602.61
669.011	30385.22
669.361	30459.11
669.711	30403.52
670.06	30246.46
670.41	30297.99
670.76	30216.41
671.109	30346.12
671.459	30154.26
671.808	30119.46
672.157	30147.94
672.507	29920.37
672.856	29934.38
673.205	30070.42
673.554	30111.1
673.904	29969.18
674.253	30210.08
674.602	30044.21
674.951	29621.17
675.3	29420.05
675.649	29924.67
675.998	29817.32
676.346	29872.69
676.695	29918.34
677.044	29665.46
677.393	29829.98
677.741	29908.39
678.09	29657.78
678.438	29649.87
678.787	29792.47
679.135	29687.38
679.484	29570.55
679.832	29655.52
680.181	29445.36
680.529	29505.02
680.877	29505.47
681.225	29413.49
681.573	29606.03
681.922	29345.25
682.27	29264.34
682.618	29281.07
682.966	29199.26
683.314	29218.47
683.661	29047.85
684.009	28951.36
684.357	29070.45
684.705	29057.34
685.053	28867.29
685.4	28985.03
685.748	28728.76
686.095	28843.79
686.443	28663.91
686.79	28652.16
687.138	28630.91
687.485	28654.19
687.832	28413.52
688.18	28537.58
688.527	28321.54
688.874	28272.05
689.221	28280.19
689.568	28246.74
689.915	28159.29
690.262	28129.46
690.609	27987.54
690.956	27941.67
691.303	27860.09
691.65	27719.3
691.997	27779.86
692.344	27550.04
692.69	27585.29
693.037	27543.26
693.383	27321.34
693.73	27460.55
694.077	27234.34
694.423	27385.75
694.769	27269.82
695.116	27087
695.462	27184.85
695.808	26906.67
696.155	27075.47
696.501	26856.72
696.847	26878.19
697.193	26588.48
697.539	26642.27
697.885	26565.88
698.231	26522.49
698.577	26631.87
698.923	26418.77
699.269	26336.74
699.614	26100.58
699.96	26168.83
700.306	26109.4
700.651	25997.76
700.997	26005.22
701.342	25985.79
701.688	25873.02
702.033	25750.09
702.379	25692.46
702.724	25663.08
703.069	25686.36
703.415	25370.89
703.76	25416.08
704.105	25433.94
704.45	25346.71
704.795	25069.43
705.14	25043.66
705.485	24986.94
705.83	25036.66
706.175	25004.57
706.52	24910.33
706.865	24854.52
707.209	24906.72
707.554	24675.54
707.899	24688.64
708.243	24574.98
708.588	24474.41
708.932	24495.43
709.277	24400.29
709.621	24399.61
709.966	24296.34
710.31	24276.68
710.654	24083.01
710.998	24174.99
711.342	24138.83
711.687	24045.72
712.031	23897.03
712.375	23889.12
712.719	23879.85
713.063	23795.56
713.407	23873.52
713.75	23803.02
714.094	23685.51
714.438	23579.07
714.782	23617.26
715.125	23563.93
715.469	23525.74
715.812	23448
716.156	23342.69
716.499	23331.62
716.843	23300.43
717.186	23171.62
717.53	23274.67
717.873	23259.3
718.216	23280.09
718.559	23244.39
718.902	22994.23
719.246	23110.16
719.589	22983.38
719.932	22893.66
720.275	22880.33
720.617	22775.25
720.96	22752.2
721.303	22745.19
721.646	22812.76
721.989	22526.22
722.331	22568.47
722.674	22567.57
723.016	22615.93
723.359	22607.57
723.701	22586.78
724.044	22393.34
724.386	22257.3
724.729	22384.3
725.071	22322.15
725.413	22303.62
725.755	22211.87
726.097	22152.67
726.439	22017.75
726.782	21977.3
727.124	22117.19
727.465	22032.22
727.807	21995.61
728.149	21921.49
728.491	21879.68
728.833	21880.13
729.175	21740.47
729.516	21754.03
729.858	21679.46
730.199	21754.71
730.541	21760.59
730.882	21636.75
731.224	21676.52
731.565	21549.07
731.906	21479.69
732.248	21575.05
732.589	21411.22
732.93	21362.4
733.271	21329.86
733.612	21363.08
733.953	21305.46
734.294	21276.76
734.635	21205.57
734.976	21317.89
735.317	21224.55
735.658	21161.96
735.999	21163.99
736.339	21004.9
736.68	21079.47
737.021	21038.57
737.361	20883.09
737.702	20886.94
738.042	20874.28
738.383	20785.24
738.723	20923.77
739.063	20844.68
739.404	20745.47
739.744	20795.19
740.084	20639.94
740.424	20740.5
740.764	20653.27
741.104	20735.98
741.444	20621.86
741.784	20480.62
742.124	20653.72
742.464	20515.42
742.804	20483.33
743.143	20482.43
743.483	20564.69
743.823	20303.22
744.162	20302.55
744.502	20345.48
744.841	20215.77
745.181	20419.38
745.52	20255.09
745.86	20192.72
746.199	20188.65
746.538	20151.14
746.877	20114.3
747.216	20128.09
747.556	20118.82
747.895	20055.09
748.234	19975.55
748.573	19931.93
748.911	19839.73
749.25	19952.05
749.589	19863.46
749.928	19847.87
750.267	19781.2
750.605	19715.22
750.944	19717.02
751.283	19580.3
751.621	19682.22
751.96	19509.57
752.298	19524.71
752.636	19487.65
752.975	19483.81
753.313	19375.79
753.651	19480.42
753.989	19398.39
754.327	19183.93
754.666	19105.06
755.004	19103.03
755.342	19159.75
755.679	19116.59
756.017	18981
756.355	19117.94
756.693	18908.01
757.031	19054.22
757.368	18811.74
757.706	18820.78
758.044	18785.07
758.381	18720.21
758.719	18609.48
759.056	18749.37
759.394	18638.63
759.731	18492.2
760.068	18502.82
760.405	18432.09
760.743	18361.81
761.08	18388.7
761.417	18211.07
761.754	18214.01
762.091	18142.15
762.428	18061.25
762.765	18026.9
763.102	18090.17
763.438	18031.19
763.775	17897.64
764.112	17881.37
764.449	17881.14
764.785	17757.53
765.122	17690.86
765.458	17615.16
765.795	17511.66
766.131	17510.75
766.467	17371.77
766.804	17338.1
767.14	17304.66
767.476	17263.53
767.812	17217.2
768.148	17263.98
768.485	17085.45
768.821	17000.71
769.157	17026.93
769.492	16882.97
769.828	16866.7
770.164	16835.29
770.5	16790.1
770.836	16677.33
771.171	16654.51
771.507	16657.67
771.842	16482.31
772.178	16512.14
772.513	16473.04
772.849	16399.37
773.184	16318.7
773.519	16254.74
773.855	16153.5
774.19	16167.29
774.525	16010
774.86	15984.01
775.195	16024.24
775.53	15906.95
775.865	15814.3
776.2	15772.72
776.535	15657.7
776.87	15652.05
777.205	15556.46
777.539	15443.69
777.874	15493.18
778.209	15479.4
778.543	15409.79
778.878	15302.22
779.212	15310.59
779.547	15178.39
779.881	15223.36
780.215	15083.25
780.55	15170.25
780.884	15019.29
781.218	15039.18
781.552	14924.83
781.886	14911.5
782.22	14871.05
782.554	14691.39
782.888	14637.38
783.222	14563.94
783.556	14565.29
783.889	14568.91
784.223	14337.73
784.557	14376.37
784.89	14423.38
785.224	14214.12
785.557	14160.79
785.891	14132.99
786.224	14138.19
786.558	14169.37
786.891	13948.14
787.224	13913.56
787.557	13921.47
787.891	13886.67
788.224	13865.2
788.557	13890.06
788.89	13723.51
789.223	13725.09
789.556	13641.25
789.888	13653.68
790.221	13544.76
790.554	13461.6
790.887	13486.68
791.219	13474.25
791.552	13365.33
791.884	13315.84
792.217	13281.94
792.549	13244.2
792.882	13129.63
793.214	13132.11
793.546	13110.64
793.879	13057.31
794.211	13069.52
794.543	13058.67
794.875	12931.89
795.207	12961.95
795.539	12929.86
795.871	12842.85
796.203	12749.52
796.535	12752.69
796.867	12599.7
797.198	12572.13
797.53	12650.09
797.862	12620.49
798.193	12597.44
798.525	12447.61
798.856	12448.97
799.188	12322.87
799.519	12275.19
799.85	12269.54
800.182	12312.92
800.513	12281.97
800.844	12130.56
801.175	12166.04
801.506	12139.14
801.837	12097.34
802.168	12014.4
802.499	12013.27
802.83	11953.16
803.161	11885.37
803.491	11856.44
803.822	11894.4
804.153	11811.24
804.483	11718.82
804.814	11688.31
805.145	11637.69
805.475	11623.23
805.805	11651.25
806.136	11639.72
806.466	11635.65
806.796	11612.15
807.126	11425.26
807.457	11418.03
807.787	11465.04
808.117	11375.32
808.447	11361.09
808.777	11398.6
809.107	11370.8
809.436	11306.17
809.766	11289.9
810.096	11321.76
810.426	11166.51
810.755	11173.07
811.085	11197.47
811.414	11123.35
811.744	11090.58
812.073	11046.52
812.403	11057.82
812.732	11004.26
813.061	10962.9
813.39	10942.79
813.719	10824.83
814.049	10960.42
814.378	10844.71
814.707	10840.2
815.036	10839.74
815.365	10721.33
815.693	10652.4
816.022	10666.41
816.351	10671.84
816.68	10656.25
817.008	10631.84
817.337	10569.92
817.665	10513.65
817.994	10545.97
818.322	10458.96
818.651	10481.79
818.979	10493.99
819.307	10465.29
819.636	10360.89
819.964	10405.18
820.292	10451.28
820.62	10414.44
820.948	10376.25
821.276	10361.56
821.604	10352.3
821.932	10334.22
822.259	10402.47
822.587	10325.18
822.915	10297.84
823.243	10343.49
823.57	10335.35
823.898	10333.99
824.225	10229.59
824.553	10216.03
824.88	10288.35
825.207	10276.82
825.535	10227.33
825.862	10292.41
826.189	10271.4
826.516	10312.53
826.843	10340.77
827.17	10338.06
827.497	10293.54
827.824	10293.77
828.151	10389.36
828.478	10274.33
828.805	10329.47
829.131	10277.27
829.458	10230.04
829.785	10184.17
830.111	10324.05
830.438	10254.45
830.764	10211.06
831.09	10292.19
831.417	10188.69
831.743	10240.66
832.069	10225.3
832.395	10158.63
832.722	10236.6
833.048	10137.16
833.374	10209.48
833.7	10079.99
834.026	10162.47
834.351	10165.41
834.677	10173.77
835.003	10100.55
835.329	10107.56
835.654	10115.24
835.98	10029.6
836.306	10077.05
836.631	10085.19
836.956	10127.9
837.282	10050.61
837.607	10014.68
837.932	9984.17
838.258	10046.09
838.583	9977.39
838.908	9913.67
839.233	9969.94
839.558	9934.46
839.883	9905.76
840.208	9898.07
840.533	9819.21
840.858	9889.71
841.182	9841.58
841.507	9835.93
841.832	9800.67
842.156	9811.3
842.481	9683.39
842.805	9777.62
843.13	9752.54
843.454	9712.09
843.778	9555.71
844.103	9637.51
844.427	9566.1
844.751	9656.72
845.075	9573.11
845.399	9612.88
845.723	9538.99
846.047	9479.1
846.371	9381.7
846.695	9384.64
847.019	9365.43
847.343	9286.56
847.666	9310.97
847.99	9261.93
848.313	9194.36
848.637	9126.12
848.96	9182.16
849.284	9129.28
849.607	9085.67
849.931	9049.28
850.254	8988.72
850.577	9030.07
850.9	8886.12
851.223	8828.95
851.546	8912.79
851.869	8773.36
852.192	8823.07
852.515	8769.29
852.838	8748.95
853.161	8744.66
853.483	8653.59
853.806	8618.33
854.129	8578.56
854.451	8571.78
854.774	8513.7
855.096	8513.7
855.419	8493.82
855.741	8511.44
856.063	8395.51
856.385	8377.66
856.708	8359.36
857.03	8351
857.352	8387.15
857.674	8327.04
857.996	8322.07
858.318	8284.33
858.64	8244.11
858.961	8247.72
859.283	8194.16
859.605	8151
859.926	8161.62
860.248	8138.35
860.57	8024.68
860.891	8049.53
861.212	8069.19
861.534	8011.12
861.855	7977.9
862.176	7967.5
862.498	7994.17
862.819	8029.65
863.14	7966.15
863.461	7957.33
863.782	7961.63
864.103	7907.39
864.424	7918.46
864.745	7880.27
865.065	7889.09
865.386	7835.98
865.707	7892.02
866.027	7826.04
866.348	7853.61
866.668	7877.34
866.989	7814.29
867.309	7764.12
867.63	7729.77
867.95	7682.54
868.27	7710.11
868.59	7753.5
868.91	7696.78
869.23	7650.45
869.55	7629.88
869.87	7677.34
870.19	7645.48
870.51	7649.77
870.83	7641.18
871.15	7644.57
871.469	7649.54
871.789	7616.55
872.109	7595.99
872.428	7526.38
872.748	7518.02
873.067	7544.01
873.386	7496.78
873.706	7500.17
874.025	7499.49
874.344	7508.98
874.663	7489.32
874.982	7417.46
875.301	7471.24
875.62	7452.71
875.939	7364.58
876.258	7381.53
876.577	7360.96
876.896	7377.91
877.214	7361.64
877.533	7336.78
877.852	7301.98
878.17	7335.43
878.489	7312.6
878.807	7308.99
879.125	7293.62
879.444	7293.62
879.762	7306.05
880.08	7297.01
880.398	7200.06
880.716	7228.99
881.034	7246.17
881.352	7159.61
881.67	7197.58
881.988	7181.99
882.306	7183.34
882.624	7156
882.941	7085.94
883.259	7147.64
883.577	7092.72
883.894	7119.62
884.212	7071.03
884.529	7054.98
884.846	7039.84
885.164	6992.39
885.481	6997.58
885.798	6960.52
886.115	6945.61
886.432	6913.74
886.75	6938.83
887.067	6934.76
887.383	6892.5
887.7	6851.6
888.017	6934.76
888.334	6879.62
888.651	6852.5
888.967	6824.71
889.284	6806.85
889.6	6835.55
889.917	6666.75
890.233	6738.83
890.55	6691.83
890.866	6706.52
891.182	6660.87
891.498	6676.24
891.815	6658.16
892.131	6623.13
892.447	6647.99
892.763	6559.63
893.079	6560.99
893.395	6547.43
893.71	6516.02
894.026	6507.88
894.342	6493.87
894.657	6429.24
894.973	6488.45
895.289	6425.4
895.604	6365.51
895.92	6389.24
896.235	6311.27
896.55	6358.51
896.865	6335.91
897.181	6319.18
897.496	6299.07
897.811	6273.31
898.126	6230.15
898.441	6188.11
898.756	6161.22
899.071	6156.48
899.386	6202.58
899.7	6115.57
900.015	6099.98
900.33	6084.16
900.644	6077.38
900.959	6089.59
901.273	6038.06
901.588	5998.06
901.902	5942.47
902.216	5941.34
902.531	5940.21
902.845	5927.33
903.159	5922.36
903.473	5890.72
903.787	5915.35
904.101	5840.55
904.415	5830.61
904.729	5782.7
905.042	5846.2
905.356	5811.63
905.67	5767.56
905.984	5723.72
906.297	5753.1
906.611	5632.87
906.924	5615.25
907.237	5636.94
907.551	5632.65
907.864	5644.63
908.177	5582.25
908.491	5552.65
908.804	5453.67
909.117	5438.53
909.43	5449.83
909.743	5395.37
910.056	5374.35
910.368	5430.62
910.681	5453.67
910.994	5370.28
911.307	5368.47
911.619	5313.56
911.932	5326.22
912.244	5255.94
912.557	5276.95
912.869	5252.32
913.181	5232.21
913.494	5244.64
913.806	5138.88
914.118	5138.88
914.43	5111.53
914.742	5103.17
915.054	5115.37
915.366	5099.1
915.678	5081.25
915.99	5031.31
916.302	4965.1
916.613	4980.24
916.925	4992.44
917.236	4967.81
917.548	4921.03
917.859	4958.54
918.171	4885.1
918.482	4826.12
918.794	4835.83
919.105	4827.47
919.416	4784.54
919.727	4765.78
920.038	4810.07
920.349	4736.85
920.66	4718.1
920.971	4740.92
921.282	4721.49
921.593	4712.22
921.903	4615.5
922.214	4653.24
922.525	4668.61
922.835	4629.06
923.146	4589.51
923.456	4561.49
923.767	4550.87
924.077	4530.08
924.387	4498.44
924.697	4505.67
925.008	4507.48
925.318	4483.07
925.628	4460.7
925.938	4429.52
926.248	4457.31
926.558	4384.09
926.867	4397.88
927.177	4329.63
927.487	4347.26
927.796	4332.57
928.106	4311.33
928.416	4301.38
928.725	4270.88
929.034	4250.76
929.344	4279.01
929.653	4264.77
929.962	4198.79
930.271	4187.49
930.581	4142.29
930.89	4183.65
931.199	4130.77
931.508	4129.19
931.817	4121.5
932.125	4080.37
932.434	4086.47
932.743	4028.17
933.051	4037.44
933.36	4020.49
933.669	3994.5
933.977	3983.43
934.286	3932.35
934.594	3903.88
934.902	3962.64
935.21	3886.71
935.519	3898
935.827	3894.16
936.135	3854.62
936.443	3831.57
936.751	3807.39
937.059	3818.91
937.367	3808.29
937.674	3810.78
937.982	3790.44
938.29	3735.98
938.597	3762.42
938.905	3698.69
939.213	3715.86
939.52	3669.31
939.827	3697.11
940.135	3672.7
940.442	3678.8
940.749	3600.16
941.056	3616.2
941.363	3622.76
941.67	3580.95
941.977	3575.98
942.284	3577.34
942.591	3573.04
942.898	3538.47
943.205	3484.68
943.511	3516.77
943.818	3509.09
944.125	3497.11
944.431	3462.31
944.738	3479.26
945.044	3423.22
945.35	3462.08
945.657	3389.77
945.963	3419.83
946.269	3402.88
946.575	3381.41
946.881	3304.57
947.187	3332.82
947.493	3350.22
947.799	3289.43
948.105	3307.06
948.41	3286.95
948.716	3267.74
949.022	3250.79
949.327	3210.11
949.633	3189.1
949.938	3206.72
950.244	3177.57
950.549	3200.85
950.854	3137.8
951.16	3170.34
951.465	3170.11
951.77	3111.58
952.075	3107.07
952.38	3120.4
952.685	3073.62
952.99	3059.83
953.294	3077.69
953.599	3089.66
953.904	3045.37
954.209	3029.1
954.513	2995.43
954.818	3019.61
955.122	3025.94
955.426	2962.21
955.731	2974.64
956.035	2932.38
956.339	2951.36
956.643	2947.97
956.948	2913.4
957.252	2927.86
957.556	2910.01
957.86	2870.46
958.163	2895.32
958.467	2857.35
958.771	2851.03
959.075	2840.63
959.378	2849.22
959.682	2830.91
959.985	2819.16
960.289	2795.66
960.592	2788.2
960.896	2779.84
961.199	2751.37
961.502	2719.05
961.805	2737.13
962.108	2720.18
962.411	2724.7
962.714	2667.98
963.017	2680.18
963.32	2711.82
963.623	2639.05
963.926	2670.24
964.228	2647.64
964.531	2644.03
964.833	2629.56
965.136	2611.26
965.438	2610.58
965.741	2579.85
966.043	2598.38
966.345	2594.08
966.648	2541.66
966.95	2559.28
967.252	2518.61
967.554	2548.21
967.856	2517.93
968.158	2504.82
968.46	2492.39
968.761	2501.21
969.063	2499.62
969.365	2483.58
969.666	2437.25
969.968	2444.48
970.269	2442.9
970.571	2407.2
970.872	2408.55
971.174	2408.1
971.475	2416.69
971.776	2370.36
972.077	2363.81
972.378	2373.3
972.679	2329.23
972.98	2360.42
973.281	2326.07
973.582	2348.67
973.883	2290.14
974.183	2303.92
974.484	2301.66
974.785	2281.32
975.085	2259.63
975.386	2285.62
975.686	2260.99
975.986	2242.46
976.287	2251.95
976.587	2230.03
976.887	2192.06
977.187	2233.87
977.487	2245.62
977.787	2198.84
978.087	2156.81
978.387	2172.4
978.687	2181.67
978.987	2140.99
979.286	2150.93
979.586	2160.65
979.885	2140.76
980.185	2127.88
980.484	2101.89
980.784	2116.13
981.083	2092.63
981.382	2091.05
981.682	2075
981.981	2088.33
982.28	2055.12
982.579	2028
982.878	2032.29
983.177	2047.66
983.475	2025.06
983.774	2040.2
984.073	2030.03
984.372	2004.5
984.67	2001.56
984.969	2010.82
985.267	1974.67
985.566	1978.28
985.864	1942.35
986.162	1971.73
986.461	1933.31
986.759	1943.48
987.057	1978.73
987.355	1927.89
987.653	1910.03
987.951	1906.42
988.249	1895.57
988.547	1889.92
988.844	1892.18
989.142	1904.61
989.44	1892.86
989.737	1846.99
990.035	1828.45
990.332	1849.7
990.63	1835.46
990.927	1827.55
991.224	1837.49
991.521	1828.45
991.819	1816.93
992.116	1802.69
992.413	1797.72
992.71	1775.57
993.006	1772.41
993.303	1769.7
993.6	1734.9
993.897	1752.75
994.193	1750.94
994.49	1715.69
994.787	1740.77
995.083	1718.63
995.379	1712.75
995.676	1711.17
995.972	1701.9
996.268	1700.32
996.565	1674.79
996.861	1657.61
997.157	1643.6
997.453	1648.8
997.749	1631.62
998.044	1636.37
998.34	1650.83
998.636	1640.21
998.932	1617.61
999.227	1604.28
999.523	1630.27
999.818	1580.55
1000.114	1576.94
1000.409	1585.3
1000.704	1557.28
1001	1570.38
1001.295	1576.26
1001.59	1536.49
1001.885	1558.18
1002.18	1525.19
1002.475	1523.6
1002.77	1511.17
1003.065	1493.1
1003.359	1490.16
1003.654	1486.77
1003.949	1479.99
1004.243	1494.9
1004.538	1455.36
1004.832	1483.61
1005.127	1467.11
1005.421	1415.36
1005.715	1423.27
1006.009	1467.11
1006.304	1444.96
1006.598	1424.85
1006.892	1429.82
1007.186	1404.06
1007.48	1363.83
1007.773	1395.25
1008.067	1387.56
1008.361	1358.18
1008.655	1390.73
1008.948	1357.05
1009.242	1372.65
1009.535	1360.44
1009.829	1321.12
1010.122	1350.95
1010.415	1327
1010.708	1320.9
1011.001	1306.89
1011.295	1318.41
1011.588	1327.22
1011.881	1299.66
1012.173	1272.99
1012.466	1289.03
1012.759	1279.77
1013.052	1273.44
1013.344	1276.15
1013.637	1259.43
1013.93	1218.53
1014.222	1257.17
1014.514	1238.19
1014.807	1204.29
1015.099	1212.65
1015.391	1223.72
1015.683	1205.42
1015.976	1217.62
1016.268	1211.52
1016.56	1160.68
1016.851	1177.4
1017.143	1185.31
1017.435	1168.59
1017.727	1157.06
1018.018	1152.99
1018.31	1152.99
1018.602	1134.69
1018.893	1140.56
1019.185	1128.13
1019.476	1102.37
1019.767	1121.58
1020.058	1134.91
1020.35	1105.76
1020.641	1097.85
1020.932	1077.06
1021.223	1088.14
1021.514	1094.01
1021.804	1077.51
1022.095	1059.21
1022.386	1056.27
1022.677	1057.63
1022.967	1037.29
1023.258	1035.03
1023.548	1020.57
1023.839	1021.7
1024.129	1044.07
1024.419	1006.78
1024.709	986.89
1025	998.19
1025.29	986.44
1025.58	979.44
1025.87	1002.71
1026.16	994.35
1026.449	967.69
1026.739	978.31
1027.029	953.45
1027.319	962.26
1027.608	961.81
1027.898	966.1
1028.187	929.72
1028.477	945.54
1028.766	929.04
1029.055	927.01
1029.344	929.5
1029.634	899.44
1029.923	921.59
1030.212	887.46
1030.501	890.85
1030.79	885.2
1031.078	899.44
1031.367	875.26
1031.656	875.49
1031.945	857.18
1032.233	851.98
1032.522	855.82
1032.81	880.01
1033.099	844.3
1033.387	853.11
1033.675	827.13
1033.963	806.11
1034.251	809.5
1034.54	837.07
1034.828	842.49
1035.116	821.25
1035.403	803.17
1035.691	807.46
1035.979	800.23
1036.267	797.75
1036.554	794.13
1036.842	808.59
1037.129	821.48
1037.417	781.25
1037.704	787.13
1037.992	797.07
1038.279	784.41
1038.566	787.13
1038.853	787.13
1039.14	787.13
