Data from white_wall_FLMS001491_017.txt Node
Date: Tue Feb 07 11:03:42 GMT 2017
User: dcchb
Spectrometer: FLMS00149
Trigger mode: 0
Integration Time (sec): 2.000000E-2
Scans to average: 10
Electric dark correction enabled: true
Nonlinearity correction enabled: false
Boxcar width: 0
XAxis mode: Wavelengths
Number of Pixels in Spectrum: 2048
>>>>>Begin Spectral Data<<<<<
341.393	13.62
341.776	13.62
342.16	13.62
342.543	-40.17
342.927	-64.8
343.31	-74.29
343.693	-63.9
344.077	-65.25
344.46	-71.13
344.843	-65.48
345.226	-32.26
345.61	-30.45
345.993	-6.05
346.376	-11.69
346.759	21.52
347.142	40.06
347.525	43.9
347.908	61.07
348.291	66.04
348.674	66.27
349.057	121.64
349.44	107.4
349.823	143.33
350.206	165.25
350.588	224.23
350.971	245.02
351.354	252.25
351.737	281.86
352.119	271.46
352.502	275.3
352.884	291.57
353.267	306.72
353.65	314.62
354.032	336.77
354.414	337
354.797	330.22
355.179	342.19
355.562	356.21
355.944	333.61
356.326	339.26
356.709	352.36
357.091	357.79
357.473	382.42
357.855	369.09
358.238	356.43
358.62	377.67
359.002	363.66
359.384	370.67
359.766	371.8
360.148	377.67
360.53	383.1
360.912	367.96
361.294	368.63
361.676	373.38
362.057	377.45
362.439	372.02
362.821	361.18
363.203	334.28
363.584	368.86
363.966	359.14
364.348	362.31
364.729	346.04
365.111	342.42
365.493	356.88
365.874	357.34
366.256	343.55
366.637	349.43
367.019	352.82
367.4	359.37
367.781	346.94
368.163	330.9
368.544	367.5
368.925	372.7
369.306	345.58
369.688	362.98
370.069	369.54
370.45	383.78
370.831	360.5
371.212	376.09
371.593	346.94
371.974	358.01
372.355	337.9
372.736	346.26
373.117	365.92
373.498	344.45
373.879	351.23
374.26	359.37
374.641	358.69
375.021	348.75
375.402	356.66
375.783	370.67
376.163	367.28
376.544	380.84
376.925	364.34
377.305	363.89
377.686	386.71
378.066	373.38
378.447	377.45
378.827	374.51
379.208	380.84
379.588	393.04
379.968	383.55
380.349	377.22
380.729	369.09
381.109	381.29
381.489	398.01
381.87	393.94
382.25	425.36
382.63	398.92
383.01	403.44
383.39	430.55
383.77	414.06
384.15	434.17
384.53	410.44
384.91	396.66
385.29	435.75
385.67	423.77
386.049	439.37
386.429	427.62
386.809	425.36
387.189	426.26
387.568	427.39
387.948	441.4
388.328	459.25
388.707	441.63
389.087	450.21
389.466	467.84
389.846	466.94
390.225	461.51
390.605	487.05
390.984	476.88
391.363	503.55
391.743	482.53
392.122	506.03
392.501	526.14
392.881	513.72
393.26	522.3
393.639	537.22
394.018	550.32
394.397	543.09
394.776	534.28
395.155	540.83
395.534	547.39
395.913	573.37
396.292	581.51
396.671	589.42
397.05	606.37
397.429	633.03
397.808	602.98
398.186	631.45
398.565	642.3
398.944	618.57
399.323	645.92
399.701	644.11
400.08	666.25
400.458	684.11
400.837	690.66
401.215	701.96
401.594	712.81
401.972	729.3
402.351	738.57
402.729	753.48
403.107	747.38
403.486	782.86
403.864	780.37
404.242	798.45
404.62	809.07
404.999	819.47
405.377	858.79
405.755	852.01
406.133	856.08
406.511	857.21
406.889	936.76
407.267	917.32
407.645	908.96
408.023	948.28
408.401	959.81
408.779	973.36
409.156	1001.61
409.534	1013.82
409.912	1018.56
410.29	1029.86
410.667	1046.81
411.045	1092.46
411.422	1106.47
411.8	1118.67
412.178	1153.25
412.555	1166.13
412.933	1177.43
413.31	1197.09
413.687	1185.79
414.065	1241.61
414.442	1255.16
414.819	1269.85
415.197	1287.93
415.574	1312.79
415.951	1315.95
416.328	1332.22
416.705	1381.72
417.082	1352.56
417.46	1383.97
417.837	1395.05
418.214	1396.63
418.591	1427.14
418.967	1448.61
419.344	1443.86
419.721	1473.24
420.098	1468.49
420.475	1515.27
420.852	1494.71
421.228	1547.13
421.605	1535.38
421.982	1570.41
422.358	1567.92
422.735	1588.49
423.111	1622.61
423.488	1644.53
423.864	1645.44
424.241	1680.92
424.617	1696.28
424.994	1713.68
425.37	1739.67
425.746	1712.78
426.123	1782.38
426.499	1775.15
426.875	1808.14
427.251	1817.18
427.627	1864.19
428.003	1905.09
428.379	1901.93
428.756	1921.81
429.132	1950.97
429.507	1995.03
429.883	2001.13
430.259	2043.17
430.635	2070.96
431.011	2076.16
431.387	2106.44
431.763	2204.97
432.138	2193.9
432.514	2214.69
432.89	2222.6
433.265	2309.15
433.641	2307.79
434.016	2332.88
434.392	2401.35
434.767	2402.48
435.143	2407.22
435.518	2429.37
435.894	2475.02
436.269	2526.77
436.644	2543.49
437.02	2577.84
437.395	2580.55
437.77	2626.88
438.145	2661.46
438.52	2690.16
438.895	2711.4
439.271	2730.83
439.646	2834.33
440.021	2787.55
440.395	2824.61
440.77	2813.32
441.145	2848.8
441.52	2913.88
441.895	2879.98
442.27	2937.38
442.645	2948.68
443.019	2993.65
443.394	2968.79
443.769	3049.92
444.143	3026.64
444.518	3084.95
444.892	3092.63
445.267	3139.18
445.641	3146.64
446.016	3168.11
446.39	3220.31
446.764	3198.39
447.139	3238.39
447.513	3283.81
447.887	3245.62
448.262	3310.48
448.636	3317.71
449.01	3376.92
449.384	3416.24
449.758	3470.02
450.132	3456.91
450.506	3492.39
450.88	3550.7
451.254	3516.57
451.628	3579.4
452.002	3654.65
452.376	3644.25
452.75	3703.46
453.123	3736.23
453.497	3817.36
453.871	3826.17
454.244	3920.86
454.618	3919.73
454.992	4032.27
455.365	4006.96
455.739	4109.1
456.112	4145.26
456.486	4189.55
456.859	4216.44
457.232	4283.11
457.606	4304.58
457.979	4413.95
458.352	4500.28
458.725	4514.97
459.099	4552.93
459.472	4663.89
459.845	4673.61
460.218	4724.9
460.591	4799.25
460.964	4842.64
461.337	4931.68
461.71	5037.66
462.083	5088.96
462.456	5101.17
462.829	5080.37
463.201	5208.51
463.574	5208.73
463.947	5393.36
464.32	5438.56
464.692	5476.97
465.065	5504.32
465.438	5682.62
465.81	5719
466.183	5817.76
466.555	5883.97
466.928	5948.6
467.3	5941.37
467.672	6089.39
468.045	6174.36
468.417	6198.99
468.789	6279.89
469.161	6363.28
469.534	6497.29
469.906	6633.78
470.278	6638.53
470.65	6712.65
471.022	6917.16
471.394	7034.67
471.766	7076.48
472.138	7186.53
472.51	7350.37
472.882	7432.86
473.253	7564.38
473.625	7710.59
473.997	7849.12
474.369	7864.48
474.74	7973.86
475.112	8177.47
475.484	8286.17
475.855	8440.74
476.227	8533.39
476.598	8746.49
476.97	8838.02
477.341	9047.95
477.713	9217.44
478.084	9251.34
478.455	9587.15
478.827	9630.76
479.198	9938.33
479.569	9935.39
479.94	10249.73
480.311	10300.8
480.682	10496.28
481.053	10794.57
481.424	10957.51
481.795	11094.45
482.166	11246.77
482.537	11363.83
482.908	11570.6
483.279	11736.47
483.65	11969.91
484.021	12242.9
484.391	12284.25
484.762	12491.25
485.133	12623.45
485.503	12809.44
485.874	13121.07
486.244	13301.18
486.615	13500.72
486.985	13672.69
487.356	13973.47
487.726	14021.61
488.097	14352.45
488.467	14386.57
488.837	14680.8
489.207	14944.52
489.578	15092.99
489.948	15248.7
490.318	15404.17
490.688	15511.06
491.058	15896.81
491.428	16014.32
491.798	16222.45
492.168	16588.77
492.538	16569.11
492.908	16851.36
493.278	17078.48
493.648	17135.43
494.017	17340.84
494.387	17544.68
494.757	17712.36
495.126	17855.63
495.496	17969.98
495.866	18098.34
496.235	18274.83
496.605	18522.06
496.974	18613.13
497.344	18763.4
497.713	18935.6
498.082	19113.45
498.452	19353.22
498.821	19388.47
499.19	19505.08
499.559	19711.18
499.928	19872.98
500.298	20037.5
500.667	20224.84
501.036	20190.94
501.405	20405.17
501.774	20475
502.143	20710.47
502.512	20821.88
502.88	21013.52
503.249	21121.76
503.618	21272.27
503.987	21447.63
504.356	21591.58
504.724	21748.86
505.093	21854.85
505.462	21921.74
505.83	22112.02
506.199	22331.67
506.567	22599.69
506.936	22540.03
507.304	23023.86
507.672	23043.07
508.041	23236.96
508.409	23356.73
508.777	23526.44
509.145	23760.56
509.514	23794.46
509.882	23993.32
510.25	24135.24
510.618	24296.82
510.986	24547.43
511.354	24620.88
511.722	24899.51
512.09	25082.56
512.458	25086.63
512.826	25286.4
513.193	25528.88
513.561	25610
513.929	25843.67
514.297	26168.41
514.664	26347.39
515.032	26391.23
515.4	26654.5
515.767	26741.95
516.135	26902.4
516.502	26828.5
516.869	27293.58
517.237	27547.13
517.604	27492.44
517.972	27887.23
518.339	27963.62
518.706	28179.88
519.073	28242.03
519.44	28665.74
519.808	28895.34
520.175	28850.37
520.542	29231.15
520.909	29344.37
521.276	29460.75
521.643	29736.68
522.009	29958.14
522.376	30214.4
522.743	30419.37
523.11	30648.06
523.477	30908.85
523.843	31145.45
524.21	31323.53
524.577	31653.46
524.943	31867.47
525.31	31964.19
525.676	32311.98
526.043	32492.08
526.409	32771.4
526.776	33073.09
527.142	33131.39
527.508	33368.44
527.874	33614.99
528.241	33814.76
528.607	34010.46
528.973	34284.13
529.339	34232.15
529.705	34541.75
530.071	34907.16
530.437	35105.8
530.803	35245.46
531.169	35509.41
531.535	35484.55
531.901	35723.18
532.267	35830.75
532.632	36148.48
532.998	36239.78
533.364	36457.63
533.73	36463.73
534.095	36734.01
534.461	36958.18
534.826	37094.22
535.192	37270.71
535.557	37536.24
535.923	37484.27
536.288	37656.92
536.653	37863.69
537.019	37941.88
537.384	38119.51
537.749	38281.31
538.114	38288.99
538.479	38586.61
538.845	38691.92
539.21	38695.76
539.575	39023.66
539.94	39013.72
540.305	39263.66
540.67	39326.93
541.034	39392.02
541.399	39708.84
541.764	39740.25
542.129	40006.01
542.494	40155.61
542.858	40194.71
543.223	40289.39
543.587	40519.22
543.952	40508.82
544.316	40863.39
544.681	40717.4
545.045	41092.54
545.41	41212.76
545.774	41339.99
546.138	41320.55
546.503	41401.23
546.867	41431.51
547.231	42045.96
547.595	42031.04
547.959	42205.5
548.324	42346.74
548.688	42343.8
549.052	42454.08
549.416	42626.73
549.779	42810
550.143	42987.17
550.507	43088.42
550.871	43334.28
551.235	43389.2
551.599	43699.02
551.962	43779.24
552.326	43920.26
552.689	44185.34
553.053	44114.38
553.417	44199.12
553.78	44977.63
554.143	44652.67
554.507	44892.44
554.87	44986.67
555.234	45505.3
555.597	45402.48
555.96	45601.8
556.323	45808.34
556.686	45917.95
557.05	46192.29
557.413	46307.77
557.776	46514.77
558.139	46825.27
558.502	46924.25
558.865	46997.24
559.228	47241.98
559.59	47346.61
559.953	47520.39
560.316	47916.99
560.679	47883.54
561.041	48181.61
561.404	48400.59
561.767	48673.58
562.129	48546.12
562.492	48924.42
562.854	48969.16
563.217	48963.51
563.579	49199.89
563.941	49373.22
564.304	49609.37
564.666	49874.68
565.028	49902.25
565.39	49997.39
565.753	50139.98
566.115	50386.3
566.477	50581.78
566.839	50695.9
567.201	50864.26
567.563	50785.84
567.925	51116.68
568.287	51026.74
568.648	51220.86
569.01	51373.17
569.372	51524.13
569.734	51529.55
570.095	51681.64
570.457	51929.09
570.819	51892.93
571.18	51903.1
571.542	52066.26
571.903	52143.77
572.265	52223.32
572.626	52345.35
572.987	52506.92
573.349	52566.13
573.71	52737.2
574.071	52743.53
574.432	52779.69
574.794	53060.36
575.155	53015.84
575.516	52962.05
575.877	53058.55
576.238	53236.85
576.599	53349.39
576.96	53371.53
577.32	53346.68
577.681	53422.83
578.042	53503.06
578.403	53599.1
578.763	53530.4
579.124	53648.36
579.485	53779.21
579.845	53803.39
580.206	53797.74
580.566	53796.83
580.927	53874.57
581.287	53928.81
581.648	53778.98
582.008	53981.69
582.368	53940.56
582.728	53940.79
583.089	53935.14
583.449	53888.13
583.809	54024.85
584.169	54005.87
584.529	53962.48
584.889	54103.27
585.249	53957.96
585.609	53810.39
585.969	54135.58
586.329	54034.12
586.688	54054.68
587.048	54059.43
587.408	53987.56
587.768	53971.07
588.127	54040.44
588.487	53876.15
588.846	54188.24
589.206	54014.46
589.565	54069.82
589.925	54220.1
590.284	54085.41
590.643	54155.92
591.003	54210.61
591.362	54296.48
591.721	54303.26
592.08	54270.49
592.44	54287.67
592.799	54176.49
593.158	54225.52
593.517	54225.3
593.876	54277.73
594.235	54287.67
594.593	54281.79
594.952	54323.83
595.311	54276.6
595.67	54333.09
596.029	54456.48
596.387	54452.64
596.746	54430.04
597.104	54242.47
597.463	54340.1
597.822	54363.6
598.18	54269.82
598.538	54389.36
598.897	54537.83
599.255	54347.1
599.613	54715.45
599.972	54462.13
600.33	54580.99
600.688	54444.05
601.046	54627.55
601.404	54782.34
601.762	54666.64
602.12	54730.59
602.478	54834.32
602.836	54749.35
603.194	54685.85
603.552	54734.66
603.91	54641.56
604.268	54818.28
604.625	54658.73
604.983	54861.66
605.341	54647.66
605.698	54885.84
606.056	54884.72
606.413	54874.09
606.771	55032.96
607.128	54940.53
607.485	54879.29
607.843	54959.74
608.2	55110.25
608.557	55062.34
608.914	55096.91
609.272	55196.12
609.629	55239.96
609.986	55255.55
610.343	55158.83
610.7	55419.16
611.057	55299.39
611.414	55346.62
611.771	55337.58
612.127	55493.29
612.484	55438.6
612.841	55472.95
613.198	55457.36
613.554	55494.42
613.911	55609.89
614.267	55616.22
614.624	55470.01
614.98	55616.9
615.337	55789.55
615.693	55706.16
616.05	55636.33
616.406	55783.45
616.762	55780.06
617.118	55766.27
617.475	55711.13
617.831	55824.13
618.187	55897.57
618.543	55873.16
618.899	56039.26
619.255	55969.43
619.611	55983.9
619.967	56012.6
620.323	56068.86
620.678	55938.25
621.034	55879.04
621.39	55923.78
621.746	55888.76
622.101	56215.3
622.457	55974.63
622.812	56066.6
623.168	56095.98
623.523	56019.6
623.879	56101.18
624.234	55993.84
624.589	56099.15
624.945	56052.14
625.3	56162.65
625.655	56146.6
626.01	56191.8
626.365	56173.72
626.72	56098.92
627.075	56140.5
627.43	56042.88
627.785	56023.44
628.14	56115.64
628.495	56176.66
628.85	56193.61
629.205	55992.71
629.559	56209.88
629.914	56060.05
630.269	56091.91
630.623	55986.16
630.978	55975.53
631.332	56058.92
631.687	56044.91
632.041	55919.04
632.396	55931.69
632.75	55859.6
633.104	56001.97
633.459	55777.12
633.813	55832.71
634.167	55786.84
634.521	55777.8
634.875	55772.38
635.229	55768.31
635.583	55623.9
635.937	55766.73
636.291	55642.89
636.645	55582.1
636.999	55552.95
637.352	55690.57
637.706	55474.08
638.06	55630.01
638.413	55551.59
638.767	55426.85
639.121	55558.37
639.474	55329.68
639.828	55402.44
640.181	55367.87
640.534	55314.76
640.888	55247.19
641.241	55138.95
641.594	55201.54
641.947	55210.81
642.301	55106.18
642.654	55180.75
643.007	55136.69
643.36	55083.13
643.713	54982.34
644.066	55130.13
644.419	54959.74
644.771	54771.05
645.124	54532.18
645.477	54492.18
645.83	54312.07
646.182	54187.78
646.535	54121.8
646.888	54108.69
647.24	53966.1
647.593	54144.62
647.945	54042.7
648.298	53876.61
648.65	53830.73
649.002	53776.5
649.355	53826.66
649.707	53790.05
650.059	54031.86
650.411	54227.78
650.763	54251.74
651.115	54594.78
651.467	54486.76
651.819	54458.06
652.171	54343.94
652.523	54302.58
652.875	54319.98
653.227	54256.93
653.578	54399.76
653.93	54312.3
654.282	54212.19
654.633	54132.42
654.985	54254.22
655.337	54156.15
655.688	54114.79
656.039	54203.38
656.391	53943.72
656.742	54025.75
657.094	54044.51
657.445	54085.41
657.796	53986.43
658.147	53956.83
658.498	53922.48
658.849	54029.14
659.2	53908.7
659.551	53896.72
659.902	53954.34
660.253	53904.85
660.604	53952.76
660.955	53777.85
661.306	53928.13
661.656	53828.25
662.007	53866.21
662.358	53826.66
662.708	53860.11
663.059	53739.21
663.409	53558.87
663.76	53751.19
664.11	53779.89
664.461	53702.6
664.811	53743.5
665.161	53756.16
665.511	53593.68
665.862	53681.81
666.212	53708.7
666.562	53691.07
666.912	53607.46
667.262	53573.79
667.612	53527.91
667.962	53584.86
668.312	53539.44
668.662	53684.75
669.011	53569.5
669.361	53564.98
669.711	53509.38
670.06	53439.33
670.41	53306.9
670.76	53320.24
671.109	53446.56
671.459	53360.46
671.808	53306.68
672.157	53312.1
672.507	53106.46
672.856	53187.13
673.205	53228.04
673.554	53235.49
673.904	53138.55
674.253	53239.56
674.602	53209.28
674.951	52652.46
675.3	52566.81
675.649	53029.17
675.998	52983.07
676.346	52948.27
676.695	53027.36
677.044	52732
677.393	52885.9
677.741	52848.38
678.09	52915.73
678.438	52741.95
678.787	52739.46
679.135	52767.71
679.484	52526.13
679.832	52713.02
680.181	52517.09
680.529	52567.04
680.877	52446.59
681.225	52434.61
681.573	52668.28
681.922	52432.8
682.27	52290.66
682.618	52357.32
682.966	52264.67
683.314	52394.84
683.661	52141.28
684.009	52064.68
684.357	51898.35
684.705	51890.9
685.053	51813.84
685.4	51963.44
685.748	51683.9
686.095	51622.88
686.443	51577.46
686.79	51471.02
687.138	51620.17
687.485	51633.28
687.832	51424.02
688.18	51443.9
688.527	51326.84
688.874	51187.19
689.221	51173.85
689.568	50922.33
689.915	50859.96
690.262	50859.28
690.609	50899.51
690.956	50742.45
691.303	50676.69
691.65	50498.84
691.997	50509.69
692.344	50327.77
692.69	50247.77
693.037	50357.15
693.383	49912.87
693.73	50057.72
694.077	49801.23
694.423	49864.96
694.769	49656.15
695.116	49572.31
695.462	49520.56
695.808	49436.04
696.155	49544.97
696.501	49118.31
696.847	49285.31
697.193	49007.58
697.539	49150.4
697.885	48823.63
698.231	48698.21
698.577	48818.21
698.923	48651.88
699.269	48460.93
699.614	48300.71
699.96	48274.49
700.306	48366.47
700.651	48167.6
700.997	47941.85
701.342	47834.5
701.688	47871.34
702.033	47658.46
702.379	47689.42
702.724	47714.73
703.069	47724.45
703.415	47227.29
703.76	47235.2
704.105	47180.28
704.45	47067.97
704.795	46822.78
705.14	46798.37
705.485	46661.65
705.83	46514.31
706.175	46709.34
706.52	46492.39
706.865	46303.92
707.209	46332.4
707.554	46138.05
707.899	46364.94
708.243	46001.78
708.588	45986.19
708.932	45716.82
709.277	45730.15
709.621	45753.88
709.966	45443.38
710.31	45590.95
710.654	45173.11
710.998	45283.16
711.342	45236.38
711.687	45207
712.031	44984.86
712.375	44937.86
712.719	44953.45
713.063	44860.8
713.407	44833.91
713.75	44812.89
714.094	44673.91
714.438	44568.15
714.782	44494.25
715.125	44368.61
715.469	44308.5
715.812	44175.84
716.156	44021.05
716.499	44052.68
716.843	43988.5
717.186	43706.48
717.53	43972.69
717.873	43962.74
718.216	43744.89
718.559	43668.74
718.902	43274.17
719.246	43375.19
719.589	43231.46
719.932	43050
720.275	43133.84
720.617	43078.92
720.96	43113.05
721.303	43039.38
721.646	43001.19
721.989	42829.66
722.331	42725.26
722.674	42649.1
723.016	42678.03
723.359	42608.88
723.701	42666.96
724.044	42375.89
724.386	42099.51
724.729	42379.96
725.071	42122.34
725.413	42265.16
725.755	42170.7
726.097	41994.66
726.439	41704.95
726.782	41785.62
727.124	42038.5
727.465	41811.84
727.807	41803.25
728.149	41787.21
728.491	41512.41
728.833	41586.31
729.175	41368.01
729.516	41305.19
729.858	41285.75
730.199	41349.03
730.541	41337.95
730.882	41274.23
731.224	41372.75
731.565	41014.8
731.906	41010.96
732.248	41050.28
732.589	40737.06
732.93	40751.3
733.271	40738.87
733.612	40858.87
733.953	40680.79
734.294	40685.54
734.635	40521.93
734.976	40644.19
735.317	40342.95
735.658	40433.34
735.999	40277.19
736.339	40242.16
736.68	40274.03
737.021	40215.27
737.361	40124.65
737.702	40259.79
738.042	40010.53
738.383	39832
738.723	40000.13
739.063	39634.72
739.404	39861.38
739.744	39734.83
740.084	39446.02
740.424	39636.75
740.764	39506.81
741.104	39600.6
741.444	39369.87
741.784	39272.7
742.124	39276.54
742.464	39267.27
742.804	39130.78
743.143	39037.22
743.483	39059.37
743.823	38983.44
744.162	38998.13
744.502	38999.71
744.841	38706.84
745.181	38827.74
745.52	38771.47
745.86	38610.34
746.199	38537.57
746.538	38548.42
746.877	38656.67
747.216	38492.15
747.556	38436.33
747.895	38409.44
748.234	38315.21
748.573	38104.37
748.911	38060.3
749.25	38138.71
749.589	37965.61
749.928	37931.26
750.267	37942.56
750.605	37827.08
750.944	37686.75
751.283	37489.69
751.621	37664.38
751.96	37429.58
752.298	37488.34
752.636	37414.21
752.975	37271.84
753.313	37157.27
753.651	37338.28
753.989	37034.34
754.327	36991.85
754.666	36729.26
755.004	36867.34
755.342	36776.49
755.679	36645.19
756.017	36460.34
756.355	36588.7
756.693	36458.53
757.031	36441.58
757.368	36197.3
757.706	36094.02
758.044	36053.57
758.381	36164.08
758.719	35832.33
759.056	35962.05
759.394	35684.99
759.731	35421.5
760.068	35552.34
760.405	35381.27
760.743	35244.1
761.08	35319.81
761.417	35057.89
761.754	35138.12
762.091	35020.83
762.428	34890.66
762.765	34604.57
763.102	34811.8
763.438	34591.92
763.775	34478.02
764.112	34451.13
764.449	34515.08
764.785	34296.1
765.122	34147.18
765.458	34026.96
765.795	33971.37
766.131	33928.66
766.467	33710.13
766.804	33569.8
767.14	33444.15
767.476	33300.65
767.812	33288.67
768.148	33129.35
768.485	32997.83
768.821	32809.36
769.157	32884.84
769.492	32681.46
769.828	32702.02
770.164	32370.5
770.5	32292.77
770.836	32407.34
771.171	32070.63
771.507	32196.27
771.842	31791.76
772.178	31742.27
772.513	31721.93
772.849	31626.34
773.184	31446.24
773.519	31483.3
773.855	31328.95
774.19	31086.47
774.525	31030.2
774.86	30910.88
775.195	31019.35
775.53	30728.06
775.865	30594.05
776.2	30301.86
776.535	30171.01
776.87	30183.22
777.205	30126.04
777.539	30027.29
777.874	29976.67
778.209	29838.37
778.543	29704.81
778.878	29492.84
779.212	29477.7
779.547	29430.47
779.881	29250.59
780.215	29173.98
780.55	29120.19
780.884	29028.45
781.218	29052.4
781.552	28962.46
781.886	28813.08
782.22	28686.76
782.554	28569.93
782.888	28415.81
783.222	28187.79
783.556	28155.02
783.889	28089.49
784.223	27898.53
784.557	27757.07
784.89	27895.82
785.224	27732.66
785.557	27569.73
785.891	27469.39
786.224	27352.33
786.558	27281.15
786.891	27090.87
787.224	26971.1
787.557	26830.54
787.891	26896.75
788.224	26871.89
788.557	26779.92
788.89	26699.47
789.223	26598
789.556	26475.74
789.888	26419.02
790.221	26279.59
790.554	26156.2
790.887	26062.65
791.219	25923.44
791.552	25886.38
791.884	25826.95
792.217	25733.39
792.549	25611.59
792.882	25439.61
793.214	25284.14
793.546	25557.58
793.879	25199.62
794.211	25104.26
794.543	25239.39
794.875	25084.59
795.207	25015.22
795.539	24938.84
795.871	24892.06
796.203	24761.67
796.535	24648.9
796.867	24555.34
797.198	24497.27
797.53	24405.97
797.862	24264.28
798.193	24309.7
798.525	24151.74
798.856	24125.07
799.188	23954
799.519	23889.37
799.85	23675.37
800.182	23697.06
800.513	23679.43
800.844	23466.33
801.175	23665.87
801.506	23578.65
801.837	23390.63
802.168	23353.34
802.499	23271.31
802.83	23221.59
803.161	23082.39
803.491	23029.51
803.822	23082.16
804.153	22926.01
804.483	22778.67
804.814	22672.68
805.145	22649.4
805.475	22563.53
805.805	22649.18
806.136	22580.25
806.466	22484.89
806.796	22467.49
807.126	22305.01
807.457	22171
807.787	22108.63
808.117	22073.83
808.447	22059.59
808.777	22095.75
809.107	21928.29
809.436	21915.19
809.766	21939.37
810.096	21740.05
810.426	21695.53
810.755	21633.39
811.085	21520.17
811.414	21527.17
811.744	21322.43
812.073	21329.67
812.403	21400.17
812.732	21179.61
813.061	21287.63
813.39	21059.39
813.719	21035.44
814.049	21230.68
814.378	20943.69
814.707	20959.73
815.036	20928.77
815.365	20759.96
815.693	20701.66
816.022	20654.2
816.351	20554.09
816.68	20376.7
817.008	20587.99
817.337	20446.3
817.665	20337.15
817.994	20435.68
818.322	20306.19
818.651	20266.42
818.979	20138.28
819.307	20280.43
819.636	20130.15
819.964	19963.83
820.292	20160.88
820.62	20094.44
820.948	20054.67
821.276	20105.29
821.604	19991.4
821.932	20045.86
822.259	20018.06
822.587	19961.34
822.915	19943.49
823.243	19991.17
823.57	20001.56
823.898	20037.04
824.225	19910.27
824.553	19895.8
824.88	19872.75
825.207	20027.1
825.535	19919.98
825.862	19887.22
826.189	19840.44
826.516	19917.72
826.843	20026.42
827.17	19874.79
827.497	19970.83
827.824	19966.99
828.151	19992.3
828.478	19977.38
828.805	19969.25
829.131	19865.52
829.458	19812.42
829.785	19773.32
830.111	19787.33
830.438	19961.34
830.764	19868.01
831.09	19898.74
831.417	19729.71
831.743	19818.29
832.069	19855.58
832.395	19777.39
832.722	19698.75
833.048	19744.17
833.374	19717.5
833.7	19605.42
834.026	19717.05
834.351	19705.75
834.677	19588.47
835.003	19660.33
835.329	19628.01
835.654	19555.02
835.98	19498.3
836.306	19517.96
836.631	19497.85
836.956	19451.52
837.282	19454.01
837.607	19340.79
837.932	19181.7
838.258	19238.19
838.583	19402.71
838.908	19268.25
839.233	19263.05
839.558	19183.51
839.883	19113.45
840.208	19051.53
840.533	19083.62
840.858	19157.29
841.182	18985.77
841.507	18963.17
841.832	18935.83
842.156	18909.62
842.481	18881.37
842.805	18806.79
843.13	18749.17
843.454	18686.34
843.778	18734.25
844.103	18605.44
844.427	18601.83
844.751	18568.38
845.075	18485.45
845.399	18454.94
845.723	18360.25
846.047	18325.68
846.371	18166.36
846.695	18174.49
847.019	18018.34
847.343	17968.85
847.666	17795.75
847.99	17806.14
848.313	17822.19
848.637	17613.38
848.96	17648.41
849.284	17620.61
849.607	17513.27
849.931	17377
850.254	17248.42
850.577	17312.82
850.9	17170
851.223	17032.83
851.546	17010.68
851.869	16978.59
852.192	16975.66
852.515	16837.13
852.838	16805.26
853.161	16734.76
853.483	16710.35
853.806	16549.68
854.129	16568.21
854.451	16499.51
854.774	16458.83
855.096	16284.6
855.419	16325.28
855.741	16278.72
856.063	16191.27
856.385	16210.25
856.708	16088.9
857.03	16077.6
857.352	16025.17
857.674	15981.33
857.996	15930.03
858.318	15871.73
858.64	15890.94
858.961	15788.34
859.283	15675.8
859.605	15627.67
859.926	15650.49
860.248	15545.86
860.57	15539.31
860.891	15605.3
861.212	15446.2
861.534	15401.46
861.855	15390.84
862.176	15385.19
862.498	15319.2
862.819	15377.05
863.14	15298.86
863.461	15181.8
863.782	15234.91
864.103	15191.75
864.424	15192.2
864.745	15215.48
865.065	15038.08
865.386	14915.6
865.707	15024.29
866.027	15048.02
866.348	14958.53
866.668	15064.29
866.989	14962.83
867.309	14817.97
867.63	14855.49
867.95	14851.19
868.27	14780.46
868.59	14769.39
868.91	14811.19
869.23	14746.79
869.55	14664.53
869.87	14756.05
870.19	14665.43
870.51	14638.32
870.83	14639.45
871.15	14656.39
871.469	14588.15
871.789	14523.97
872.109	14554.25
872.428	14456.17
872.748	14555.15
873.067	14467.92
873.386	14482.39
873.706	14397.64
874.025	14301.38
874.344	14339.57
874.663	14365.33
874.982	14312.45
875.301	14391.99
875.62	14291.43
875.939	14309.96
876.258	14253.47
876.577	14200.36
876.896	14175.5
877.214	14039.01
877.533	14172.79
877.852	14155.16
878.17	14107.71
878.489	14012.8
878.807	14059.57
879.125	14043.98
879.444	13967.6
879.762	13928.28
880.08	13883.53
880.398	13855.51
880.716	13872.01
881.034	13802.86
881.352	13775.97
881.67	13807.38
881.988	13802.86
882.306	13758.79
882.624	13753.14
882.941	13669.53
883.259	13585.91
883.577	13629.75
883.894	13644.67
884.212	13523.54
884.529	13503.88
884.846	13460.04
885.164	13446.93
885.481	13408.97
885.798	13447.61
886.115	13308.63
886.432	13281.97
886.75	13227.96
887.067	13277.45
887.383	13224.57
887.7	13211.23
888.017	13169.2
888.334	13155.87
888.651	13121.07
888.967	13089.88
889.284	13007.17
889.6	12973.73
889.917	12854.86
890.233	12891.69
890.55	12880.17
890.866	12862.54
891.182	12726.05
891.498	12691.47
891.815	12664.36
892.131	12604.24
892.447	12604.92
892.763	12642.21
893.079	12500.52
893.395	12432.72
893.71	12432.72
894.026	12415.1
894.342	12385.72
894.657	12419.16
894.973	12300.07
895.289	12366.29
895.604	12287.42
895.92	12187.08
896.235	12199.51
896.55	12095.11
896.865	12079.74
897.181	12128.33
897.496	12056.24
897.811	11993.87
898.126	11967.88
898.441	11928.1
898.756	11851.72
899.071	11770.37
899.386	11836.81
899.7	11743.02
900.015	11638.85
900.33	11526.08
900.644	11507.78
900.959	11545.52
901.273	11469.59
901.588	11443.37
901.902	11326.54
902.216	11324.05
902.531	11337.39
902.845	11296.03
903.159	11175.81
903.473	11186.43
903.787	11130.39
904.101	11065.3
904.415	11022.59
904.729	11034.34
905.042	10979.65
905.356	10964.97
905.67	10914.8
905.984	10915.93
906.297	10794.8
906.611	10785.99
906.924	10726.1
907.237	10726.78
907.551	10666.67
907.864	10684.75
908.177	10623.51
908.491	10519.33
908.804	10545.99
909.117	10426
909.43	10419.44
909.743	10401.82
910.056	10341.93
910.368	10333.8
910.681	10320.46
910.994	10215.61
911.307	10202.95
911.619	10130.19
911.932	10101.26
912.244	10000.92
912.557	9990.53
912.869	9948.72
913.181	9895.16
913.494	9894.49
913.806	9813.58
914.118	9812.45
914.43	9749.86
914.742	9792.12
915.054	9656.53
915.366	9663.98
915.678	9600.26
915.99	9490.88
916.302	9503.54
916.613	9423.99
916.925	9458.34
917.236	9421.5
917.548	9335.4
917.859	9350.09
918.171	9301.73
918.482	9201.17
918.794	9243.66
919.105	9265.8
919.416	9101.74
919.727	9060.38
920.038	9037.56
920.349	8982.19
920.66	8918.24
920.971	8916.43
921.282	8859.94
921.593	8806.38
921.903	8771.35
922.214	8770.9
922.525	8762.54
922.835	8697
923.146	8630.34
923.456	8636.67
923.767	8577.01
924.077	8535.2
924.387	8467.18
924.697	8446.61
925.008	8388.08
925.318	8331.59
925.628	8383.79
925.938	8318.26
926.248	8275.55
926.558	8273.51
926.867	8252.49
927.177	8235.55
927.487	8162.78
927.796	8077.58
928.106	8082.78
928.416	8019.05
928.725	8006.63
929.034	7983.58
929.344	7971.82
929.653	7971.15
929.962	7857.48
930.271	7838.27
930.581	7788.1
930.89	7730.25
931.199	7709.23
931.508	7742.45
931.817	7655.22
932.125	7639.18
932.434	7648.22
932.743	7573.87
933.051	7494.1
933.36	7534.77
933.669	7475.79
933.977	7453.65
934.286	7430.82
934.594	7382.46
934.902	7353.08
935.21	7264.05
935.519	7279.87
935.827	7222.69
936.135	7214.1
936.443	7116.48
936.751	7118.97
937.059	7084.84
937.367	7120.32
937.674	7031.96
937.982	7007.1
938.29	6949.03
938.597	6928.24
938.905	6888.01
939.213	6876.49
939.52	6812.98
939.827	6858.63
940.135	6789.48
940.442	6730.28
940.749	6728.24
941.056	6738.41
941.363	6612.09
941.67	6595.36
941.977	6594.23
942.284	6575.25
942.591	6515.82
942.898	6515.37
943.205	6513.11
943.511	6422.71
943.818	6450.51
944.125	6396.95
944.431	6378.42
944.738	6390.4
945.044	6305.88
945.35	6314.69
945.657	6228.37
945.963	6245.99
946.269	6199.67
946.575	6154.47
946.881	6085.55
947.187	6105.21
947.493	6099.11
947.799	6069.05
948.105	5993.35
948.41	5993.12
948.716	5969.17
949.022	5940.92
949.327	5899.56
949.633	5858.66
949.938	5832.45
950.244	5873.8
950.549	5786.8
950.854	5764.42
951.16	5759
951.465	5773.01
951.77	5703.64
952.075	5634.71
952.38	5678.78
952.685	5667.48
952.99	5626.8
953.294	5586.58
953.599	5600.36
953.904	5546.13
954.209	5481.27
954.513	5479.46
954.818	5470.42
955.122	5448.73
955.426	5437.65
955.731	5386.13
956.035	5371.21
956.339	5383.19
956.643	5346.81
956.948	5282.63
957.252	5272.69
957.556	5275.17
957.86	5222.52
958.163	5182.52
958.467	5192.46
958.771	5157.44
959.075	5173.03
959.378	5142.07
959.682	5083.54
959.985	5063.88
960.289	5085.35
960.592	5003.09
960.896	5019.13
961.199	4989.98
961.502	4997.21
961.805	4918.35
962.108	4928.51
962.411	4881.96
962.714	4863.88
963.017	4848.06
963.32	4835.18
963.623	4783.21
963.926	4762.19
964.228	4771.68
964.531	4726.71
964.833	4703.44
965.136	4716.77
965.438	4653.95
965.741	4640.84
966.043	4666.37
966.345	4596.32
966.648	4622.53
966.95	4636.54
967.252	4549.99
967.554	4571.24
967.856	4517.9
968.158	4499.83
968.46	4518.81
968.761	4441.97
969.063	4428.41
969.365	4399.26
969.666	4401.3
969.968	4377.12
970.269	4368.53
970.571	4315.88
970.872	4287.18
971.174	4280.17
971.475	4300.06
971.776	4264.13
972.077	4263.9
972.378	4260.51
972.679	4190
972.98	4215.31
973.281	4151.59
973.582	4133.73
973.883	4142.09
974.183	4070.23
974.484	4071.14
974.785	4050.57
975.085	4090.8
975.386	4093.96
975.686	4002.66
975.986	3978.48
976.287	3982.32
976.587	3951.82
976.887	3928.99
977.187	3946.62
977.487	3928.99
977.787	3880.86
978.087	3880.18
978.387	3857.13
978.687	3885.15
978.987	3837.92
979.286	3791.6
979.586	3790.92
979.885	3735.1
980.185	3767.87
980.484	3729.68
980.784	3742.33
981.083	3683.35
981.382	3685.61
981.682	3671.6
981.981	3681.54
982.28	3624.82
982.579	3578.49
982.878	3577.36
983.177	3591.6
983.475	3606.52
983.774	3542.11
984.073	3545.05
984.372	3512.51
984.67	3485.16
984.969	3509.12
985.267	3517.93
985.566	3442.45
985.864	3434.99
986.162	3461.43
986.461	3389.57
986.759	3397.26
987.057	3365.17
987.355	3339.63
987.653	3371.27
987.951	3368.33
988.249	3300.99
988.547	3289.46
988.844	3273.87
989.142	3289.91
989.44	3226.86
989.737	3201.1
990.035	3206.75
990.332	3224.83
990.63	3188.67
990.927	3180.54
991.224	3158.39
991.521	3176.24
991.819	3165.62
992.116	3153.19
992.413	3128.11
992.71	3077.04
993.006	3073.87
993.303	3085.4
993.6	3048.56
993.897	3007.21
994.193	3029.81
994.49	3013.76
994.787	2988.68
995.083	2905.74
995.379	2921.11
995.676	2927.21
995.972	2905.06
996.268	2907.55
996.565	2853.77
996.861	2875.24
997.157	2855.8
997.453	2813.99
997.749	2834.33
998.044	2826.42
998.34	2811.28
998.636	2834.11
998.932	2782.58
999.227	2779.19
999.523	2747.33
999.818	2729.7
1000.114	2718.63
1000.409	2721.57
1000.704	2705.07
1001	2662.13
1001.295	2658.97
1001.59	2637.95
1001.885	2657.16
1002.18	2586.2
1002.475	2609.93
1002.77	2586.2
1003.065	2572.87
1003.359	2570.84
1003.654	2557.5
1003.949	2515.24
1004.243	2511.4
1004.538	2473.21
1004.832	2506.21
1005.127	2487.9
1005.421	2433.89
1005.715	2410.84
1006.009	2450.16
1006.304	2423.04
1006.598	2386.43
1006.892	2376.49
1007.186	2357.73
1007.48	2368.36
1007.773	2362.71
1008.067	2341.92
1008.361	2316.83
1008.655	2323.16
1008.948	2285.19
1009.242	2287.91
1009.535	2260.11
1009.829	2224.4
1010.122	2224.86
1010.415	2233.9
1010.708	2188.7
1011.001	2218.08
1011.295	2190.73
1011.588	2169.04
1011.881	2159.55
1012.173	2135.14
1012.466	2121.81
1012.759	2108.02
1013.052	2098.53
1013.344	2097.63
1013.637	2107.35
1013.93	2085.43
1014.222	2058.99
1014.514	2030.74
1014.807	2019.44
1015.099	2017.4
1015.391	2007.01
1015.683	1972.89
1015.976	1983.51
1016.268	1964.07
1016.56	1933.79
1016.851	1927.69
1017.143	1934.02
1017.435	1911.42
1017.727	1915.26
1018.018	1898.54
1018.31	1856.05
1018.602	1863.06
1018.893	1861.02
1019.185	1849.5
1019.476	1828.71
1019.767	1828.03
1020.058	1798.65
1020.35	1810.18
1020.641	1725.43
1020.932	1743.06
1021.223	1736.06
1021.514	1755.04
1021.804	1742.16
1022.095	1703.97
1022.386	1690.41
1022.677	1707.13
1022.967	1698.77
1023.258	1653.57
1023.548	1652.67
1023.839	1625.55
1024.129	1639.56
1024.419	1632.33
1024.709	1600.24
1025	1633.23
1025.29	1580.58
1025.58	1587.59
1025.87	1560.69
1026.16	1548.94
1026.449	1570.86
1026.739	1563.41
1027.029	1539.9
1027.319	1534.93
1027.608	1499.23
1027.898	1503.97
1028.187	1484.76
1028.477	1494.25
1028.766	1477.98
1029.055	1470.07
1029.344	1456.97
1029.634	1452.9
1029.923	1434.82
1030.212	1417.87
1030.501	1434.6
1030.79	1360.02
1031.078	1375.39
1031.367	1376.74
1031.656	1377.42
1031.945	1345.56
1032.233	1338.1
1032.522	1348.27
1032.81	1341.04
1033.099	1320.7
1033.387	1280.47
1033.675	1319.12
1033.963	1306.24
1034.251	1288.38
1034.54	1289.97
1034.828	1281.83
1035.116	1280.25
1035.403	1254.03
1035.691	1236.86
1035.979	1246.8
1036.267	1210.42
1036.554	1212.45
1036.842	1204.32
1037.129	1205.67
1037.417	1189.63
1037.704	1163.42
1037.992	1166.35
1038.279	1148.05
1038.566	1168.61
1038.853	1168.61
1039.14	1168.61
