Data from white_wall_FLMS001491_060.txt Node
Date: Tue Feb 07 11:04:59 GMT 2017
User: dcchb
Spectrometer: FLMS00149
Trigger mode: 0
Integration Time (sec): 2.000000E-2
Scans to average: 10
Electric dark correction enabled: true
Nonlinearity correction enabled: false
Boxcar width: 0
XAxis mode: Wavelengths
Number of Pixels in Spectrum: 2048
>>>>>Begin Spectral Data<<<<<
341.393	0.06
341.776	0.06
342.16	0.06
342.543	-50.34
342.927	-59.6
343.31	-68.64
343.693	-76.1
344.077	-55.99
344.46	-66.61
344.843	-55.76
345.226	-37.68
345.61	-49.43
345.993	-18.93
346.376	-6.05
346.759	7.51
347.142	37.57
347.525	46.16
347.908	80.05
348.291	73.5
348.674	89.77
349.057	100.62
349.44	130.9
349.823	159.37
350.206	166.38
350.588	215.42
350.971	216.77
351.354	254.06
351.737	260.39
352.119	254.06
352.502	280.73
352.884	269.65
353.267	271.24
353.65	313.95
354.032	287.96
354.414	317.56
354.797	302.42
355.179	349.88
355.562	337.67
355.944	331.12
356.326	331.12
356.709	328.86
357.091	339.71
357.473	340.61
357.855	327.73
358.238	354.4
358.62	339.71
359.002	365.24
359.384	345.81
359.766	345.36
360.148	348.3
360.53	362.31
360.912	362.08
361.294	332.03
361.676	349.43
362.057	356.88
362.439	348.3
362.821	328.86
363.203	327.96
363.584	336.32
363.966	338.8
364.348	321.18
364.729	340.61
365.111	331.12
365.493	333.16
365.874	344.91
366.256	337
366.637	344.23
367.019	325.92
367.4	323.66
367.781	328.64
368.163	326.15
368.544	332.48
368.925	326.6
369.306	338.58
369.688	307.39
370.069	321.18
370.45	338.8
370.831	328.64
371.212	329.31
371.593	325.92
371.974	327.51
372.355	343.55
372.736	313.27
373.117	334.74
373.498	329.54
373.879	322.08
374.26	315.3
374.641	331.35
375.021	346.04
375.402	337.67
375.783	319.37
376.163	353.27
376.544	351.91
376.925	333.83
377.305	337
377.686	332.48
378.066	350.1
378.447	339.03
378.827	338.35
379.208	342.65
379.588	330.9
379.968	342.42
380.349	331.57
380.729	351.91
381.109	347.62
381.489	339.93
381.87	348.07
382.25	353.27
382.63	343.1
383.01	351.23
383.39	355.3
383.77	379.03
384.15	348.75
384.53	351.23
384.91	355.08
385.29	343.1
385.67	362.53
386.049	360.27
386.429	389.65
386.809	390.33
387.189	379.26
387.568	392.14
387.948	359.37
388.328	379.26
388.707	374.51
389.087	393.49
389.466	374.06
389.846	407.96
390.225	395.3
390.605	420.61
390.984	420.38
391.363	403.21
391.743	419.71
392.122	420.16
392.501	432.81
392.881	442.98
393.26	427.62
393.639	421.06
394.018	432.59
394.397	459.93
394.776	441.63
395.155	457.67
395.534	447.5
395.913	466.26
396.292	457.67
396.671	485.02
397.05	464.23
397.429	484.79
397.808	497.44
398.186	481.85
398.565	499.93
398.944	529.76
399.323	530.89
399.701	511.91
400.08	555.52
400.458	537.67
400.837	548.06
401.215	548.52
401.594	541.29
401.972	572.24
402.351	576.31
402.729	594.62
403.107	598.23
403.486	597.33
403.864	612.24
404.242	638.01
404.62	598.01
404.999	610.66
405.377	631.23
405.755	645.46
406.133	658.34
406.511	672.13
406.889	693.6
407.267	688.63
407.645	705.35
408.023	711.68
408.401	721.85
408.779	731.34
409.156	725.01
409.534	765.91
409.912	750.32
410.29	784.89
410.667	798
411.045	816.76
411.422	808.85
411.8	825.57
412.178	825.8
412.555	852.46
412.933	855.4
413.31	880.71
413.687	877.77
414.065	893.14
414.442	891.56
414.819	929.07
415.197	920.94
415.574	932.01
415.951	941.73
416.328	946.47
416.705	968.84
417.082	967.94
417.46	965.68
417.837	1000.48
418.214	1001.16
418.591	1034.83
418.967	1011.1
419.344	997.09
419.721	1056.3
420.098	1027.83
420.475	1049.52
420.852	1055.17
421.228	1078.9
421.605	1069.18
421.982	1088.84
422.358	1117.99
422.735	1123.19
423.111	1100.37
423.488	1147.37
423.864	1146.47
424.241	1170.2
424.617	1169.97
424.994	1226.46
425.37	1211.32
425.746	1202.96
426.123	1240.7
426.499	1244.54
426.875	1243.41
427.251	1289.29
427.627	1264.2
428.003	1320.47
428.379	1330.64
428.756	1331.55
429.132	1354.37
429.507	1363.64
429.883	1386.01
430.259	1409.51
430.635	1393.24
431.011	1428.95
431.387	1473.24
431.763	1462.16
432.138	1482.28
432.514	1502.16
432.89	1524.08
433.265	1578.77
433.641	1560.24
434.016	1601.37
434.392	1599.34
434.767	1623.74
435.143	1643.63
435.518	1646.79
435.894	1674.36
436.269	1711.42
436.644	1739.9
437.02	1762.27
437.395	1760.46
437.77	1753.23
438.145	1778.77
438.52	1806.56
438.895	1846.11
439.271	1865.32
439.646	1877.52
440.021	1867.8
440.395	1864.87
440.77	1886.56
441.145	1909.16
441.52	1940.12
441.895	1934.24
442.27	1963.39
442.645	1974.92
443.019	2010.63
443.394	1999.78
443.769	1995.48
444.143	2040.23
444.518	2081.36
444.892	2082.26
445.267	2074.8
445.641	2115.93
446.016	2107.35
446.39	2158.42
446.764	2133.79
447.139	2117.74
447.513	2174.24
447.887	2189.83
448.262	2180.79
448.636	2192.09
449.01	2225.08
449.384	2260.56
449.758	2294.46
450.132	2297.62
450.506	2292.88
450.88	2342.59
451.254	2332.65
451.628	2369.49
452.002	2411.97
452.376	2443.61
452.75	2446.32
453.123	2471.4
453.497	2521.35
453.871	2524.06
454.244	2608.58
454.618	2580.78
454.992	2633.43
455.365	2630.5
455.739	2680.66
456.112	2723.15
456.486	2746.42
456.859	2725.18
457.232	2794.56
457.606	2821.9
457.979	2822.81
458.352	2957.94
458.725	2932.18
459.099	2951.17
459.472	3035.68
459.845	3040.65
460.218	3072.74
460.591	3121.56
460.964	3126.75
461.337	3197.49
461.71	3234.77
462.083	3291.27
462.456	3311.38
462.829	3315
463.201	3393.41
463.574	3392.74
463.947	3448.1
464.32	3482.22
464.692	3558.16
465.065	3579.4
465.438	3644.25
465.81	3697.59
466.183	3702.11
466.555	3796.34
466.928	3824.14
467.3	3815.1
467.672	3908.2
468.045	3969.67
468.417	4013.96
468.789	4020.74
469.161	4093.28
469.534	4132.38
469.906	4224.8
470.278	4280.62
470.65	4327.17
471.022	4382.99
471.394	4513.38
471.766	4467.74
472.138	4584.57
472.51	4652.36
472.882	4746.6
473.253	4803.32
473.625	4884.22
473.997	4971
474.369	5036.53
474.74	5053.26
475.112	5194.95
475.484	5189.07
475.855	5300.03
476.227	5386.13
476.598	5527.14
476.97	5570.98
477.341	5702.28
477.713	5836.74
478.084	5856.4
478.455	6009.62
478.827	6040.12
479.198	6198.31
479.569	6248.48
479.94	6441.47
480.311	6514.24
480.682	6600.79
481.053	6713.1
481.424	6898.41
481.795	6937.28
482.166	7041
482.537	7092.3
482.908	7317.83
483.279	7335.23
483.65	7544.04
484.021	7705.62
484.391	7793.3
484.762	7802.34
485.133	7886.18
485.503	7993.29
485.874	8205.49
486.244	8310.57
486.615	8449.1
486.985	8576.55
487.356	8703.33
487.726	8726.38
488.097	8975.19
488.467	8991.91
488.837	9139.03
489.207	9329.98
489.578	9459.69
489.948	9530.43
490.318	9708.05
490.688	9645.45
491.058	9807.71
491.428	10028.72
491.798	10091.32
492.168	10287.24
492.538	10372.89
492.908	10565.43
493.278	10582.6
493.648	10642.71
494.017	10857.17
494.387	10906.44
494.757	10968.13
495.126	11204.73
495.496	11171.74
495.866	11223.94
496.235	11432.07
496.605	11555.68
496.974	11579.87
497.344	11705.96
497.713	11715
498.082	11908.9
498.452	12055.56
498.821	12088.78
499.19	12085.39
499.559	12249.9
499.928	12336.23
500.298	12403.35
500.667	12618.26
501.036	12547.98
501.405	12712.72
501.774	12722.43
502.143	12937.8
502.512	12962.2
502.88	13152.25
503.249	13114.29
503.618	13255.3
503.987	13341.17
504.356	13415.75
504.724	13490.1
505.093	13535.29
505.462	13696.87
505.83	13787.49
506.199	13897.54
506.567	14050.08
506.936	14108.61
507.304	14282.84
507.672	14333.24
508.041	14370.98
508.409	14554.02
508.777	14604.87
509.145	14759.22
509.514	14744.3
509.882	14969.83
510.25	14973.9
510.618	15099.32
510.986	15212.31
511.354	15391.52
511.722	15517.61
512.09	15634.9
512.458	15673.32
512.826	15830.83
513.193	15831.73
513.561	15934.1
513.929	16047.54
514.297	16275.11
514.664	16419.29
515.032	16434.65
515.4	16659.73
515.767	16698.15
516.135	16865.83
516.502	16764.81
516.869	17069.44
517.237	17116.44
517.604	17045.48
517.972	17417.23
518.339	17614.96
518.706	17572.7
519.073	17617.9
519.44	17774.5
519.808	17909.87
520.175	17928.62
520.542	18127.26
520.909	18340.82
521.276	18343.75
521.643	18601.6
522.009	18658.32
522.376	18776.51
522.743	18985.09
523.11	19195.71
523.477	19321.13
523.843	19538.07
524.21	19677.73
524.577	19786.43
524.943	19887.67
525.31	20067.1
525.676	20159.98
526.043	20345.51
526.409	20477.71
526.776	20646.07
527.142	20763.35
527.508	20793.18
527.874	21041.31
528.241	21136
528.607	21107.98
528.973	21537.8
529.339	21446.95
529.705	21694.63
530.071	21795.87
530.437	21909.76
530.803	22040.83
531.169	22197.44
531.535	22188.4
531.901	22286.7
532.267	22316.53
532.632	22476.53
532.998	22597.2
533.364	22870.19
533.73	22882.84
534.095	23028.6
534.461	23082.61
534.826	23298.2
535.192	23354.7
535.557	23562.83
535.923	23472.21
536.288	23636.72
536.653	23692.31
537.019	23793.1
537.384	23874.23
537.749	24025.64
538.114	24056.83
538.479	24169.36
538.845	24295.01
539.21	24176.37
539.575	24376.59
539.94	24450.04
540.305	24529.36
540.67	24668.11
541.034	24797.6
541.399	24980.19
541.764	24867.2
542.129	25080.3
542.494	25151.03
542.858	25121.2
543.223	25300.41
543.587	25436.9
543.952	25494.98
544.316	25457.01
544.681	25563
545.045	25709.66
545.41	25928.64
545.774	26014.51
546.138	26068.3
546.503	26277.33
546.867	26289.99
547.231	26500.38
547.595	26461.96
547.959	26590.09
548.324	26632.12
548.688	26600.04
549.052	26857.2
549.416	26940.59
549.779	27041.38
550.143	27092
550.507	27361.14
550.871	27466.9
551.235	27430.3
551.599	27638.88
551.962	27814.01
552.326	27793.45
552.689	28089.71
553.053	28040
553.417	28129.26
553.78	28538.06
554.143	28457.84
554.507	28478.63
554.87	28667.55
555.234	28864.83
555.597	28805.85
555.96	28998.16
556.323	29066.64
556.686	29245.16
557.05	29449.23
557.413	29520.41
557.776	29723.79
558.139	29904.58
558.502	29860.74
558.865	30055.09
559.228	30221.41
559.59	30288.3
559.953	30425.02
560.316	30681.51
560.679	30777.33
561.041	30967.38
561.404	31087.15
561.767	31352
562.129	31313.81
562.492	31591.99
562.854	31511.77
563.217	31590.86
563.579	31649.85
563.941	31971.42
564.304	32112.88
564.666	32250.06
565.028	32241.92
565.39	32372.09
565.753	32562.82
566.115	32877.61
566.477	32824.96
566.839	32919.87
567.201	33164.38
567.563	33248.45
567.925	33625.16
568.287	33533.19
568.648	33660.64
569.01	33906.51
569.372	34023.79
569.734	33994.87
570.095	34210.46
570.457	34472.37
570.819	34384.92
571.18	34490
571.542	34592.59
571.903	34602.54
572.265	34793.27
572.626	34859.25
572.987	34940.83
573.349	34972.02
573.71	35105.57
574.071	35264.44
574.432	35437.32
574.794	35704.43
575.155	35594.37
575.516	35567.03
575.877	35635.96
576.238	35753.69
576.599	35845.89
576.96	35930.64
577.32	35952.33
577.681	36044.08
578.042	36115.04
578.403	36056.74
578.763	36037.08
579.124	36229.84
579.485	36429.83
579.845	36383.96
580.206	36275.71
580.566	36322.72
580.927	36327.01
581.287	36586.44
581.648	36336.28
582.008	36714.12
582.368	36427.8
582.728	36693.78
583.089	36575.37
583.449	36688.81
583.809	36655.59
584.169	36848.58
584.529	36642.26
584.889	36905.75
585.249	36623.5
585.609	36665.53
585.969	36917.05
586.329	36841.12
586.688	36940.33
587.048	36823.5
587.408	36751.41
587.768	36706.21
588.127	36719.77
588.487	36630.05
588.846	36926.09
589.206	36720.67
589.565	36827.56
589.925	36908.24
590.284	36881.35
590.643	36936.94
591.003	36913.44
591.362	37051.51
591.721	36901.46
592.08	37006.77
592.44	37098.74
592.799	37083.6
593.158	37045.41
593.517	37073.66
593.876	37053.55
594.235	37006.77
594.593	37021
594.952	37152.98
595.311	37093.54
595.67	37110.49
596.029	37246.76
596.387	37319.08
596.746	37376.93
597.104	37151.62
597.463	37272.75
597.822	37286.08
598.18	37221.9
598.538	37254.67
598.897	37500.31
599.255	37200.66
599.613	37701.89
599.972	37395.91
600.33	37532.85
600.688	37412.86
601.046	37601.55
601.404	37509.35
601.762	37551.84
602.12	37652.63
602.478	37725.39
602.836	37714.77
603.194	37564.27
603.552	37701.21
603.91	37597.03
604.268	37827.76
604.625	37610.59
604.983	37885.39
605.341	37672.06
605.698	37891.49
606.056	38030.92
606.413	37937.59
606.771	37971.04
607.128	38143.23
607.485	38013.29
607.843	37941.21
608.2	38250.8
608.557	38285.38
608.914	38000.87
609.272	38263.91
609.629	38337.81
609.986	38518.82
610.343	38368.77
610.7	38646.95
611.057	38492.38
611.414	38330.12
611.771	38581.87
612.127	38678.36
612.484	38650.11
612.841	38756.55
613.198	38590
613.554	38571.47
613.911	38701.41
614.267	38807.85
614.624	38778.25
614.98	38760.85
615.337	39075.41
615.693	39105.02
616.05	38947.73
616.406	39196.77
616.762	38944.57
617.118	39048.07
617.475	39039.93
617.831	39133.94
618.187	39200.83
618.543	39110.44
618.899	39292.81
619.255	39262.98
619.611	39279.93
619.967	39418.46
620.323	39320.15
620.678	39169.42
621.034	39220.49
621.39	39189.53
621.746	39275.41
622.101	39650.09
622.457	39461.84
622.812	39545.46
623.168	39542.07
623.523	39532.12
623.879	39678.79
624.234	39534.61
624.589	39535.29
624.945	39583.2
625.3	39536.19
625.655	39687.6
626.01	39474.72
626.365	39616.19
626.72	39538.23
627.075	39599.24
627.43	39340.04
627.785	39502.29
628.14	39566.7
628.495	39623.65
628.85	39643.31
629.205	39399.25
629.559	39712.23
629.914	39514.27
630.269	39551.78
630.623	39458.23
630.978	39301.62
631.332	39399.92
631.687	39378
632.041	39296.88
632.396	39363.54
632.75	39172.59
633.104	39170.33
633.459	39060.72
633.813	39082.87
634.167	39053.04
634.521	39027.96
634.875	39124.68
635.229	39110.89
635.583	38928.52
635.937	38850.11
636.291	38868.86
636.645	38879.03
636.999	38889.66
637.352	38785.03
637.706	38524.02
638.06	38884.23
638.413	38689.21
638.767	38646.95
639.121	38755.2
639.474	38413.74
639.828	38402.89
640.181	38481.53
640.534	38441.31
640.888	38338.48
641.241	38254.42
641.594	38278.6
641.947	38399.72
642.301	38209
642.654	38182.33
643.007	38221.42
643.36	38220.97
643.713	38178.71
644.066	38268.65
644.419	37928.78
644.771	37620.54
645.124	37388.68
645.477	37272.07
645.83	37140.77
646.182	37016.48
646.535	36948.24
646.888	37018.52
647.24	36747.34
647.593	37041.79
647.945	36859.88
648.298	36624.63
648.65	36644.29
649.002	36585.54
649.355	36560.45
649.707	36692.65
650.059	36821.01
650.411	37031.85
650.763	37086.31
651.115	37489.47
651.467	37294.9
651.819	37275.69
652.171	37160.89
652.523	37176.48
652.875	37173.77
653.227	36904.85
653.578	37301
653.93	37121.57
654.282	36853.55
654.633	36889.71
654.985	36888.8
655.337	36904.85
655.688	37036.82
656.039	37103.04
656.391	36777.17
656.742	36851.06
657.094	36968.58
657.445	36958.63
657.796	36923.83
658.147	36700.11
658.498	36715.48
658.849	36849.26
659.2	36664.86
659.551	36551.41
659.902	36789.15
660.253	36701.01
660.604	36660.56
660.955	36466.22
661.306	36679.54
661.656	36600.9
662.007	36657.85
662.358	36480.45
662.708	36579.43
663.059	36576.95
663.409	36208.6
663.76	36569.94
664.11	36374.92
664.461	36478.19
664.811	36440.91
665.161	36284.98
665.511	36345.32
665.862	36403.17
666.212	36402.72
666.562	36525.2
666.912	36409.49
667.262	36359.33
667.612	36230.52
667.962	36333.56
668.312	36260.57
668.662	36367.24
669.011	36236.62
669.361	36217.41
669.711	36076.85
670.06	36055.83
670.41	36078.43
670.76	35921.82
671.109	36121.82
671.459	35962.5
671.808	35963.86
672.157	36184.64
672.507	35846.12
672.856	35928.6
673.205	35850.87
673.554	36062.61
673.904	35790.98
674.253	35943.07
674.602	35824.65
674.951	35314.38
675.3	35031.9
675.649	35626.24
675.998	35673.47
676.346	35560.48
676.695	35694.71
677.044	35408.17
677.393	35558.22
677.741	35642.06
678.09	35480.03
678.438	35336.53
678.787	35469.86
679.135	35417.2
679.484	35323.42
679.832	35230.32
680.181	34993.71
680.529	35129.98
680.877	35038.91
681.225	35102.41
681.573	35151
681.922	35005.24
682.27	34748.3
682.618	34864
682.966	34839.37
683.314	34830.33
683.661	34722.53
684.009	34449.55
684.357	34560.28
684.705	34454.74
685.053	34552.82
685.4	34365.48
685.748	34198.93
686.095	34109.22
686.443	34055.66
686.79	34116.67
687.138	34068.31
687.485	34094.53
687.832	33848.66
688.18	33955.32
688.527	33749.45
688.874	33697.02
689.221	33615.22
689.568	33630.58
689.915	33463.81
690.262	33523.24
690.609	33340.65
690.956	33151.95
691.303	33249.35
691.65	33175
691.997	33186.3
692.344	32869.47
692.69	32822.47
693.037	32883.26
693.383	32594
693.73	32697.73
694.077	32483.95
694.423	32384.74
694.769	32344.29
695.116	32199.89
695.462	32141.13
695.808	32086.44
696.155	32197.85
696.501	31968.26
696.847	31872.44
697.193	31664.31
697.539	31942.27
697.885	31551.54
698.231	31499.57
698.577	31592.45
698.923	31504.31
699.269	31515.39
699.614	31162.63
699.96	31192.68
700.306	31163.08
700.651	30922.41
700.997	30881.28
701.342	30790.21
701.688	30794.5
702.033	30804.67
702.379	30566.03
702.724	30522.42
703.069	30616.65
703.415	30239.94
703.76	30258.47
704.105	30343.89
704.45	30210.11
704.795	30034.3
705.14	29976.44
705.485	29839.27
705.83	29743.68
706.175	29849.67
706.52	29696.22
706.865	29597.47
707.209	29604.25
707.554	29474.31
707.899	29465.27
708.243	29331.49
708.588	29317.7
708.932	29146.41
709.277	29087.65
709.621	29134.43
709.966	28941.67
710.31	28977.83
710.654	28783.03
710.998	28757.94
711.342	28923.59
711.687	28643.6
712.031	28636.59
712.375	28496.03
712.719	28606.76
713.063	28508.91
713.407	28573.32
713.75	28321.35
714.094	28393.66
714.438	28131.07
714.782	28204.06
715.125	28166.1
715.469	28107.57
715.812	27933.11
716.156	27874.8
716.499	27896.95
716.843	27945.31
717.186	27749.61
717.53	27934.24
717.873	27881.36
718.216	27684.53
718.559	27560.24
718.902	27457.87
719.246	27525.43
719.589	27451.76
719.932	27384.65
720.275	27312.11
720.617	27393.01
720.96	27348.04
721.303	27261.94
721.646	27235.95
721.989	27063.98
722.331	27173.81
722.674	27003.87
723.016	27107.59
723.359	26980.36
723.701	27035.96
724.044	26835.06
724.386	26597.32
724.729	26761.39
725.071	26749.86
725.413	26847.03
725.755	26666.02
726.097	26559.13
726.439	26388.06
726.782	26432.36
727.124	26539.47
727.465	26416.09
727.807	26453.6
728.149	26323.43
728.491	26224.9
728.833	26304.45
729.175	26146.04
729.516	26016.32
729.858	26068.52
730.199	26078.24
730.541	26004.57
730.882	25975.42
731.224	26052.25
731.565	25858.81
731.906	25780.4
732.248	25863.11
732.589	25820.62
732.93	25614.07
733.271	25666.27
733.612	25770.68
733.953	25646.61
734.294	25652.72
734.635	25537.24
734.976	25593.06
735.317	25362.1
735.658	25437.58
735.999	25333.18
736.339	25336.34
736.68	25344.7
737.021	25290.92
737.361	25053.41
737.702	25302.89
738.042	25233.29
738.383	25180.41
738.723	25229.45
739.063	25106.51
739.404	25100.64
739.744	25018.83
740.084	25012.05
740.424	24978.83
740.764	24923.47
741.104	24879.63
741.444	24843.25
741.784	24810.7
742.124	24766.64
742.464	24767.99
742.804	24769.12
743.143	24636.92
743.483	24576.13
743.823	24525.51
744.162	24554.67
744.502	24528
744.841	24417.49
745.181	24563.7
745.52	24414.1
745.86	24384.05
746.199	24380.21
746.538	24259.53
746.877	24413.2
747.216	24186.09
747.556	24140.44
747.895	24179.08
748.234	24137.73
748.573	24017.5
748.911	24055.92
749.25	24038.52
749.589	23834.91
749.928	23952.65
750.267	24027.9
750.605	23783.84
750.944	23628.14
751.283	23639.21
751.621	23803.72
751.96	23635.82
752.298	23537.97
752.636	23461.13
752.975	23577.29
753.313	23405.09
753.651	23415.94
753.989	23299.33
754.327	23367.8
754.666	23132.78
755.004	23003.07
755.342	23211.2
755.679	23149.28
756.017	22945.89
756.355	23019.34
756.693	22829.06
757.031	22955.39
757.368	22837.2
757.706	22767.59
758.044	22756.52
758.381	22726.69
758.719	22695.5
759.056	22529.63
759.394	22573.02
759.731	22379.58
760.068	22362.41
760.405	22308.85
760.743	22143.2
761.08	22292.35
761.417	22116.54
761.754	22062.08
762.091	21986.6
762.428	21894.4
762.765	21843.32
763.102	21824.34
763.438	21742.54
763.775	21569.88
764.112	21641.3
764.449	21568.3
764.785	21363.56
765.122	21279.5
765.458	21332.83
765.795	21228.2
766.131	21223.68
766.467	21227.07
766.804	21058.94
767.14	21000.63
767.476	20930.13
767.812	20895.1
768.148	20949.11
768.485	20813.97
768.821	20713.86
769.157	20518.16
769.492	20561.55
769.828	20514.09
770.164	20358.39
770.5	20368.79
770.836	20314.55
771.171	20142.8
771.507	20075.01
771.842	19950.94
772.178	19959.08
772.513	19983.03
772.849	19840.89
773.184	19785.07
773.519	19768.35
773.855	19592.76
774.19	19598.86
774.525	19489.94
774.86	19418.75
775.195	19377.85
775.53	19309.83
775.865	19255.6
776.2	19120.01
776.535	18964.3
776.87	18953
777.205	18920.24
777.539	18784.42
777.874	18883.4
778.209	18744.65
778.543	18655.39
778.878	18529.74
779.212	18463.98
779.547	18386.69
779.881	18435.5
780.215	18327.94
780.55	18317.31
780.884	18234.15
781.218	18148.73
781.552	18099.92
781.886	18040.26
782.22	17931.34
782.554	17911
782.888	17711.46
783.222	17700.38
783.556	17629.2
783.889	17603.44
784.223	17444.34
784.557	17298.13
784.89	17460.39
785.224	17336.55
785.557	17225.14
785.891	17149.21
786.224	17057.46
786.558	17088.42
786.891	17023.56
787.224	16888.88
787.557	16902.21
787.891	16861.76
788.224	16777.69
788.557	16834.19
788.89	16750.35
789.223	16659.96
789.556	16498.61
789.888	16550.58
790.221	16444.14
790.554	16332.28
790.887	16274.2
791.219	16246.86
791.552	16182.46
791.884	16127.32
792.217	16080.31
792.549	16035.57
792.882	15933.87
793.214	15936.13
793.546	15840.77
793.879	15653.66
794.211	15636.71
794.543	15715.35
794.875	15627.67
795.207	15615.47
795.539	15563.94
795.871	15551.51
796.203	15413.66
796.535	15344.51
796.867	15292.08
797.198	15323.04
797.53	15341.8
797.862	15185.65
798.193	15206.66
798.525	15098.19
798.856	15139.77
799.188	14963.73
799.519	14895.71
799.85	14785.66
800.182	14838.08
800.513	14884.64
800.844	14733.68
801.175	14794.24
801.506	14777.3
801.837	14647.58
802.168	14597.41
802.499	14573.68
802.83	14549.73
803.161	14507.47
803.491	14585.21
803.822	14499.79
804.153	14417.76
804.483	14237.65
804.814	14229.74
805.145	14248.5
805.475	14201.94
805.805	14188.16
806.136	14138.22
806.466	14080.36
806.796	14030.87
807.126	13966.47
807.457	13919.69
807.787	13901.84
808.117	13811.22
808.447	13847.38
808.777	13821.84
809.107	13723.76
809.436	13854.83
809.766	13701.62
810.096	13696.65
810.426	13662.07
810.755	13575.07
811.085	13560.6
811.414	13523.99
811.744	13458.69
812.073	13403.32
812.403	13415.07
812.732	13332.59
813.061	13370.55
813.39	13253.04
813.719	13170.33
814.049	13249.43
814.378	13224.12
814.707	13144.34
815.036	13118.58
815.365	13132.59
815.693	12914.52
816.022	12947.06
816.351	12951.35
816.68	12725.82
817.008	12834.97
817.337	12783.9
817.665	12783.22
817.994	12821.87
818.322	12792.04
818.651	12765.6
818.979	12724.47
819.307	12710.68
819.636	12694.86
819.964	12518.15
820.292	12580.29
820.62	12554.98
820.948	12544.81
821.276	12627.52
821.604	12510.91
821.932	12643.57
822.259	12512.04
822.587	12571.7
822.915	12620.52
823.243	12575.77
823.57	12553.4
823.898	12494.42
824.225	12420.07
824.553	12488.54
824.88	12459.84
825.207	12533.51
825.535	12459.39
825.862	12542.1
826.189	12510.24
826.516	12517.69
826.843	12537.81
827.17	12525.15
827.497	12578.93
827.824	12474.98
828.151	12514.08
828.478	12442.89
828.805	12472.72
829.131	12401.31
829.458	12355.21
829.785	12399.5
830.111	12461.65
830.438	12522.21
830.764	12374.65
831.09	12447.64
831.417	12320.86
831.743	12437.02
832.069	12425.27
832.395	12458.94
832.722	12377.81
833.048	12320.18
833.374	12298.72
833.7	12268.21
834.026	12301.88
834.351	12345.49
834.677	12288.32
835.003	12282.67
835.329	12310.92
835.654	12312.05
835.98	12275.89
836.306	12253.97
836.631	12182.79
836.956	12234.76
837.282	12213.29
837.607	12091.72
837.932	12121.32
838.258	12086.97
838.583	12065.5
838.908	11998.84
839.233	12100.76
839.558	12005.84
839.883	12018.72
840.208	11943.47
840.533	11976.46
840.858	11937.14
841.182	11929.91
841.507	11855.79
841.832	11827.32
842.156	11792.51
842.481	11837.71
842.805	11747.77
843.13	11843.81
843.454	11770.59
843.778	11667.09
844.103	11607.89
844.427	11545.97
844.751	11600.43
845.075	11515.69
845.399	11541.22
845.723	11487.66
846.047	11526.08
846.371	11403.37
846.695	11389.59
847.019	11331.74
847.343	11320.44
847.666	11227.78
847.99	11175.13
848.313	11091.74
848.637	11044.74
848.96	11071.86
849.284	11024.85
849.607	10944.85
849.931	10925.42
850.254	10858.3
850.577	10786.89
850.9	10731.75
851.223	10745.99
851.546	10650.62
851.869	10556.39
852.192	10670.51
852.515	10478.65
852.838	10497.18
853.161	10514.58
853.483	10480.68
853.806	10466.22
854.129	10377.64
854.451	10362.95
854.774	10227.58
855.096	10216.51
855.419	10244.76
855.741	10255.61
856.063	10197.08
856.385	10160.69
856.708	10142.16
857.03	10063.07
857.352	10081.83
857.674	10002.28
857.996	9990.98
858.318	9990.98
858.64	9969.74
858.961	9982.17
859.283	9907.59
859.605	9852.68
859.926	9842.51
860.248	9823.98
860.57	9774.04
860.891	9816.97
861.212	9771.1
861.534	9681.84
861.855	9765.22
862.176	9726.58
862.498	9673.25
862.819	9679.35
863.14	9649.07
863.461	9561.39
863.782	9582.63
864.103	9567.49
864.424	9524.55
864.745	9536.3
865.065	9484.78
865.386	9425.35
865.707	9463.76
866.027	9468.51
866.348	9465.8
866.668	9448.85
866.989	9367.49
867.309	9376.08
867.63	9284.78
867.95	9356.87
868.27	9245.01
868.59	9408.17
868.91	9341.51
869.23	9381.73
869.55	9294.73
869.87	9327.72
870.19	9242.07
870.51	9288.17
870.83	9263.09
871.15	9136.77
871.469	9241.62
871.789	9155.75
872.109	9169.98
872.428	9104.22
872.748	9154.84
873.067	9154.17
873.386	9117.33
873.706	9075.07
874.025	8977.22
874.344	9031.91
874.663	9081.4
874.982	9001.63
875.301	9014.96
875.62	8984.68
875.939	8959.37
876.258	8975.87
876.577	8896.55
876.896	8953.72
877.214	8887.96
877.533	8950.56
877.852	8873.5
878.17	8922.31
878.489	8892.03
878.807	8910.33
879.125	8826.27
879.444	8871.24
879.762	8826.04
880.08	8718.47
880.398	8744.69
880.716	8681.18
881.034	8711.01
881.352	8705.82
881.67	8664.69
881.988	8648.87
882.306	8635.08
882.624	8619.94
882.941	8615.65
883.259	8543.79
883.577	8524.58
883.894	8602.09
884.212	8507.18
884.529	8490
884.846	8517.57
885.164	8507.86
885.481	8466.95
885.798	8493.62
886.115	8360.74
886.432	8400.74
886.75	8309.22
887.067	8387.41
887.383	8269.67
887.7	8348.54
888.017	8264.02
888.334	8362.32
888.651	8262.66
888.967	8234.64
889.284	8195.32
889.6	8225.83
889.917	8134.31
890.233	8117.36
890.55	8122.78
890.866	8141.76
891.182	8132.72
891.498	8069.22
891.815	8012.5
892.131	8073.74
892.447	7999.85
892.763	7919.4
893.079	7900.64
893.395	7907.42
893.71	7825.84
894.026	7800.98
894.342	7852.05
894.657	7772.96
894.973	7756.69
895.289	7819.51
895.604	7785.16
895.92	7664.94
896.235	7643.02
896.55	7710.81
896.865	7675.33
897.181	7592.85
897.496	7645.05
897.811	7536.36
898.126	7542.46
898.441	7485.28
898.756	7442.12
899.071	7446.41
899.386	7428.79
899.7	7411.84
900.015	7345.85
900.33	7271.05
900.644	7300.66
900.959	7310.82
901.273	7252.97
901.588	7208
901.902	7164.61
902.216	7170.49
902.531	7192.18
902.845	7119.42
903.159	7109.25
903.473	7102.47
903.787	7061.11
904.101	7033.54
904.415	6990.38
904.729	7004.39
905.042	6924.85
905.356	6886.43
905.67	6930.27
905.984	6894.11
906.297	6875.81
906.611	6818.86
906.924	6784.74
907.237	6772.31
907.551	6689.15
907.864	6699.77
908.177	6688.24
908.491	6677.4
908.804	6667.68
909.117	6587.68
909.43	6632.2
909.743	6594.23
910.056	6585.42
910.368	6532.99
910.681	6497.51
910.994	6476.95
911.307	6452.77
911.619	6329.61
911.932	6461.13
912.244	6403.05
912.557	6374.13
912.869	6296.84
913.181	6285.31
913.494	6356.27
913.806	6245.77
914.118	6218.2
914.43	6163.06
914.742	6206
915.054	6111.08
915.366	6095.26
915.678	6108.82
915.99	6063.4
916.302	6058.2
916.613	5967.58
916.925	5980.92
917.236	5970.29
917.548	5928.04
917.859	5933.46
918.171	5883.97
918.482	5812.56
918.794	5854.82
919.105	5815.04
919.416	5836.97
919.727	5742.96
920.038	5728.49
920.349	5721.26
920.66	5720.58
920.971	5680.13
921.282	5639.91
921.593	5627.03
921.903	5577.76
922.214	5571.89
922.525	5630.19
922.835	5565.79
923.146	5490.99
923.456	5518.78
923.767	5491.21
924.077	5448.73
924.387	5473.58
924.697	5417.32
925.008	5369.86
925.318	5374.15
925.628	5349.07
925.938	5327.6
926.248	5283.53
926.558	5260.71
926.867	5265.23
927.177	5212.12
927.487	5212.8
927.796	5197.66
928.106	5184.1
928.416	5102.75
928.725	5118.79
929.034	5053.26
929.344	5096.42
929.653	5104.78
929.962	5055.74
930.271	5010.77
930.581	4983.88
930.89	4955.18
931.199	4904.33
931.508	4966.93
931.817	4948.4
932.125	4887.61
932.434	4867.73
932.743	4831.79
933.051	4794.73
933.36	4762.64
933.669	4771
933.977	4819.82
934.286	4724
934.594	4760.84
934.902	4714.96
935.21	4661.85
935.519	4654.17
935.827	4641.06
936.135	4659.82
936.443	4584.79
936.751	4543.89
937.059	4549.32
937.367	4536.21
937.674	4507.73
937.982	4528.52
938.29	4499.15
938.597	4523.78
938.905	4465.02
939.213	4382.99
939.52	4378.25
939.827	4411.47
940.135	4382.99
940.442	4362.2
940.749	4345.03
941.056	4390.22
941.363	4277.68
941.67	4268.42
941.977	4251.02
942.284	4239.49
942.591	4199.49
942.898	4185.48
943.205	4234.3
943.511	4159.04
943.818	4165.14
944.125	4146.16
944.431	4101.64
944.738	4088.08
945.044	4103.9
945.35	4035.88
945.657	4022.78
945.963	4047.41
946.269	3987.3
946.575	4020.52
946.881	3940.29
947.187	3919.73
947.493	3917.69
947.799	3926.28
948.105	3886.06
948.41	3888.09
948.716	3898.26
949.022	3888.99
949.327	3863.23
949.633	3823.23
949.938	3839.73
950.244	3804.02
950.549	3801.99
950.854	3756.79
951.16	3734.2
951.465	3724.48
951.77	3729.45
952.075	3695.55
952.38	3702.78
952.685	3660.53
952.99	3638.15
953.294	3649.68
953.599	3625.27
953.904	3619.62
954.209	3621.43
954.513	3581.43
954.818	3579.85
955.122	3537.82
955.426	3517.25
955.731	3486.29
956.035	3472.96
956.339	3520.87
956.643	3457.59
956.948	3481.55
957.252	3438.16
957.556	3471.83
957.86	3413.98
958.163	3398.61
958.467	3393.64
958.771	3362.91
959.075	3382.11
959.378	3348.44
959.682	3345.51
959.985	3308.67
960.289	3293.08
960.592	3278.61
960.896	3229.58
961.199	3230.71
961.502	3209.46
961.805	3226.19
962.108	3229.8
962.411	3202.68
962.714	3146.41
963.017	3198.16
963.32	3178.96
963.623	3146.64
963.926	3135.34
964.228	3108.9
964.531	3124.72
964.833	3103.03
965.136	3099.18
965.438	3104.61
965.741	3078.17
966.043	3082.46
966.345	3000.88
966.648	3006.31
966.95	2973.76
967.252	3008.34
967.554	2969.02
967.856	2968.11
968.158	2986.19
968.46	2928.12
968.761	2946.42
969.063	2892.18
969.365	2924.5
969.666	2932.86
969.968	2902.35
970.269	2853.99
970.571	2849.7
970.872	2841.11
971.174	2849.02
971.475	2821.45
971.776	2795.69
972.077	2787.55
972.378	2789.59
972.679	2802.69
972.98	2773.09
973.281	2769.25
973.582	2748.68
973.883	2712.08
974.183	2697.16
974.484	2707.56
974.785	2692.87
975.085	2646.54
975.386	2674.34
975.686	2659.42
975.986	2620.1
976.287	2635.02
976.587	2603.15
976.887	2627.33
977.187	2595.24
977.487	2605.86
977.787	2591.63
978.087	2563.83
978.387	2531.29
978.687	2550.95
978.987	2510.5
979.286	2489.71
979.586	2530.16
979.885	2494.91
980.185	2477.05
980.484	2507.56
980.784	2435.47
981.083	2452.42
981.382	2441.35
981.682	2447.9
981.981	2475.7
982.28	2391.86
982.579	2430.5
982.878	2386.43
983.177	2377.17
983.475	2369.71
983.774	2341.24
984.073	2333.1
984.372	2346.21
984.67	2320.67
984.969	2359.77
985.267	2324.97
985.566	2334.46
985.864	2330.39
986.162	2267.57
986.461	2284.97
986.759	2265.76
987.057	2244.97
987.355	2246.1
987.653	2235.7
987.951	2216.27
988.249	2177.4
988.547	2201.81
988.844	2189.6
989.142	2181.92
989.44	2175.59
989.737	2140.79
990.035	2153.9
990.332	2127.01
990.63	2112.77
990.927	2101.24
991.224	2145.76
991.521	2103.5
991.819	2075.03
992.116	2119.55
992.413	2074.58
992.71	2100.79
993.006	2042.71
993.303	2056.5
993.6	2047.46
993.897	2023.96
994.193	2015.6
994.49	2007.46
994.787	1976.95
995.083	1997.29
995.379	1972.43
995.676	1984.64
995.972	1992.77
996.268	1951.19
996.565	1963.85
996.861	1941.93
997.157	1907.8
997.453	1911.64
997.749	1940.57
998.044	1905.32
998.34	1880.23
998.636	1891.53
998.932	1861.7
999.227	1829.61
999.523	1849.5
999.818	1845.43
1000.114	1843.62
1000.409	1821.25
1000.704	1806.79
1001	1812.66
1001.295	1803.85
1001.59	1803.17
1001.885	1774.25
1002.18	1784.42
1002.475	1774.02
1002.77	1764.53
1003.065	1743.29
1003.359	1748.03
1003.654	1758.2
1003.949	1722.72
1004.243	1712.1
1004.538	1691.99
1004.832	1673.91
1005.127	1656.28
1005.421	1661.26
1005.715	1653.8
1006.009	1663.74
1006.304	1646.57
1006.598	1651.09
1006.892	1621.93
1007.186	1594.36
1007.48	1579
1007.773	1611.09
1008.067	1610.86
1008.361	1580.58
1008.655	1576.96
1008.948	1562.28
1009.242	1538.32
1009.535	1552.11
1009.829	1558.21
1010.122	1530.41
1010.415	1515.72
1010.708	1521.15
1011.001	1517.98
1011.295	1505.1
1011.588	1494.48
1011.881	1480.7
1012.173	1489.06
1012.466	1501.71
1012.759	1466.46
1013.052	1459.91
1013.344	1434.82
1013.637	1435.72
1013.93	1419
1014.222	1455.39
1014.514	1400.02
1014.807	1433.47
1015.099	1382.84
1015.391	1383.75
1015.683	1361.15
1015.976	1340.13
1016.268	1367.25
1016.56	1369.29
1016.851	1366.12
1017.143	1378.55
1017.435	1333.13
1017.727	1316.41
1018.018	1299.46
1018.31	1290.64
1018.602	1320.93
1018.893	1306.24
1019.185	1288.84
1019.476	1294.26
1019.767	1260.59
1020.058	1261.04
1020.35	1253.13
1020.641	1230.98
1020.932	1246.58
1021.223	1224.88
1021.514	1260.81
1021.804	1216.3
1022.095	1227.59
1022.386	1202.51
1022.677	1195.73
1022.967	1175.17
1023.258	1172.68
1023.548	1174.71
1023.839	1148.95
1024.129	1156.18
1024.419	1150.76
1024.709	1137.2
1025	1149.86
1025.29	1127.26
1025.58	1150.31
1025.87	1119.58
1026.16	1117.32
1026.449	1075.51
1026.739	1072.57
1027.029	1073.7
1027.319	1074.38
1027.608	1090.88
1027.898	1067.15
1028.187	1061.72
1028.477	1045
1028.766	1059.46
1029.055	1045.23
1029.344	1016.98
1029.634	1021.05
1029.923	998.67
1030.212	986.25
1030.501	981.05
1030.79	1012.01
1031.078	972.69
1031.367	993.02
1031.656	1000.71
1031.945	975.4
1032.233	1007.49
1032.522	951.44
1032.81	962.97
1033.099	954.16
1033.387	945.34
1033.675	950.77
1033.963	931.78
1034.251	929.52
1034.54	933.82
1034.828	926.81
1035.116	902.63
1035.403	907.83
1035.691	892.24
1035.979	901.28
1036.267	875.51
1036.554	897.21
1036.842	863.08
1037.129	882.07
1037.417	856.98
1037.704	867.15
1037.992	863.31
1038.279	835.74
1038.566	865.12
1038.853	865.12
1039.14	865.12
