Data from whiteboard_FLMS001491_00098.txt Node
Date: Wed Feb 08 11:28:45 GMT 2017
User: dcchb
Spectrometer: FLMS00149
Trigger mode: 0
Integration Time (sec): 2.000000E-2
Scans to average: 10
Electric dark correction enabled: true
Nonlinearity correction enabled: false
Boxcar width: 0
XAxis mode: Wavelengths
Number of Pixels in Spectrum: 2048
>>>>>Begin Spectral Data<<<<<
341.393	-15.25
341.776	-15.25
342.16	-15.25
342.543	-45.76
342.927	-52.77
343.31	-66.55
343.693	-63.61
344.077	-72.65
344.46	-71.52
344.843	-56.38
345.226	-42.15
345.61	-18.19
345.993	-12.77
346.376	-17.06
346.759	2.82
347.142	24.07
347.525	43.5
347.908	72.65
348.291	69.04
348.674	100.9
349.057	107.91
349.44	114.91
349.823	146.1
350.206	185.42
350.588	206.89
350.971	222.25
351.354	257.73
351.737	276.72
352.119	269.26
352.502	292.08
352.884	302.93
353.267	308.81
353.65	334.79
354.032	346.32
354.414	349.26
354.797	363.27
355.179	340.22
355.562	375.02
355.944	361.23
356.326	368.69
356.709	369.14
357.091	351.29
357.473	366.66
357.855	368.24
358.238	394.68
358.62	381.35
359.002	363.27
359.384	361.91
359.766	368.01
360.148	371.4
360.53	369.82
360.912	371.63
361.294	378.41
361.676	388.58
362.057	379.09
362.439	369.82
362.821	369.59
363.203	367.56
363.584	379.99
363.966	365.3
364.348	366.88
364.729	356.71
365.111	356.71
365.493	354
365.874	343.38
366.256	344.51
366.637	375.24
367.019	364.17
367.4	379.31
367.781	379.99
368.163	361.01
368.544	385.19
368.925	351.97
369.306	375.24
369.688	360.56
370.069	365.08
370.45	362.36
370.831	366.21
371.212	378.86
371.593	375.47
371.974	369.14
372.355	385.87
372.736	377.28
373.117	384.06
373.498	382.48
373.879	387.67
374.26	381.8
374.641	380.22
375.021	355.36
375.402	382.48
375.783	404.17
376.163	409.37
376.544	377.05
376.925	396.03
377.305	394.68
377.686	401.68
378.066	394.9
378.447	412.31
378.827	397.16
379.208	422.02
379.588	431.51
379.968	407.33
380.349	409.37
380.729	413.44
381.109	436.26
381.489	429.93
381.87	443.72
382.25	434.9
382.63	458.86
383.01	424.96
383.39	441.91
383.77	470.38
384.15	447.11
384.53	436.94
384.91	447.56
385.29	453.43
385.67	438.75
386.049	465.86
386.429	447.78
386.809	472.42
387.189	468.35
387.568	471.51
387.948	481.68
388.328	495.69
388.707	472.42
389.087	508.57
389.466	499.99
389.846	498.4
390.225	495.92
390.605	509.48
390.984	510.38
391.363	527.33
391.743	525.07
392.122	544.51
392.501	562.36
392.881	570.95
393.26	555.35
393.639	567.78
394.018	571.85
394.397	587.44
394.776	590.15
395.155	596.93
395.534	591.51
395.913	612.3
396.292	618.63
396.671	617.72
397.05	636.48
397.429	646.2
397.808	655.69
398.186	629.47
398.565	667.21
398.944	663.6
399.323	666.54
399.701	692.3
400.08	690.04
400.458	722.58
400.837	728
401.215	726.65
401.594	756.7
401.972	770.26
402.351	781.56
402.729	785.63
403.107	802.13
403.486	811.17
403.864	815.46
404.242	851.16
404.62	861.11
404.999	862.46
405.377	896.13
405.755	894.55
406.133	920.77
406.511	939.07
406.889	969.35
407.267	979.75
407.645	986.3
408.023	1024.49
408.401	1010.48
408.779	1050.48
409.156	1077.6
409.534	1087.54
409.912	1120.76
410.29	1141.1
410.667	1176.35
411.045	1177.94
411.422	1215.22
411.8	1214.32
412.178	1261.55
412.555	1291.15
412.933	1287.99
413.31	1334.77
413.687	1342.22
414.065	1351.94
414.442	1365.5
414.819	1410.7
415.197	1410.02
415.574	1443.46
415.951	1483.69
416.328	1460.87
416.705	1508.32
417.082	1488.44
417.46	1542.45
417.837	1568.66
418.214	1595.78
418.591	1621.54
418.967	1609.79
419.344	1629.22
419.721	1664.25
420.098	1676.91
420.475	1696.79
420.852	1731.59
421.228	1775.43
421.605	1751.93
421.982	1770.01
422.358	1817.24
422.735	1806.17
423.111	1822.21
423.488	1875.09
423.864	1894.07
424.241	1921.64
424.617	1946.05
424.994	1927.52
425.37	1988.08
425.746	1971.36
426.123	2016.56
426.499	2050
426.875	2064.69
427.251	2087.29
427.627	2169.55
428.003	2156.67
428.379	2195.54
428.756	2218.59
429.132	2223.78
429.507	2283.44
429.883	2314.63
430.259	2396.43
430.635	2407.06
431.011	2426.26
431.387	2497.9
431.763	2496.32
432.138	2511.01
432.514	2581.29
432.89	2597.56
433.265	2657.22
433.641	2685.69
434.016	2738.12
434.392	2764.79
434.767	2800.04
435.143	2813.37
435.518	2859.92
435.894	2865.35
436.269	2902.86
436.644	2978.34
437.02	2981.5
437.395	2984.67
437.77	3038.45
438.145	3107.6
438.52	3145.79
438.895	3141.5
439.271	3178.79
439.646	3234.15
440.021	3262.63
440.395	3292
440.77	3308.73
441.145	3342.4
441.52	3379.69
441.895	3365.45
442.27	3444.54
442.645	3419.23
443.019	3468.5
443.394	3452.45
443.769	3541.94
444.143	3487.25
444.518	3580.58
444.892	3567.02
445.267	3573.8
445.641	3656.51
446.016	3649.28
446.39	3737.42
446.764	3743.52
447.139	3757.75
447.513	3781.93
447.887	3784.19
448.262	3784.42
448.636	3824.42
449.01	3924.08
449.384	3931.99
449.758	3933.12
450.132	4005.66
450.506	4033
450.88	4052.66
451.254	4069.61
451.628	4170.17
452.002	4213.11
452.376	4228.48
452.75	4306.67
453.123	4321.58
453.497	4393.9
453.871	4410.84
454.244	4501.69
454.618	4550.05
454.992	4585.98
455.365	4611.97
455.739	4730.61
456.112	4781
456.486	4844.73
456.859	4849.25
457.232	4988.68
457.606	4988.68
457.979	5012.64
458.352	5104.39
458.725	5207.43
459.099	5216.92
459.472	5301.89
459.845	5395.9
460.218	5480.65
460.591	5475
460.964	5512.28
461.337	5652.85
461.71	5751.37
462.083	5823.46
462.456	5845.61
462.829	5884.93
463.201	5979.39
463.574	5985.49
463.947	6059.39
464.32	6265.03
464.692	6266.61
465.065	6322.88
465.438	6396.1
465.81	6473.39
466.183	6548.42
466.555	6748.41
466.928	6732.14
467.3	6801.74
467.672	6837
468.045	7027.27
468.417	7070.89
468.789	7143.88
469.161	7236.31
469.534	7356.3
469.906	7496.19
470.278	7609.18
470.65	7690.08
471.022	7819.34
471.394	7998.55
471.766	8059.79
472.138	8177.53
472.51	8316.73
472.882	8410.74
473.253	8503.39
473.625	8654.8
473.997	8853.44
474.369	8859.99
474.74	8939.31
475.112	9221.79
475.484	9318.06
475.855	9494.55
476.227	9543.82
476.598	9885.73
476.97	9923.02
477.341	10162.78
477.713	10314.64
478.084	10315.1
478.455	10726.16
478.827	10728.19
479.198	11025.81
479.569	11103.78
479.94	11326.37
480.311	11535.85
480.682	11831.67
481.053	12034.82
481.424	12205.44
481.795	12353.69
482.166	12499.45
482.537	12752.32
482.908	12981.24
483.279	13052.88
483.65	13358.18
484.021	13688.57
484.391	13753.2
484.762	13944.15
485.133	14042.23
485.503	14264.82
485.874	14592.27
486.244	14693.74
486.615	14980.74
486.985	15172.14
487.356	15427.73
487.726	15571.45
488.097	15842.63
488.467	15972.35
488.837	16311.77
489.207	16390.87
489.578	16704.08
489.948	16798.77
490.318	17088.93
490.688	17106.56
491.058	17476.94
491.428	17694.79
491.798	17766.2
492.168	18163.25
492.538	18267.43
492.908	18433.3
493.278	18707.64
493.648	18742.22
494.017	18929.33
494.387	19212.49
494.757	19309.89
495.126	19415.2
495.496	19551.24
495.866	19634.4
496.235	20093.37
496.605	20166.81
496.974	20342.63
497.344	20475.05
497.713	20464.21
498.082	20792.11
498.452	20933.57
498.821	21041.14
499.19	21180.8
499.559	21291.53
499.928	21575.82
500.298	21679.32
500.667	21904.17
501.036	21858.97
501.405	22204.05
501.774	22129.93
502.143	22443.59
502.512	22597.48
502.88	22639.52
503.249	22783.69
503.618	22955.22
503.987	23014.65
504.356	23257.13
504.724	23251.48
505.093	23404.24
505.462	23501.19
505.83	23632.49
506.199	23781.41
506.567	24174.17
506.936	24224.79
507.304	24405.35
507.672	24587.04
508.041	24655.74
508.409	24887.59
508.777	25067.25
509.145	25230.41
509.514	25231.09
509.882	25426.56
510.25	25550.85
510.618	25714.92
510.986	25898.42
511.354	26148.35
511.722	26332.3
512.09	26543.6
512.458	26635.12
512.826	26854.32
513.193	27026.3
513.561	27137.48
513.929	27430.35
514.297	27628.99
514.664	27864.24
515.032	28066.49
515.4	28178.13
515.767	28296.09
516.135	28510.78
516.502	28361.4
516.869	28930.65
517.237	29009.29
517.604	29095.85
517.972	29537.87
518.339	29639.11
518.706	29724.3
519.073	29830.74
519.44	29983.51
519.808	30510.95
520.175	30388.24
520.542	30814.67
520.909	30943.48
521.276	30985.06
521.643	31310.25
522.009	31452.17
522.376	31719.73
522.743	31884.02
523.11	32235.42
523.477	32500.95
523.843	32620.95
524.21	33097.1
524.577	33242.85
524.943	33423.41
525.31	33493.47
525.676	33891.2
526.043	33907.24
526.409	34236.73
526.776	34603.72
527.142	34675.36
527.508	34937.95
527.874	35100.43
528.241	35458.84
528.607	35420.65
528.973	35817.93
529.339	35860.19
529.705	36160.74
530.071	36515.99
530.437	36680.96
530.803	37017.67
531.169	37100.15
531.535	37165.92
531.901	37426.25
532.267	37478.22
532.632	37822.62
532.998	38042.28
533.364	38199.79
533.73	38210.41
534.095	38654.69
534.461	38761.81
534.826	38860.33
535.192	39063.27
535.557	39344.39
535.923	39315.24
536.288	39495.8
536.653	39830.03
537.019	39812.63
537.384	39943.92
537.749	40052.17
538.114	40263.69
538.479	40261.65
538.845	40384.59
539.21	40233.86
539.575	40481.31
539.94	40675.65
540.305	40986.38
540.67	40947.74
541.034	41016.89
541.399	41257.11
541.764	41418.23
542.129	41443.09
542.494	41523.77
542.858	41752.24
543.223	41602.63
543.587	41847.15
543.952	41969.4
544.316	42030.19
544.681	42077.88
545.045	42357.19
545.41	42593.57
545.774	42656.39
546.138	42839.66
546.503	42868.59
546.867	42876.5
547.231	43503.15
547.595	43309.71
547.959	43599.87
548.324	43664.05
548.688	43748.57
549.052	43966.87
549.416	44131.83
549.779	44144.49
550.143	44435.55
550.507	44672.38
550.871	44716.23
551.235	44714.87
551.599	45223.1
551.962	45238.47
552.326	45242.31
552.689	45577.9
553.053	45400.95
553.417	45649.31
553.78	46162.97
554.143	45957.55
554.507	46192.12
554.87	46348.72
555.234	46700.81
555.597	46461.26
555.96	46678.89
556.323	46743.29
556.686	46897.86
557.05	47104.86
557.413	47237.74
557.776	47225.54
558.139	47542.37
558.502	47598.86
558.865	47587.11
559.228	47871.4
559.59	47922.24
559.953	47948
560.316	48497.82
560.679	48364.49
561.041	48672.96
561.404	48660.75
561.767	48995.66
562.129	48897.13
562.492	49304.13
562.854	49134.64
563.217	49372.15
563.579	49510.9
563.941	49704.34
564.304	49944.56
564.666	50029.53
565.028	50089.87
565.39	50215.74
565.753	50418.67
566.115	50412.8
566.477	50567.82
566.839	50808.27
567.201	50939.34
567.563	51090.97
567.925	51405.09
568.287	51403.51
568.648	51446.67
569.01	51726.21
569.372	51877.39
569.734	51767.11
570.095	52124.84
570.457	52360.09
570.819	52365.06
571.18	52376.14
571.542	52547.66
571.903	52662.46
572.265	52868.55
572.626	52888.89
572.987	52922.56
573.349	53005.72
573.71	53229
574.071	53213.4
574.432	53289.56
574.794	53501.98
575.155	53526.84
575.516	53354.87
575.877	53599.38
576.238	53684.13
576.599	53791.24
576.96	53879.15
577.32	53852.03
577.681	53989.2
578.042	54080.5
578.403	53941.75
578.763	53894.74
579.124	54048.86
579.485	54043.89
579.845	54138.8
580.206	54087.96
580.566	54064.68
580.927	54076.66
581.287	54111.46
581.648	53942.42
582.008	54190.1
582.368	54098.58
582.728	54119.37
583.089	54160.72
583.449	54084.34
583.809	54203.21
584.169	54225.58
584.529	54137.22
584.889	54376.54
585.249	54225.81
585.609	54049.77
585.969	54266.03
586.329	54209.08
586.688	54323.66
587.048	54296.99
587.408	54190.33
587.768	54213.83
588.127	54308.52
588.487	54321.4
588.846	54467.61
589.206	54285.24
589.565	54331.11
589.925	54439.36
590.284	54451.34
590.643	54440.04
591.003	54569.07
591.362	54703.99
591.721	54661.5
592.08	54723.87
592.44	54772.01
592.799	54867.6
593.158	54820.59
593.517	54845.9
593.876	54918.22
594.235	54749.41
594.593	54819.91
594.952	54952.11
595.311	54836.86
595.67	54789.63
596.029	54949.85
596.387	55009.29
596.746	55027.14
597.104	54863.08
597.463	54838.22
597.822	54966.58
598.18	54916.86
598.538	54928.84
598.897	54952.79
599.255	54815.85
599.613	55269.17
599.972	54967.48
600.33	55044.77
600.688	54928.39
601.046	54967.71
601.404	55027.14
601.762	54997.08
602.12	55005.45
602.478	55027.59
602.836	55074.82
603.194	54843.64
603.552	54937.88
603.91	54758.45
604.268	54867.6
604.625	54722.06
604.983	54886.81
605.341	54715.28
605.698	54932.91
606.056	54941.04
606.413	54883.42
606.771	54947.14
607.128	55021.27
607.485	54868.27
607.843	54931.32
608.2	55089.51
608.557	55116.4
608.914	55003.19
609.272	55214.93
609.629	55249.73
609.986	55349.84
610.343	55204.09
610.7	55419.67
611.057	55361.82
611.414	55389.62
611.771	55519.11
612.127	55516.39
612.484	55536.05
612.841	55616.28
613.198	55511.42
613.554	55632.77
613.911	55813.79
614.267	55813.79
614.624	55810.4
614.98	55785.99
615.337	56036.38
615.693	55941.24
616.05	56034.8
616.406	56246.32
616.762	56131.52
617.118	56121.8
617.475	56174.46
617.831	56196.15
618.187	56218.75
618.543	56325.41
618.899	56320.21
619.255	56282.25
619.611	56230.95
619.967	56371.06
620.323	56371.96
620.678	56253.1
621.034	56247.67
621.39	56227.79
621.746	56175.81
622.101	56417.61
622.457	56112.08
622.812	56196.38
623.168	56188.24
623.523	56196.83
623.879	56188.24
624.234	56011.97
624.589	55998.64
624.945	56115.93
625.3	56122.93
625.655	56060.56
626.01	56071.63
626.365	56116.15
626.72	55977.62
627.075	55918.42
627.43	55816.5
627.785	55793.67
628.14	55889.04
628.495	55858.98
628.85	55773.56
629.205	55682.26
629.559	55916.38
629.914	55693.56
630.269	55695.37
630.623	55676.62
630.978	55566.79
631.332	55601.59
631.687	55740.12
632.041	55483.4
632.396	55508.03
632.75	55469.84
633.104	55556.39
633.459	55473
633.813	55444.98
634.167	55469.84
634.521	55444.3
634.875	55513.68
635.229	55459.9
635.583	55400.24
635.937	55408.37
636.291	55376.74
636.645	55434.81
636.999	55415.83
637.352	55407.47
637.706	55262.84
638.06	55429.62
638.413	55287.02
638.767	55258.1
639.121	55318.21
639.474	55180.81
639.828	55223.29
640.181	55314.36
640.534	55341.93
640.888	55231.88
641.241	55132.9
641.594	55128.61
641.947	55227.81
642.301	55191.66
642.654	55119.57
643.007	55198.21
643.36	55174.03
643.713	55232.11
644.066	55232.11
644.419	55036.18
644.771	54798.9
645.124	54543.76
645.477	54445.01
645.83	54202.3
646.182	54175.64
646.535	54046.38
646.888	54158.01
647.24	53998.69
647.593	54153.72
647.945	54043.21
648.298	53856.1
648.65	53709.89
649.002	53656.78
649.355	53761.86
649.707	53633.05
650.059	53758.7
650.411	54028.97
650.763	54007.96
651.115	54245.92
651.467	54128.86
651.819	54084.57
652.171	53944.91
652.523	53886.38
652.875	53857.23
653.227	53741.52
653.578	53948.07
653.93	53847.06
654.282	53699.04
654.633	53542.66
654.985	53611.13
655.337	53558.7
655.688	53592.38
656.039	53705.14
656.391	53353.74
656.742	53379.5
657.094	53359.39
657.445	53488.88
657.796	53387.41
658.147	53330.69
658.498	53327.75
658.849	53414.75
659.2	53328.88
659.551	53243.68
659.902	53344.7
660.253	53268.54
660.604	53252.95
660.955	53269.22
661.306	53424.92
661.656	53255.89
662.007	53214.98
662.358	53355.55
662.708	53316.23
663.059	53188.54
663.409	53079.4
663.76	53318.03
664.11	53245.49
664.461	53331.59
664.811	53370.46
665.161	53378.14
665.511	53179.96
665.862	53266.74
666.212	53293.4
666.562	53287.98
666.912	53228.09
667.262	53331.59
667.612	53207.3
667.962	53233.29
668.312	53200.75
668.662	53373.62
669.011	53205.49
669.361	53220.18
669.711	53156.68
670.06	53170.92
670.41	53101.77
670.76	53099.06
671.109	53158.94
671.459	53152.16
671.808	52978.61
672.157	53119.17
672.507	52868.33
672.856	52824.71
673.205	52874.88
673.554	52974.31
673.904	52792.62
674.253	53019.74
674.602	52825.16
674.951	52313.09
675.3	52214.56
675.649	52692.74
675.998	52639.86
676.346	52655.9
676.695	52748.33
677.044	52447.1
677.393	52518.05
677.741	52565.28
678.09	52374.78
678.438	52238.97
678.787	52288.68
679.135	52261.11
679.484	51958.75
679.832	52114.45
680.181	51990.61
680.529	51990.38
680.877	51865.19
681.225	51819.09
681.573	51921.01
681.922	51691.18
682.27	51548.59
682.618	51505.2
682.966	51490.96
683.314	51448.25
683.661	51347.46
684.009	51157.86
684.357	51063.18
684.705	51022.73
685.053	51085.32
685.4	51033.8
685.748	50836.74
686.095	50858.21
686.443	50681.72
686.79	50588.84
687.138	50624.77
687.485	50572.12
687.832	50520.14
688.18	50587.71
688.527	50308.17
688.874	50392.69
689.221	50281.5
689.568	50238.34
689.915	49987.73
690.262	50014.17
690.609	49920.16
690.956	49788.18
691.303	49762.87
691.65	49507.51
691.997	49631.8
692.344	49367.63
692.69	49399.72
693.037	49399.94
693.383	49121.31
693.73	49129.44
694.077	48876.57
694.423	49029.56
694.769	48839.73
695.116	48912.5
695.462	48811.03
695.808	48676.8
696.155	48643.35
696.501	48448.56
696.847	48467.31
697.193	48236.81
697.539	48475.22
697.885	48153.65
698.231	47923.82
698.577	48000.43
698.923	47989.81
699.269	47762.02
699.614	47614.68
699.96	47509.15
700.306	47532.2
700.651	47435.7
700.997	47287.46
701.342	47274.35
701.688	47022.61
702.033	46935.38
702.379	46979.67
702.724	46831.2
703.069	46819.45
703.415	46487.7
703.76	46535.61
704.105	46481.6
704.45	46320.48
704.795	46089.97
705.14	46042.74
705.485	46049.98
705.83	45783.99
706.175	45835.97
706.52	45680.04
706.865	45605.69
707.209	45493.38
707.554	45174.74
707.899	45424.23
708.243	45127.97
708.588	44940.63
708.932	44674.87
709.277	44786.28
709.621	44645.27
709.966	44412.96
710.31	44437.14
710.654	44010.03
710.998	44157.37
711.342	44035.57
711.687	43990.59
712.031	43741.79
712.375	43585.41
712.719	43767.1
713.063	43529.59
713.407	43669.02
713.75	43384.96
714.094	43366.43
714.438	42895.48
714.782	43092.77
715.125	42902.49
715.469	42842.15
715.812	42565.55
716.156	42525.1
716.499	42436.96
716.843	42417.53
717.186	42251.88
717.53	42381.6
717.873	42324.2
718.216	42076.97
718.559	42075.16
718.902	41784.55
719.246	41703.42
719.589	41560.38
719.932	41438.57
720.275	41424.79
720.617	41403.09
720.96	41372.13
721.303	41242.64
721.646	41266.37
721.989	41145.92
722.331	41283.32
722.674	41047.85
723.016	41036.77
723.359	40816.44
723.701	40827.97
724.044	40733.28
724.386	40494.64
724.729	40699.38
725.071	40618.93
725.413	40552.49
725.755	40405.83
726.097	40170.36
726.439	39989.12
726.782	40086.52
727.124	40286.96
727.465	40050.36
727.807	39953.19
728.149	39878.39
728.491	39887.43
728.833	39807.43
729.175	39720.42
729.516	39476.36
729.858	39478.85
730.199	39521.11
730.541	39412.64
730.882	39547.55
731.224	39516.59
731.565	39264.84
731.906	39466.19
732.248	39384.16
732.589	39211.74
732.93	39030.95
733.271	39193.43
733.612	39304.16
733.953	39127.9
734.294	39000.9
734.635	38964.51
734.976	39045.19
735.317	38845.19
735.658	38879.99
735.999	38825.08
736.339	38640.68
736.68	38762.26
737.021	38695.37
737.361	38397.3
737.702	38711.86
738.042	38534.69
738.383	38321.82
738.723	38380.12
739.063	38233.23
739.404	38186.68
739.744	38186.23
740.084	38015.61
740.424	38010.86
740.764	37910.53
741.104	37966.35
741.444	37820.81
741.784	37703.53
742.124	37698.78
742.464	37655.17
742.804	37616.53
743.143	37512.8
743.483	37440.94
743.823	37341.73
744.162	37120.27
744.502	37339.24
744.841	37030.78
745.181	37213.82
745.52	36946.71
745.86	37058.12
746.199	36952.36
746.538	36907.17
746.877	36806.83
747.216	36678.92
747.556	36585.14
747.895	36526.16
748.234	36509.44
748.573	36411.36
748.911	36393.51
749.25	36228.31
749.589	36161.42
749.928	36195.55
750.267	36005.27
750.605	35928.89
750.944	35884.37
751.283	35757.82
751.621	35729.57
751.96	35365.06
752.298	35396.24
752.636	35374.55
752.975	35132.52
753.313	35062.92
753.651	35208.45
753.989	35038.51
754.327	34814.11
754.666	34747.22
755.004	34650.73
755.342	34625.64
755.679	34497.29
756.017	34288.7
756.355	34298.65
756.693	34095.94
757.031	34074.7
757.368	33986.11
757.706	33758.1
758.044	33636.97
758.381	33736.85
758.719	33554.71
759.056	33436.52
759.394	33467.71
759.731	33205.57
760.068	33209.86
760.405	33069.75
760.743	32950.43
761.08	32945.01
761.417	32752.25
761.754	32733.94
762.091	32615.07
762.428	32576.88
762.765	32440.39
763.102	32527.17
763.438	32270.9
763.775	32144.58
764.112	32232.94
764.449	32123.34
764.785	31949.33
765.122	31753.18
765.458	31605.38
765.795	31658.26
766.131	31565.38
766.467	31496.91
766.804	31362.23
767.14	31102.35
767.476	31144.83
767.812	30903.93
768.148	31058.51
768.485	30925.4
768.821	30818.96
769.157	30724.28
769.492	30545.3
769.828	30502.36
770.164	30253.1
770.5	30370.16
770.836	30409.71
771.171	30182.6
771.507	30105.54
771.842	29790.74
772.178	29836.16
772.513	29801.59
772.849	29653.12
773.184	29392.33
773.519	29607.24
773.855	29402.28
774.19	29142.85
774.525	29081.16
774.86	29217.42
775.195	28956.64
775.53	28931.33
775.865	28835.29
776.2	28699.47
776.535	28462.87
776.87	28512.81
777.205	28415.41
777.539	28275.75
777.874	28370.67
778.209	28110.11
778.543	28027.85
778.878	28022.65
779.212	27981.98
779.547	27789.44
779.881	27819.72
780.215	27534.53
780.55	27621.08
780.884	27445.27
781.218	27334.99
781.552	27370.24
781.886	27304.25
782.22	26894.77
782.554	26834.66
782.888	26700.2
783.222	26608
783.556	26636.7
783.889	26421.79
784.223	26237.84
784.557	26149.26
784.89	26193.32
785.224	26117.62
785.557	25864.97
785.891	25780.9
786.224	25770.28
786.558	25704.52
786.891	25446.9
787.224	25251.43
787.557	25210.75
787.891	25149.96
788.224	25113.35
788.557	25126.01
788.89	25000.59
789.223	24939.12
789.556	24719.46
789.888	24737.99
790.221	24596.75
790.554	24224.33
790.887	24208.29
791.219	24245.8
791.552	24159.03
791.884	23986.15
792.217	24014.17
792.549	23768.08
792.882	23650.56
793.214	23604.24
793.546	23564.47
793.879	23309.78
794.211	23297.58
794.543	23303.91
794.875	23142.33
795.207	23184.14
795.539	23092.61
795.871	23031.6
796.203	22798.38
796.535	22642.91
796.867	22685.39
797.198	22512.06
797.53	22476.58
797.862	22323.82
798.193	22385.06
798.525	22244.73
798.856	22245.63
799.188	22061.68
799.519	21950.5
799.85	21764.96
800.182	21865.07
800.513	21814.68
800.844	21527.46
801.175	21682.71
801.506	21622.37
801.837	21421.7
802.168	21410.85
802.499	21419.66
802.83	21140.57
803.161	21097.86
803.491	21056.96
803.822	21115.49
804.153	20990.75
804.483	20822.39
804.814	20709.17
805.145	20824.88
805.475	20722.28
805.805	20640.02
806.136	20654.94
806.466	20541.72
806.796	20607.03
807.126	20432.8
807.457	20360.71
807.787	20396.19
808.117	20262.41
808.447	20298.11
808.777	20293.59
809.107	20100.83
809.436	20028.74
809.766	20124.1
810.096	20020.38
810.426	19960.49
810.755	19961.4
811.085	19915.3
811.414	19744.23
811.744	19670.1
812.073	19728.86
812.403	19704
812.732	19664.91
813.061	19575.64
813.39	19537.68
813.719	19395.54
814.049	19564.8
814.378	19519.83
814.707	19390.56
815.036	19456.1
815.365	19289.1
815.693	19213.39
816.022	19232.6
816.351	19134.3
816.68	19064.02
817.008	19125.94
817.337	19003
817.665	18997.13
817.994	19020.63
818.322	19057.47
818.651	18844.14
818.979	18743.8
819.307	18874.42
819.636	18806.85
819.964	18656.57
820.292	18690.24
820.62	18730.92
820.948	18689.79
821.276	18774.31
821.604	18573.41
821.932	18773.86
822.259	18682.79
822.587	18726.17
822.915	18679.85
823.243	18647.98
823.57	18511.94
823.898	18584.71
824.225	18469.23
824.553	18579.74
824.88	18573.18
825.207	18614.31
825.535	18539.06
825.862	18534.99
826.189	18557.59
826.516	18611.6
826.843	18676.46
827.17	18573.64
827.497	18596.91
827.824	18644.14
828.151	18681.88
828.478	18612.96
828.805	18617.25
829.131	18420.42
829.458	18388.1
829.785	18320.54
830.111	18454.32
830.438	18537.48
830.764	18395.56
831.09	18346.52
831.417	18337.03
831.743	18265.85
832.069	18345.62
832.395	18366.18
832.722	18313.76
833.048	18317.6
833.374	18175.68
833.7	18093.87
834.026	18144.72
834.351	18093.87
834.677	18033.31
835.003	18162.12
835.329	17962.8
835.654	18031.96
835.98	17890.04
836.306	17923.94
836.631	17893.65
836.956	17892.75
837.282	17827.44
837.607	17777.5
837.932	17742.02
838.258	17706.54
838.583	17738.63
838.908	17492.08
839.233	17585.19
839.558	17451.63
839.883	17500.67
840.208	17318.53
840.533	17325.08
840.858	17389.26
841.182	17365.31
841.507	17361.01
841.832	17203.28
842.156	17151.53
842.481	17122.83
842.805	17109.72
843.13	17004.41
843.454	17067.23
843.778	16908.59
844.103	16975.94
844.427	16873.57
844.751	16846.22
845.075	16780.01
845.399	16726.68
845.723	16629.73
846.047	16617.53
846.371	16504.31
846.695	16439.45
847.019	16236.07
847.343	16120.37
847.666	16186.35
847.99	16103.87
848.313	16083.08
848.637	15895.06
848.96	15910.88
849.284	15923.31
849.607	15765.12
849.931	15756.08
850.254	15682.64
850.577	15482.64
850.9	15484
851.223	15432.02
851.546	15359.48
851.869	15255.31
852.192	15373.49
852.515	15270.22
852.838	15161.75
853.161	15162.43
853.483	15126.95
853.806	15075.87
854.129	15053.28
854.451	14936.9
854.774	14910
855.096	14897.57
855.419	14889.89
855.741	14770.12
856.063	14703.91
856.385	14686.96
856.708	14723.57
857.03	14556.79
857.352	14568.54
857.674	14588.2
857.996	14543.91
858.318	14470.92
858.64	14447.42
858.961	14406.97
859.283	14386.4
859.605	14247.65
859.926	14327.87
860.248	14242.45
860.57	14252.39
860.891	14228.89
861.212	14212.39
861.534	14193.41
861.855	14091.49
862.176	14174.43
862.498	14092.85
862.819	14155.45
863.14	14064.6
863.461	14068.44
863.782	14030.93
864.103	14019.86
864.424	13959.52
864.745	14042.46
865.065	13888.79
865.386	13863.7
865.707	13898.73
866.027	13892.63
866.348	13781.9
866.668	13840.2
866.989	13817.15
867.309	13748.68
867.63	13759.07
867.95	13717.27
868.27	13679.08
868.59	13702.58
868.91	13741.67
869.23	13560.43
869.55	13589.59
869.87	13697.61
870.19	13642.69
870.51	13599.76
870.83	13736.02
871.15	13569.02
871.469	13521.57
871.789	13590.49
872.109	13541
872.428	13471.4
872.748	13472.75
873.067	13403.83
873.386	13473.66
873.706	13448.57
874.025	13291.97
874.344	13228.01
874.663	13224.85
874.982	13259.88
875.301	13223.72
875.62	13216.49
875.939	13206.09
876.258	13181.01
876.577	13081.35
876.896	13113.21
877.214	13048.36
877.533	13092.42
877.852	13056.94
878.17	13028.92
878.489	12920
878.807	13041.58
879.125	12947.12
879.444	12976.95
879.762	12857.4
880.08	12844.75
880.398	12838.19
880.716	12824.41
881.034	12788.25
881.352	12774.69
881.67	12680.46
881.988	12671.87
882.306	12607.47
882.624	12664.86
882.941	12539.44
883.259	12400.46
883.577	12438.2
883.894	12371.99
884.212	12365.21
884.529	12414.93
884.846	12367.92
885.164	12296.74
885.481	12256.29
885.798	12187.82
886.115	12173.8
886.432	12124.09
886.75	12057.42
887.067	12044.77
887.383	12023.3
887.7	11958.22
888.017	11855.17
888.334	11942.62
888.651	11876.64
888.967	11790.31
889.284	11689.3
889.6	11685
889.917	11597.55
890.233	11603.88
890.55	11468.96
890.866	11531.79
891.182	11455.63
891.498	11389.42
891.815	11407.72
892.131	11329.31
892.447	11372.92
892.763	11262.42
893.079	11202.08
893.395	11151.23
893.71	11153.04
894.026	11200.95
894.342	11154.17
894.657	11014.74
894.973	11004.34
895.289	10968.19
895.604	10933.38
895.92	10873.27
896.235	10822.2
896.55	10736.55
896.865	10742.2
897.181	10759.6
897.496	10740.62
897.811	10631.02
898.126	10610.91
898.441	10543.56
898.756	10574.07
899.071	10463.34
899.386	10561.87
899.7	10447.07
900.015	10367.52
900.33	10357.13
900.644	10316.23
900.959	10324.59
901.273	10258.15
901.588	10174.31
901.902	10161.65
902.216	10093.18
902.531	10154.42
902.845	10037.36
903.159	10098.38
903.473	10053.86
903.787	9968.66
904.101	9842.34
904.415	9854.32
904.729	9874.66
905.042	9818.61
905.356	9796.92
905.67	9825.39
905.984	9810.7
906.297	9712.63
906.611	9688.9
906.924	9659.52
907.237	9626.98
907.551	9596.47
907.864	9563.25
908.177	9565.51
908.491	9525.29
908.804	9472.18
909.117	9437.15
909.43	9317.38
909.743	9439.86
910.056	9389.47
910.368	9360.09
910.681	9232.86
910.994	9229.93
911.307	9222.7
911.619	9181.79
911.932	9149.02
912.244	9063.83
912.557	9015.47
912.869	8965.08
913.181	8961.46
913.494	9014.11
913.806	8919.88
914.118	8885.53
914.43	8847.56
914.742	8808.47
915.054	8788.58
915.366	8803.27
915.678	8744.06
915.99	8695.03
916.302	8646.21
916.613	8668.13
916.925	8614.35
917.236	8620.68
917.548	8555.82
917.859	8554.01
918.171	8453.68
918.482	8468.59
918.794	8424.3
919.105	8401.93
919.416	8279.22
919.727	8334.81
920.038	8326
920.349	8207.35
920.66	8201.48
920.971	8196.96
921.282	8196.73
921.593	8189.05
921.903	8074.25
922.214	8072.22
922.525	8023.18
922.835	8027.47
923.146	7991.99
923.456	7935.27
923.767	7906.57
924.077	7887.14
924.387	7912.45
924.697	7782.73
925.008	7825.67
925.318	7777.54
925.628	7836.74
925.938	7720.81
926.248	7626.58
926.558	7596.3
926.867	7523.53
927.177	7516.3
927.487	7532.57
927.796	7439.69
928.106	7572.12
928.416	7494.83
928.725	7420.71
929.034	7335.29
929.344	7443.08
929.653	7299.58
929.962	7270.2
930.271	7225.46
930.581	7246.25
930.89	7207.61
931.199	7119.25
931.508	7113.15
931.817	7062.07
932.125	7109.76
932.434	7021.62
932.743	6912.93
933.051	6915.19
933.36	6832.48
933.669	6876.09
933.977	6803.55
934.286	6806.26
934.594	6691.24
934.902	6700.73
935.21	6649.66
935.519	6666.15
935.827	6653.5
936.135	6571.01
936.443	6492.6
936.751	6465.93
937.059	6444.46
937.367	6411.24
937.674	6354.52
937.982	6352.49
938.29	6348.65
938.597	6321.75
938.905	6264.36
939.213	6203.57
939.52	6161.76
939.827	6157.47
940.135	6119.5
940.442	6104.59
940.749	6105.26
941.056	6136.45
941.363	6030.24
941.67	6031.37
941.977	5951.82
942.284	5866.4
942.591	5923.35
942.898	5835.89
943.205	5865.72
943.511	5778.94
943.818	5791.15
944.125	5735.1
944.431	5714.54
944.738	5696.91
945.044	5652.62
945.35	5623.69
945.657	5586.86
945.963	5527.2
946.269	5536.24
946.575	5480.42
946.881	5443.59
947.187	5443.36
947.493	5370.59
947.799	5372.85
948.105	5317.26
948.41	5373.76
948.716	5334.44
949.022	5243.14
949.327	5280.88
949.633	5256.25
949.938	5254.89
950.244	5241.78
950.549	5139.41
950.854	5158.4
951.16	5155.46
951.465	5093.54
951.77	5061.45
952.075	5031.85
952.38	5016.7
952.685	4995.91
952.99	4935.35
953.294	4981
953.599	4915.69
953.904	4936.71
954.209	4910.27
954.513	4816.48
954.818	4809.93
955.122	4788.69
955.426	4763.83
955.731	4768.8
956.035	4721.57
956.339	4690.61
956.643	4672.98
956.948	4645.19
957.252	4656.04
957.556	4622.14
957.86	4607.9
958.163	4579.65
958.467	4496.94
958.771	4495.59
959.075	4506.21
959.378	4483.61
959.682	4483.38
959.985	4442.48
960.289	4451.75
960.592	4436.61
960.896	4418.75
961.199	4368.59
961.502	4346.89
961.805	4352.09
962.108	4331.07
962.411	4326.78
962.714	4218.99
963.017	4284.75
963.32	4228.7
963.623	4206.1
963.926	4215.82
964.228	4157.97
964.531	4161.13
964.833	4198.42
965.136	4116.61
965.438	4096.5
965.741	4106.9
966.043	4059.44
966.345	4073.68
966.648	4065.99
966.95	4062.61
967.252	4021.02
967.554	4027.8
967.856	4011.76
968.158	3969.05
968.46	3942.38
968.761	3950.29
969.063	3984.42
969.365	3916.17
969.666	3933.34
969.968	3906.9
970.269	3925.66
970.571	3845.21
970.872	3894.47
971.174	3850.63
971.475	3808.15
971.776	3802.72
972.077	3811.09
972.378	3824.87
972.679	3801.82
972.98	3759.79
973.281	3729.51
973.582	3729.73
973.883	3759.34
974.183	3730.41
974.484	3676.63
974.785	3675.04
975.085	3672.78
975.386	3662.39
975.686	3625.33
975.986	3619
976.287	3618.77
976.587	3579.45
976.887	3592.33
977.187	3590.08
977.487	3583.07
977.787	3570.64
978.087	3571.09
978.387	3522.73
978.687	3525.22
978.987	3516.86
979.286	3499.68
979.586	3463.75
979.885	3441.38
980.185	3422.17
980.484	3372.23
980.784	3386.69
981.083	3382.85
981.382	3373.36
981.682	3396.86
981.981	3381.49
982.28	3322.06
982.579	3314.38
982.878	3325
983.177	3280.7
983.475	3314.38
983.774	3258.56
984.073	3226.69
984.372	3200.93
984.67	3238.45
984.969	3206.13
985.267	3207.49
985.566	3214.94
985.864	3194.61
986.162	3171.1
986.461	3143.99
986.759	3125.23
987.057	3074.16
987.355	3060.82
987.653	3116.87
987.951	3090.88
988.249	3038.9
988.547	3056.3
988.844	3053.82
989.142	3024.44
989.44	3035.51
989.737	3003.65
990.035	2984.44
990.332	2932.92
990.63	2962.97
990.927	2928.4
991.224	2919.13
991.521	2873.94
991.819	2870.32
992.116	2878.68
992.413	2836.42
992.71	2843.2
993.006	2835.74
993.303	2816.08
993.6	2829.19
993.897	2781.51
994.193	2795.75
994.49	2761.17
994.787	2759.59
995.083	2734.05
995.379	2722.3
995.676	2717.33
995.972	2691.57
996.268	2668.07
996.565	2632.59
996.861	2621.96
997.157	2595.75
997.453	2594.85
997.749	2601.4
998.044	2582.64
998.34	2572.93
998.636	2541.74
998.932	2552.81
999.227	2522.08
999.523	2483.21
999.818	2481.4
1000.114	2434.85
1000.409	2470.56
1000.704	2428.07
1001	2436.89
1001.295	2416.09
1001.59	2393.5
1001.885	2367.06
1002.18	2366.83
1002.475	2361.63
1002.77	2357.11
1003.065	2301.3
1003.359	2289.77
1003.654	2314.63
1003.949	2242.99
1004.243	2270.56
1004.538	2236.44
1004.832	2206.38
1005.127	2238.25
1005.421	2189.43
1005.715	2189.21
1006.009	2190.56
1006.304	2155.54
1006.598	2139.27
1006.892	2158.25
1007.186	2134.29
1007.48	2084.35
1007.773	2075.76
1008.067	2120.51
1008.361	2070.79
1008.655	2055.65
1008.948	2068.99
1009.242	2019.49
1009.535	2005.94
1009.829	2010.46
1010.122	1988.31
1010.415	1964.36
1010.708	1950.57
1011.001	1949.44
1011.295	1919.61
1011.588	1957.8
1011.881	1890.68
1012.173	1910.57
1012.466	1884.13
1012.759	1871.7
1013.052	1863.34
1013.344	1816.79
1013.637	1803
1013.93	1821.31
1014.222	1825.38
1014.514	1766.17
1014.807	1768.65
1015.099	1759.39
1015.391	1752.38
1015.683	1736.79
1015.976	1730.24
1016.268	1737.24
1016.56	1691.82
1016.851	1704.47
1017.143	1669
1017.435	1671.93
1017.727	1706.73
1018.018	1638.94
1018.31	1629
1018.602	1602.78
1018.893	1610.92
1019.185	1598.72
1019.476	1574.99
1019.767	1571.15
1020.058	1581.54
1020.35	1566.17
1020.641	1546.29
1020.932	1540.64
1021.223	1509.45
1021.514	1521.43
1021.804	1511.26
1022.095	1504.48
1022.386	1487.76
1022.677	1485.5
1022.967	1474.65
1023.258	1459.51
1023.548	1442.79
1023.839	1433.75
1024.129	1415.22
1024.419	1444.37
1024.709	1428.78
1025	1410.25
1025.29	1356.46
1025.58	1401.66
1025.87	1377.03
1026.16	1360.08
1026.449	1375.44
1026.739	1370.7
1027.029	1321.21
1027.319	1344.94
1027.608	1338.61
1027.898	1309.91
1028.187	1304.49
1028.477	1306.75
1028.766	1293.41
1029.055	1283.7
1029.344	1257.03
1029.634	1266.75
1029.923	1259.51
1030.212	1259.97
1030.501	1246.63
1030.79	1231.49
1031.078	1211.38
1031.367	1228.1
1031.656	1182.68
1031.945	1181.55
1032.233	1207.09
1032.522	1191.95
1032.81	1192.4
1033.099	1175.22
1033.387	1156.69
1033.675	1171.38
1033.963	1161.21
1034.251	1149.46
1034.54	1146.07
1034.828	1113.98
1035.116	1121.67
1035.403	1124.6
1035.691	1119.63
1035.979	1120.54
1036.267	1121.21
1036.554	1090.03
1036.842	1070.59
1037.129	1081.21
1037.417	1074.21
1037.704	1030.14
1037.992	1086.64
1038.279	1047.32
1038.566	1042.57
1038.853	1042.57
1039.14	1042.57
