Data from white_poster_card_FLMS001491_00086.txt Node
Date: Wed Feb 08 11:52:08 GMT 2017
User: dcchb
Spectrometer: FLMS00149
Trigger mode: 0
Integration Time (sec): 2.000000E-2
Scans to average: 10
Electric dark correction enabled: true
Nonlinearity correction enabled: false
Boxcar width: 0
XAxis mode: Wavelengths
Number of Pixels in Spectrum: 2048
>>>>>Begin Spectral Data<<<<<
341.393	-0.76
341.776	-0.76
342.16	-0.76
342.543	-36.69
342.927	-60.87
343.31	-63.13
343.693	-62.91
344.077	-77.14
344.46	-56.13
344.843	-65.39
345.226	-20.65
345.61	-26.07
345.993	-17.94
346.376	-26.07
346.759	3.3
347.142	25.9
347.525	42.85
347.908	51.67
348.291	92.57
348.674	78.56
349.057	120.59
349.44	116.75
349.823	119.46
350.206	159.23
350.588	203.3
350.971	189.74
351.354	249.4
351.737	224.54
352.119	237.88
352.502	253.69
352.884	299.12
353.267	278.33
353.65	294.37
354.032	305.9
354.414	324.65
354.797	315.16
355.179	310.64
355.562	327.36
355.944	331.66
356.326	354.03
356.709	330.3
357.091	335.05
357.473	331.21
357.855	352
358.238	348.83
358.62	354.26
359.002	339.34
359.384	339.34
359.766	347.02
360.148	340.47
360.53	339.79
360.912	343.86
361.294	348.15
361.676	324.43
362.057	324.2
362.439	318.32
362.821	326.23
363.203	316.52
363.584	314.03
363.966	322.84
364.348	327.14
364.729	334.14
365.111	294.6
365.493	310.87
365.874	312.22
366.256	339.12
366.637	310.87
367.019	305.22
367.4	326.46
367.781	295.73
368.163	305.67
368.544	335.73
368.925	313.81
369.306	318.32
369.688	318.78
370.069	296.63
370.45	309.51
370.831	318.78
371.212	293.47
371.593	320.13
371.974	310.87
372.355	309.96
372.736	335.27
373.117	337.99
373.498	318.1
373.879	306.57
374.26	309.96
374.641	335.27
375.021	305.67
375.402	316.74
375.783	306.12
376.163	331.21
376.544	294.37
376.925	312.22
377.305	322.84
377.686	319.23
378.066	327.59
378.447	330.53
378.827	319.91
379.208	335.95
379.588	346.8
379.968	345.67
380.349	337.53
380.729	324.88
381.109	330.3
381.489	343.64
381.87	349.96
382.25	328.49
382.63	344.54
383.01	357.19
383.39	349.96
383.77	339.57
384.15	347.93
384.53	333.01
384.91	348.83
385.29	347.02
385.67	366.01
386.049	363.97
386.429	347.25
386.809	359.45
387.189	347.93
387.568	368.72
387.948	349.51
388.328	350.41
388.707	374.59
389.087	374.59
389.466	376.63
389.846	399
390.225	391.32
390.605	363.52
390.984	387.93
391.363	400.58
391.743	386.35
392.122	377.53
392.501	388.15
392.881	390.41
393.26	388.15
393.639	406.91
394.018	393.8
394.397	415.72
394.776	404.42
395.155	416.18
395.534	408.04
395.913	426.12
396.292	419.11
396.671	422.95
397.05	457.08
397.429	427.47
397.808	422.28
398.186	406.01
398.565	425.44
398.944	419.57
399.323	435.16
399.701	430.64
400.08	417.98
400.458	437.19
400.837	460.92
401.215	443.52
401.594	434.25
401.972	455.5
402.351	465.44
402.729	464.76
403.107	456.4
403.486	488.04
403.864	457.53
404.242	476.06
404.62	470.86
404.999	479.68
405.377	502.5
405.755	480.81
406.133	506.57
406.511	513.12
406.889	480.35
407.267	523.07
407.645	521.03
408.023	526.91
408.401	530.97
408.779	520.58
409.156	555.15
409.534	565.32
409.912	550.41
410.29	576.4
410.667	577.53
411.045	622.72
411.422	598.54
411.8	638.32
412.178	622.95
412.555	643.97
412.933	657.75
413.31	650.07
413.687	680.12
414.065	691.65
414.442	708.6
414.819	716.73
415.197	742.27
415.574	713.57
415.951	748.37
416.328	758.09
416.705	766.45
417.082	794.7
417.46	813.91
417.837	821.36
418.214	865.2
418.591	855.26
418.967	862.49
419.344	855.71
419.721	903.17
420.098	896.61
420.475	930.51
420.852	954.47
421.228	946.56
421.605	951.98
421.982	990.4
422.358	995.82
422.735	987.91
423.111	987.23
423.488	1033.79
423.864	1054.12
424.241	1078.98
424.617	1047.8
424.994	1075.82
425.37	1091.86
425.746	1105.87
426.123	1109.94
426.499	1088.93
426.875	1162.82
427.251	1164.4
427.627	1205.53
428.003	1202.37
428.379	1208.02
428.756	1248.24
429.132	1262.71
429.507	1273.1
429.883	1292.99
430.259	1328.69
430.635	1322.59
431.011	1325.08
431.387	1372.76
431.763	1388.13
432.138	1394.23
432.514	1412.53
432.89	1434.68
433.265	1459.54
433.641	1481.91
434.016	1505.41
434.392	1533.89
434.767	1578.63
435.143	1543.15
435.518	1563.26
435.894	1592.42
436.269	1609.82
436.644	1632.41
437.02	1650.04
437.395	1632.87
437.77	1686.42
438.145	1714.45
438.52	1719.87
438.895	1749.02
439.271	1751.96
439.646	1781.11
440.021	1826.08
440.395	1788.57
440.77	1789.47
441.145	1812.97
441.52	1847.1
441.895	1869.7
442.27	1863.82
442.645	1869.7
443.019	1898.85
443.394	1915.35
443.769	1904.27
444.143	1903.14
444.518	1981.78
444.892	1945.85
445.267	1944.27
445.641	1977.04
446.016	1991.28
446.39	2036.47
446.764	2012.97
447.139	2025.62
447.513	2049.8
447.887	2029.69
448.262	2075.79
448.636	2064.72
449.01	2134.1
449.384	2105.85
449.758	2130.93
450.132	2154.89
450.506	2177.49
450.88	2191.27
451.254	2184.26
451.628	2212.06
452.002	2219.97
452.376	2262
452.75	2297.93
453.123	2305.62
453.497	2316.46
453.871	2348.78
454.244	2397.59
454.618	2429.91
454.992	2442.34
455.365	2461.55
455.739	2478.04
456.112	2529.34
456.486	2537.93
456.859	2592.16
457.232	2601.2
457.606	2588.77
457.979	2639.85
458.352	2673.52
458.725	2700.41
459.099	2753.74
459.472	2785.6
459.845	2817.02
460.218	2824.25
460.591	2843.91
460.964	2823.12
461.337	2926.84
461.71	2951.25
462.083	2986.5
462.456	3011.36
462.829	2998.03
463.201	3096.56
463.574	3110.34
463.947	3129.32
464.32	3210.68
464.692	3212.71
465.065	3242.77
465.438	3281.86
465.81	3288.42
466.183	3329.09
466.555	3420.16
466.928	3426.04
467.3	3459.49
467.672	3518.69
468.045	3612.7
468.417	3624
468.789	3592.36
469.161	3659.93
469.534	3737.9
469.906	3842.53
470.278	3863.32
470.65	3842.75
471.022	3928.85
471.394	4000.71
471.766	4033.48
472.138	4091.11
472.51	4173.82
472.882	4213.14
473.253	4251.33
473.625	4314.83
473.997	4368.16
474.369	4414.49
474.74	4446.13
475.112	4548.5
475.484	4642.96
475.855	4734.93
476.227	4729.51
476.598	4827.13
476.97	4911.65
477.341	4980.58
477.713	5088.37
478.084	5181.25
478.455	5223.96
478.827	5325.2
479.198	5416.5
479.569	5418.76
479.94	5539.43
480.311	5672.76
480.682	5728.35
481.053	5897.16
481.424	5926.99
481.795	5981.45
482.166	6089.92
482.537	6168.57
482.908	6326.53
483.279	6372.86
483.65	6456.24
484.021	6593.41
484.391	6712.06
484.762	6727.42
485.133	6803.13
485.503	6854.88
485.874	6983.01
486.244	7128.32
486.615	7152.72
486.985	7307.52
487.356	7437.01
487.726	7485.14
488.097	7604.46
488.467	7697.11
488.837	7853.49
489.207	7899.37
489.578	8102.75
489.948	8091.68
490.318	8228.4
490.688	8300.71
491.058	8444.44
491.428	8532.8
491.798	8619.8
492.168	8751.32
492.538	8773.92
492.908	8937.31
493.278	9010.98
493.648	9048.04
494.017	9214.59
494.387	9271.08
494.757	9323.74
495.126	9438.09
495.496	9465.2
495.866	9563.05
496.235	9656.38
496.605	9745.2
496.974	9833.55
497.344	9944.06
497.713	9910.16
498.082	10046.43
498.452	10214.56
498.821	10205.52
499.19	10226.99
499.559	10362.13
499.928	10546.3
500.298	10542.69
500.667	10614.33
501.036	10653.19
501.405	10756.24
501.774	10739.97
502.143	10818.16
502.512	10898.61
502.88	10968.89
503.249	11006.18
503.618	11196.46
503.987	11164.37
504.356	11251.82
504.724	11343.8
505.093	11448.2
505.462	11474.42
505.83	11567.75
506.199	11659.5
506.567	11826.5
506.936	11774.52
507.304	11949.43
507.672	12002.76
508.041	12056.77
508.409	12165.92
508.777	12248.41
509.145	12336.77
509.514	12434.84
509.882	12501.51
510.25	12626.25
510.618	12632.58
510.986	12665.34
511.354	12914.6
511.722	12952.12
512.09	13043.19
512.458	12965.9
512.826	13261.71
513.193	13216.97
513.561	13351.88
513.929	13441.37
514.297	13615.38
514.664	13726.33
515.032	13808.82
515.4	13800.23
515.767	13883.17
516.135	13981.47
516.502	13878.19
516.869	14233.67
517.237	14300.56
517.604	14268.69
517.972	14505.97
518.339	14636.82
518.706	14662.13
519.073	14694.22
519.44	14870.26
519.808	15014.89
520.175	15012.63
520.542	15260.08
520.909	15292.39
521.276	15311.15
521.643	15526.96
522.009	15672.72
522.376	15767.64
522.743	15827.75
523.11	15941.42
523.477	16191.81
523.843	16213.05
524.21	16456.66
524.577	16557.22
524.943	16595.19
525.31	16744.11
525.676	16820.49
526.043	16927.38
526.409	17107.49
526.776	17281.27
527.142	17293.47
527.508	17399.68
527.874	17683.07
528.241	17727.36
528.607	17724.19
528.973	17968.93
529.339	17927.58
529.705	18131.87
530.071	18269.72
530.437	18412.76
530.803	18389.94
531.169	18525.08
531.535	18615.47
531.901	18746.99
532.267	18805.07
532.632	18925.97
532.998	18985.18
533.364	19120.54
533.73	19201.67
534.095	19339.29
534.461	19449.12
534.826	19464.71
535.192	19555.79
535.557	19744.93
535.923	19792.62
536.288	19789.45
536.653	19923.23
537.019	19922.56
537.384	20017.69
537.749	20111.7
538.114	20201.87
538.479	20271.47
538.845	20406.84
539.21	20348.53
539.575	20530
539.94	20575.87
540.305	20719.37
540.67	20579.04
541.034	20748.07
541.399	20920.27
541.764	20967.73
542.129	21046.14
542.494	21103.32
542.858	21149.87
543.223	21197.78
543.587	21390.99
543.952	21302.86
544.316	21452.68
544.681	21471.89
545.045	21642.74
545.41	21636.18
545.774	21743.3
546.138	21808.38
546.503	21918.43
546.867	21929.51
547.231	22131.31
547.595	22095.38
547.959	22199.78
548.324	22231.2
548.688	22193.68
549.052	22473.67
549.416	22463.05
549.779	22451.98
550.143	22731.52
550.507	22713.22
550.871	22908.47
551.235	22831.41
551.599	22963.83
551.962	23065.98
552.326	23242.92
552.689	23294.9
553.053	23195.01
553.417	23335.12
553.78	23696.02
554.143	23524.72
554.507	23661.21
554.87	23734.21
555.234	24091.49
555.597	23854.2
555.96	24041.99
556.323	24041.54
556.686	24146.17
557.05	24430.69
557.413	24526.05
557.776	24477.01
558.139	24694.41
558.502	24719.27
558.865	24749.32
559.228	24958.58
559.59	25064.11
559.953	25006.26
560.316	25303.66
560.679	25198.35
561.041	25536.87
561.404	25589.07
561.767	25881.27
562.129	25719.46
562.492	26032.23
562.854	26122.17
563.217	26176.18
563.579	26129.62
563.941	26379.56
564.304	26572.78
564.666	26678.31
565.028	26737.52
565.39	26854.58
565.753	26992.88
566.115	27060.45
566.477	27186.55
566.839	27300.89
567.201	27501.11
567.563	27448.46
567.925	27627.66
568.287	27725.29
568.648	27610.71
569.01	27824.04
569.372	27985.62
569.734	28145.84
570.095	28251.6
570.457	28287.99
570.819	28399.85
571.18	28476.45
571.542	28630.12
571.903	28613.4
572.265	28636
572.626	28794.41
572.987	28780.4
573.349	28855.2
573.71	29083.67
574.071	29097.91
574.432	29235.76
574.794	29393.49
575.155	29436.66
575.516	29385.36
575.877	29548.29
576.238	29565.01
576.599	29714.61
576.96	29741.51
577.32	29693.82
577.681	29938.79
578.042	29931.11
578.403	29848.85
578.763	29978.56
579.124	29994.61
579.485	30114.15
579.845	30182.17
580.206	30073.02
580.566	30197.09
580.927	30237.76
581.287	30370.87
581.648	30245.22
582.008	30414.03
582.368	30406.57
582.728	30430.75
583.089	30369.74
583.449	30320.25
583.809	30385.56
584.169	30498.32
584.529	30339.91
584.889	30600.69
585.249	30416.52
585.609	30314.37
585.969	30609.73
586.329	30444.09
586.688	30588.72
587.048	30444.31
587.408	30466.68
587.768	30434.82
588.127	30431.66
588.487	30503.52
588.846	30773.12
589.206	30475.72
589.565	30503.97
589.925	30639.79
590.284	30529.96
590.643	30680.24
591.003	30588.72
591.362	30678.66
591.721	30675.04
592.08	30679.33
592.44	30729.5
592.799	30713.46
593.158	30718.43
593.517	30690.63
593.876	30670.52
594.235	30705.32
594.593	30777.64
594.952	30875.26
595.311	30689.5
595.67	30687.92
596.029	31018.08
596.387	30992.55
596.746	31090.17
597.104	30925.66
597.463	30771.76
597.822	30924.07
598.18	30880.69
598.538	30814.7
598.897	31038.87
599.255	30844.08
599.613	31244.74
599.972	31052.21
600.33	31025.54
600.688	31112.09
601.046	31093.79
601.404	31219.66
601.762	31107.57
602.12	31390.5
602.478	31298.98
602.836	31291.97
603.194	31201.58
603.552	31216.72
603.91	31147.8
604.268	31317.06
604.625	31268.92
604.983	31472.53
605.341	31347.34
605.698	31494.23
606.056	31549.82
606.413	31367.45
606.771	31619.65
607.128	31672.08
607.485	31449.94
607.843	31551.18
608.2	31664.17
608.557	31961.11
608.914	31665.75
609.272	31863.94
609.629	31879.98
609.986	32007.66
610.343	31777.16
610.7	32068.45
611.057	32001.56
611.414	32074.78
611.771	32007.89
612.127	32156.81
612.484	32069.13
612.841	32244.49
613.198	32045.4
613.554	32079.07
613.911	32288.56
614.267	32288.33
614.624	32142.8
614.98	32465.95
615.337	32437.03
615.693	32382.79
616.05	32440.64
616.406	32612.62
616.762	32369.69
617.118	32552.96
617.475	32437.03
617.831	32513.86
618.187	32595.44
618.543	32529.46
618.899	32707.76
619.255	32563.58
619.611	32515.44
619.967	32753.4
620.323	32775.1
620.678	32606.97
621.034	32455.56
621.39	32536.69
621.746	32667.08
622.101	32950.91
622.457	32728.77
622.812	32784.59
623.168	32747.3
623.523	32787.08
623.879	32801.99
624.234	32658.49
624.589	32851.71
624.945	32757.02
625.3	32935.55
625.655	32891.48
626.01	32766.74
626.365	32874.08
626.72	32682.67
627.075	32613.75
627.43	32713.86
627.785	32591.83
628.14	32768.09
628.495	32586.63
628.85	32678.6
629.205	32603.35
629.559	32775.78
629.914	32653.29
630.269	32551.6
630.623	32530.81
630.978	32352.51
631.332	32482.9
631.687	32655.33
632.041	32480.42
632.396	32472.51
632.75	32334.88
633.104	32286.75
633.459	32227.09
633.813	32258.95
634.167	32195.9
634.521	32199.97
634.875	32235.45
635.229	32195.23
635.583	32117.26
635.937	32070.48
636.291	32083.14
636.645	32084.72
636.999	31915.01
637.352	31983.71
637.706	31798.63
638.06	31946.19
638.413	31758.85
638.767	31706.2
639.121	31796.37
639.474	31491.97
639.828	31514.79
640.181	31613.32
640.534	31726.76
640.888	31518.18
641.241	31504.85
641.594	31451.52
641.947	31466.43
642.301	31390.95
642.654	31478.64
643.007	31454.46
643.36	31355.7
643.713	31265.76
644.066	31368.36
644.419	31114.35
644.771	31025.31
645.124	30635.27
645.477	30533.58
645.83	30500.58
646.182	30206.58
646.535	30082.74
646.888	30054.72
647.24	29971.56
647.593	30263.53
647.945	30024.66
648.298	29860.37
648.65	29976.53
649.002	29815.85
649.355	29962.74
649.707	29918.22
650.059	30170.65
650.411	30341.94
650.763	30436.63
651.115	30773.12
651.467	30545.33
651.819	30517.08
652.171	30495.16
652.523	30458.55
652.875	30374.94
653.227	30240.25
653.578	30407.48
653.93	30419
654.282	30197.99
654.633	30180.82
654.985	30298.1
655.337	30235.73
655.688	30247.26
656.039	30358.67
656.391	30022.85
656.742	30025.11
657.094	30046.13
657.445	30108.28
657.796	30031.89
658.147	30071.21
658.498	29847.04
658.849	30065.34
659.2	29859.24
659.551	29876.42
659.902	29959.58
660.253	29817.21
660.604	29901.5
660.955	29837.1
661.306	29885.91
661.656	29826.02
662.007	29699.93
662.358	29677.33
662.708	29801.17
663.059	29648.85
663.409	29510.33
663.76	29677.1
664.11	29763.88
664.461	29818.79
664.811	29712.13
665.161	29635.97
665.511	29567.27
665.862	29597.33
666.212	29528.86
666.562	29607.95
666.912	29473.72
667.262	29470.1
667.612	29485.02
667.962	29526.14
668.312	29537.22
668.662	29514.85
669.011	29525.24
669.361	29335.87
669.711	29346.94
670.06	29344.68
670.41	29328.64
670.76	29335.42
671.109	29362.76
671.459	29300.84
671.808	29200.05
672.157	29289.54
672.507	29193.72
672.856	29128.87
673.205	29313.95
673.554	29268.52
673.904	29158.7
674.253	29339.93
674.602	29136.32
674.951	28805.71
675.3	28558.94
675.649	29002.77
675.998	28998.93
676.346	29043.45
676.695	29164.12
677.044	28915.77
677.393	28923.9
677.741	29012.03
678.09	28875.31
678.438	28801.42
678.787	28803.9
679.135	28839.38
679.484	28679.39
679.832	28711.25
680.181	28648.88
680.529	28793.73
680.877	28665.15
681.225	28538.37
681.573	28737.92
681.922	28573.18
682.27	28304.71
682.618	28398.49
682.966	28269.23
683.314	28398.72
683.661	28309.23
684.009	28114.66
684.357	28174.32
684.705	28103.36
685.053	28149.68
685.4	28051.16
685.748	27912.4
686.095	27940.65
686.443	27792.18
686.79	27742.01
687.138	27965.06
687.485	27763.48
687.832	27633.09
688.18	27574.56
688.527	27537.95
688.874	27519.19
689.221	27458.63
689.568	27401.23
689.915	27347.22
690.262	27278.97
690.609	27117.39
690.956	27084.17
691.303	27043.72
691.65	27031.75
691.997	27004.4
692.344	26770.28
692.69	26822.71
693.037	26756.73
693.383	26528.94
693.73	26619.33
694.077	26478.09
694.423	26418.88
694.769	26344.76
695.116	26437.19
695.462	26178.44
695.808	26256.63
696.155	26261.15
696.501	25894.15
696.847	26007.37
697.193	25809.41
697.539	25899.8
697.885	25756.07
698.231	25693.93
698.577	25656.42
698.923	25641.27
699.269	25394.95
699.614	25391.79
699.96	25343.66
700.306	25327.61
700.651	25100.5
700.997	25112.25
701.342	25152.02
701.688	25016.21
702.033	24869.32
702.379	24923.1
702.724	24787.51
703.069	24876.32
703.415	24550.91
703.76	24681.75
704.105	24567.63
704.45	24573.28
704.795	24427.75
705.14	24431.36
705.485	24304.13
705.83	24270.01
706.175	24211.71
706.52	24111.6
706.865	24058.49
707.209	24010.13
707.554	23928.33
707.899	24032.05
708.243	23854.2
708.588	23854.43
708.932	23657.15
709.277	23682
709.621	23675.22
709.966	23495.34
710.31	23403.82
710.654	23246.31
710.998	23314.1
711.342	23383.48
711.687	23340.09
712.031	23224.62
712.375	23026.43
712.719	23201.11
713.063	23021.23
713.407	23157.5
713.75	22966.32
714.094	22964.06
714.438	22829.37
714.782	22859.65
715.125	22723.39
715.469	22815.13
715.812	22584.41
716.156	22605.87
716.499	22591.41
716.843	22591.19
717.186	22506.89
717.53	22663.05
717.873	22504.18
718.216	22480.91
718.559	22279.33
718.902	22238.2
719.246	22162.95
719.589	22130.63
719.932	22122.95
720.275	22119.11
720.617	22034.36
720.96	22090.41
721.303	22080.69
721.646	21984.42
721.989	21843.63
722.331	22009.05
722.674	21897.64
723.016	21844.31
723.359	21828.72
723.701	21840.92
724.044	21707.14
724.386	21511.44
724.729	21548.95
725.071	21531.1
725.413	21630.53
725.755	21461.05
726.097	21438.22
726.439	21351.67
726.782	21360.71
727.124	21410.65
727.465	21324.33
727.807	21306.7
728.149	21186.48
728.491	21144.9
728.833	21189.64
729.175	21204.33
729.516	21056.31
729.858	21043.43
730.199	21094.73
730.541	20886.6
730.882	20960.95
731.224	21056.54
731.565	20797.11
731.906	20862.42
732.248	20932.92
732.589	20773.61
732.93	20698.58
733.271	20734.74
733.612	20785.81
733.953	20727.73
734.294	20590.79
734.635	20548.3
734.976	20584.68
735.317	20515.99
735.658	20320.51
735.999	20463.78
736.339	20264.47
736.68	20435.54
737.021	20341.3
737.361	20293.17
737.702	20346.5
738.042	20271.47
738.383	20236.22
738.723	20230.8
739.063	20125.71
739.404	20194.41
739.744	20117.35
740.084	20041.65
740.424	20120.97
740.764	19982.67
741.104	20110.35
741.444	19928.88
741.784	19948.77
742.124	19984.93
742.464	19851.14
742.804	19791.03
743.143	19736.57
743.483	19761.66
743.823	19663.58
744.162	19618.83
744.502	19694.09
744.841	19643.69
745.181	19685.5
745.52	19547.88
745.86	19639.4
746.199	19614.99
746.538	19467.43
746.877	19537.93
747.216	19510.59
747.556	19462.68
747.895	19366.64
748.234	19271.05
748.573	19342.91
748.911	19263.36
749.25	19191.05
749.589	19134.33
749.928	19146.3
750.267	19051.39
750.605	19042.58
750.944	18980.89
751.283	18943.37
751.621	18972.07
751.96	18818.86
752.298	18847.1
752.636	18833.77
752.975	18705.41
753.313	18638.07
753.651	18768.01
753.989	18685.3
754.327	18701.8
754.666	18466.55
755.004	18613.66
755.342	18506.32
755.679	18514.46
756.017	18363.95
756.355	18381.35
756.693	18271.75
757.031	18336.61
757.368	18316.95
757.706	18287.12
758.044	18247.35
758.381	18211.19
758.719	18112.21
759.056	18031.76
759.394	18058.65
759.731	17842.38
760.068	17903.4
760.405	17914.7
760.743	17680.81
761.08	17828.15
761.417	17604.88
761.754	17670.19
762.091	17573.92
762.428	17500.47
762.765	17363.07
763.102	17436.07
763.438	17269.52
763.775	17288.05
764.112	17224.55
764.449	17259.12
764.785	17209.86
765.122	17065.91
765.458	17065.68
765.795	16996.3
766.131	16949.75
766.467	16895.52
766.804	16868.17
767.14	16688.52
767.476	16730.55
767.812	16532.36
768.148	16638.57
768.485	16469.09
768.821	16549.54
769.157	16432.93
769.492	16319.03
769.828	16382.54
770.164	16258.92
770.5	16213.05
770.836	16093.73
771.171	16079.72
771.507	16074.75
771.842	15977.12
772.178	16015.99
772.513	15862.77
772.849	15814.41
773.184	15721.08
773.519	15740.29
773.855	15707.07
774.19	15641.09
774.525	15604.25
774.86	15531.94
775.195	15454.2
775.53	15417.81
775.865	15312.96
776.2	15253.07
776.535	15131.95
776.87	15122.46
777.205	15092.85
777.539	14920.88
777.874	15031.38
778.209	14928.56
778.543	14898.96
778.878	14755.01
779.212	14766.31
779.547	14723.37
779.881	14727.89
780.215	14678.63
780.55	14705.97
780.884	14418.29
781.218	14492.64
781.552	14531.74
781.886	14379.42
782.22	14313.21
782.554	14294.68
782.888	14175.81
783.222	14027.12
783.556	14055.82
783.889	14041.58
784.223	13873.9
784.557	13892.43
784.89	13920.23
785.224	13734.7
785.557	13756.84
785.891	13721.59
786.224	13685.43
786.558	13685.21
786.891	13521.82
787.224	13511.2
787.557	13451.09
787.891	13358.66
788.224	13445.21
788.557	13381.26
788.89	13436.4
789.223	13284.76
789.556	13215.61
789.888	13194.6
790.221	13099.68
790.554	13066.46
790.887	12971.78
791.219	12976.98
791.552	12892.01
791.884	12862.85
792.217	12836.64
792.549	12799.35
792.882	12780.37
793.214	12673.48
793.546	12705.34
793.879	12539.7
794.211	12533.15
794.543	12511.68
794.875	12515.52
795.207	12491.56
795.539	12408.85
795.871	12452.92
796.203	12309.87
796.535	12256.09
796.867	12248.63
797.198	12161.18
797.53	12168.18
797.862	12117.34
798.193	12126.38
798.525	12032.14
798.856	12021.07
799.188	11921.64
799.519	11898.81
799.85	11823.56
800.182	11848.64
800.513	11850.23
800.844	11701.08
801.175	11839.6
801.506	11731.13
801.837	11687.74
802.168	11641.19
802.499	11690.68
802.83	11565.71
803.161	11475.77
803.491	11541.08
803.822	11532.49
804.153	11498.6
804.483	11369.33
804.814	11302.22
805.145	11361.88
805.475	11255.89
805.805	11286.17
806.136	11205.72
806.466	11253.63
806.796	11287.08
807.126	11170.92
807.457	11175.67
807.787	11139.51
808.117	11008.21
808.447	11029
808.777	11027.87
809.107	11031.49
809.436	10924.15
809.766	10919.4
810.096	10945.39
810.426	10842.79
810.755	10876.69
811.085	10836.69
811.414	10829.01
811.744	10694.1
812.073	10699.29
812.403	10647.32
812.732	10657.04
813.061	10583.14
813.39	10612.52
813.719	10505.63
814.049	10571.61
814.378	10494.78
814.707	10414.56
815.036	10459.75
815.365	10421.11
815.693	10266.76
816.022	10299.53
816.351	10262.7
816.68	10248.46
817.008	10287.78
817.337	10099.08
817.665	10203.26
817.994	10191.74
818.322	10205.75
818.651	10146.54
818.979	10064.06
819.307	10102.02
819.636	10120.55
819.964	10029.71
820.292	10037.84
820.62	10009.37
820.948	9927.11
821.276	10029.93
821.604	10005.53
821.932	9997.84
822.259	10021.8
822.587	10032.42
822.915	10009.37
823.243	9960.78
823.57	9959.43
823.898	9953.1
824.225	9886.43
824.553	9947.9
824.88	9921.69
825.207	9965.75
825.535	9918.52
825.862	9992.42
826.189	9971.63
826.516	9965.75
826.843	9907.9
827.17	9918.98
827.497	9893.21
827.824	9951.97
828.151	9918.07
828.478	9930.05
828.805	9972.53
829.131	9894.8
829.458	9927.56
829.785	9850.05
830.111	9951.74
830.438	9970.5
830.764	9914.23
831.09	9974.34
831.417	9831.97
831.743	9850.5
832.069	9889.37
832.395	9923.27
832.722	9872.42
833.048	9842.82
833.374	9840.33
833.7	9812.54
834.026	9836.72
834.351	9878.07
834.677	9782.26
835.003	9807.57
835.329	9776.16
835.654	9824.74
835.98	9736.16
836.306	9774.12
836.631	9693.22
836.956	9716.04
837.282	9748.13
837.607	9708.81
837.932	9613.45
838.258	9655.48
838.583	9668.36
838.908	9622.94
839.233	9544.75
839.558	9631.07
839.883	9596.95
840.208	9563.28
840.533	9565.77
840.858	9494.81
841.182	9502.94
841.507	9508.37
841.832	9395.15
842.156	9457.75
842.481	9411.19
842.805	9377.52
843.13	9414.58
843.454	9328.48
843.778	9338.65
844.103	9289.61
844.427	9280.58
844.751	9276.51
845.075	9229.73
845.399	9229.73
845.723	9170.3
846.047	9189.05
846.371	9128.04
846.695	9096.17
847.019	8976.4
847.343	8989.74
847.666	8957.42
847.99	8898.89
848.313	8865.22
848.637	8842.39
848.96	8842.17
849.284	8803.07
849.607	8745.22
849.931	8704.55
850.254	8662.29
850.577	8625
850.9	8551.78
851.223	8523.08
851.546	8582.06
851.869	8464.78
852.192	8518.11
852.515	8424.55
852.838	8380.03
853.161	8432.46
853.483	8318.11
853.806	8297.32
854.129	8320.6
854.451	8239.92
854.774	8163.09
855.096	8208.51
855.419	8148.85
855.741	8175.52
856.063	8095.52
856.385	8055.3
856.708	8096.2
857.03	8068.86
857.352	8016.43
857.674	7979.59
857.996	8049.2
858.318	7947.95
858.64	7891.46
858.961	7940.5
859.283	7934.4
859.605	7906.6
859.926	7849.2
860.248	7804.91
860.57	7837
860.891	7829.54
861.212	7795.87
861.534	7741.86
861.855	7745.93
862.176	7703.89
862.498	7710
862.819	7700.05
863.14	7748.64
863.461	7685.81
863.782	7592.94
864.103	7633.84
864.424	7641.52
864.745	7632.03
865.065	7638.13
865.386	7573.05
865.707	7524.92
866.027	7598.81
866.348	7515.88
866.668	7555.87
866.989	7487.4
867.309	7502.99
867.63	7473.39
867.95	7489.44
868.27	7448.08
868.59	7428.87
868.91	7471.13
869.23	7419.83
869.55	7356.11
869.87	7440.62
870.19	7348.65
870.51	7369.66
870.83	7345.48
871.15	7335.99
871.469	7349.1
871.789	7321.76
872.109	7362.89
872.428	7273.4
872.748	7326.5
873.067	7271.81
873.386	7296.45
873.706	7255.32
874.025	7244.47
874.344	7177.58
874.663	7225.49
874.982	7219.16
875.301	7155.43
875.62	7175.77
875.939	7210.12
876.258	7168.09
876.577	7155.66
876.896	7164.02
877.214	7098.49
877.533	7094.19
877.852	7120.63
878.17	7113.17
878.489	7078.15
878.807	7107.52
879.125	7063.23
879.444	7051.93
879.762	6975.55
880.08	7023.01
880.398	6990.24
880.716	6960.18
881.034	6920.86
881.352	6937.81
881.67	6933.74
881.988	6930.58
882.306	6888.55
882.624	6901.65
882.941	6842
883.259	6863.24
883.577	6831.83
883.894	6786.86
884.212	6801.32
884.529	6734.43
884.846	6764.71
885.164	6748.66
885.481	6766.74
885.798	6789.12
886.115	6704.82
886.432	6659.85
886.75	6721.32
887.067	6668.89
887.383	6612.62
887.7	6672.96
888.017	6548.67
888.334	6664.82
888.651	6611.72
888.967	6637.03
889.284	6512.06
889.6	6486.75
889.917	6499.41
890.233	6456.02
890.55	6415.57
890.866	6446.07
891.182	6408.56
891.498	6434.55
891.815	6366.53
892.131	6374.44
892.447	6355
892.763	6316.81
893.079	6278.39
893.395	6316.59
893.71	6268
894.026	6244.72
894.342	6289.02
894.657	6198.85
894.973	6190.71
895.289	6202.24
895.604	6171.96
895.92	6151.17
896.235	6100.32
896.55	6139.41
896.865	6108.23
897.181	6061
897.496	6068
897.811	6079.98
898.126	6038.85
898.441	5956.59
898.756	6009.93
899.071	5952.3
899.386	5999.08
899.7	5904.62
900.015	5872.76
900.33	5838.18
900.644	5889.7
900.959	5866.43
901.273	5837.73
901.588	5788.46
901.902	5724.51
902.216	5771.74
902.531	5700.1
902.845	5698.75
903.159	5703.27
903.473	5665.98
903.787	5643.83
904.101	5620.33
904.415	5660.56
904.729	5590.28
905.042	5571.52
905.356	5560.9
905.67	5527.23
905.984	5545.08
906.297	5535.81
906.611	5464.4
906.924	5479.77
907.237	5463.5
907.551	5401.58
907.864	5382.15
908.177	5387.57
908.491	5331.53
908.804	5303.05
909.117	5303.5
909.43	5295.6
909.743	5274.13
910.056	5239.1
910.368	5216.05
910.681	5227.8
910.994	5184.86
911.307	5164.75
911.619	5099.44
911.932	5144.86
912.244	5082.72
912.557	5100.35
912.869	5087.24
913.181	5075.04
913.494	5065.77
913.806	4985.09
914.118	4980.35
914.43	4934.25
914.742	4925.21
915.054	4862.84
915.366	4883.63
915.678	4873.23
915.99	4810.86
916.302	4841.82
916.613	4796.85
916.925	4822.84
917.236	4788.26
917.548	4779.9
917.859	4783.74
918.171	4755.95
918.482	4718.21
918.794	4730.64
919.105	4707.59
919.416	4658.55
919.727	4672.79
920.038	4634.6
920.349	4574.26
920.66	4580.81
920.971	4552.11
921.282	4538.78
921.593	4547.59
921.903	4485.45
922.214	4483.64
922.525	4448.39
922.835	4470.53
923.146	4474.83
923.456	4446.58
923.767	4422.85
924.077	4430.99
924.387	4407.48
924.697	4376.75
925.008	4333.81
925.318	4362.29
925.628	4333.81
925.938	4310.54
926.248	4251.33
926.558	4249.52
926.867	4266.02
927.177	4209.97
927.487	4228.5
927.796	4185.12
928.106	4190.09
928.416	4122.74
928.725	4135.85
929.034	4074.16
929.344	4139.92
929.653	4057.89
929.962	4065.8
930.271	4035.29
930.581	4031
930.89	3990.54
931.199	3982.64
931.508	3962.97
931.817	3997.78
932.125	3994.61
932.434	3965.69
932.743	3926.59
933.051	3884.11
933.36	3914.84
933.669	3824.9
933.977	3861.06
934.286	3864.22
934.594	3822.87
934.902	3818.8
935.21	3758.69
935.519	3770.44
935.827	3770.66
936.135	3755.97
936.443	3696.09
936.751	3716.88
937.059	3701.51
937.367	3674.39
937.674	3708.29
937.982	3698.35
938.29	3612.48
938.597	3624.9
938.905	3644.11
939.213	3603.21
939.52	3539.26
939.827	3570.44
940.135	3520.73
940.442	3525.47
940.749	3499.71
941.056	3508.3
941.363	3499.03
941.67	3475.53
941.977	3473.72
942.284	3455.87
942.591	3434.85
942.898	3404.8
943.205	3371.58
943.511	3359.15
943.818	3373.39
944.125	3363.67
944.431	3357.34
944.738	3353.27
945.044	3308.53
945.35	3288.42
945.657	3346.49
945.963	3240.51
946.269	3267.63
946.575	3239.38
946.881	3254.07
947.187	3243.67
947.493	3174.52
947.799	3183.56
948.105	3125.71
948.41	3164.58
948.716	3165.48
949.022	3138.36
949.327	3134.07
949.633	3094.52
949.938	3070.12
950.244	3083.22
950.549	3084.58
950.854	3047.07
951.16	3044.58
951.465	3026.73
951.77	3043.68
952.075	3002.77
952.38	2973.17
952.685	2932.27
952.99	2956
953.294	2974.98
953.599	2984.02
953.904	2918.03
954.209	2939.95
954.513	2917.58
954.818	2876.9
955.122	2904.47
955.426	2861.53
955.731	2865.6
956.035	2854.98
956.339	2811.37
956.643	2821.31
956.948	2826.06
957.252	2830.8
957.556	2818.15
957.86	2798.49
958.163	2781.54
958.467	2755.1
958.771	2736.57
959.075	2745.15
959.378	2737.92
959.682	2729.34
959.985	2704.25
960.289	2715.32
960.592	2699.28
960.896	2635.78
961.199	2677.13
961.502	2640.07
961.805	2658.38
962.108	2640.52
962.411	2640.52
962.714	2591.49
963.017	2593.07
963.32	2593.52
963.623	2577.25
963.926	2574.54
964.228	2550.13
964.531	2483.24
964.833	2495.44
965.136	2516.91
965.438	2515.78
965.741	2496.12
966.043	2482.34
966.345	2486.4
966.648	2500.19
966.95	2455.22
967.252	2452.73
967.554	2428.78
967.856	2434.2
968.158	2438.95
968.46	2396.46
968.761	2401.89
969.063	2355.79
969.365	2388.78
969.666	2375.22
969.968	2334.09
970.269	2368.67
970.571	2366.18
970.872	2353.98
971.174	2342.68
971.475	2306.07
971.776	2309.46
972.077	2297.48
972.378	2286.86
972.679	2278.27
972.98	2270.36
973.281	2263.13
973.582	2263.58
973.883	2240.76
974.183	2202.57
974.484	2179.29
974.785	2196.92
975.085	2196.02
975.386	2201.44
975.686	2195.79
975.986	2195.34
976.287	2130.25
976.587	2145.17
976.887	2160.76
977.187	2159.63
977.487	2159.18
977.787	2108.33
978.087	2098.62
978.387	2126.41
978.687	2099.52
978.987	2123.7
979.286	2089.13
979.586	2098.62
979.885	2026.08
980.185	2078.05
980.484	2028.34
980.784	2025.4
981.083	1999.86
981.382	2010.94
981.682	2019.75
981.981	2000.99
982.28	1990.82
982.579	1972.29
982.878	1988.11
983.177	1963.48
983.475	1981.78
983.774	1932.29
984.073	1948.56
984.372	1910.6
984.67	1932.75
984.969	1934.78
985.267	1923.48
985.566	1897.27
985.864	1899.53
986.162	1900.66
986.461	1892.97
986.759	1873.76
987.057	1837.61
987.355	1856.59
987.653	1851.84
987.951	1821.34
988.249	1811.85
988.547	1836.7
988.844	1843.03
989.142	1817.04
989.44	1795.57
989.737	1792.86
990.035	1784.5
990.332	1815.46
990.63	1786.31
990.927	1754.45
991.224	1744.73
991.521	1753.09
991.819	1753.99
992.116	1735.46
992.413	1724.39
992.71	1723.26
993.006	1705.18
993.303	1738.85
993.6	1666.76
993.897	1690.27
994.193	1693.43
994.49	1664.28
994.787	1690.49
995.083	1654.11
995.379	1661.11
995.676	1661.79
995.972	1632.64
996.268	1628.12
996.565	1634
996.861	1608.23
997.157	1591.74
997.453	1628.8
997.749	1593.55
998.044	1591.29
998.34	1564.39
998.636	1599.87
998.932	1559.65
999.227	1531.4
999.523	1544.51
999.818	1534.11
1000.114	1527.33
1000.409	1500.67
1000.704	1539.76
1001	1501.34
1001.295	1508.58
1001.59	1513.32
1001.885	1498.86
1002.18	1493.66
1002.475	1517.62
1002.77	1459.99
1003.065	1450.72
1003.359	1451.85
1003.654	1473.77
1003.949	1439.43
1004.243	1471.97
1004.538	1387.22
1004.832	1426.32
1005.127	1404.4
1005.421	1384.51
1005.715	1418.41
1006.009	1391.52
1006.304	1381.12
1006.598	1371.86
1006.892	1377.28
1007.186	1362.14
1007.48	1358.52
1007.773	1374.34
1008.067	1337.73
1008.361	1355.81
1008.655	1327.11
1008.948	1307.9
1009.242	1318.98
1009.535	1323.95
1009.829	1304.74
1010.122	1314.68
1010.415	1296.83
1010.708	1292.99
1011.001	1278.98
1011.295	1263.84
1011.588	1265.42
1011.881	1244.4
1012.173	1245.98
1012.466	1254.57
1012.759	1223.39
1013.052	1233.56
1013.344	1217.51
1013.637	1214.57
1013.93	1207.12
1014.222	1222.48
1014.514	1187.45
1014.807	1180.68
1015.099	1165.08
1015.391	1157.17
1015.683	1192.2
1015.976	1177.06
1016.268	1137.29
1016.56	1155.14
1016.851	1160.79
1017.143	1157.62
1017.435	1114.24
1017.727	1141.81
1018.018	1085.76
1018.31	1104.97
1018.602	1118.08
1018.893	1100.68
1019.185	1102.26
1019.476	1097.29
1019.767	1084.41
1020.058	1072.88
1020.35	1080.56
1020.641	1060.45
1020.932	1060.45
1021.223	1043.5
1021.514	1024.3
1021.804	1036.05
1022.095	1036.72
1022.386	1020.45
1022.677	1025.65
1022.967	1001.24
1023.258	1003.5
1023.548	1002.6
1023.839	1004.63
1024.129	1003.5
1024.419	959.21
1024.709	977.97
1025	983.84
1025.29	971.42
1025.58	970.96
1025.87	951.53
1026.16	946.56
1026.449	950.17
1026.739	965.54
1027.029	943.85
1027.319	931.87
1027.608	925.77
1027.898	918.08
1028.187	897.29
1028.477	901.36
1028.766	920.57
1029.055	897.74
1029.344	884.86
1029.634	897.07
1029.923	862.49
1030.212	880.8
1030.501	872.43
1030.79	868.82
1031.078	869.27
1031.367	870.85
1031.656	828.59
1031.945	852.77
1032.233	845.54
1032.522	832.66
1032.81	815.94
1033.099	826.79
1033.387	840.8
1033.675	801.7
1033.963	804.64
1034.251	808.71
1034.54	806.22
1034.828	796.5
1035.116	780.91
1035.403	766.22
1035.691	778.2
1035.979	797.86
1036.267	783.4
1036.554	780.69
1036.842	775.94
1037.129	775.26
1037.417	775.04
1037.704	757.86
1037.992	740.46
1038.279	761.93
1038.566	731.87
1038.853	731.87
1039.14	731.87
