Data from White_paper_FLMS001491_048.txt Node
Date: Tue Feb 07 10:35:09 GMT 2017
User: dcchb
Spectrometer: FLMS00149
Trigger mode: 0
Integration Time (sec): 2.000000E-2
Scans to average: 10
Electric dark correction enabled: true
Nonlinearity correction enabled: false
Boxcar width: 0
XAxis mode: Wavelengths
Number of Pixels in Spectrum: 2048
>>>>>Begin Spectral Data<<<<<
341.393	-8.04
341.776	-8.04
342.16	-8.04
342.543	-50.75
342.927	-53.23
343.31	-75.61
343.693	-46
344.077	-60.24
344.46	-72.44
344.843	-54.14
345.226	-56.17
345.61	-41.26
345.993	-13.23
346.376	-17.53
346.759	24.05
347.142	12.75
347.525	52.07
347.908	51.85
348.291	81.9
348.674	111.28
349.057	102.7
349.44	116.48
349.823	164.39
350.206	158.74
350.588	231.05
350.971	230.6
351.354	259.3
351.737	268.57
352.119	271.73
352.502	288
352.884	296.36
353.267	305.4
353.65	323.48
354.032	321.67
354.414	318.28
354.797	333.65
355.179	364.38
355.562	349.02
355.944	361.9
356.326	384.27
356.709	368.68
357.091	370.03
357.473	381.11
357.855	368
358.238	365.74
358.62	383.14
359.002	361.22
359.384	381.11
359.766	392.4
360.148	371.84
360.53	380.43
360.912	388.79
361.294	360.77
361.676	360.77
362.057	382.01
362.439	370.94
362.821	376.59
363.203	377.04
363.584	369.81
363.966	362.35
364.348	374.33
364.729	366.87
365.111	375.23
365.493	352.86
365.874	344.27
366.256	362.58
366.637	353.08
367.019	348.11
367.4	370.94
367.781	352.41
368.163	348.56
368.544	372.07
368.925	375.23
369.306	363.71
369.688	365.74
370.069	351.73
370.45	369.58
370.831	371.16
371.212	377.72
371.593	367.32
371.974	378.39
372.355	363.93
372.736	385.85
373.117	379.75
373.498	366.64
373.879	348.11
374.26	370.48
374.641	367.77
375.021	360.77
375.402	388.34
375.783	373.42
376.163	390.6
376.544	397.6
376.925	399.18
377.305	387.89
377.686	388.79
378.066	397.6
378.447	408
378.827	412.52
379.208	389.92
379.588	410.03
379.968	381.78
380.349	402.57
380.729	413.65
381.109	405.29
381.489	417.04
381.87	417.94
382.25	402.8
382.63	431.27
383.01	451.61
383.39	426.98
383.77	425.4
384.15	435.79
384.53	455.91
384.91	440.77
385.29	463.14
385.67	439.64
386.049	452.06
386.429	451.16
386.809	464.72
387.189	453.87
387.568	482.57
387.948	452.97
388.328	446.87
388.707	500.2
389.087	479.41
389.466	490.26
389.846	492.97
390.225	486.87
390.605	492.29
390.984	492.29
391.363	503.14
391.743	511.27
392.122	524.15
392.501	513.76
392.881	536.36
393.26	555.34
393.639	542.01
394.018	535
394.397	537.71
394.776	547.88
395.155	538.39
395.534	566.19
395.913	567.32
396.292	572.97
396.671	591.72
397.05	590.14
397.429	581.33
397.808	578.39
398.186	613.19
398.565	624.72
398.944	587.65
399.323	605.28
399.701	607.77
400.08	624.04
400.458	635.56
400.837	661.32
401.215	650.03
401.594	670.59
401.972	649.12
402.351	701.78
402.729	695.45
403.107	694.54
403.486	706.97
403.864	706.29
404.242	767.76
404.62	771.15
404.999	763.92
405.377	792.85
405.755	788.78
406.133	812.28
406.511	824.26
406.889	824.71
407.267	856.12
407.645	871.94
408.023	892.28
408.401	913.07
408.779	929.11
409.156	955.1
409.534	944.25
409.912	973.63
410.29	1009.11
410.667	1037.81
411.045	1075.55
411.422	1088.43
411.8	1081.2
412.178	1146.51
412.555	1176.34
412.933	1214.3
413.31	1238.48
413.687	1263.34
414.065	1275.32
414.442	1306.05
414.819	1333.4
415.197	1343.34
415.574	1386.05
415.951	1428.31
416.328	1414.75
416.705	1447.07
417.082	1470.79
417.46	1473.28
417.837	1549.21
418.214	1565.71
418.591	1578.36
418.967	1596.67
419.344	1636.67
419.721	1664.69
420.098	1666.72
420.475	1709.66
420.852	1732.48
421.228	1765.02
421.605	1824.68
421.982	1789.43
422.358	1833.05
422.735	1868.98
423.111	1879.15
423.488	1915.98
423.864	1951.46
424.241	1951.46
424.617	1994.4
424.994	2024.68
425.37	2021.06
425.746	2040.72
426.123	2101.51
426.499	2112.81
426.875	2117.56
427.251	2177.44
427.627	2235.75
428.003	2251.11
428.379	2298.12
428.756	2309.19
429.132	2350.55
429.507	2422.63
429.883	2420.83
430.259	2470.77
430.635	2481.84
431.011	2505.57
431.387	2602.06
431.763	2625.57
432.138	2654.94
432.514	2681.38
432.89	2708.73
433.265	2750.08
433.641	2797.09
434.016	2846.58
434.392	2864.88
434.767	2969.74
435.143	2944.43
435.518	2992.79
435.894	3036.63
436.269	3056.29
436.644	3142.39
437.02	3166.57
437.395	3161.37
437.77	3196.4
438.145	3244.08
438.52	3290.18
438.895	3313.68
439.271	3359.11
439.646	3368.6
440.021	3437.52
440.395	3459.44
440.77	3428.71
441.145	3488.59
441.52	3574.24
441.895	3535.6
442.27	3597.07
442.645	3602.49
443.019	3643.17
443.394	3665.54
443.769	3678.87
444.143	3635.03
444.518	3722.03
444.892	3741.7
445.267	3741.47
445.641	3770.4
446.016	3817.85
446.39	3832.77
446.764	3861.47
447.139	3866.21
447.513	3952.99
447.887	3942.14
448.262	3978.07
448.636	4008.36
449.01	3998.86
449.384	4057.62
449.758	4103.27
450.132	4146.43
450.506	4148.01
450.88	4169.03
451.254	4173.32
451.628	4336.71
452.002	4278.63
452.376	4325.18
452.75	4373.54
453.123	4416.93
453.497	4460.55
453.871	4530.38
454.244	4587.55
454.618	4653.31
454.992	4653.54
455.365	4687.66
455.739	4801.55
456.112	4848.78
456.486	4879.07
456.859	4908.44
457.232	5016.92
457.606	5027.99
457.979	5079.06
458.352	5208.1
458.725	5227.31
459.099	5262.33
459.472	5366.29
459.845	5387.98
460.218	5478.82
460.591	5512.04
460.964	5539.84
461.337	5718.59
461.71	5798.82
462.083	5861.87
462.456	5902.32
462.829	5900.06
463.201	6016.66
463.574	5972.37
463.947	6120.39
464.32	6297.11
464.692	6292.81
465.065	6345.24
465.438	6479.7
465.81	6578.46
466.183	6576.65
466.555	6781.62
466.928	6744.1
467.3	6737.55
467.672	6881.95
468.045	7025.45
468.417	7083.53
468.789	7155.62
469.161	7222.73
469.534	7369.4
469.906	7497.75
470.278	7568.71
470.65	7713.34
471.022	7848.25
471.394	7929.38
471.766	8037.18
472.138	8129.6
472.51	8317.62
472.882	8434
473.253	8499.31
473.625	8627.89
473.997	8857.49
474.369	8845.29
474.74	8944.27
475.112	9198.5
475.484	9291.83
475.855	9497.48
476.227	9542.45
476.598	9786.06
476.97	9878.26
477.341	10071.7
477.713	10246.61
478.084	10265.82
478.455	10589.2
478.827	10675.75
479.198	11011.79
479.569	10956.87
479.94	11299.24
480.311	11385.56
480.682	11634.37
481.053	11959.33
481.424	12101.25
481.795	12183.28
482.166	12380.56
482.537	12528.13
482.908	12897.16
483.279	12942.58
483.65	13083.82
484.021	13430.48
484.391	13578.27
484.762	13665.73
485.133	13818.94
485.503	13990.01
485.874	14289.67
486.244	14472.94
486.615	14757
486.985	14837.67
487.356	15174.84
487.726	15188.4
488.097	15515.17
488.467	15610.31
488.837	15987.25
489.207	15994.71
489.578	16327.81
489.948	16437.63
490.318	16777.28
490.688	16735.48
491.058	16990.84
491.428	17245.3
491.798	17332.98
492.168	17748.56
492.538	17815.68
492.908	18001.43
493.278	18244.59
493.648	18180.19
494.017	18400.52
494.387	18725.71
494.757	18788.98
495.126	19010.22
495.496	19041.18
495.866	19153.95
496.235	19433.94
496.605	19563.88
496.974	19725.68
497.344	19905.79
497.713	19927.71
498.082	20110.3
498.452	20179.91
498.821	20375.38
499.19	20543.97
499.559	20649.95
499.928	20782.15
500.298	20929.72
500.667	21191.18
501.036	21124.29
501.405	21315.24
501.774	21375.36
502.143	21635.01
502.512	21697.61
502.88	21845.17
503.249	21896.7
503.618	22056.69
503.987	22234.09
504.356	22364.26
504.724	22533.29
505.093	22516.79
505.462	22787.52
505.83	22904.58
506.199	23005.37
506.567	23371.69
506.936	23334.17
507.304	23548.86
507.672	23625.92
508.041	23796.31
508.409	23919.02
508.777	24178.45
509.145	24357.2
509.514	24386.58
509.882	24648.04
510.25	24676.29
510.618	24793.8
510.986	24982.94
511.354	25101.59
511.722	25390.17
512.09	25634.68
512.458	25536.15
512.826	25785.18
513.193	25973.65
513.561	26066.76
513.929	26308.11
514.297	26437.14
514.664	26609.12
515.032	26758.72
515.4	26912.84
515.767	27059.73
516.135	27246.39
516.502	27179.27
516.869	27707.39
517.237	27742.42
517.604	27713.27
517.972	28026.71
518.339	28151.9
518.706	28222.41
519.073	28321.84
519.44	28715.05
519.808	28854.48
520.175	28924.76
520.542	29370.17
520.909	29261.02
521.276	29446.33
521.643	29781.69
522.009	29921.35
522.376	30200.89
522.743	30327.66
523.11	30675.68
523.477	31040.19
523.843	31062.56
524.21	31396.11
524.577	31602.43
524.943	31628.87
525.31	31912.48
525.676	32028.18
526.043	32271.34
526.409	32404.9
526.776	32831.33
527.142	32855.05
527.508	33155.16
527.874	33394.02
528.241	33496.85
528.607	33594.24
528.973	33992.43
529.339	33851.19
529.705	34300.67
530.071	34543.15
530.437	34784.72
530.803	34959.86
531.169	35137.93
531.535	35150.59
531.901	35286.63
532.267	35466.96
532.632	35725.49
532.998	35868.31
533.364	35896.1
533.73	35988.53
534.095	36435.75
534.461	36519.82
534.826	36594.62
535.192	36804.55
535.557	37066.47
535.923	37061.95
536.288	37340.36
536.653	37459.45
537.019	37492.22
537.384	37698.32
537.749	37914.81
538.114	37830.06
538.479	37901.48
538.845	38207.91
539.21	38167.91
539.575	38348.02
539.94	38590.5
540.305	38832.75
540.67	38806.08
541.034	38897.83
541.399	39170.59
541.764	39232.29
542.129	39308.44
542.494	39268.44
542.858	39663.01
543.223	39665.27
543.587	39971.93
543.952	39919.73
544.316	40122.89
544.681	40111.59
545.045	40384.8
545.41	40533.95
545.774	40652.59
546.138	40825.69
546.503	40814.84
546.867	40844.22
547.231	41389.75
547.595	41202.41
547.959	41450.31
548.324	41413.47
548.688	41520.82
549.052	41796.29
549.416	41756.29
549.779	41916.06
550.143	42044.64
550.507	42410.28
550.871	42370.74
551.235	42410.74
551.599	42800.78
551.962	42891.85
552.326	43007.78
552.689	43276.48
553.053	42852.53
553.417	43034.45
553.78	43615.45
554.143	43477.83
554.507	43645.5
554.87	43749.68
555.234	44071.03
555.597	44036.46
555.96	44099.5
556.323	44391.7
556.686	44540.85
557.05	44609.55
557.413	44727.96
557.776	44869.88
558.139	45174.05
558.502	45158.01
558.865	45221.73
559.228	45629.86
559.59	45691.33
559.953	45869.4
560.316	46269.39
560.679	46231.2
561.041	46460.12
561.404	46603.85
561.767	46892.65
562.129	46727.01
562.492	47244.73
562.854	47166.09
563.217	47244.51
563.579	47418.74
563.941	47573.76
564.304	47778.73
564.666	47970.14
565.028	48031.83
565.39	48149.57
565.753	48446.06
566.115	48592.04
566.477	48720.17
566.839	48787.97
567.201	49104.8
567.563	49117.68
567.925	49310.67
568.287	49391.12
568.648	49457.78
569.01	49650.54
569.372	49806.02
569.734	49810.77
570.095	50064.77
570.457	50281.94
570.819	50295.5
571.18	50368.72
571.542	50530.52
571.903	50657.52
572.265	50718.09
572.626	50784.98
572.987	50904.52
573.349	51045.08
573.71	51062.03
574.071	51165.31
574.432	51376.83
574.794	51560.33
575.155	51496.15
575.516	51595.58
575.877	51546.31
576.238	51794.9
576.599	51904.72
576.96	51878.28
577.32	51942.01
577.681	52149.01
578.042	52118.5
578.403	52199.63
578.763	52220.65
579.124	52306.52
579.485	52464.03
579.845	52469.45
580.206	52499.28
580.566	52586.06
580.927	52513.97
581.287	52666.28
581.648	52551.26
582.008	52762.78
582.368	52807.98
582.728	52889.1
583.089	52778.6
583.449	52649.34
583.809	52904.24
584.169	52876.67
584.529	52910.12
584.889	53141.3
585.249	52894.08
585.609	52902.66
585.969	53047.74
586.329	53010.46
586.688	53035.09
587.048	53096.33
587.408	53033.05
587.768	53060.85
588.127	53136.78
588.487	53127.97
588.846	53299.49
589.206	53067.18
589.565	53151.92
589.925	53251.13
590.284	53169.77
590.643	53181.98
591.003	53433.95
591.362	53364.8
591.721	53280.96
592.08	53373.38
592.44	53394.18
592.799	53496.09
593.158	53395.76
593.517	53414.74
593.876	53515.3
594.235	53403.89
594.593	53492.25
594.952	53563.89
595.311	53435.76
595.67	53566.83
596.029	53712.13
596.387	53799.59
596.746	53816.76
597.104	53617.45
597.463	53679.37
597.822	53762.53
598.18	53616.09
598.538	53751
598.897	53881.62
599.255	53606.82
599.613	54130.88
599.972	53864.22
600.33	53954.61
600.688	53844.33
601.046	53975.18
601.404	54038.9
601.762	54055.63
602.12	54172.01
602.478	54125.68
602.836	54158.22
603.194	53938.57
603.552	54098.79
603.91	53989.41
604.268	54265.56
604.625	54109.18
604.983	54280.25
605.341	54110.99
605.698	54219.46
606.056	54364.55
606.413	54209.29
606.771	54390.53
607.128	54381.95
607.485	54276.64
607.843	54364.32
608.2	54384.66
608.557	54582.84
608.914	54430.31
609.272	54611.09
609.629	54581.26
609.986	54715.95
610.343	54526.35
610.7	54796.17
611.057	54753.01
611.414	54669.85
611.771	54733.57
612.127	54883.18
612.484	54798.43
612.841	54905.77
613.198	54730.64
613.554	54806.57
613.911	54984.42
614.267	54974.47
614.624	54914.81
614.98	54952.78
615.337	55110.29
615.693	55044.3
616.05	54966.11
616.406	55134.47
616.762	54984.19
617.118	55065.54
617.475	55048.59
617.831	55170.85
618.187	55161.59
618.543	55233.9
618.899	55302.83
619.255	55269.15
619.611	55214.92
619.967	55284.75
620.323	55368.59
620.678	55298.31
621.034	55204.07
621.39	55268.02
621.746	55215.6
622.101	55510.96
622.457	55275.48
622.812	55193.9
623.168	55367.23
623.523	55357.74
623.879	55434.57
624.234	55247.46
624.589	55360.68
624.945	55465.99
625.3	55435.7
625.655	55438.87
626.01	55495.14
626.365	55421.69
626.72	55369.26
627.075	55466.44
627.43	55395.03
627.785	55324.97
628.14	55389.6
628.495	55462.6
628.85	55381.69
629.205	55312.54
629.559	55492.2
629.914	55405.42
630.269	55364.52
630.623	55243.62
630.978	55250.4
631.332	55384.63
631.687	55456.27
632.041	55276.16
632.396	55340.56
632.75	55251.98
633.104	55368.59
633.459	55181.25
633.813	55222.15
634.167	55195.71
634.521	55160.46
634.875	55181.92
635.229	55154.13
635.583	55012.66
635.937	54998.2
636.291	55074.81
636.645	55082.04
636.999	55025.54
637.352	55080.68
637.706	54931.54
638.06	55095.37
638.413	54908.71
638.767	54878.43
639.121	54947.35
639.474	54879.11
639.828	54863.06
640.181	54901.71
640.534	54885.66
640.888	54783.29
641.241	54682.95
641.594	54803.86
641.947	54903.51
642.301	54772.22
642.654	54784.42
643.007	54791.65
643.36	54897.41
643.713	54733.57
644.066	54857.41
644.419	54589.85
644.771	54433.47
645.124	54166.13
645.477	54135.4
645.83	53897.89
646.182	53765.92
646.535	53811.57
646.888	53877.1
647.24	53826.03
647.593	53898.12
647.945	53927.49
648.298	53665.58
648.65	53655.64
649.002	53594.85
649.355	53649.99
649.707	53708.74
650.059	53828.29
650.411	54163.87
650.763	54136.98
651.115	54513.24
651.467	54412.68
651.819	54401.38
652.171	54262.63
652.523	54257.43
652.875	54289.74
653.227	54137.88
653.578	54374.49
653.93	54261.72
654.282	54198
654.633	54064.89
654.985	54073.03
655.337	54094.5
655.688	54118.9
656.039	54287.26
656.391	53974.72
656.742	54064.44
657.094	54054.27
657.445	54151.44
657.796	54026.25
658.147	54036.87
658.498	53982.41
658.849	54039.36
659.2	53957.1
659.551	53943.77
659.902	54045.23
660.253	54004.1
660.604	54061.28
660.955	53883.2
661.306	53992.13
661.656	53915.29
662.007	53888.63
662.358	53904.44
662.708	53878.91
663.059	53922.97
663.409	53690.89
663.76	53859.7
664.11	53851.56
664.461	53884.78
664.811	53909.64
665.161	53809.08
665.511	53737.89
665.862	53716.65
666.212	53836.2
666.562	53818.12
666.912	53736.99
667.262	53627.62
667.612	53758.91
667.962	53645.02
668.312	53652.25
668.662	53777.22
669.011	53701.74
669.361	53546.04
669.711	53574.96
670.06	53579.03
670.41	53517.79
670.76	53474.17
671.109	53576.09
671.459	53434.17
671.808	53407.28
672.157	53521.63
672.507	53288.64
672.856	53335.87
673.205	53401.86
673.554	53332.26
673.904	53233.73
674.253	53478.47
674.602	53349.88
674.951	52935.66
675.3	52690.46
675.649	53129.1
675.998	53160.28
676.346	53204.12
676.695	53249.32
677.044	53009.55
677.393	53094.3
677.741	53066.27
678.09	53013.85
678.438	52927.29
678.787	52945.15
679.135	52961.19
679.484	52657.02
679.832	52842.1
680.181	52688.21
680.529	52760.52
680.877	52623.57
681.225	52600.75
681.573	52843.23
681.922	52632.39
682.27	52461.32
682.618	52599.85
682.966	52371.15
683.314	52470.58
683.661	52278.72
684.009	52171.38
684.357	52122.34
684.705	52031.73
685.053	52126.41
685.4	52003.93
685.748	51772.3
686.095	51763.71
686.443	51760.77
686.79	51618.18
687.138	51712.86
687.485	51646.42
687.832	51582.7
688.18	51499.54
688.527	51355.13
688.874	51363.72
689.221	51180.45
689.568	51138.64
689.915	50931.64
690.262	50944.75
690.609	50897.97
690.956	50778.42
691.303	50812.32
691.65	50587.92
691.997	50532.56
692.344	50314.26
692.69	50433.12
693.037	50400.36
693.383	49979.58
693.73	50208.5
694.077	49975.06
694.423	49942.06
694.769	49706.36
695.116	49673.14
695.462	49737.1
695.808	49540.72
696.155	49633.6
696.501	49317.67
696.847	49322.87
697.193	49059.83
697.539	49171.01
697.885	48992.26
698.231	48901.86
698.577	48869.1
698.923	48784.13
699.269	48495.32
699.614	48390.92
699.96	48320.86
700.306	48318.83
700.651	48204.93
700.997	48202.67
701.342	48019.85
701.688	47882.46
702.033	47834.1
702.379	47897.37
702.724	47736.92
703.069	47651.73
703.415	47362.02
703.76	47460.55
704.105	47347.33
704.45	47199.54
704.795	47021.69
705.14	46889.26
705.485	46909.6
705.83	46832.31
706.175	46809.04
706.52	46584.64
706.865	46465.32
707.209	46479.1
707.554	46281.59
707.899	46416.51
708.243	46124.08
708.588	46093.35
708.932	45818.56
709.277	45831.21
709.621	45861.94
709.966	45626.7
710.31	45652.01
710.654	45253.15
710.998	45282.07
711.342	45455.63
711.687	45247.27
712.031	45094.05
712.375	44788.3
712.719	45038.01
713.063	44963.89
713.407	45094.28
713.75	44818.81
714.094	44894.96
714.438	44531.58
714.782	44685.25
715.125	44453.62
715.469	44468.76
715.812	44462.21
716.156	44097.47
716.499	44165.04
716.843	44220.18
717.186	43973.86
717.53	44116.9
717.873	44006.17
718.216	44038.94
718.559	43723.69
718.902	43544.26
719.246	43678.72
719.589	43519.63
719.932	43357.6
720.275	43280.99
720.617	43386.75
720.96	43171.62
721.303	43210.49
721.646	43124.39
721.989	42887.78
722.331	43138.85
722.674	42888.01
723.016	42910.83
723.359	42681.46
723.701	42779.76
724.044	42528.92
724.386	42386.78
724.729	42526.44
725.071	42446.89
725.413	42452.32
725.755	42338.19
726.097	42280.34
726.439	42036.28
726.782	42064.76
727.124	42165.32
727.465	41948.15
727.807	41872.67
728.149	41947.7
728.491	41759.9
728.833	41801.71
729.175	41729.62
729.516	41545
729.858	41483.75
730.199	41589.74
730.541	41398.56
730.882	41430.2
731.224	41499.57
731.565	41352.91
731.906	41128.28
732.248	41376.64
732.589	40814.39
732.93	41061.39
733.271	40876.76
733.612	40907.95
733.953	40976.2
734.294	40796.99
734.635	40827.05
734.976	40790.66
735.317	40630.67
735.658	40601.07
735.999	40602.42
736.339	40382.99
736.68	40544.57
737.021	40356.55
737.361	40203.34
737.702	40380.51
738.042	40390.68
738.383	40314.52
738.723	40257.12
739.063	40045.37
739.404	40212.6
739.744	39922.89
740.084	39783.01
740.424	39921.99
740.764	39721.77
741.104	39968.54
741.444	39700.75
741.784	39690.35
742.124	39692.39
742.464	39633.41
742.804	39542.79
743.143	39395.45
743.483	39458.95
743.823	39291.04
744.162	39149.58
744.502	39328.56
744.841	39233.42
745.181	39220.99
745.52	39078.39
745.86	39122.46
746.199	38966.98
746.538	39018.96
746.877	39007.43
747.216	39015.57
747.556	38937.83
747.895	38895.57
748.234	38733.32
748.573	38705.52
748.911	38528.35
749.25	38766.99
749.589	38287.68
749.928	38454
750.267	38469.6
750.605	38468.47
750.944	38155.25
751.283	38126.78
751.621	38088.81
751.96	38058.76
752.298	37886.56
752.636	38029.16
752.975	37877.97
753.313	37676.4
753.651	37743.06
753.989	37565.21
754.327	37426.46
754.666	37199.57
755.004	37364.09
755.342	37325.22
755.679	37367.7
756.017	37024.44
756.355	37163.87
756.693	36951.44
757.031	37032.8
757.368	36721.85
757.706	36820.6
758.044	36743.77
758.381	36642.98
758.719	36564.56
759.056	36562.08
759.394	36454.28
759.731	36130.67
760.068	36195.08
760.405	35914.41
760.743	35837.12
761.08	35907.18
761.417	35753.51
761.754	35654.98
762.091	35598.26
762.428	35521.2
762.765	35227.87
763.102	35299.28
763.438	35121.89
763.775	35090.48
764.112	35089.57
764.449	34898.62
764.785	34845.51
765.122	34520.32
765.458	34554.67
765.795	34441.68
766.131	34481.45
766.467	34243.94
766.804	34102.71
767.14	33887.8
767.476	34000.79
767.812	33781.81
768.148	33746.1
768.485	33533.45
768.821	33373.46
769.157	33356.74
769.492	33235.84
769.828	33236.06
770.164	32922.85
770.5	32904.09
770.836	32990.87
771.171	32592.01
771.507	32702.29
771.842	32496.19
772.178	32360.6
772.513	32315.63
772.849	32259.36
773.184	32171.46
773.519	32042.87
773.855	31907.96
774.19	31729.66
774.525	31700.51
774.86	31619.38
775.195	31692.15
775.53	31338.48
775.865	31301.2
776.2	31052.39
776.535	30957.48
776.87	30830.02
777.205	30706.86
777.539	30713.64
777.874	30659.86
778.209	30346.87
778.543	30420.32
778.878	30143.49
779.212	30219.87
779.547	30020.33
779.881	29950.95
780.215	29810.16
780.55	29895.36
780.884	29692.43
781.218	29599.77
781.552	29595.7
781.886	29403.17
782.22	29198.43
782.554	29254.7
782.888	28933.35
783.222	28776.07
783.556	28704.43
783.889	28742.17
784.223	28484.32
784.557	28355.06
784.89	28429.63
785.224	28294.04
785.557	28309.86
785.891	28144.67
786.224	28042.75
786.558	28027.61
786.891	27775.87
787.224	27619.94
787.557	27602.99
787.891	27533.39
788.224	27516.44
788.557	27381.53
788.89	27396.21
789.223	27376.33
789.556	26954.19
789.888	27012.72
790.221	26937.7
790.554	26727.08
790.887	26711.71
791.219	26575.9
791.552	26653.41
791.884	26440.31
792.217	26285.06
792.549	26143.82
792.882	26072.41
793.214	25991.28
793.546	26043.03
793.879	25857.95
794.211	25736.6
794.543	25836.26
794.875	25609.37
795.207	25710.61
795.539	25502.03
795.871	25507
796.203	25262.71
796.535	25156.73
796.867	25044.86
797.198	25107.69
797.53	25095.48
797.862	24862.27
798.193	24955.15
798.525	24643.52
798.856	24662.28
799.188	24614.14
799.519	24401.27
799.85	24360.59
800.182	24340.93
800.513	24275.84
800.844	24095.96
801.175	24221.83
801.506	24182.51
801.837	23946.59
802.168	23960.37
802.499	23807.83
802.83	23815.52
803.161	23782.07
803.491	23635.86
803.822	23686.48
804.153	23387.05
804.483	23308.64
804.814	23316.1
805.145	23234.52
805.475	23185.48
805.805	23018.93
806.136	23066.16
806.466	23049.44
806.796	23010.79
807.126	22809.44
807.457	22945.48
807.787	22829.33
808.117	22650.8
808.447	22601.09
808.777	22708.65
809.107	22524.7
809.436	22511.15
809.766	22404.26
810.096	22367.19
810.426	22112.51
810.755	22239.06
811.085	22224.6
811.414	22067.99
811.744	21999.75
812.073	21999.97
812.403	21902.35
812.732	21866.19
813.061	21877.04
813.39	21761.79
813.719	21565.86
814.049	21647.21
814.378	21618.74
814.707	21394.11
815.036	21529.48
815.365	21334.45
815.693	21119.32
816.022	21346.2
816.351	21065.53
816.68	21042.94
817.008	21115.93
817.337	20936.95
817.665	20901.02
817.994	20947.8
818.322	20875.03
818.651	20835.26
818.979	20763.85
819.307	20741.47
819.636	20762.94
819.964	20583.96
820.292	20603.62
820.62	20502.84
820.948	20511.2
821.276	20664.41
821.604	20498.54
821.932	20566.56
822.259	20554.13
822.587	20495.15
822.915	20487.02
823.243	20549.62
823.57	20510.07
823.898	20437.75
824.225	20360.69
824.553	20345.78
824.88	20418.77
825.207	20459.9
825.535	20479.33
825.862	20463.29
826.189	20377.64
826.516	20507.13
826.843	20434.14
827.17	20438.66
827.497	20557.98
827.824	20391.43
828.151	20547.58
828.478	20446.57
828.805	20489.96
829.131	20398.21
829.458	20343.29
829.785	20377.42
830.111	20348.72
830.438	20407.02
830.764	20356.85
831.09	20354.14
831.417	20265.55
831.743	20415.38
832.069	20362.73
832.395	20179
832.722	20271.66
833.048	20187.14
833.374	20221.71
833.7	20120.7
834.026	20234.14
834.351	20205.9
834.677	20080.02
835.003	19996.86
835.329	20031.89
835.654	20145.56
835.98	19945.11
836.306	20082.28
836.631	19987.37
836.956	19934.26
837.282	19946.69
837.607	19840.71
837.932	19825.11
838.258	19824.44
838.583	19776.98
838.908	19715.74
839.233	19806.81
839.558	19688.17
839.883	19590.77
840.208	19591
840.533	19616.31
840.858	19546.03
841.182	19486.82
841.507	19448.4
841.832	19432.58
842.156	19337.67
842.481	19340.83
842.805	19304.68
843.13	19217.67
843.454	19204.11
843.778	19149.2
844.103	19125.25
844.427	19157.34
844.751	19042.31
845.075	19007.51
845.399	18840.73
845.723	18788.08
846.047	18915.99
846.371	18731.58
846.695	18636.9
847.019	18447.07
847.343	18407.3
847.666	18395.77
847.99	18258.83
848.313	18239.17
848.637	18149.68
848.96	18166.63
849.284	18110.13
849.607	17867.88
849.931	17833.53
850.254	17785.39
850.577	17717.6
850.9	17499.98
851.223	17512.86
851.546	17459.53
851.869	17318.51
852.192	17454.56
852.515	17253.43
852.838	17221.34
853.161	17290.49
853.483	17086.2
853.806	16990.84
854.129	17046.88
854.451	16951.07
854.774	16881.46
855.096	16808.24
855.419	16764.63
855.741	16881.46
856.063	16708.13
856.385	16636.95
856.708	16563.73
857.03	16472.21
857.352	16425.43
857.674	16323.29
857.996	16336.62
858.318	16237.64
858.64	16337.97
858.961	16315.15
859.283	16186.11
859.605	16113.8
859.926	16201.03
860.248	16094.82
860.57	16046
860.891	16008.04
861.212	15951.54
861.534	15817.31
861.855	15919
862.176	15902.73
862.498	15841.94
862.819	15872.45
863.14	15742.06
863.461	15753.81
863.782	15641.04
864.103	15675.84
864.424	15647.37
864.745	15660.48
865.065	15586.81
865.386	15453.25
865.707	15516.98
866.027	15479.47
866.348	15422.29
866.668	15429.07
866.989	15324.89
867.309	15252.35
867.63	15323.76
867.95	15189.53
868.27	15255.52
868.59	15239.7
868.91	15160.15
869.23	15170.55
869.55	15075.41
869.87	15141.17
870.19	15149.53
870.51	15136.2
870.83	15146.59
871.15	14975.07
871.469	14987.73
871.789	15057.56
872.109	15006.48
872.428	14923.55
872.748	14908.63
873.067	14956.54
873.386	14930.33
873.706	14935.3
874.025	14815.3
874.344	14743.44
874.663	14785.02
874.982	14714.74
875.301	14680.62
875.62	14691.46
875.939	14526.04
876.258	14645.36
876.577	14585.48
876.896	14542.32
877.214	14497.34
877.533	14395.2
877.852	14506.61
878.17	14512.49
878.489	14469.77
878.807	14408.99
879.125	14472.49
879.444	14467.74
879.762	14392.94
880.08	14336.9
880.398	14256.67
880.716	14272.04
881.034	14185.04
881.352	14183.68
881.67	14146.62
881.988	14210.8
882.306	14134.19
882.624	14156.34
882.941	14068.88
883.259	13997.7
883.577	13987.98
883.894	13934.42
884.212	13916.57
884.529	13969.22
884.846	13827.76
885.164	13836.12
885.481	13802
885.798	13794.76
886.115	13693.3
886.432	13654.88
886.75	13620.53
887.067	13665.95
887.383	13629.8
887.7	13568.56
888.017	13543.92
888.334	13509.35
888.651	13425.73
888.967	13452.17
889.284	13299.64
889.6	13313.65
889.917	13309.81
890.233	13254.67
890.55	13189.81
890.866	13200.2
891.182	13135.57
891.498	13170.37
891.815	13013.32
892.131	13065.74
892.447	12985.29
892.763	12872.3
893.079	12834.79
893.395	12830.5
893.71	12896.03
894.026	12803.83
894.342	12722.93
894.657	12649.03
894.973	12625.98
895.289	12602.71
895.604	12605.19
895.92	12555.93
896.235	12413.56
896.55	12444.74
896.865	12433.9
897.181	12327.91
897.496	12379.66
897.811	12280
898.126	12171.53
898.441	12219.21
898.756	12152.1
899.071	12118.2
899.386	12111.87
899.7	11977.41
900.015	11896.51
900.33	11863.29
900.644	11899.9
900.959	11884.08
901.273	11837.75
901.588	11719.11
901.902	11689.74
902.216	11668.27
902.531	11627.14
902.845	11585.1
903.159	11464.66
903.473	11492.45
903.787	11395.28
904.101	11431.21
904.415	11428.72
904.729	11368.84
905.042	11225.34
905.356	11271.44
905.67	11204.55
905.984	11175.17
906.297	11054.72
906.611	11110.77
906.924	10979.25
907.237	11035.97
907.551	10980.15
907.864	10878
908.177	10908.29
908.491	10849.76
908.804	10774.73
909.117	10737.67
909.43	10635.3
909.743	10696.31
910.056	10664.68
910.368	10548.3
910.681	10479.15
910.994	10483.21
911.307	10439.82
911.619	10365.48
911.932	10370.45
912.244	10222.43
912.557	10293.61
912.869	10135.65
913.181	10199.6
913.494	10158.02
913.806	10064.47
914.118	10068.99
914.43	9996.45
914.742	9963.45
915.054	9896.34
915.366	9809.11
915.678	9760.29
915.99	9758.49
916.302	9721.88
916.613	9677.13
916.925	9693.86
917.236	9656.79
917.548	9491.83
917.859	9572.73
918.171	9474.43
918.482	9403.24
918.794	9377.48
919.105	9448.21
919.416	9242.12
919.727	9332.73
920.038	9250.48
920.349	9208.22
920.66	9173.19
920.971	9196.47
921.282	9083.7
921.593	9005.06
921.903	8992.63
922.214	8974.33
922.525	8968
922.835	8872.41
923.146	8843.48
923.456	8853.88
923.767	8763.03
924.077	8697.95
924.387	8735.01
924.697	8657.72
925.008	8635.35
925.318	8641
925.628	8567.33
925.938	8505.41
926.248	8455.92
926.558	8366.21
926.867	8354.23
927.177	8377.96
927.487	8345.42
927.796	8273.33
928.106	8178.41
928.416	8247.34
928.725	8190.39
929.034	8147.46
929.344	8166.89
929.653	8114.01
929.962	8049.15
930.271	8013.45
930.581	7943.62
930.89	7882.6
931.199	7808.93
931.508	7883.06
931.817	7867.46
932.125	7797.18
932.434	7809.84
932.743	7646.9
933.051	7680.35
933.36	7679.67
933.669	7648.26
933.977	7635.15
934.286	7590.63
934.594	7548.6
934.902	7489.17
935.21	7474.48
935.519	7446.68
935.827	7412.33
936.135	7357.42
936.443	7261.15
936.751	7228.84
937.059	7215.28
937.367	7227.71
937.674	7136.63
937.982	7136.63
938.29	7134.6
938.597	7119.91
938.905	7022.97
939.213	6956.98
939.52	6965.11
939.827	7026.81
940.135	6956.98
940.442	6906.36
940.749	6894.15
941.056	6839.92
941.363	6764.21
941.67	6746.36
941.977	6712.01
942.284	6697.78
942.591	6695.74
942.898	6692.58
943.205	6653.48
943.511	6637.89
943.818	6576.65
944.125	6541.62
944.431	6547.5
944.738	6454.39
945.044	6478.35
945.35	6421.85
945.657	6412.59
945.963	6330.55
946.269	6350.67
946.575	6339.37
946.881	6271.35
947.187	6268.63
947.493	6215.08
947.799	6205.81
948.105	6131.92
948.41	6127.17
948.716	6112.25
949.022	6080.62
949.327	6037.68
949.633	6040.84
949.938	6025.48
950.244	6002.88
950.549	5980.51
950.854	5920.4
951.16	5851.92
951.465	5909.1
951.77	5783.22
952.075	5805.37
952.38	5769.44
952.685	5753.85
952.99	5719.72
953.294	5709.1
953.599	5672.49
953.904	5694.41
954.209	5628.2
954.513	5625.49
954.818	5597.69
955.122	5593.17
955.426	5556.34
955.731	5528.09
956.035	5492.16
956.339	5479.5
956.643	5479.05
956.948	5391.37
957.252	5372.61
957.556	5371.71
957.86	5286.06
958.163	5287.87
958.467	5293.52
958.771	5285.16
959.075	5281.09
959.378	5221.43
959.682	5218.49
959.985	5158.38
960.289	5173.52
960.592	5095.33
960.896	5149.12
961.199	5042
961.502	5079.06
961.805	5046.29
962.108	4969.23
962.411	4976.01
962.714	4997.03
963.017	4956.58
963.32	4924.26
963.623	4902.34
963.926	4856.92
964.228	4821.67
964.531	4835
964.833	4848.78
965.136	4808.79
965.438	4758.17
965.741	4704.83
966.043	4703.7
966.345	4657.6
966.648	4692.86
966.95	4685.85
967.252	4614.21
967.554	4596.59
967.856	4611.73
968.158	4565.18
968.46	4544.16
968.761	4548
969.063	4515.46
969.365	4439.08
969.666	4443.6
969.968	4418.06
970.269	4471.39
970.571	4456.93
970.872	4337.84
971.174	4331.96
971.475	4342.81
971.776	4351.62
972.077	4305.3
972.378	4287.44
972.679	4281.57
972.98	4241.34
973.281	4229.59
973.582	4226.43
973.883	4187.79
974.183	4192.76
974.484	4149.37
974.785	4127.9
975.085	4127.22
975.386	4137.62
975.686	4112.31
975.986	4066.43
976.287	4098.3
976.587	3984.63
976.887	3954.8
977.187	3992.31
977.487	3981.92
977.787	3954.35
978.087	3922.71
978.387	3935.36
978.687	3919.77
978.987	3901.92
979.286	3901.24
979.586	3856.72
979.885	3853.78
980.185	3830.73
980.484	3752.77
980.784	3758.19
981.083	3775.82
981.382	3761.81
981.682	3727.23
981.981	3697.4
982.28	3695.37
982.579	3659.21
982.878	3663.05
983.177	3628.93
983.475	3628.25
983.774	3622.6
984.073	3591.64
984.372	3553.68
984.67	3549.16
984.969	3522.04
985.267	3559.78
985.566	3489.95
985.864	3494.7
986.162	3491.08
986.461	3431.42
986.759	3442.04
987.057	3430.74
987.355	3407.47
987.653	3397.52
987.951	3356.17
988.249	3349.62
988.547	3364.08
988.844	3282.5
989.142	3322.5
989.44	3312.33
989.737	3301.93
990.035	3290.86
990.332	3226.68
990.63	3206.79
990.927	3223.29
991.224	3223.97
991.521	3226.45
991.819	3148.04
992.116	3149.62
992.413	3134.03
992.71	3111.2
993.006	3111.43
993.303	3072.11
993.6	3085.22
993.897	3108.49
994.193	3035.5
994.49	3050.64
994.787	3011.77
995.083	3020.81
995.379	2957.08
995.676	2978.78
995.972	2936.52
996.268	2967.48
996.565	2902.4
996.861	2888.16
997.157	2897.2
997.453	2865.11
997.749	2866.69
998.044	2814.49
998.34	2832.11
998.636	2845.22
998.932	2777.43
999.227	2764.77
999.523	2785.56
999.818	2758.22
1000.114	2728.61
1000.409	2693.36
1000.704	2690.42
1001	2731.33
1001.295	2662.85
1001.59	2640.93
1001.885	2638
1002.18	2647.03
1002.475	2630.09
1002.77	2601.84
1003.065	2578.34
1003.359	2601.39
1003.654	2556.42
1003.949	2597.09
1004.243	2539.69
1004.538	2542.63
1004.832	2516.42
1005.127	2498.11
1005.421	2474.84
1005.715	2447.27
1006.009	2426.93
1006.304	2437.1
1006.598	2412.46
1006.892	2392.58
1007.186	2359.58
1007.48	2385.8
1007.773	2358.45
1008.067	2343.99
1008.361	2339.47
1008.655	2324.78
1008.948	2312.58
1009.242	2294.95
1009.535	2299.93
1009.829	2280.72
1010.122	2242.75
1010.415	2202.53
1010.708	2224.22
1011.001	2204.33
1011.295	2206.14
1011.588	2209.98
1011.881	2204.56
1012.173	2153.49
1012.466	2151
1012.759	2123.88
1013.052	2147.61
1013.344	2119.59
1013.637	2101.74
1013.93	2080.27
1014.222	2047.95
1014.514	2073.26
1014.807	2032.14
1015.099	2016.77
1015.391	2023.55
1015.683	2018.12
1015.976	1992.59
1016.268	1977
1016.56	1950.78
1016.851	1946.71
1017.143	1947.39
1017.435	1946.94
1017.727	1889.09
1018.018	1912.36
1018.31	1890.67
1018.602	1883.89
1018.893	1840.05
1019.185	1854.06
1019.476	1861.52
1019.767	1803.89
1020.058	1817.68
1020.35	1795.98
1020.641	1768.19
1020.932	1781.52
1021.223	1774.97
1021.514	1750.34
1021.804	1722.77
1022.095	1734.06
1022.386	1720.73
1022.677	1679.83
1022.967	1710.11
1023.258	1683.67
1023.548	1667.4
1023.839	1686.38
1024.129	1647.51
1024.419	1619.49
1024.709	1620.4
1025	1598.25
1025.29	1612.49
1025.58	1604.8
1025.87	1558.93
1026.16	1575.88
1026.449	1553.05
1026.739	1566.39
1027.029	1531.13
1027.319	1530.23
1027.608	1519.15
1027.898	1511.47
1028.187	1472.38
1028.477	1484.35
1028.766	1464.02
1029.055	1461.53
1029.344	1466.05
1029.634	1438.93
1029.923	1449.1
1030.212	1409.78
1030.501	1413.17
1030.79	1414.07
1031.078	1380.18
1031.367	1405.03
1031.656	1360.06
1031.945	1370.91
1032.233	1346.28
1032.522	1335.43
1032.81	1340.18
1033.099	1338.82
1033.387	1307.41
1033.675	1305.38
1033.963	1293.62
1034.251	1300.4
1034.54	1279.84
1034.828	1277.58
1035.116	1260.4
1035.403	1234.19
1035.691	1262.44
1035.979	1244.36
1036.267	1238.94
1036.554	1235.32
1036.842	1207.52
1037.129	1214.53
1037.417	1210.01
1037.704	1180.86
1037.992	1175.21
1038.279	1157.13
1038.566	1125.27
1038.853	1125.27
1039.14	1125.27
