Data from White_paper_FLMS001491_052.txt Node
Date: Tue Feb 07 10:35:16 GMT 2017
User: dcchb
Spectrometer: FLMS00149
Trigger mode: 0
Integration Time (sec): 2.000000E-2
Scans to average: 10
Electric dark correction enabled: true
Nonlinearity correction enabled: false
Boxcar width: 0
XAxis mode: Wavelengths
Number of Pixels in Spectrum: 2048
>>>>>Begin Spectral Data<<<<<
341.393	-19.04
341.776	-19.04
342.16	-19.04
342.543	-69.89
342.927	-49.09
343.31	-85.48
343.693	-71.24
344.077	-64.46
344.46	-66.27
344.843	-51.58
345.226	-22.2
345.61	-35.54
345.993	-15.65
346.376	-0.06
346.759	18.93
347.142	16.44
347.525	50.79
347.908	55.54
348.291	71.35
348.674	83.56
349.057	115.87
349.44	111.8
349.823	111.13
350.206	183.44
350.588	222.99
350.971	242.42
351.354	241.29
351.737	267.73
352.119	276.55
352.502	283.33
352.884	300.27
353.267	312.03
353.65	308.86
354.032	328.97
354.414	331.91
354.797	342.99
355.179	338.24
355.562	330.33
355.944	358.13
356.326	357.9
356.709	368.52
357.091	375.75
357.473	365.81
357.855	368.97
358.238	366.94
358.62	378.01
359.002	379.14
359.384	375.75
359.766	361.06
360.148	375.53
360.53	376.66
360.912	359.71
361.294	336.21
361.676	364.91
362.057	368.52
362.439	368.07
362.821	382.31
363.203	383.44
363.584	397.45
363.966	370.78
364.348	380.27
364.729	369.43
365.111	372.14
365.493	371.01
365.874	347.28
366.256	356.54
366.637	358.58
367.019	336.21
367.4	377.11
367.781	380.27
368.163	359.48
368.544	356.54
368.925	359.26
369.306	343.44
369.688	361.06
370.069	370.56
370.45	378.92
370.831	354.96
371.212	375.75
371.593	371.91
371.974	375.07
372.355	362.19
372.736	374.17
373.117	380.5
373.498	373.27
373.879	385.24
374.26	368.75
374.641	354.96
375.021	373.94
375.402	406.94
375.783	384.34
376.163	387.73
376.544	380.72
376.925	384.34
377.305	391.57
377.686	382.98
378.066	408.07
378.447	398.13
378.827	376.2
379.208	409.2
379.588	401.06
379.968	424.57
380.349	407.84
380.729	421.63
381.109	404.9
381.489	418.92
381.87	404.23
382.25	432.25
382.63	439.25
383.01	436.32
383.39	436.09
383.77	455.75
384.15	455.52
384.53	450.78
384.91	468.18
385.29	451.01
385.67	450.33
386.049	470.89
386.429	475.19
386.809	463.43
387.189	460.04
387.568	454.85
387.948	462.08
388.328	485.35
388.707	495.75
389.087	470.21
389.466	481.96
389.846	491.46
390.225	490.55
390.605	497.78
390.984	503.89
391.363	516.99
391.743	496.88
392.122	518.57
392.501	565.58
392.881	550.21
393.26	531.68
393.639	559.48
394.018	560.83
394.397	550.89
394.776	549.31
395.155	590.66
395.534	563.09
395.913	583.43
396.292	573.04
396.671	598.35
397.05	604.9
397.429	603.32
397.808	586.82
398.186	617.1
398.565	625.92
398.944	639.93
399.323	615.29
399.701	622.07
400.08	630.44
400.458	665.91
400.837	664.56
401.215	678.8
401.594	682.86
401.972	670.43
402.351	686.71
402.729	702.52
403.107	723.77
403.486	712.69
403.864	729.87
404.242	737.78
404.62	758.79
404.999	755.18
405.377	760.38
405.755	786.82
406.133	813.71
406.511	797.66
406.889	850.54
407.267	873.82
407.645	885.8
408.023	928.51
408.401	911.11
408.779	945.46
409.156	974.83
409.534	1010.99
409.912	1007.6
410.29	1053.93
410.667	1050.99
411.045	1092.12
411.422	1106.81
411.8	1166.69
412.178	1170.31
412.555	1207.6
412.933	1213.47
413.31	1250.98
413.687	1278.55
414.065	1359.46
414.442	1344.77
414.819	1385.9
415.197	1396.97
415.574	1457.53
415.951	1450.75
416.328	1492.11
416.705	1491.2
417.082	1537.08
417.46	1553.12
417.837	1584.53
418.214	1611.43
418.591	1656.85
418.967	1645.78
419.344	1690.75
419.721	1702.05
420.098	1736.4
420.475	1759.9
420.852	1820.91
421.228	1831.99
421.605	1842.38
421.982	1869.72
422.358	1897.29
422.735	1945.43
423.111	1939.55
423.488	1962.83
423.864	1995.6
424.241	2024.98
424.617	2030.4
424.994	2084.18
425.37	2147.68
425.746	2099.32
426.123	2128.02
426.499	2173.67
426.875	2208.47
427.251	2264.06
427.627	2309.26
428.003	2318.98
428.379	2388.36
428.756	2379.54
429.132	2434.23
429.507	2467.9
429.883	2495.92
430.259	2553.55
430.635	2576.37
431.011	2566.66
431.387	2669.03
431.763	2709.48
432.138	2708.12
432.514	2770.04
432.89	2771.62
433.265	2873.54
433.641	2910.38
434.016	2914.9
434.392	2959.87
434.767	3031.05
435.143	3012.07
435.518	3094.1
435.894	3102.69
436.269	3205.51
436.644	3204.38
437.02	3217.26
437.395	3291.16
437.77	3304.72
438.145	3373.19
438.52	3410.93
438.895	3429.01
439.271	3478.5
439.646	3544.94
440.021	3534.99
440.395	3556.91
440.77	3536.8
441.145	3570.25
441.52	3691.15
441.895	3672.39
442.27	3678.49
442.645	3677.59
443.019	3723.24
443.394	3755.32
443.769	3797.81
444.143	3782.22
444.518	3858.83
444.892	3856.57
445.267	3904.25
445.641	3909.22
446.016	3971.82
446.39	3984.02
446.764	3959.16
447.139	4021.53
447.513	4036.45
447.887	4086.39
448.262	4034.41
448.636	4103.11
449.01	4145.82
449.384	4205.48
449.758	4196.9
450.132	4236.22
450.506	4290.68
450.88	4305.37
451.254	4343.11
451.628	4409.77
452.002	4460.39
452.376	4480.5
452.75	4460.84
453.123	4528.19
453.497	4591.46
453.871	4706.94
454.244	4746.49
454.618	4801.4
454.992	4838.91
455.365	4843.21
455.739	4965.69
456.112	5029.19
456.486	5034.61
456.859	5063.99
457.232	5161.16
457.606	5209.07
457.979	5204.1
458.352	5366.13
458.725	5414.26
459.099	5480.48
459.472	5562.96
459.845	5634.37
460.218	5666.24
460.591	5698.78
460.964	5743.07
461.337	5942.84
461.71	5955.27
462.083	6082.72
462.456	6038.2
462.829	6083.63
463.201	6209.95
463.574	6254.24
463.947	6307.35
464.32	6513.22
464.692	6529.26
465.065	6590.73
465.438	6688.58
465.81	6813.32
466.183	6814.23
466.555	6941.46
466.928	7051.51
467.3	7053.09
467.672	7172.86
468.045	7300.09
468.417	7352.52
468.789	7377.15
469.161	7479.29
469.534	7646.3
469.906	7798.83
470.278	7829.57
470.65	7983.46
471.022	8146.62
471.394	8195.66
471.766	8317.92
472.138	8450.79
472.51	8632.03
472.882	8722.2
473.253	8783.44
473.625	8958.35
473.997	9102.76
474.369	9218.46
474.74	9329.64
475.112	9446.47
475.484	9607.15
475.855	9798.1
476.227	9889.4
476.598	10116.51
476.97	10240.13
477.341	10478.09
477.713	10598.99
478.084	10674.01
478.455	10987.23
478.827	11071.74
479.198	11445.74
479.569	11404.39
479.94	11697.72
480.311	11781.33
480.682	12114.2
481.053	12306.74
481.424	12560.07
481.795	12599.84
482.166	12824.01
482.537	12915.54
482.908	13304.68
483.279	13397.78
483.65	13718
484.021	13873.7
484.391	14018.11
484.762	14136.97
485.133	14348.04
485.503	14586
485.874	14873
486.244	14938.76
486.615	15165.87
486.985	15385.3
487.356	15659.87
487.726	15791.17
488.097	16184.38
488.467	16099.18
488.837	16490.13
489.207	16774.42
489.578	16894.41
489.948	17139.15
490.318	17303.22
490.688	17357
491.058	17634.51
491.428	17894.84
491.798	18001.96
492.168	18330.31
492.538	18396.07
492.908	18655.27
493.278	18728.72
493.648	18918.09
494.017	19127.35
494.387	19275.82
494.757	19497.74
495.126	19654.79
495.496	19724.4
495.866	19911.96
496.235	20100.21
496.605	20216.36
496.974	20388.79
497.344	20594.88
497.713	20812.73
498.082	20882.11
498.452	21027.19
498.821	21169.78
499.19	21197.58
499.559	21478.7
499.928	21478.7
500.298	21809.77
500.667	21867.84
501.036	21950.33
501.405	22185.8
501.774	22208.63
502.143	22394.16
502.512	22468.73
502.88	22673.47
503.249	22775.84
503.618	22878.66
503.987	22947.81
504.356	23200.01
504.724	23315.71
505.093	23343.51
505.462	23530.85
505.83	23681.81
506.199	24004.51
506.567	24229.14
506.936	24102.36
507.304	24493.31
507.672	24565.63
508.041	24677.94
508.409	24834.77
508.777	25005.84
509.145	25307.07
509.514	25343.01
509.882	25357.02
510.25	25498.48
510.618	25713.62
510.986	25815.99
511.354	26040.61
511.722	26343.66
512.09	26428.18
512.458	26464.56
512.826	26707.94
513.193	26902.96
513.561	27012.57
513.929	27208.27
514.297	27392.9
514.664	27641.7
515.032	27664.98
515.4	27904.97
515.767	28113.78
516.135	28160.78
516.502	28084.4
516.869	28618.4
517.237	28720.54
517.604	28627.67
517.972	28938.84
518.339	29213.86
518.706	29272.39
519.073	29434.42
519.44	29728.65
519.808	29935.88
520.175	30094.75
520.542	30315.53
520.909	30498.12
521.276	30480.27
521.643	30958
522.009	31091.1
522.376	31267.37
522.743	31461.72
523.11	31738.09
523.477	31960.69
523.843	32090.63
524.21	32502.14
524.577	32757.05
524.943	32789.36
525.31	33117.04
525.676	33319.29
526.043	33435
526.409	33538.27
526.776	33961.31
527.142	34133.96
527.508	34309.1
527.874	34572.59
528.241	34766.04
528.607	34834.06
528.973	35116.76
529.339	35214.38
529.705	35529.18
530.071	35755.39
530.437	35870.86
530.803	36116.28
531.169	36320.57
531.535	36402.6
531.901	36471.98
532.267	36681.24
532.632	36907.45
532.998	37012.76
533.364	37201.9
533.73	37428.56
534.095	37637.15
534.461	37834.88
534.826	38056.12
535.192	38104.48
535.557	38449.78
535.923	38281.65
536.288	38569.1
536.653	38800.51
537.019	38617.23
537.384	38957.56
537.749	39082.76
538.114	39199.36
538.479	39198.69
538.845	39526.59
539.21	39419.25
539.575	39695.85
539.94	39821.27
540.305	40153.01
540.67	40074.37
541.034	40248.6
541.399	40406.11
541.764	40462.16
542.129	40688.37
542.494	40821.24
542.858	40965.42
543.223	40979.2
543.587	41306.2
543.952	41246.77
544.316	41396.82
544.681	41474.56
545.045	41703.03
545.41	41885.17
545.774	41937.6
546.138	42051.27
546.503	42239.06
546.867	42247.87
547.231	42611.93
547.595	42672.72
547.959	42719.27
548.324	42785.49
548.688	42914.3
549.052	43161.97
549.416	43187.06
549.779	43307.28
550.143	43327.62
550.507	43618.46
550.871	43882.41
551.235	43757.21
551.599	44177.76
551.962	44140.48
552.326	44308.83
552.689	44633.57
553.053	44428.38
553.417	44581.6
553.78	44979.78
554.143	44923.73
554.507	45168.02
554.87	45180.45
555.234	45676.26
555.597	45312.88
555.96	45666.09
556.323	45857.27
556.686	45855.69
557.05	46141.33
557.413	46202.8
557.776	46215.45
558.139	46643.46
558.502	46585.61
558.865	46826.06
559.228	47043.9
559.59	47182.21
559.953	47299.94
560.316	47645.92
560.679	47499.94
561.041	47909.19
561.404	47977.67
561.767	48169.07
562.129	48070.09
562.492	48530.42
562.854	48477.31
563.217	48586.69
563.579	48865.78
563.941	48979.22
564.304	49059.67
564.666	49302.15
565.028	49393.67
565.39	49487.23
565.753	49602.71
566.115	49783.95
566.477	49988.23
566.839	50122.47
567.201	50449.69
567.563	50369.69
567.925	50565.17
568.287	50592.06
568.648	50749.34
569.01	50992.5
569.372	51178.71
569.734	51082.22
570.095	51348.2
570.457	51415.54
570.819	51520.85
571.18	51457.12
571.542	51768.98
571.903	51795.42
572.265	51916.54
572.626	51880.39
572.987	52120.15
573.349	52125.58
573.71	52250.77
574.071	52361.28
574.432	52484.67
574.794	52746.58
575.155	52695.06
575.516	52617.77
575.877	52869.74
576.238	52866.35
576.599	52921.94
576.96	52989.06
577.32	53051.2
577.681	53235.38
578.042	53307.02
578.403	53307.92
578.763	53376.39
579.124	53394.7
579.485	53538.42
579.845	53613.22
580.206	53569.38
580.566	53621.36
580.927	53639.44
581.287	53748.36
581.648	53692.77
582.008	53889.37
582.368	53816.16
582.728	53958.3
583.089	53868.13
583.449	53963.5
583.809	53893.89
584.169	54038.3
584.529	53982.7
584.889	54128.24
585.249	53972.76
585.609	54025.87
585.969	54156.49
586.329	54013.89
586.688	54177.5
587.048	54110.16
587.408	54084.85
587.768	54199.2
588.127	54153.77
588.487	54125.75
588.846	54364.62
589.206	54171.17
589.565	54219.53
589.925	54375.01
590.284	54337.05
590.643	54313.77
591.003	54435.12
591.362	54488.91
591.721	54407.33
592.08	54472.41
592.44	54556.48
592.799	54566.42
593.158	54460.43
593.517	54469.7
593.876	54567.32
594.235	54554.44
594.593	54498.62
594.952	54668.11
595.311	54596.47
595.67	54588.79
596.029	54806.41
596.387	54706.08
596.746	54865.39
597.104	54733.65
597.463	54728.22
597.822	54843.7
598.18	54767.32
598.538	54738.17
598.897	54960.76
599.255	54677.38
599.613	55125.73
599.972	54954.2
600.33	54981.32
600.688	54846.41
601.046	55050.93
601.404	55116.69
601.762	55076.91
602.12	55214.76
602.478	55189.45
602.836	55120.3
603.194	55017.71
603.552	55145.84
603.91	55040.3
604.268	55229
604.625	55095.44
604.983	55240.07
605.341	55131.6
605.698	55271.71
606.056	55308.55
606.413	55321.88
606.771	55327.75
607.128	55428.99
607.485	55260.64
607.843	55340.64
608.2	55444.59
608.557	55537.01
608.914	55468.32
609.272	55531.82
609.629	55572.27
609.986	55604.13
610.343	55494.08
610.7	55761.64
611.057	55667.63
611.414	55658.37
611.771	55692.49
612.127	55829.21
612.484	55779.49
612.841	55910.34
613.198	55760.51
613.554	55730.91
613.911	55992.37
614.267	55931.13
614.624	55881.86
614.98	55972.48
615.337	56112.14
615.693	56027.17
616.05	55999.15
616.406	56093.61
616.762	56031.69
617.118	56025.14
617.475	55999.83
617.831	56158.69
618.187	56193.49
618.543	56143.1
618.899	56282.53
619.255	56282.53
619.611	56233.95
619.967	56264.45
620.323	56404.34
620.678	56193.27
621.034	56141.74
621.39	56197.56
621.746	56178.13
622.101	56477.78
622.457	56256.09
622.812	56336.09
623.168	56418.12
623.523	56436.2
623.879	56450.89
624.234	56297.22
624.589	56383.55
624.945	56429.87
625.3	56418.57
625.655	56390.33
626.01	56388.29
626.365	56344.68
626.72	56320.27
627.075	56360.95
627.43	56301.29
627.785	56300.84
628.14	56398.69
628.495	56343.77
628.85	56376.09
629.205	56272.59
629.559	56440.27
629.914	56314.62
630.269	56345.81
630.623	56312.81
630.978	56257.9
631.332	56378.8
631.687	56376.77
632.041	56289.31
632.396	56363.89
632.75	56149.2
633.104	56288.86
633.459	56222.19
633.813	56154.85
634.167	56161.86
634.521	56131.8
634.875	56178.58
635.229	56144
635.583	56028.75
635.937	56060.16
636.291	56013.84
636.645	56143.78
636.999	56023.78
637.352	56116.21
637.706	55989.43
638.06	56044.12
638.413	55904.91
638.767	55845.03
639.121	56010.22
639.474	55878.47
639.828	55944.91
640.181	55902.2
640.534	55890.23
640.888	55812.71
641.241	55708.08
641.594	55784.01
641.947	55858.81
642.301	55796.44
642.654	55832.37
643.007	55734.3
643.36	55732.26
643.713	55657.24
644.066	55751.25
644.419	55651.14
644.771	55407.98
645.124	55201.43
645.477	55093.41
645.83	55039.85
646.182	54885.51
646.535	54820.42
646.888	54884.83
647.24	54757.6
647.593	54916.01
647.945	54889.8
648.298	54711.73
648.65	54721.44
649.002	54643.7
649.355	54761.44
649.707	54729.35
650.059	54918.95
650.411	55211.15
650.763	55261.09
651.115	55467.41
651.467	55451.37
651.819	55319.84
652.171	55310.35
652.523	55293.18
652.875	55299.96
653.227	55154.65
653.578	55332.95
653.93	55248.66
654.282	55184.48
654.633	55102.22
654.985	55228.32
655.337	55210.92
655.688	55189.45
656.039	55205.5
656.391	55018.38
656.742	55048.67
657.094	55080.53
657.445	55136.35
657.796	55128.44
658.147	55052.06
658.498	55130.92
658.849	55079.85
659.2	55094.31
659.551	54918.73
659.902	55041.43
660.253	55033.07
660.604	54991.49
660.955	54918.95
661.306	55068.78
661.656	54960.53
662.007	54960.76
662.358	54940.19
662.708	54944.04
663.059	54905.84
663.409	54756.47
663.76	54937.48
664.11	54929.57
664.461	54912.62
664.811	54924.38
665.161	54916.47
665.511	54807.32
665.862	54834.66
666.212	54918.73
666.562	54872.85
666.912	54871.95
667.262	54768.9
667.612	54761.44
667.962	54866.07
668.312	54710.37
668.662	54864.49
669.011	54725.28
669.361	54680.31
669.711	54706.08
670.06	54579.07
670.41	54560.09
670.76	54560.99
671.109	54676.25
671.459	54594.44
671.808	54539.75
672.157	54627.89
672.507	54467.21
672.856	54417.5
673.205	54580.66
673.554	54476.93
673.904	54349.7
674.253	54559.41
674.602	54408.23
674.951	53942.25
675.3	53885.76
675.649	54314
675.998	54231.06
676.346	54275.13
676.695	54319.65
677.044	54121.23
677.393	54260.44
677.741	54209.37
678.09	54169.37
678.438	54062.25
678.787	54069.93
679.135	54071.29
679.484	53842.14
679.832	53994
680.181	53777.74
680.529	53891.18
680.877	53755.59
681.225	53737.97
681.573	53905.42
681.922	53569.61
682.27	53561.47
682.618	53568.48
682.966	53566.67
683.314	53606.44
683.661	53481.02
684.009	53337.52
684.357	53188.38
684.705	53152.44
685.053	53284.64
685.4	53181.37
685.748	53001.26
686.095	53009.4
686.443	52861.15
686.79	52839.23
687.138	52946.35
687.485	52767.37
687.832	52620.71
688.18	52743.19
688.527	52491.9
688.874	52446.02
689.221	52408.73
689.568	52410.99
689.915	52183.66
690.262	52223.43
690.609	52145.24
690.956	52006.49
691.303	52020.95
691.65	51828.19
691.997	51886.04
692.344	51622.09
692.69	51643.78
693.037	51700.96
693.383	51367.86
693.73	51484.24
694.077	51211.93
694.423	51305.49
694.769	51140.97
695.116	51022.1
695.462	51016.23
695.808	50853.97
696.155	51009
696.501	50533.98
696.847	50732.17
697.193	50379.64
697.539	50574.66
697.885	50298.28
698.231	50176.25
698.577	50213.31
698.923	50103.03
699.269	50007.44
699.614	49707.79
699.96	49763.83
700.306	49667.34
700.651	49493.11
700.997	49451.07
701.342	49436.84
701.688	49419.66
702.033	49355.48
702.379	49303.73
702.724	48985.77
703.069	49102.83
703.415	48782.39
703.76	48737.19
704.105	48804.08
704.45	48684.54
704.795	48403.42
705.14	48313.25
705.485	48358.9
705.83	48193.93
706.175	48178.79
706.52	48040.26
706.865	47934.73
707.209	47987.61
707.554	47815.41
707.899	47939.7
708.243	47670.1
708.588	47626.26
708.932	47260.62
709.277	47372.48
709.621	47350.34
709.966	47015.43
710.31	47154.41
710.654	46802.78
710.998	46817.92
711.342	46900.86
711.687	46698.38
712.031	46625.84
712.375	46523.24
712.719	46466.07
713.063	46379.97
713.407	46632.62
713.75	46375
714.094	46382
714.438	46104.27
714.782	46065.62
715.125	46011.62
715.469	46002.35
715.812	45848
716.156	45652.3
716.499	45650.49
716.843	45711.96
717.186	45446.66
717.53	45565.98
717.873	45510.84
718.216	45429.03
718.559	45215.48
718.902	45001.7
719.246	45100.68
719.589	45008.93
719.932	44719.9
720.275	44711.54
720.617	44829.05
720.96	44625.66
721.303	44698.2
721.646	44643.06
721.989	44312.9
722.331	44464.99
722.674	44373.24
723.016	44511.09
723.359	44281.04
723.701	44323.3
724.044	44037.88
724.386	43714.05
724.729	44059.35
725.071	43934.16
725.413	43886.7
725.755	43986.13
726.097	43526.26
726.439	43492.36
726.782	43472.47
727.124	43670.66
727.465	43456.2
727.807	43515.64
728.149	43296.88
728.491	43175.98
728.833	43212.14
729.175	43080.17
729.516	43024.8
729.858	42948.42
730.199	42970.57
730.541	42881.3
730.882	42914.52
731.224	42945.48
731.565	42656
731.906	42727.18
732.248	42760.85
732.589	42526.51
732.93	42386.17
733.271	42420.07
733.612	42518.83
733.953	42599.73
734.294	42424.82
734.635	42246.29
734.976	42382.56
735.317	42107.08
735.658	42105.05
735.999	41963.13
736.339	41886.98
736.68	42142.34
737.021	41954.77
737.361	41650.6
737.702	41858.05
738.042	41738.28
738.383	41630.49
738.723	41679.53
739.063	41685.85
739.404	41632.97
739.744	41583.71
740.084	41444.5
740.424	41272.76
740.764	41222.81
741.104	41301.46
741.444	41177.39
741.784	41030.96
742.124	41140.56
742.464	41091.07
742.804	40957.96
743.143	40965.87
743.483	41002.71
743.823	40740.12
744.162	40720.45
744.502	40824.86
744.841	40616.28
745.181	40591.87
745.52	40640.68
745.86	40619.21
746.199	40457.18
746.538	40498.77
746.877	40381.93
747.216	40394.36
747.556	40314.36
747.895	40328.83
748.234	40169.06
748.573	40060.59
748.911	39988.5
749.25	39938.1
749.589	39768.39
749.928	39824.89
750.267	39848.61
750.605	39812.91
750.944	39536.31
751.283	39453.82
751.621	39568.62
751.96	39449.53
752.298	39469.64
752.636	39484.33
752.975	39113.72
753.313	39013.83
753.651	39174.51
753.989	38984.23
754.327	38861.75
754.666	38708.53
755.004	38810.22
755.342	38790.11
755.679	38764.35
756.017	38365.26
756.355	38616.33
756.693	38348.77
757.031	38415.43
757.368	38161.2
757.706	38060.86
758.044	38054.76
758.381	38018.6
758.719	37725.28
759.056	37856.35
759.394	37746.3
759.731	37514.44
760.068	37440.09
760.405	37361.67
760.743	37171.17
761.08	37213.65
761.417	37120.55
761.754	36946.99
762.091	36863.16
762.428	36717.62
762.765	36445.31
763.102	36543.39
763.438	36537.97
763.775	36323.73
764.112	36451.19
764.449	36360.57
764.785	36214.58
765.122	35967.81
765.458	35865.67
765.795	35711.32
766.131	35637.2
766.467	35517.2
766.804	35421.16
767.14	35345.23
767.476	35231.11
767.812	35018.23
768.148	35157.66
768.485	34777.79
768.821	34750.44
769.157	34664.34
769.492	34659.15
769.828	34401.07
770.164	34337.12
770.5	34199.95
770.836	34204.02
771.171	34061.87
771.507	33856.23
771.842	33741.66
772.178	33710.47
772.513	33525.62
772.849	33580.98
773.184	33396.81
773.519	33439.29
773.855	33157.04
774.19	32978.96
774.525	32856.48
774.86	32813.09
775.195	32700.78
775.53	32539.2
775.865	32524.29
776.2	32252.88
776.535	32015.6
776.87	32005.2
777.205	31859.9
777.539	31894.25
777.874	31768.6
778.209	31608.15
778.543	31466.69
778.878	31353.47
779.212	31300.36
779.547	31083.65
779.881	31200.25
780.215	30975.17
780.55	31026.47
780.884	30846.14
781.218	30725.46
781.552	30711.68
781.886	30554.39
782.22	30391.46
782.554	30402.53
782.888	30035.76
783.222	29786.28
783.556	29737.47
783.889	29785.15
784.223	29473.74
784.557	29494.54
784.89	29700.18
785.224	29307.42
785.557	29297.25
785.891	29124.15
786.224	29198.5
786.558	28986.75
786.891	28749.7
787.224	28673.99
787.557	28542.7
787.891	28587.89
788.224	28517.39
788.557	28501.12
788.89	28312.19
789.223	28378.63
789.556	28047.12
789.888	27925.99
790.221	27995.37
790.554	27648.93
790.887	27741.36
791.219	27600.8
791.552	27542.95
791.884	27441.71
792.217	27345.67
792.549	27191.09
792.882	26994.71
793.214	26896.19
793.546	26936.18
793.879	26903.64
794.211	26728.05
794.543	26742.52
794.875	26529.64
795.207	26652.8
795.539	26434.28
795.871	26388.85
796.203	26245.13
796.535	26056.66
796.867	25974.63
797.198	25985.47
797.53	26088.75
797.862	25863.67
798.193	25791.13
798.525	25714.52
798.856	25725.14
799.188	25487.18
799.519	25302.56
799.85	25156.12
800.182	25221.43
800.513	25157.02
800.844	25037.03
801.175	25027.31
801.506	25016.23
801.837	24875.9
802.168	24813.98
802.499	24863.24
802.83	24641.1
803.161	24574.44
803.491	24582.35
803.822	24613.31
804.153	24439.75
804.483	24329.47
804.814	24169.25
805.145	24125.64
805.475	24140.33
805.805	23997.5
806.136	24069.59
806.466	24020.78
806.796	23991.86
807.126	23726.78
807.457	23646.78
807.787	23602.94
808.117	23508.7
808.447	23378.99
808.777	23462.6
809.107	23455.37
809.436	23237.75
809.766	23308.94
810.096	23228.03
810.426	23047.47
810.755	23063.97
811.085	22936.06
811.414	22957.08
811.744	22734.94
812.073	22660.82
812.403	22779.01
812.732	22599.35
813.061	22609.52
813.39	22491.56
813.719	22393.7
814.049	22494.95
814.378	22415.4
814.707	22310.54
815.036	22247.27
815.365	22221.96
815.693	21965.24
816.022	21978.35
816.351	21863.32
816.68	21829.65
817.008	21877.79
817.337	21735.42
817.665	21660.39
817.994	21683.44
818.322	21755.76
818.651	21535.2
818.979	21501.3
819.307	21558.7
819.636	21524.8
819.964	21362.09
820.292	21480.73
820.62	21404.58
820.948	21356.22
821.276	21408.42
821.604	21342.43
821.932	21437.57
822.259	21350.34
822.587	21222.89
822.915	21221.08
823.243	21343.11
823.57	21179.27
823.898	21271.25
824.225	21153.51
824.553	21202.55
824.88	21303.56
825.207	21322.32
825.535	21226.05
825.862	21220.63
826.189	21136.11
826.516	21197.58
826.843	21392.83
827.17	21304.24
827.497	21247.52
827.824	21243.68
828.151	21286.16
828.478	21210.69
828.805	21307.63
829.131	21190.35
829.458	21148.54
829.785	21083
830.111	21179.05
830.438	21171.36
830.764	21133.17
831.09	21169.1
831.417	21058.6
831.743	21186.51
832.069	21165.71
832.395	20980.86
832.722	20965.72
833.048	20970.92
833.374	21073.29
833.7	20932.73
834.026	20890.24
834.351	20950.81
834.677	20970.01
835.003	20936.79
835.329	20987.87
835.654	20940.18
835.98	20842.11
836.306	20774.54
836.631	20744.48
836.956	20794.88
837.282	20738.38
837.607	20659.06
837.932	20615.9
838.258	20577.48
838.583	20630.59
838.908	20540.42
839.233	20537.93
839.558	20402.57
839.883	20357.6
840.208	20337.04
840.533	20450.71
840.858	20399.86
841.182	20296.58
841.507	20252.07
841.832	20220.2
842.156	20114.22
842.481	20128.23
842.805	20027.89
843.13	20003.26
843.454	20021.56
843.778	19863.83
844.103	19876.26
844.427	19716.49
844.751	19829.03
845.075	19720.1
845.399	19737.28
845.723	19567.34
846.047	19460.22
846.371	19430.62
846.695	19388.59
847.019	19279.66
847.343	19168.03
847.666	19103.4
847.99	19009.84
848.313	19000.8
848.637	18872.89
848.96	18858.43
849.284	18837.64
849.607	18695.05
849.931	18626.12
850.254	18471.55
850.577	18431.55
850.9	18259.35
851.223	18276.07
851.546	18177.54
851.869	18119.24
852.192	18052.58
852.515	17974.61
852.838	17892.35
853.161	17882.86
853.483	17803.54
853.806	17639.48
854.129	17714.96
854.451	17650.1
854.774	17571.46
855.096	17509.54
855.419	17406.49
855.741	17403.78
856.063	17391.12
856.385	17251.47
856.708	17180.28
857.03	17213.95
857.352	17126.27
857.674	17070.68
857.996	17007.18
858.318	16896.45
858.64	16932.38
858.961	16873.62
859.283	16772.16
859.605	16765.6
859.926	16837.92
860.248	16761.31
860.57	16624.37
860.891	16591.37
861.212	16483.8
861.534	16492.39
861.855	16476.12
862.176	16502.79
862.498	16485.84
862.819	16461.88
863.14	16324.03
863.461	16268.89
863.782	16208.1
864.103	16224.15
864.424	16224.15
864.745	16214.88
865.065	16118.62
865.386	16064.38
865.707	16058.73
866.027	16108.22
866.348	16150.93
866.668	16013.53
866.989	15915.46
867.309	15893.76
867.63	15912.97
867.95	15886.76
868.27	15780.32
868.59	15780.77
868.91	15773.99
869.23	15767.21
869.55	15718.63
869.87	15757.04
870.19	15708.68
870.51	15616.26
870.83	15723.6
871.15	15605.41
871.469	15505.07
871.789	15635.24
872.109	15546.43
872.428	15475.92
872.748	15514.79
873.067	15453.55
873.386	15484.06
873.706	15415.58
874.025	15283.84
874.344	15202.26
874.663	15320.9
874.982	15314.12
875.301	15207.68
875.62	15203.39
875.939	15202.03
876.258	15181.47
876.577	15113.9
876.896	15054.24
877.214	15052.88
877.533	15113.44
877.852	15073.45
878.17	15093.11
878.489	15063.05
878.807	14957.06
879.125	14999.1
879.444	14920
879.762	14912.32
880.08	14882.04
880.398	14750.29
880.716	14775.83
881.034	14789.84
881.352	14735.6
881.67	14651.08
881.988	14696.96
882.306	14641.82
882.624	14649.05
882.941	14613.34
883.259	14557.3
883.577	14483.18
883.894	14464.2
884.212	14521.37
884.529	14375.16
884.846	14392.56
885.164	14393.24
885.481	14353.24
885.798	14296.74
886.115	14213.81
886.432	14266.01
886.75	14132.91
887.067	14205.67
887.383	14074.38
887.7	14193.47
888.017	14027.15
888.334	14012
888.651	14034.38
888.967	13984.89
889.284	13844.33
889.6	13851.56
889.917	13793.03
890.233	13732.01
890.55	13737.89
890.866	13759.13
891.182	13602.98
891.498	13647.04
891.815	13519.36
892.131	13444.34
892.447	13487.72
892.763	13444.56
893.079	13412.92
893.395	13282.31
893.71	13282.53
894.026	13282.31
894.342	13327.5
894.657	13061.75
894.973	13110.11
895.289	13109.66
895.604	13106.94
895.92	12996.89
896.235	13008.42
896.55	12888.87
896.865	12886.61
897.181	12778.59
897.496	12824.24
897.811	12727.74
898.126	12705.82
898.441	12637.8
898.756	12574.3
899.071	12563.23
899.386	12602.32
899.7	12526.39
900.015	12445.94
900.33	12382.67
900.644	12340.18
900.959	12336.79
901.273	12216.12
901.588	12234.88
901.902	12122.56
902.216	12079.63
902.531	12107.65
902.845	12084.82
903.159	11952.17
903.473	11936.58
903.787	11831.95
904.101	11810.93
904.415	11788.56
904.729	11799.63
905.042	11659.3
905.356	11695.23
905.67	11632.86
905.984	11582.24
906.297	11434.45
906.611	11428.8
906.924	11448.91
907.237	11405.75
907.551	11345.63
907.864	11309.7
908.177	11317.39
908.491	11276.48
908.804	11189.25
909.117	11046.43
909.43	11027.68
909.743	10953.1
910.056	11014.8
910.368	11021.35
910.681	10827
910.994	10789.94
911.307	10846.89
911.619	10709.04
911.932	10703.62
912.244	10701.36
912.557	10697.52
912.869	10527.8
913.181	10562.38
913.494	10561.25
913.806	10421.82
914.118	10369.61
914.43	10343.17
914.742	10294.81
915.054	10291.88
915.366	10227.47
915.678	10217.3
915.99	10160.35
916.302	10094.82
916.613	10084.42
916.925	10048.49
917.236	9983.86
917.548	9955.84
917.859	9840.36
918.171	9829.74
918.482	9860.48
918.794	9769.63
919.105	9765.56
919.416	9700.71
919.727	9673.36
920.038	9563.76
920.349	9554.27
920.66	9510.88
920.971	9520.37
921.282	9468.4
921.593	9365.57
921.903	9348.85
922.214	9299.59
922.525	9272.24
922.835	9210.1
923.146	9179.14
923.456	9170.78
923.767	9130.32
924.077	9091.46
924.387	9006.03
924.697	8985.24
925.008	8988.63
925.318	9002.64
925.628	8905.25
925.938	8862.99
926.248	8828.41
926.558	8800.62
926.867	8696.44
927.177	8634.29
927.487	8660.73
927.796	8494.18
928.106	8506.39
928.416	8485.82
928.725	8500.74
929.034	8433.39
929.344	8449.21
929.653	8366.28
929.962	8322.21
930.271	8307.3
930.581	8230.01
930.89	8294.87
931.199	8183.91
931.508	8181.88
931.817	8114.76
932.125	8119.28
932.434	8052.61
932.743	7998.83
933.051	7923.13
933.36	7900.07
933.669	7865.73
933.977	7832.73
934.286	7773.98
934.594	7788.89
934.902	7750.25
935.21	7707.76
935.519	7720.64
935.827	7694.43
936.135	7634.55
936.443	7527.2
936.751	7512.06
937.059	7557.71
937.367	7514.1
937.674	7455.34
937.982	7398.62
938.29	7334.67
938.597	7339.19
938.905	7314.55
939.213	7247.21
939.52	7249.24
939.827	7314.55
940.135	7202.24
940.442	7157.5
940.749	7146.87
941.056	7100.77
941.363	7048.8
941.67	7030.95
941.977	6961.79
942.284	6957.5
942.591	6887.67
942.898	6883.83
943.205	6881.12
943.511	6822.14
943.818	6825.07
944.125	6745.53
944.431	6730.84
944.738	6751.86
945.044	6668.69
945.35	6633.44
945.657	6648.81
945.963	6619.66
946.269	6557.51
946.575	6566.55
946.881	6451.53
947.187	6448.59
947.493	6413.79
947.799	6402.71
948.105	6420.34
948.41	6325.88
948.716	6303.28
949.022	6327.46
949.327	6315.71
949.633	6208.37
949.938	6197.75
950.244	6221.25
950.549	6171.08
950.854	6191.87
951.16	6070.29
951.465	6051.76
951.77	6068.48
952.075	6033.46
952.38	6000.24
952.685	6011.76
952.99	5909.39
953.294	5895.83
953.599	5911.2
953.904	5876.4
954.209	5809.06
954.513	5833.46
954.818	5814.71
955.122	5778.1
955.426	5739.45
955.731	5751.88
956.035	5685.9
956.339	5635.5
956.643	5622.85
956.948	5566.8
957.252	5587.37
957.556	5546.92
957.86	5505.79
958.163	5481.83
958.467	5492.68
958.771	5489.29
959.075	5465.56
959.378	5360.48
959.682	5403.87
959.985	5315.96
960.289	5379.01
960.592	5319.13
960.896	5265.34
961.199	5295.17
961.502	5242.97
961.805	5202.74
962.108	5184.89
962.411	5171.78
962.714	5135.63
963.017	5090.43
963.32	5095.18
963.623	5078.91
963.926	5076.65
964.228	5066.48
964.531	5003.2
964.833	4953.26
965.136	4943.09
965.438	4896.76
965.741	4929.08
966.043	4919.81
966.345	4836.43
966.648	4807.95
966.95	4788.52
967.252	4796.43
967.554	4803.43
967.856	4797.33
968.158	4724.57
968.46	4702.42
968.761	4675.53
969.063	4699.25
969.365	4656.77
969.666	4604.57
969.968	4594.85
970.269	4546.49
970.571	4551.01
970.872	4552.37
971.174	4524.34
971.475	4473.05
971.776	4473.05
972.077	4461.07
972.378	4441.63
972.679	4398.7
972.98	4440.28
973.281	4368.64
973.582	4416.78
973.883	4327.74
974.183	4326.16
974.484	4297.01
974.785	4301.75
975.085	4272.15
975.386	4235.54
975.686	4220.4
975.986	4177.46
976.287	4209.55
976.587	4191.92
976.887	4130.91
977.187	4124.35
977.487	4098.37
977.787	4071.7
978.087	4117.58
978.387	4079.61
978.687	4006.17
978.987	4034.87
979.286	4009.56
979.586	3949.22
979.885	3955.77
980.185	3937.92
980.484	3939.73
980.784	3916.68
981.083	3864.25
981.382	3901.54
981.682	3861.31
981.981	3836.23
982.28	3789.22
982.579	3777.25
982.878	3762.78
983.177	3783.35
983.475	3754.87
983.774	3756
984.073	3728.66
984.372	3667.19
984.67	3659.06
984.969	3675.1
985.267	3627.42
985.566	3600.3
985.864	3617.93
986.162	3592.17
986.461	3579.51
986.759	3518.27
987.057	3537.03
987.355	3478.95
987.653	3480.08
987.951	3473.52
988.249	3445.5
988.547	3414.54
988.844	3441.89
989.142	3406.86
989.44	3393.98
989.737	3375.67
990.035	3347.43
990.332	3343.13
990.63	3346.75
990.927	3310.59
991.224	3296.81
991.521	3285.96
991.819	3284.38
992.116	3247.32
992.413	3254.32
992.71	3187.66
993.006	3193.53
993.303	3229.01
993.6	3147.88
993.897	3178.84
994.193	3111.95
994.49	3122.35
994.787	3122.12
995.083	3079.18
995.379	3078.73
995.676	3050.94
995.972	3038.28
996.268	3022.01
996.565	3023.82
996.861	3018.85
997.157	2957.61
997.453	2961
997.749	2943.82
998.044	2918.06
998.34	2890.71
998.636	2916.25
998.932	2863.15
999.227	2869.47
999.523	2825.63
999.818	2861.79
1000.114	2850.94
1000.409	2823.6
1000.704	2808.91
1001	2811.85
1001.295	2746.76
1001.59	2722.36
1001.885	2733.2
1002.18	2731.85
1002.475	2736.82
1002.77	2702.47
1003.065	2695.92
1003.359	2681.45
1003.654	2635.58
1003.949	2603.72
1004.243	2602.81
1004.538	2589.03
1004.832	2564.17
1005.127	2576.6
1005.421	2528.92
1005.715	2539.99
1006.009	2526.2
1006.304	2506.09
1006.598	2513.32
1006.892	2478.3
1007.186	2450.05
1007.48	2440.33
1007.773	2404.4
1008.067	2411.41
1008.361	2373.21
1008.655	2390.39
1008.948	2412.08
1009.242	2366.89
1009.535	2346.77
1009.829	2348.58
1010.122	2330.73
1010.415	2287.34
1010.708	2317.62
1011.001	2290.5
1011.295	2264.52
1011.588	2248.47
1011.881	2230.85
1012.173	2212.99
1012.466	2222.03
1012.759	2203.05
1013.052	2184.74
1013.344	2182.48
1013.637	2177.97
1013.93	2168.7
1014.222	2131.19
1014.514	2109.94
1014.807	2128.48
1015.099	2122.83
1015.391	2058.42
1015.683	2045.54
1015.976	2075.6
1016.268	2058.87
1016.56	2040.12
1016.851	2007.8
1017.143	2005.54
1017.435	1993.56
1017.727	1946.33
1018.018	1956.95
1018.31	1968.25
1018.602	1956.5
1018.893	1948.14
1019.185	1898.88
1019.476	1873.11
1019.767	1888.93
1020.058	1865.88
1020.35	1860.46
1020.641	1832.89
1020.932	1816.62
1021.223	1795.6
1021.514	1827.47
1021.804	1774.36
1022.095	1779.56
1022.386	1780.46
1022.677	1765.77
1022.967	1736.85
1023.258	1717.86
1023.548	1715.6
1023.839	1728.26
1024.129	1710.63
1024.419	1692.33
1024.709	1686.23
1025	1684.64
1025.29	1667.92
1025.58	1641.71
1025.87	1631.31
1026.16	1621.6
1026.449	1597.64
1026.739	1566.46
1027.029	1569.62
1027.319	1564.65
1027.608	1552.22
1027.898	1580.47
1028.187	1539.11
1028.477	1535.5
1028.766	1521.26
1029.055	1497.31
1029.344	1507.93
1029.634	1463.63
1029.923	1472.9
1030.212	1491.43
1030.501	1465.67
1030.79	1461.83
1031.078	1423.63
1031.367	1407.59
1031.656	1396.52
1031.945	1414.82
1032.233	1409.62
1032.522	1386.35
1032.81	1369.17
1033.099	1369.17
1033.387	1362.62
1033.675	1340.93
1033.963	1319.46
1034.251	1344.99
1034.54	1332.11
1034.828	1318.78
1035.116	1293.47
1035.403	1313.58
1035.691	1283.53
1035.979	1290.08
1036.267	1271.32
1036.554	1234.04
1036.842	1220.48
1037.129	1244.43
1037.417	1204.88
1037.704	1221.83
1037.992	1212.79
1038.279	1216.86
1038.566	1191.1
1038.853	1191.1
1039.14	1191.1
