Data from White_reflection_standard_FLMS001491_049.txt Node
Date: Tue Feb 07 10:32:05 GMT 2017
User: dcchb
Spectrometer: FLMS00149
Trigger mode: 0
Integration Time (sec): 2.000000E-2
Scans to average: 10
Electric dark correction enabled: true
Nonlinearity correction enabled: false
Boxcar width: 0
XAxis mode: Wavelengths
Number of Pixels in Spectrum: 2048
>>>>>Begin Spectral Data<<<<<
341.393	-19.96
341.776	-19.96
342.16	-19.96
342.543	-62.67
342.927	-50.92
343.31	-63.12
343.693	-71.71
344.077	-69.45
344.46	-42.1
344.843	-53.63
345.226	-22.67
345.61	-32.16
345.993	-32.39
346.376	2.19
346.759	5.58
347.142	16.43
347.525	46.93
347.908	62.75
348.291	61.85
348.674	68.63
349.057	122.86
349.44	111.11
349.823	130.1
350.206	182.75
350.588	250.77
350.971	257.55
351.354	268.4
351.737	279.92
352.119	295.74
352.502	311.11
352.884	322.18
353.267	326.93
353.65	343.88
354.032	337.77
354.414	349.07
354.797	361.28
355.179	355.63
355.562	378.45
355.944	387.94
356.326	398.56
356.709	376.87
357.091	384.33
357.473	399.69
357.855	392.91
358.238	412.8
358.62	405.79
359.002	405.57
359.384	393.37
359.766	380.03
360.148	390.88
360.53	409.86
360.912	415.29
361.294	393.59
361.676	415.96
362.057	403.08
362.439	403.99
362.821	409.64
363.203	404.44
363.584	392.24
363.966	405.57
364.348	388.39
364.729	399.24
365.111	418.9
365.493	412.8
365.874	412.12
366.256	436.53
366.637	400.6
367.019	414.38
367.4	403.31
367.781	408.73
368.163	433.14
368.544	422.07
368.925	425.68
369.306	415.06
369.688	432.69
370.069	436.08
370.45	423.2
370.831	408.73
371.212	449.86
371.593	431.33
371.974	434.95
372.355	438.56
372.736	444.21
373.117	434.72
373.498	458.67
373.879	451.22
374.26	436.53
374.641	428.62
375.021	442.63
375.402	443.99
375.783	450.54
376.163	500.03
376.544	514.72
376.925	484.44
377.305	507.94
377.686	493.7
378.066	495.28
378.447	484.21
378.827	528.05
379.208	514.94
379.588	501.16
379.968	531.21
380.349	539.8
380.729	550.65
381.109	546.81
381.489	529.18
381.87	540.93
382.25	534.6
382.63	562.4
383.01	539.12
383.39	577.32
383.77	573.47
384.15	584.32
384.53	588.16
384.91	587.94
385.29	593.13
385.67	621.38
386.049	607.82
386.429	618.9
386.809	615.51
387.189	618.9
387.568	633.59
387.948	631.33
388.328	649.63
388.707	634.26
389.087	672.45
389.466	648.5
389.846	672.45
390.225	690.08
390.605	679.01
390.984	713.58
391.363	703.87
391.743	709.06
392.122	735.28
392.501	757.65
392.881	752.68
393.26	752.23
393.639	758.33
394.018	767.37
394.397	782.96
394.776	770.76
395.155	787.48
395.534	783.64
395.913	788.61
396.292	800.13
396.671	827.25
397.05	836.52
397.429	837.2
397.808	829.74
398.186	840.13
398.565	866.57
398.944	872.67
399.323	856.18
399.701	874.03
400.08	878.55
400.458	906.8
400.837	936.18
401.215	924.2
401.594	929.62
401.972	940.02
402.351	956.29
402.729	968.27
403.107	990.64
403.486	982.95
403.864	990.19
404.242	994.25
404.62	1017.53
404.999	1037.19
405.377	1065.89
405.755	1055.49
406.133	1071.54
406.511	1095.72
406.889	1088.94
407.267	1102.05
407.645	1135.27
408.023	1136.62
408.401	1153.12
408.779	1189.73
409.156	1195.83
409.534	1196.06
409.912	1223.85
410.29	1225.21
410.667	1256.62
411.045	1266.34
411.422	1296.39
411.8	1306.79
412.178	1339.1
412.555	1362.38
412.933	1311.99
413.31	1421.13
413.687	1405.09
414.065	1424.75
414.442	1447.8
414.819	1453.22
415.197	1429.72
415.574	1465.2
415.951	1494.58
416.328	1487.8
416.705	1520.12
417.082	1529.38
417.46	1546.33
417.837	1583.84
418.214	1591.75
418.591	1588.81
418.967	1632.65
419.344	1645.31
419.721	1661.35
420.098	1669.26
420.475	1681.92
420.852	1710.84
421.228	1715.14
421.605	1760.34
421.982	1766.21
422.358	1784.29
422.735	1782.26
423.111	1799.66
423.488	1830.62
423.864	1859.77
424.241	1887.79
424.617	1889.6
424.994	1915.36
425.37	1925.53
425.746	1926.21
426.123	1969.82
426.499	1987.9
426.875	2027.22
427.251	2101.34
427.627	2111.51
428.003	2111.96
428.379	2157.84
428.756	2162.81
429.132	2197.39
429.507	2277.84
429.883	2244.39
430.259	2307.67
430.635	2346.76
431.011	2343.82
431.387	2414.1
431.763	2451.39
432.138	2457.27
432.514	2506.76
432.89	2511.95
433.265	2563.7
433.641	2614.55
434.016	2636.92
434.392	2651.61
434.767	2745.39
435.143	2715.34
435.518	2749.01
435.894	2794.88
436.269	2835.11
436.644	2869.23
437.02	2893.41
437.395	2934.32
437.77	2932.73
438.145	3008.66
438.52	3051.37
438.895	3056.57
439.271	3071.71
439.646	3149.68
440.021	3198.49
440.395	3171.6
440.77	3141.32
441.145	3201.43
441.52	3259.05
441.895	3285.27
442.27	3291.14
442.645	3325.94
443.019	3334.08
443.394	3330.01
443.769	3449.78
444.143	3391.93
444.518	3470.35
444.892	3452.72
445.267	3442.32
445.641	3515.32
446.016	3527.97
446.39	3604.13
446.764	3653.39
447.139	3598.25
447.513	3694.75
447.887	3685.71
448.262	3676.89
448.636	3726.16
449.01	3769.32
449.384	3808.19
449.758	3826.72
450.132	3900.84
450.506	3901.75
450.88	3939.94
451.254	3972.93
451.628	3994.17
452.002	4121.18
452.376	4073.72
452.75	4134.96
453.123	4186.49
453.497	4236.65
453.871	4288.18
454.244	4379.48
454.618	4398.23
454.992	4455.86
455.365	4484.78
455.739	4605.01
456.112	4605.91
456.486	4665.8
456.859	4702.18
457.232	4810.42
457.606	4833.7
457.979	4852.68
458.352	4968.16
458.725	5045.9
459.099	5119.34
459.472	5144.2
459.845	5254.93
460.218	5301.26
460.591	5335.16
460.964	5347.59
461.337	5424.87
461.71	5601.59
462.083	5598.65
462.456	5627.58
462.829	5718.65
463.201	5798.87
463.574	5878.42
463.947	5876.84
464.32	6056.49
464.692	6114.12
465.065	6173.1
465.438	6271.85
465.81	6324.28
466.183	6423.94
466.555	6526.09
466.928	6601.34
467.3	6550.49
467.672	6680.43
468.045	6895.57
468.417	6882.91
468.789	6937.15
469.161	7029.12
469.534	7150.48
469.906	7371.49
470.278	7422.11
470.65	7434.76
471.022	7587.75
471.394	7759.95
471.766	7826.84
472.138	7881.53
472.51	8108.42
472.882	8163.78
473.253	8290.33
473.625	8430.89
473.997	8615.97
474.369	8655.75
474.74	8807.38
475.112	8909.75
475.484	9111.78
475.855	9294.6
476.227	9338.21
476.598	9601.03
476.97	9664.08
477.341	9931.87
477.713	10073.56
478.084	10095.71
478.455	10395.14
478.827	10532.31
479.198	10794.67
479.569	10871.06
479.94	11077.15
480.311	11222.46
480.682	11513.52
481.053	11721.66
481.424	11914.19
481.795	12080.06
482.166	12207.52
482.537	12480.05
482.908	12662.87
483.279	12743.32
483.65	13060.6
484.021	13344.89
484.391	13442.06
484.762	13636.18
485.133	13716.63
485.503	13918.66
485.874	14254.47
486.244	14432.77
486.615	14633.89
486.985	14793.44
487.356	15064.39
487.726	15156.37
488.097	15501.89
488.467	15557.94
488.837	15867.08
489.207	16083.8
489.578	16394.98
489.948	16436.11
490.318	16708.87
490.688	16732.37
491.058	17072.93
491.428	17323.77
491.798	17420.94
492.168	17825.22
492.538	17838.33
492.908	18135.05
493.278	18350.63
493.648	18394.02
494.017	18603.06
494.387	18663.85
494.757	19005.98
495.126	19132.53
495.496	19216.6
495.866	19397.16
496.235	19588.11
496.605	19660.66
496.974	19886.41
497.344	20018.84
497.713	20196.69
498.082	20307.42
498.452	20655.43
498.821	20554.87
499.19	20817.69
499.559	20939.49
499.928	21119.83
500.298	21234.63
500.667	21489.08
501.036	21398.46
501.405	21710.54
501.774	21739.47
502.143	22076.64
502.512	22166.35
502.88	22247.25
503.249	22317.99
503.618	22667.13
503.987	22613.57
504.356	22785.09
504.724	23006.33
505.093	23012.21
505.462	23248.81
505.83	23413.78
506.199	23648.57
506.567	23941.9
506.936	23931.5
507.304	24233.19
507.672	24246.07
508.041	24465.5
508.409	24646.06
508.777	24866.85
509.145	24994.98
509.514	25053.51
509.882	25296.21
510.25	25284.24
510.618	25571.23
510.986	25695.52
511.354	25888.74
511.722	26143.2
512.09	26438.1
512.458	26425
512.826	26643.3
513.193	26735.27
513.561	26999.67
513.929	27232.66
514.297	27370.28
514.664	27618.64
515.032	27734.34
515.4	27994.22
515.767	28107.44
516.135	28316.02
516.502	28200.77
516.869	28795.1
517.237	28902.67
517.604	28758.95
517.972	29286.62
518.339	29358.48
518.706	29497.01
519.073	29701.75
519.44	29835.53
519.808	30221.51
520.175	30239.36
520.542	30686.58
520.909	30902.17
521.276	30908.04
521.643	31303.06
522.009	31508.03
522.376	31639.1
522.743	31952.08
523.11	32158.86
523.477	32374.67
523.843	32652.18
524.21	33034.32
524.577	33317.7
524.943	33318.38
525.31	33614.64
525.676	33977.12
526.043	34229.09
526.409	34199.71
526.776	34730.99
527.142	34664.78
527.508	35085.11
527.874	35207.82
528.241	35452.1
528.607	35617.75
528.973	36043.05
529.339	35958.31
529.705	36414.11
530.071	36560.78
530.437	36816.14
530.803	37083.93
531.169	37236.24
531.535	37160.99
531.901	37390.36
532.267	37672.84
532.632	37839.39
532.998	37865.83
533.364	38121.64
533.73	38433.95
534.095	38641.4
534.461	38798.01
534.826	38934.72
535.192	39063.99
535.557	39419.68
535.923	39294.94
536.288	39470.76
536.653	39789.17
537.019	39676.85
537.384	39963.85
537.749	40216.5
538.114	40255.14
538.479	40291.98
538.845	40494.01
539.21	40483.84
539.575	40816.26
539.94	40847.44
540.305	41161.56
540.67	41090.6
541.034	41317.04
541.399	41459.86
541.764	41534.66
542.129	41843.12
542.494	41851.94
542.858	41958.83
543.223	42050.58
543.587	42266.84
543.952	42391.36
544.316	42474.07
544.681	42668.19
545.045	42829.76
545.41	42887.16
545.774	42978.69
546.138	43123.32
546.503	43364.89
546.867	43398.79
547.231	43728.72
547.595	43646.47
547.959	43834.03
548.324	43989.73
548.688	44105.21
549.052	44205.09
549.416	44331.65
549.779	44358.09
550.143	44637.63
550.507	44819.54
550.871	45040.1
551.235	44914.68
551.599	45419.53
551.962	45297.95
552.326	45457.49
552.689	45714.21
553.053	45684.83
553.417	45751.72
553.78	46360.97
554.143	46196.23
554.507	46478.93
554.87	46525.26
555.234	46882.76
555.597	46660.62
555.96	46928.19
556.323	47029.2
556.686	47256.77
557.05	47387.38
557.413	47569.3
557.776	47677.77
558.139	47903.08
558.502	47910.53
558.865	48139
559.228	48496.96
559.59	48553.23
559.953	48724.52
560.316	48983.27
560.679	49097.17
561.041	49296.03
561.404	49409.03
561.767	49667.55
562.129	49530.38
562.492	49833.42
562.854	49821.9
563.217	49922.01
563.579	50204.94
563.941	50462.78
564.304	50528.09
564.666	50696.22
565.028	50827.29
565.39	50955.2
565.753	51100.05
566.115	51193.39
566.477	51454.62
566.839	51545.24
567.201	51749.76
567.563	51761.51
567.925	51942.52
568.287	51859.13
568.648	52124.21
569.01	52203.75
569.372	52494.59
569.734	52351.77
570.095	52540.02
570.457	52685.32
570.819	52741.14
571.18	52833.79
571.542	52958.31
571.903	53077.63
572.265	53156.27
572.626	53248.92
572.987	53298.41
573.349	53393.55
573.71	53572.31
574.071	53551.29
574.432	53731.17
574.794	53866.76
575.155	53828.8
575.516	53824.28
575.877	53917.83
576.238	54024.05
576.599	54064.04
576.96	54072.86
577.32	54146.98
577.681	54293.19
578.042	54313.3
578.403	54268.56
578.763	54303.59
579.124	54401.89
579.485	54572.28
579.845	54547.2
580.206	54445.05
580.566	54552.39
580.927	54548.1
581.287	54673.07
581.648	54553.07
582.008	54680.98
582.368	54702.45
582.728	54740.64
583.089	54756.23
583.449	54673.97
583.809	54776.12
584.169	54737.7
584.529	54722.11
584.889	54905.83
585.249	54803.23
585.609	54705.16
585.969	54870.58
586.329	54711.94
586.688	54898.6
587.048	54857.02
587.408	54738.15
587.768	54785.16
588.127	54789
588.487	54760.75
588.846	54951.48
589.206	54726.63
589.565	54810.24
589.925	54980.86
590.284	54858.37
590.643	54858.37
591.003	54967.98
591.362	54985.83
591.721	54880.75
592.08	54927.52
592.44	55000.07
592.799	54989.9
593.158	55039.61
593.517	55009.56
593.876	54994.42
594.235	54943.34
594.593	55052.72
594.952	55017.92
595.311	54985.83
595.67	54960.97
596.029	55203.45
596.387	55133.62
596.746	55211.81
597.104	55091.59
597.463	54998.71
597.822	55185.6
598.18	55147.86
598.538	55102.66
598.897	55203.9
599.255	55045.49
599.613	55491.8
599.972	55234.64
600.33	55322.32
600.688	55267.63
601.046	55379.49
601.404	55374.07
601.762	55363.67
602.12	55519.6
602.478	55510.79
602.836	55511.01
603.194	55374.97
603.552	55479.83
603.91	55367.06
604.268	55578.81
604.625	55424.23
604.983	55575.87
605.341	55522.54
605.698	55645.25
606.056	55697.45
606.413	55628.52
606.771	55726.37
607.128	55748.07
607.485	55642.08
607.843	55674.62
608.2	55802.76
608.557	55841.85
608.914	55800.04
609.272	55942.41
609.629	55932.47
609.986	55975.18
610.343	55913.94
610.7	56077.32
611.057	56025.35
611.414	56085.23
611.771	56111.9
612.127	56135.63
612.484	56132.46
612.841	56198
613.198	56144.89
613.554	56145.12
613.911	56266.25
614.267	56250.2
614.624	56258.79
614.98	56259.47
615.337	56348.96
615.693	56281.84
616.05	56263.08
616.406	56496.75
616.762	56384.44
617.118	56347.6
617.475	56372.68
617.831	56390.31
618.187	56508.95
618.543	56421.95
618.899	56539.23
619.255	56514.83
619.611	56556.18
619.967	56652.23
620.323	56630.3
620.678	56534.94
621.034	56566.13
621.39	56608.84
621.746	56558.22
622.101	56814.03
622.457	56510.99
622.812	56556.41
623.168	56627.14
623.523	56692
623.879	56708.72
624.234	56532
624.589	56585.33
624.945	56625.56
625.3	56674.6
625.655	56597.54
626.01	56736.74
626.365	56642.73
626.72	56626.69
627.075	56621.04
627.43	56535.17
627.785	56542.85
628.14	56539.46
628.495	56614.26
628.85	56595.96
629.205	56457.2
629.559	56599.12
629.914	56520.03
630.269	56484.32
630.623	56415.4
630.978	56342.85
631.332	56486.13
631.687	56451.1
632.041	56360.93
632.396	56441.16
632.75	56334.95
633.104	56326.13
633.459	56218.79
633.813	56183.54
634.167	56202.75
634.521	56082.97
634.875	56148.28
635.229	56038
635.583	55910.32
635.937	55996.2
636.291	55942.19
636.645	55974.5
636.999	55847.73
637.352	55978.57
637.706	55777.67
638.06	55865.81
638.413	55858.35
638.767	55718.92
639.121	55745.58
639.474	55604.57
639.828	55688.63
640.181	55648.18
640.534	55621.74
640.888	55490.67
641.241	55401.64
641.594	55511.01
641.947	55518.7
642.301	55427.62
642.654	55436.89
643.007	55395.99
643.36	55342.43
643.713	55362.99
644.066	55450.45
644.419	55206.39
644.771	54976.56
645.124	54738.83
645.477	54613.18
645.83	54509.91
646.182	54388.33
646.535	54305.62
646.888	54363.92
647.24	54115.57
647.593	54365.73
647.945	54289.58
648.298	54234.66
648.65	54063.82
649.002	53966.42
649.355	54185.4
649.707	54037.15
650.059	54144.95
650.411	54416.8
650.763	54481.21
651.115	54713.52
651.467	54657.02
651.819	54611.37
652.171	54614.31
652.523	54481.43
652.875	54531.38
653.227	54327.99
653.578	54563.47
653.93	54400.31
654.282	54275.11
654.633	54303.81
654.985	54296.35
655.337	54316.47
655.688	54274.66
656.039	54352.85
656.391	54077.38
656.742	54135.68
657.094	54113.08
657.445	54184.95
657.796	54118.51
658.147	54096.81
658.498	54099.75
658.849	54136.13
659.2	54012.52
659.551	53936.36
659.902	54110.15
660.253	53900.43
660.604	54060.2
660.955	53881.9
661.306	53987.66
661.656	53915.12
662.007	53848.68
662.358	53909.92
662.708	53885.74
663.059	53793.32
663.409	53742.7
663.76	53873.09
664.11	53823.82
664.461	53810.49
664.811	53781.11
665.161	53711.29
665.511	53676.48
665.862	53688.24
666.212	53687.11
666.562	53681.91
666.912	53774.79
667.262	53591.74
667.612	53591.29
667.962	53562.59
668.312	53572.08
668.662	53685.98
669.011	53637.16
669.361	53605.07
669.711	53523.95
670.06	53498.86
670.41	53476.26
670.76	53348.58
671.109	53506.55
671.459	53355.14
671.808	53264.07
672.157	53381.35
672.507	53107.69
672.856	53174.35
673.205	53204.86
673.554	53317.4
673.904	53169.15
674.253	53340.22
674.602	53196.72
674.951	52835.38
675.3	52540.47
675.649	53108.59
675.998	53041.25
676.346	53043.96
676.695	53202.37
677.044	52977.75
677.393	52985.65
677.741	52984.98
678.09	52898.2
678.438	52828.6
678.787	52984.52
679.135	52835.83
679.484	52670.41
679.832	52799.22
680.181	52617.3
680.529	52718.54
680.877	52527.81
681.225	52527.14
681.573	52723.51
681.922	52444.2
682.27	52380.25
682.618	52389.51
682.966	52287.82
683.314	52383.86
683.661	52238.56
684.009	52076.53
684.357	52063.65
684.705	51935.29
685.053	51943.65
685.4	51939.13
685.748	51759.7
686.095	51774.84
686.443	51629.98
686.79	51578.91
687.138	51629.53
687.485	51555.41
687.832	51385.24
688.18	51467.95
688.527	51279.03
688.874	51338.69
689.221	51169.43
689.568	51058.7
689.915	50972.83
690.262	50837.24
690.609	50808.76
690.956	50879.72
691.303	50646.06
691.65	50569.9
691.997	50561.31
692.344	50263.69
692.69	50266.86
693.037	50401.32
693.383	49903.25
693.73	50047.88
694.077	49879.52
694.423	49860.99
694.769	49792.97
695.116	49676.14
695.462	49559.76
695.808	49374
696.155	49445.41
696.501	49230.95
696.847	49209.48
697.193	48950.05
697.539	49211.74
697.885	48756.84
698.231	48681.36
698.577	48667.8
698.923	48578.31
699.269	48466.45
699.614	48244.08
699.96	48261.03
700.306	48189.4
700.651	48044.54
700.997	47962.96
701.342	47856.3
701.688	47799.8
702.033	47677.77
702.379	47601.16
702.724	47522.52
703.069	47514.16
703.415	47116.66
703.76	47115.53
704.105	47273.71
704.45	46910.56
704.795	46661.98
705.14	46683.9
705.485	46639.16
705.83	46422.66
706.175	46557.35
706.52	46407.07
706.865	46165.04
707.209	46179.05
707.554	45945.61
707.899	46120.52
708.243	45868.55
708.588	45872.62
708.932	45441.67
709.277	45489.81
709.621	45530.71
709.966	45374.56
710.31	45241.68
710.654	45058.41
710.998	45094.11
711.342	45055.92
711.687	44960.78
712.031	44779.09
712.375	44603.95
712.719	44715.82
713.063	44557.4
713.407	44602.15
713.75	44406.22
714.094	44460.68
714.438	44255.71
714.782	44269.27
715.125	44064.08
715.469	44166.45
715.812	43852.56
716.156	43676.97
716.499	43687.14
716.843	43772.56
717.186	43358.79
717.53	43511.1
717.873	43454.83
718.216	43399.69
718.559	43252.58
718.902	43026.37
719.246	43113.6
719.589	43004.22
719.932	42733.95
720.275	42775.08
720.617	42697.11
720.96	42727.62
721.303	42739.37
721.646	42609.66
721.989	42324.69
722.331	42388.19
722.674	42365.82
723.016	42414.63
723.359	42267.52
723.701	42393.39
724.044	41955.44
724.386	41745.5
724.729	41903.23
725.071	41838.83
725.413	41744.59
725.755	41674.77
726.097	41603.58
726.439	41378.5
726.782	41398.84
727.124	41569.01
727.465	41241.1
727.807	41354.55
728.149	41276.58
728.491	41144.38
728.833	41176.93
729.175	40842.7
729.516	40830.04
729.858	40797.27
730.199	40887.89
730.541	40744.85
730.882	40759.76
731.224	40819.42
731.565	40451.07
731.906	40542.82
732.248	40480.67
732.589	40253.11
732.93	40120.68
733.271	40285.42
733.612	40312.54
733.953	40230.06
734.294	39992.55
734.635	40064.86
734.976	40067.8
735.317	39843.18
735.658	39774.93
735.999	39801.59
736.339	39664.65
736.68	39717.08
737.021	39478.67
737.361	39419.68
737.702	39590.98
738.042	39353.02
738.383	39197.32
738.723	39249.07
739.063	39219.46
739.404	39217.2
739.744	39065.12
740.084	39041.39
740.424	38957.32
740.764	38853.37
741.104	38950.77
741.444	38621.96
741.784	38655.86
742.124	38792.81
742.464	38625.58
742.804	38591.46
743.143	38490.22
743.483	38461.06
743.823	38268.53
744.162	38243.67
744.502	38328.87
744.841	38134.75
745.181	38191.24
745.52	38034.41
745.86	38096.33
746.199	37802.33
746.538	37927.52
746.877	37847.75
747.216	37784.02
747.556	37756.9
747.895	37690.46
748.234	37511.26
748.573	37543.35
748.911	37507.87
749.25	37470.36
749.589	37220.19
749.928	37309.46
750.267	37247.31
750.605	37088.22
750.944	36996.24
751.283	36949.92
751.621	36980.65
751.96	36688.23
752.298	36688
752.636	36728.23
752.975	36472.19
753.313	36282.59
753.651	36445.98
753.989	36319.43
754.327	36225.64
754.666	36083.05
755.004	36041.92
755.342	36043.95
755.679	35940.68
756.017	35782.04
756.355	35848.25
756.693	35668.6
757.031	35688.26
757.368	35428.38
757.706	35378.89
758.044	35314.93
758.381	35142.28
758.719	35192
759.056	35107.48
759.394	34902.06
759.731	34865.45
760.068	34714.04
760.405	34599.47
760.743	34440.38
761.08	34396.77
761.417	34213.95
761.754	34102.31
762.091	34139.82
762.428	33953.61
762.765	33911.58
763.102	34067.51
763.438	33769.21
763.775	33653.06
764.112	33595.2
764.449	33637.91
764.785	33348.43
765.122	33216.91
765.458	33143.24
765.795	33072.28
766.131	33079.74
766.467	32947.99
766.804	32759.75
767.14	32604.27
767.476	32626.87
767.812	32416.7
768.148	32323.15
768.485	32095.13
768.821	31992.08
769.157	31966.32
769.492	31849.49
769.828	31849.71
770.164	31599.78
770.5	31458.31
770.836	31458.31
771.171	31291.08
771.507	31160.92
771.842	30826.24
772.178	31019
772.513	30874.82
772.849	30823.07
773.184	30660.14
773.519	30503.99
773.855	30433.25
774.19	30357.1
774.525	30291.79
774.86	30186.71
775.195	30026.03
775.53	29975.86
775.865	29804.8
776.2	29698.13
776.535	29486.61
776.87	29430.12
777.205	29382.43
777.539	29141.54
777.874	29242.55
778.209	28984.7
778.543	28934.08
778.878	28801.66
779.212	28799.62
779.547	28534.09
779.881	28580.19
780.215	28436.92
780.55	28507.43
780.884	28271.73
781.218	28124.39
781.552	28187.66
781.886	27924.62
782.22	27850.95
782.554	27766.88
782.888	27528.92
783.222	27470.62
783.556	27321.7
783.889	27303.62
784.223	27034.02
784.557	27069.5
784.89	27125.54
785.224	26860.92
785.557	26717.19
785.891	26693.69
786.224	26653.24
786.558	26659.12
786.891	26335.73
787.224	26193.36
787.557	26154.72
787.891	26135.51
788.224	25999.25
788.557	26055.29
788.89	26005.12
789.223	25934.39
789.556	25677.67
789.888	25525.36
790.221	25449.2
790.554	25242.2
790.887	25350.9
791.219	25268.42
791.552	25147.97
791.884	25033.62
792.217	25122.66
792.549	24794.53
792.882	24693.07
793.214	24533.97
793.546	24683.12
793.879	24453.07
794.211	24363.36
794.543	24538.04
794.875	24293.3
795.207	24330.82
795.539	24088.34
795.871	24098.96
796.203	24005.63
796.535	23877.27
796.867	23781.9
797.198	23748.01
797.53	23749.81
797.862	23494.9
798.193	23542.59
798.525	23359.99
798.856	23428.47
799.188	23126.33
799.519	23080
799.85	23002.94
800.182	22939.44
800.513	23001.81
800.844	22815.15
801.175	22950.51
801.506	22816.96
801.837	22724.08
802.168	22632.1
802.499	22604.31
802.83	22473.69
803.161	22433.01
803.491	22318.89
803.822	22296.52
804.153	22223.98
804.483	22130.19
804.814	22076.86
805.145	21976.07
805.475	21893.14
805.805	21866.93
806.136	21926.81
806.466	21790.32
806.796	21748.51
807.126	21588.97
807.457	21576.76
807.787	21502.41
808.117	21461.51
808.447	21388.29
808.777	21397.56
809.107	21274.4
809.436	21154.63
809.766	21101.75
810.096	21192.82
810.426	20995.54
810.755	21038.47
811.085	20852.49
811.414	20900.17
811.744	20755.99
812.073	20724.13
812.403	20718.03
812.732	20579.73
813.061	20480.75
813.39	20539.28
813.719	20433.74
814.049	20541.08
814.378	20288.66
814.707	20294.99
815.036	20246.18
815.365	20160.53
815.693	19944.04
816.022	19987.43
816.351	19918.73
816.68	19879.86
817.008	19968.67
817.337	19638.74
817.665	19707.21
817.994	19728.45
818.322	19674.67
818.651	19702.24
818.979	19671.5
819.307	19627.21
819.636	19588.79
819.964	19452.75
820.292	19427.67
820.62	19473.77
820.948	19411.17
821.276	19476.48
821.604	19424.96
821.932	19440.55
822.259	19417.27
822.587	19346.31
822.915	19293.43
823.243	19430.83
823.57	19284.17
823.898	19317.16
824.225	19366.2
824.553	19118.52
824.88	19260.67
825.207	19344.05
825.535	19226.99
825.862	19384.96
826.189	19182.48
826.516	19243.49
826.843	19350.61
827.17	19269.71
827.497	19325.07
827.824	19288.46
828.151	19299.53
828.478	19153.55
828.805	19336.14
829.131	19231.29
829.458	19260.67
829.785	19104.29
830.111	19180.89
830.438	19225.41
830.764	19137.05
831.09	19144.74
831.417	19107.9
831.743	19172.31
832.069	19100.67
832.395	19059.99
832.722	19067.68
833.048	19036.94
833.374	19052.54
833.7	19053.89
834.026	19018.41
834.351	19033.33
834.677	18996.04
835.003	18959.43
835.329	19015.25
835.654	18874.01
835.98	18817.51
836.306	18864.74
836.631	18852.09
836.956	18867
837.282	18791.3
837.607	18761.24
837.932	18659.78
838.258	18687.12
838.583	18744.97
838.908	18513.57
839.233	18551.31
839.558	18511.31
839.883	18420.69
840.208	18439.44
840.533	18422.95
840.858	18502.49
841.182	18414.59
841.507	18395.83
841.832	18215.72
842.156	18312.67
842.481	18251.88
842.805	18123.97
843.13	18120.81
843.454	18076.97
843.778	18063.64
844.103	17998.55
844.427	17843.53
844.751	17973.92
845.075	17834.04
845.399	17775.28
845.723	17773.7
846.047	17801.04
846.371	17532.12
846.695	17544.55
847.019	17407.83
847.343	17500.94
847.666	17266.37
847.99	17181.62
848.313	17206.48
848.637	17032.48
848.96	17065.7
849.284	16973.49
849.607	16838.81
849.931	16874.74
850.254	16730.34
850.577	16645.14
850.9	16564.92
851.223	16512.49
851.546	16474.52
851.869	16310.46
852.192	16479.72
852.515	16260.52
852.838	16199.5
853.161	16271.37
853.483	16201.76
853.806	16027.3
854.129	15971.26
854.451	15897.14
854.774	15891.04
855.096	15820.98
855.419	15760.87
855.741	15773.98
856.063	15679.07
856.385	15628.45
856.708	15605.85
857.03	15497.83
857.352	15489.01
857.674	15429.58
857.996	15388.45
858.318	15222.81
858.64	15294.89
858.961	15269.36
859.283	15207.67
859.605	15096.03
859.926	15209.92
860.248	15179.42
860.57	15089.93
860.891	15047.44
861.212	14971.51
861.534	14859.43
861.855	14918.41
862.176	14942.81
862.498	14818.97
862.819	14874.79
863.14	14750.5
863.461	14744.63
863.782	14710.73
864.103	14721.12
864.424	14571.3
864.745	14729.71
865.065	14643.39
865.386	14571.52
865.707	14556.61
866.027	14497.63
866.348	14593.44
866.668	14516.38
866.989	14436.61
867.309	14281.14
867.63	14469.61
867.95	14370.62
868.27	14316.62
868.59	14367.69
868.91	14266.67
869.23	14225.09
869.55	14169.05
869.87	14282.04
870.19	14224.64
870.51	14252.66
870.83	14273.23
871.15	14046.34
871.469	14017.19
871.789	14110.07
872.109	14055.38
872.428	13964.31
872.748	14046.34
873.067	14087.24
873.386	13962.5
873.706	13993.01
874.025	13880.02
874.344	13796.4
874.663	13835.5
874.982	13812.22
875.301	13803.86
875.62	13753.24
875.939	13720.47
876.258	13726.57
876.577	13684.99
876.896	13644.99
877.214	13597.09
877.533	13650.42
877.852	13629.4
878.17	13628.95
878.489	13576.3
878.807	13582.17
879.125	13505.34
879.444	13519.35
879.762	13420.37
880.08	13481.61
880.398	13456.52
880.716	13367.94
881.034	13385.34
881.352	13331.1
881.67	13288.62
881.988	13332.69
882.306	13228.06
882.624	13233.25
882.941	13142.86
883.259	13211.11
883.577	13089.08
883.894	13034.84
884.212	13135.4
884.529	13091.56
884.846	12960.04
885.164	12978.57
885.481	12952.58
885.798	13020.6
886.115	12806.82
886.432	12897.44
886.75	12846.37
887.067	12788.29
887.383	12740.16
887.7	12773.15
888.017	12631.24
888.334	12687.96
888.651	12675.75
888.967	12631.46
889.284	12530.45
889.6	12527.51
889.917	12451.35
890.233	12508.08
890.55	12434.18
890.866	12464.46
891.182	12330
891.498	12375.65
891.815	12347.18
892.131	12214.98
892.447	12195.31
892.763	12140.4
893.079	12167.52
893.395	12054.98
893.71	12044.36
894.026	11929.33
894.342	12009.78
894.657	11876.45
894.973	11902.89
895.289	11898.37
895.604	11867.19
895.92	11833.29
896.235	11744.25
896.55	11636.91
896.865	11683.69
897.181	11605.5
897.496	11613.64
897.811	11593.97
898.126	11502.23
898.441	11443.24
898.756	11368.22
899.071	11373.64
899.386	11356.24
899.7	11265.62
900.015	11222.01
900.33	11196.92
900.644	11107.43
900.959	11118.06
901.273	11149.24
901.588	11072.18
901.902	10943.37
902.216	10904.5
902.531	10890.94
902.845	10897.04
903.159	10819.76
903.473	10819.08
903.787	10701.34
904.101	10645.3
904.415	10680.78
904.729	10559.2
905.042	10567.79
905.356	10516.49
905.67	10466.09
905.984	10474.23
906.297	10470.61
906.611	10330.28
906.924	10349.04
907.237	10320.56
907.551	10327.12
907.864	10272.88
908.177	10236.5
908.491	10198.31
908.804	10129.83
909.117	10098.19
909.43	9994.02
909.743	10049.83
910.056	9986.11
910.368	9961.02
910.681	9853.91
910.994	9812.78
911.307	9746.79
911.619	9675.16
911.932	9671.09
912.244	9693.23
912.557	9659.56
912.869	9579.56
913.181	9533.24
913.494	9467.25
913.806	9446.23
914.118	9381.6
914.43	9366.24
914.742	9327.59
915.054	9271.32
915.366	9257.77
915.678	9256.64
915.99	9170.08
916.302	9157.88
916.613	9052.57
916.925	9101.84
917.236	9012.35
917.548	8965.57
917.859	9012.57
918.171	8897.55
918.482	8952.91
918.794	8820.04
919.105	8814.61
919.416	8777.1
919.727	8687.61
920.038	8773.71
920.349	8659.14
920.66	8564.45
920.971	8590.89
921.282	8560.16
921.593	8483.32
921.903	8522.42
922.214	8403.55
922.525	8421.63
922.835	8427.5
923.146	8299.6
923.456	8309.77
923.767	8239.49
924.077	8302.31
924.387	8181.41
924.697	8181.86
925.008	8091.69
925.318	8136.89
925.628	8070.45
925.938	8010.11
926.248	7954.75
926.558	7877.46
926.867	7931.92
927.177	7884.24
927.487	7860.06
927.796	7732.61
928.106	7768.54
928.416	7737.58
928.725	7729.9
929.034	7653.06
929.344	7681.99
929.653	7625.72
929.962	7506.4
930.271	7539.62
930.581	7512.73
930.89	7453.97
931.199	7363.58
931.508	7384.14
931.817	7401.54
932.125	7354.76
932.434	7326.29
932.743	7244.03
933.051	7232.06
933.36	7189.12
933.669	7134.88
933.977	7147.09
934.286	7096.69
934.594	7051.27
934.902	6994.32
935.21	6990.25
935.519	6986.19
935.827	6899.63
936.135	6917.04
936.443	6839.52
936.751	6847.66
937.059	6846.53
937.367	6737.15
937.674	6770.6
937.982	6759.98
938.29	6724.72
938.597	6697.38
938.905	6626.65
939.213	6625.52
939.52	6539.87
939.827	6533.99
940.135	6504.17
940.442	6454
940.749	6460.1
941.056	6444.51
941.363	6402.25
941.67	6370.61
941.977	6349.59
942.284	6229.6
942.591	6223.95
942.898	6230.95
943.205	6221.23
943.511	6218.3
943.818	6157.28
944.125	6167.9
944.431	6121.35
944.738	6094.23
945.044	6027.79
945.35	6051.52
945.657	6041.13
945.963	5992.99
946.269	5958.64
946.575	5949.83
946.881	5953.22
947.187	5849.49
947.493	5861.02
947.799	5829.15
948.105	5793.68
948.41	5740.57
948.716	5763.62
949.022	5710.74
949.327	5710.51
949.633	5645.43
949.938	5640.91
950.244	5642.27
950.549	5561.14
950.854	5545.32
951.16	5543.29
951.465	5561.82
951.77	5499.22
952.075	5432.1
952.38	5427.58
952.685	5419.22
952.99	5373.35
953.294	5434.14
953.599	5349.17
953.904	5375.61
954.209	5272.56
954.513	5304.2
954.818	5296.06
955.122	5239.11
955.426	5177.42
955.731	5108.95
956.035	5127.03
956.339	5121.15
956.643	5113.92
956.948	5081.6
957.252	5073.69
957.556	5064.65
957.86	5030.98
958.163	5033.47
958.467	4951.44
958.771	4974.49
959.075	4971.78
959.378	4984.43
959.682	4918.9
959.985	4896.07
960.289	4885
960.592	4812.68
960.896	4805.68
961.199	4785.34
961.502	4788.28
961.805	4746.7
962.108	4702.63
962.411	4678
962.714	4660.82
963.017	4735.17
963.32	4666.25
963.623	4637.55
963.926	4630.99
964.228	4535.18
964.531	4528.4
964.833	4560.49
965.136	4491.56
965.438	4522.52
965.741	4435.52
966.043	4442.07
966.345	4382.41
966.648	4396.65
966.95	4415.41
967.252	4321.4
967.554	4384.67
967.856	4371.79
968.158	4306.93
968.46	4321.17
968.761	4259.03
969.063	4265.35
969.365	4200.72
969.666	4213.83
969.968	4188.52
970.269	4176.99
970.571	4162.98
970.872	4127.05
971.174	4098.8
971.475	4115.75
971.776	4087.51
972.077	4072.82
972.378	4054.06
972.679	4044.12
972.98	3989.2
973.281	3981.97
973.582	3967.96
973.883	3976.55
974.183	3928.41
974.484	3919.37
974.785	3907.85
975.085	3932.03
975.386	3873.73
975.686	3856.78
975.986	3862.88
976.287	3798.93
976.587	3805.25
976.887	3811.35
977.187	3758.02
977.487	3755.54
977.787	3737.46
978.087	3723.22
978.387	3758.47
978.687	3665.82
978.987	3669.44
979.286	3635.31
979.586	3648.42
979.885	3605.26
980.185	3592.6
980.484	3615.88
980.784	3546.5
981.083	3544.24
981.382	3543.57
981.682	3537.24
981.981	3514.19
982.28	3501.08
982.579	3455.88
982.878	3474.64
983.177	3453.17
983.475	3450.01
983.774	3432.61
984.073	3384.02
984.372	3339.05
984.67	3370.01
984.969	3352.16
985.267	3337.24
985.566	3321.65
985.864	3308.77
986.162	3274.87
986.461	3258.83
986.759	3239.62
987.057	3225.83
987.355	3220.86
987.653	3184.7
987.951	3201.88
988.249	3182.22
988.547	3175.89
988.844	3154.87
989.142	3153.07
989.44	3123.46
989.737	3071.26
990.035	3072.62
990.332	3080.75
990.63	3066.74
990.927	3065.16
991.224	3019.51
991.521	3034.88
991.819	3015.22
992.116	2982.68
992.413	2966.86
992.71	2952.85
993.006	2945.61
993.303	2931.6
993.6	2886.18
993.897	2863.81
994.193	2855.45
994.49	2836.69
994.787	2828.33
995.083	2811.61
995.379	2839.4
995.676	2810.7
995.972	2788.78
996.268	2730.93
996.565	2753.08
996.861	2759.18
997.157	2754.43
997.453	2727.09
997.749	2722.57
998.044	2724.38
998.34	2695
998.636	2648.9
998.932	2671.5
999.227	2648.67
999.523	2656.36
999.818	2569.58
1000.114	2632.63
1000.409	2588.11
1000.704	2585.62
1001	2568.45
1001.295	2529.58
1001.59	2544.72
1001.885	2498.17
1002.18	2487.32
1002.475	2513.31
1002.77	2495.46
1003.065	2439.64
1003.359	2433.31
1003.654	2438.06
1003.949	2423.37
1004.243	2414.1
1004.538	2353.77
1004.832	2379.75
1005.127	2356.7
1005.421	2332.3
1005.715	2335.69
1006.009	2323.48
1006.304	2313.09
1006.598	2268.34
1006.892	2259.98
1007.186	2234.45
1007.48	2262.69
1007.773	2260.21
1008.067	2210.94
1008.361	2179.76
1008.655	2198.29
1008.948	2178.86
1009.242	2171.85
1009.535	2162.13
1009.829	2158.74
1010.122	2126.65
1010.415	2104.05
1010.708	2090.27
1011.001	2079.87
1011.295	2080.33
1011.588	2059.76
1011.881	2047.33
1012.173	2040.55
1012.466	2007.11
1012.759	2005.75
1013.052	2010.05
1013.344	1992.19
1013.637	1981.12
1013.93	1981.35
1014.222	1975.47
1014.514	1979.76
1014.807	1928.92
1015.099	1916.94
1015.391	1897.05
1015.683	1891.86
1015.976	1874
1016.268	1889.6
1016.56	1832.88
1016.851	1831.75
1017.143	1863.38
1017.435	1855.25
1017.727	1829.49
1018.018	1808.24
1018.31	1805.31
1018.602	1789.94
1018.893	1789.26
1019.185	1742.03
1019.476	1761.24
1019.767	1739.32
1020.058	1720.11
1020.35	1697.06
1020.641	1706.33
1020.932	1653.45
1021.223	1662.03
1021.514	1658.64
1021.804	1640.34
1022.095	1630.85
1022.386	1643.5
1022.677	1617.06
1022.967	1617.51
1023.258	1596.72
1023.548	1584.29
1023.839	1578.64
1024.129	1576.61
1024.419	1572.54
1024.709	1551.98
1025	1516.73
1025.29	1515.6
1025.58	1503.39
1025.87	1474.24
1026.16	1463.85
1026.449	1481.92
1026.739	1468.59
1027.029	1462.26
1027.319	1465.65
1027.608	1422.72
1027.898	1429.95
1028.187	1417.52
1028.477	1404.41
1028.766	1406.9
1029.055	1391.98
1029.344	1382.49
1029.634	1381.14
1029.923	1374.36
1030.212	1352.44
1030.501	1334.58
1030.79	1311.31
1031.078	1332.1
1031.367	1318.76
1031.656	1309.95
1031.945	1297.97
1032.233	1306.79
1032.522	1284.42
1032.81	1254.13
1033.099	1276.73
1033.387	1265.88
1033.675	1275.6
1033.963	1244.64
1034.251	1213.91
1034.54	1209.84
1034.828	1211.2
1035.116	1200.12
1035.403	1200.35
1035.691	1182.27
1035.979	1210.52
1036.267	1160.35
1036.554	1189.05
1036.842	1121.48
1037.129	1158.32
1037.417	1160.35
1037.704	1133.23
1037.992	1132.78
1038.279	1113.12
1038.566	1127.13
1038.853	1127.13
1039.14	1127.13
