Data from white_wall_FLMS001491_076.txt Node
Date: Tue Feb 07 11:05:46 GMT 2017
User: dcchb
Spectrometer: FLMS00149
Trigger mode: 0
Integration Time (sec): 2.000000E-2
Scans to average: 10
Electric dark correction enabled: true
Nonlinearity correction enabled: false
Boxcar width: 0
XAxis mode: Wavelengths
Number of Pixels in Spectrum: 2048
>>>>>Begin Spectral Data<<<<<
341.393	-18.52
341.776	-18.52
342.16	-18.52
342.543	-54.45
342.927	-65.07
343.31	-65.29
343.693	-80.21
344.077	-66.88
344.46	-60.32
344.843	-52.64
345.226	-40.89
345.61	-16.03
345.993	-6.99
346.376	-13.32
346.759	13.57
347.142	23.97
347.525	29.39
347.908	58.32
348.291	59.45
348.674	108.94
349.057	108.94
349.44	127.69
349.823	137.86
350.206	188.26
350.588	201.59
350.971	200.69
351.354	225.09
351.737	258.99
352.119	272.78
352.502	259.67
352.884	307.58
353.267	309.38
353.65	306.9
354.032	313.45
354.414	332.43
354.797	336.05
355.179	316.84
355.562	337.63
355.944	353.9
356.326	339.67
356.709	348.03
357.091	338.31
357.473	348.25
357.855	337.41
358.238	355.49
358.62	357.07
359.002	371.08
359.384	359.1
359.766	359.33
360.148	354.58
360.53	344.86
360.912	356.16
361.294	353.9
361.676	352.77
362.057	339.89
362.439	381.25
362.821	364.52
363.203	334.02
363.584	336.73
363.966	342.6
364.348	354.36
364.729	348.93
365.111	333.79
365.493	329.05
365.874	352.77
366.256	322.72
366.637	326.11
367.019	333.11
367.4	353.9
367.781	333.79
368.163	328.82
368.544	330.85
368.925	357.07
369.306	348.25
369.688	327.69
370.069	348.48
370.45	355.49
370.831	339.44
371.212	339.67
371.593	327.46
371.974	343.96
372.355	308.71
372.736	335.6
373.117	348.71
373.498	339.44
373.879	360.91
374.26	353.45
374.641	329.95
375.021	346.22
375.402	350.29
375.783	360.91
376.163	363.62
376.544	359.33
376.925	365.88
377.305	360.68
377.686	336.05
378.066	370.85
378.447	366.78
378.827	351.87
379.208	348.71
379.588	354.81
379.968	378.08
380.349	345.09
380.729	364.75
381.109	378.54
381.489	372.89
381.87	369.95
382.25	384.41
382.63	386.9
383.01	387.57
383.39	385.54
383.77	372.66
384.15	393.68
384.53	386.44
384.91	400.68
385.29	391.64
385.67	401.36
386.049	407.69
386.429	397.97
386.809	381.47
387.189	399.33
387.568	394.35
387.948	424.86
388.328	411.53
388.707	410.17
389.087	429.16
389.466	427.8
389.846	428.03
390.225	414.47
390.605	443.62
390.984	454.92
391.363	439.1
391.743	451.08
392.122	452.88
392.501	464.63
392.881	487.91
393.26	462.15
393.639	491.75
394.018	482.04
394.397	494.01
394.776	505.99
395.155	513.22
395.534	532.43
395.913	505.09
396.292	497.85
396.671	569.26
397.05	537.63
397.429	563.16
397.808	540.34
398.186	571.3
398.565	562.26
398.944	581.47
399.323	597.51
399.701	600.22
400.08	613.78
400.458	626.44
400.837	651.75
401.215	637.74
401.594	657.17
401.972	681.8
402.351	643.39
402.729	663.95
403.107	701.01
403.486	712.54
403.864	729.26
404.242	720.22
404.62	744.63
404.999	740.79
405.377	749.6
405.755	769.26
406.133	798.41
406.511	807.22
406.889	804.29
407.267	831.4
407.645	843.16
408.023	856.26
408.401	907.11
408.779	879.31
409.156	905.53
409.534	916.37
409.912	940.33
410.29	959.08
410.667	975.36
411.045	975.58
411.422	974.9
411.8	992.3
412.178	1023.72
412.555	1044.96
412.933	1065.07
413.31	1084.73
413.687	1075.01
414.065	1098.29
414.442	1134.45
414.819	1132.19
415.197	1122.7
415.574	1159.08
415.951	1172.41
416.328	1181.23
416.705	1178.29
417.082	1225.07
417.46	1227.33
417.837	1252.86
418.214	1280.21
418.591	1251.96
418.967	1258.29
419.344	1311.39
419.721	1321.79
420.098	1329.7
420.475	1381.22
420.852	1351.62
421.228	1372.86
421.605	1381.9
421.982	1405.17
422.358	1425.51
422.735	1424.84
423.111	1433.2
423.488	1491.27
423.864	1481.56
424.241	1473.65
424.617	1497.83
424.994	1537.15
425.37	1554.32
425.746	1549.58
426.123	1575.79
426.499	1571.27
426.875	1603.14
427.251	1641.33
427.627	1648.56
428.003	1657.82
428.379	1720.87
428.756	1709.8
429.132	1735.34
429.507	1792.06
429.883	1791.61
430.259	1841.32
430.635	1830.02
431.011	1870.47
431.387	1900.3
431.763	1905.5
432.138	1939.4
432.514	1958.83
432.89	1997.7
433.265	2004.71
433.641	2033.86
434.016	2064.14
434.392	2085.38
434.767	2119.28
435.143	2130.58
435.518	2155.66
435.894	2174.19
436.269	2245.15
436.644	2251.48
437.02	2290.12
437.395	2298.71
437.77	2324.92
438.145	2319.73
438.52	2366.96
438.895	2398.37
439.271	2390.91
439.646	2454.64
440.021	2459.84
440.395	2500.74
440.77	2468.65
441.145	2486.05
441.52	2566.27
441.895	2602.66
442.27	2585.93
442.645	2568.99
443.019	2646.95
443.394	2632.49
443.769	2684.24
444.143	2667.51
444.518	2720.85
444.892	2660.51
445.267	2759.72
445.641	2752.94
446.016	2752.03
446.39	2803.1
446.764	2847.62
447.139	2831.13
447.513	2898.47
447.887	2870.22
448.262	2886.04
448.636	2903.67
449.01	2985.47
449.384	3014.85
449.758	3039.71
450.132	3019.14
450.506	3062.31
450.88	3130.1
451.254	3101.18
451.628	3138.24
452.002	3172.13
452.376	3192.7
452.75	3281.28
453.123	3271.34
453.497	3340.72
453.871	3382.3
454.244	3418.23
454.618	3430.21
454.992	3501.39
455.365	3504.33
455.739	3639.01
456.112	3642.18
456.486	3660.48
456.859	3709.3
457.232	3775.96
457.606	3725.34
457.979	3797.2
458.352	3906.8
458.725	3931.89
459.099	4014.15
459.472	4051.43
459.845	4075.16
460.218	4161.03
460.591	4147.25
460.964	4203.29
461.337	4269.28
461.71	4375.04
462.083	4407.13
462.456	4412.33
462.829	4451.2
463.201	4535.04
463.574	4620.01
463.947	4643.28
464.32	4743.84
464.692	4770.96
465.065	4799.89
465.438	4877.85
465.81	4904.29
466.183	5013.22
466.555	5085.98
466.928	5173.89
467.3	5154.45
467.672	5228.13
468.045	5352.87
468.417	5406.65
468.789	5478.06
469.161	5483.71
469.534	5592.18
469.906	5695.91
470.278	5782.23
470.65	5877.37
471.022	6004.38
471.394	6045.73
471.766	6179.74
472.138	6173.19
472.51	6359.39
472.882	6457.02
473.253	6518.26
473.625	6573.4
473.997	6745.37
474.369	6814.07
474.74	6881.19
475.112	7028.08
475.484	7166.38
475.855	7251.8
476.227	7342.87
476.598	7595.07
476.97	7621.28
477.341	7799.13
477.713	7933.82
478.084	8025.34
478.455	8219.46
478.827	8314.6
479.198	8547.13
479.569	8490.86
479.94	8789.16
480.311	8883.4
480.682	9066.67
481.053	9201.13
481.424	9482.7
481.795	9561.8
482.166	9616.26
482.537	9813.54
482.908	10030.71
483.279	10140.31
483.65	10432.28
484.021	10577.59
484.391	10585.95
484.762	10745.49
485.133	10871.14
485.503	11085.82
485.874	11292.82
486.244	11363.11
486.615	11622.08
486.985	11685.13
487.356	12046.25
487.726	12140.71
488.097	12336.19
488.467	12348.84
488.837	12664.31
489.207	12826.8
489.578	12975.72
489.948	13096.62
490.318	13319.44
490.688	13412.77
491.058	13588.36
491.428	13808.92
491.798	13947.44
492.168	14253.42
492.538	14242.58
492.908	14446.41
493.278	14693.87
493.648	14735.22
494.017	14972.5
494.387	15037.36
494.757	15215.89
495.126	15279.84
495.496	15396.22
495.866	15595.54
496.235	15730.22
496.605	15888.86
496.974	16035.75
497.344	16134.28
497.713	16262.41
498.082	16439.81
498.452	16637.99
498.821	16710.31
499.19	16758.22
499.559	17031.66
499.928	17123.41
500.298	17250.18
500.667	17379.44
501.036	17320.46
501.405	17585.09
501.774	17618.31
502.143	17800
502.512	17893.1
502.88	18125.19
503.249	18094.68
503.618	18377.61
503.987	18447.21
504.356	18529.24
504.724	18657.83
505.093	18810.59
505.462	18877.48
505.83	18944.6
506.199	19250.36
506.567	19460.29
506.936	19375.1
507.304	19604.47
507.672	19826.61
508.041	19945.93
508.409	20151.35
508.777	20253.04
509.145	20393.83
509.514	20380.27
509.882	20596.99
510.25	20720.6
510.618	20862.29
510.986	21057.99
511.354	21151.32
511.722	21410.3
512.09	21660.46
512.458	21583.63
512.826	21772.77
513.193	21860.91
513.561	22027.91
513.929	22237.17
514.297	22426.77
514.664	22612.75
515.032	22815.23
515.4	22987.43
515.767	22990.14
516.135	23243.92
516.502	23177.94
516.869	23607.08
517.237	23689.56
517.604	23668.54
517.972	24001.42
518.339	24258.13
518.706	24212.26
519.073	24345.81
519.44	24568.63
519.808	24900.15
520.175	24830.77
520.542	25230.54
520.909	25408.84
521.276	25351.66
521.643	25751.88
522.009	25932.44
522.376	26053.79
522.743	26194.35
523.11	26466.44
523.477	26599.99
523.843	26820.78
524.21	27078.17
524.577	27313.65
524.943	27383.02
525.31	27680.42
525.676	27819.85
526.043	27992.5
526.409	28084.02
526.776	28573.05
527.142	28498.47
527.508	28804.91
527.874	28873.61
528.241	29132.58
528.607	29186.14
528.973	29559.91
529.339	29496.19
529.705	29887.59
530.071	30095.95
530.437	30082.84
530.803	30324.41
531.169	30534.35
531.535	30501.81
531.901	30566.22
532.267	30820.9
532.632	31045.75
532.998	31208.91
533.364	31551.73
533.73	31488.23
534.095	31650.71
534.461	31796.01
534.826	31929.57
535.192	32122.11
535.557	32241.2
535.923	32275.1
536.288	32426.96
536.653	32705.59
537.019	32664.47
537.384	32833.5
537.749	33042.99
538.114	33101.29
538.479	33173.15
538.845	33360.04
539.21	33301.51
539.575	33537.89
539.94	33565.01
540.305	33915.73
540.67	33844.1
541.034	33971.78
541.399	34255.61
541.764	34269.62
542.129	34520.69
542.494	34596.62
542.858	34513.91
543.223	34767.24
543.587	35069.6
543.952	35031.86
544.316	35093.33
544.681	35171.07
545.045	35468.91
545.41	35537.61
545.774	35615.35
546.138	35744.61
546.503	35814.21
546.867	35924.04
547.231	36214.43
547.595	36236.12
547.959	36443.8
548.324	36558.37
548.688	36655.77
549.052	36843.11
549.416	36931.7
549.779	36987.97
550.143	37271.8
550.507	37564.68
550.871	37674.5
551.235	37645.13
551.599	37894.61
551.962	37892.13
552.326	38128.28
552.689	38425.22
553.053	38239.69
553.417	38551.54
553.78	38843.96
554.143	39003.06
554.507	39108.36
554.87	39257.06
555.234	39674.45
555.597	39463.38
555.96	39644.4
556.323	39910.15
556.686	39945.18
557.05	40279.63
557.413	40414.09
557.776	40396.92
558.139	40696.8
558.502	40731.6
558.865	40991.7
559.228	41346.5
559.59	41455.42
559.953	41578.58
560.316	41870.78
560.679	42019.93
561.041	42206.59
561.404	42453.59
561.767	42724.77
562.129	42629.63
562.492	43053.57
562.854	43045.89
563.217	43096.28
563.579	43149.16
563.941	43524.52
564.304	43696.49
564.666	44007.22
565.028	44026.88
565.39	44193.88
565.753	44389.81
566.115	44538.73
566.477	44615.79
566.839	44807.2
567.201	44934.88
567.563	45045.61
567.925	45321.31
568.287	45444.02
568.648	45476.11
569.01	45706.38
569.372	45889.43
569.734	45932.37
570.095	46268.4
570.457	46303.43
570.819	46365.8
571.18	46431.34
571.542	46685.79
571.903	46718.11
572.265	46866.35
572.626	47026.57
572.987	47046.46
573.349	47175.27
573.71	47470.4
574.071	47561.7
574.432	47524.19
574.794	47859.09
575.155	47776.84
575.516	47645.54
575.877	47919.21
576.238	48053.44
576.599	48151.97
576.96	48287.33
577.32	48215.7
577.681	48397.84
578.042	48359.42
578.403	48488.91
578.763	48524.16
579.124	48421.79
579.485	48563.93
579.845	48737.26
580.206	48656.36
580.566	48670.15
580.927	48718.28
581.287	48951.5
581.648	48788.11
582.008	48956.69
582.368	48883.47
582.728	48944.49
583.089	48903.81
583.449	48939.29
583.809	48952.17
584.169	48978.39
584.529	49025.62
584.889	49147.2
585.249	49099.97
585.609	49031.72
585.969	49276.01
586.329	49026.52
586.688	49180.64
587.048	49069.23
587.408	49097.71
587.768	49101.55
588.127	49110.81
588.487	49098.61
588.846	49310.13
589.206	49085.96
589.565	49149.23
589.925	49300.86
590.284	49238.49
590.643	49144.71
591.003	49380.64
591.362	49462.67
591.721	49326.4
592.08	49168.21
592.44	49380.64
592.799	49406.62
593.158	49199.4
593.517	49331.15
593.876	49381.99
594.235	49296.8
594.593	49307.64
594.952	49411.14
595.311	49276.91
595.67	49475.55
596.029	49669.89
596.387	49594.87
596.746	49588.77
597.104	49500.41
597.463	49518.03
597.822	49703.57
598.18	49529.56
598.538	49606.62
598.897	49784.92
599.255	49386.06
599.613	50065.82
599.972	49781.53
600.33	49804.81
600.688	49536.79
601.046	49829.89
601.404	49922.77
601.762	49768.65
602.12	50042.54
602.478	49907.63
602.836	50025.37
603.194	49909.44
603.552	49832.83
603.91	49878.48
604.268	50066.95
604.625	49876.22
604.983	50198.24
605.341	49939.72
605.698	50125.48
606.056	50212.48
606.413	50120.96
606.771	50356.88
607.128	50425.35
607.485	50267.84
607.843	50278.01
608.2	50402.3
608.557	50526.14
608.914	50292.7
609.272	50605.01
609.629	50592.36
609.986	50771.56
610.343	50583.99
610.7	50895.63
611.057	50784.22
611.414	50784.67
611.771	50789.41
612.127	50954.61
612.484	50912.35
612.841	51063.98
613.198	50886.81
613.554	50863.76
613.911	51106.01
614.267	51136.07
614.624	51033.93
614.98	51139.69
615.337	51245.45
615.693	51211.32
616.05	51128.84
616.406	51359.12
616.762	51171.55
617.118	51239.34
617.475	51361.38
617.831	51363.64
618.187	51430.98
618.543	51494.48
618.899	51631.88
619.255	51602.95
619.611	51575.83
619.967	51516.17
620.323	51609.05
620.678	51528.15
621.034	51521.15
621.39	51590.07
621.746	51584.42
622.101	51862.61
622.457	51569.28
622.812	51667.36
623.168	51734.47
623.523	51698.99
623.879	51780.57
624.234	51547.59
624.589	51702.84
624.945	51683.63
625.3	51777.41
625.655	51729.95
626.01	51734.47
626.365	51733.34
626.72	51701.25
627.075	51659.22
627.43	51661.25
627.785	51625.1
628.14	51715.72
628.495	51648.83
628.85	51748.94
629.205	51549.17
629.559	51751.87
629.914	51616.28
630.269	51536.51
630.623	51404.76
630.978	51397.98
631.332	51527.92
631.687	51651.54
632.041	51479.79
632.396	51535.38
632.75	51430.53
633.104	51549.85
633.459	51227.82
633.813	51206.8
634.167	51291.32
634.521	51280.47
634.875	51218.1
635.229	51211.32
635.583	51050.42
635.937	51075.96
636.291	51034.15
636.645	50986.47
636.999	50864.21
637.352	51103.08
637.706	50896.75
638.06	50962.97
638.413	50854.5
638.767	50764.1
639.121	50836.42
639.474	50681.39
639.828	50728.4
640.181	50740.83
640.534	50659.7
640.888	50585.58
641.241	50481.4
641.594	50484.34
641.947	50622.19
642.301	50502.19
642.654	50395.3
643.007	50428.29
643.36	50349.2
643.713	50288.41
644.066	50421.51
644.419	50257.22
644.771	50100.84
645.124	49603.23
645.477	49578.82
645.83	49466.74
646.182	49239.17
646.535	49142.22
646.888	49209.34
647.24	48810.71
647.593	49229.68
647.945	49115.56
648.298	48915.11
648.65	48881.21
649.002	48768.22
649.355	48958.5
649.707	48844.61
650.059	48915.11
650.411	49381.54
650.763	49356.23
651.115	49840.96
651.467	49643.91
651.819	49683
652.171	49469.9
652.523	49435.78
652.875	49366.4
653.227	49324.14
653.578	49646.39
653.93	49502.89
654.282	49327.76
654.633	49257.48
654.985	49185.39
655.337	49165.28
655.688	49234.43
656.039	49258.15
656.391	48978.39
656.742	49066.75
657.094	49078.27
657.445	49074.2
657.796	49077.82
658.147	48968.44
658.498	48877.6
658.849	49103.81
659.2	48884.6
659.551	48796.25
659.902	48974.77
660.253	48858.39
660.604	48987.2
660.955	48682.58
661.306	48863.14
661.656	48701.33
662.007	48837.37
662.358	48823.59
662.708	48685.29
663.059	48621.11
663.409	48525.97
663.76	48677.38
664.11	48683.93
664.461	48686.42
664.811	48736.13
665.161	48656.14
665.511	48448.91
665.862	48543.6
666.212	48665.18
666.562	48735.46
666.912	48475.12
667.262	48550.83
667.612	48519.87
667.962	48553.54
668.312	48434.9
668.662	48585.4
669.011	48449.36
669.361	48366.2
669.711	48405.97
670.06	48306.54
670.41	48215.24
670.76	48380.66
671.109	48247.33
671.459	48309.7
671.808	48208.69
672.157	48361
672.507	47982.26
672.856	48015.93
673.205	48111.74
673.554	48172.08
673.904	47945.65
674.253	48191.52
674.602	47980.67
674.951	47339.11
675.3	47257.3
675.649	47903.84
675.998	47838.3
676.346	47799.66
676.695	47961.69
677.044	47555.15
677.393	47737.29
677.741	47676.73
678.09	47566.45
678.438	47501.82
678.787	47655.03
679.135	47627.01
679.484	47343.4
679.832	47419.33
680.181	47194.25
680.529	47432.44
680.877	47382.72
681.225	47136.18
681.573	47433.8
681.922	47074.48
682.27	46968.72
682.618	47054.82
682.966	46756.07
683.314	46923.75
683.661	46746.36
684.009	46588.39
684.357	46526.93
684.705	46487.83
685.053	46413.03
685.4	46415.97
685.748	46072.25
686.095	46085.36
686.443	45967.39
686.79	45891.46
687.138	45964.91
687.485	45944.57
687.832	45873.61
688.18	45844.46
688.527	45579.15
688.874	45658.47
689.221	45508.2
689.568	45318.37
689.915	45310.01
690.262	45225.94
690.609	45103.91
690.956	44996.35
691.303	45023.46
691.65	44675.68
691.997	44786.41
692.344	44592.51
692.69	44475
693.037	44601.33
693.383	44181.45
693.73	44355.68
694.077	44109.14
694.423	44059.65
694.769	43860.1
695.116	43915.24
695.462	43789.15
695.808	43682.03
696.155	43725.42
696.501	43293.57
696.847	43420.12
697.193	43140.35
697.539	43262.38
697.885	42943.07
698.231	42728.83
698.577	42673.92
698.923	42774.26
699.269	42515.96
699.614	42403.42
699.96	42291.33
700.306	42382.4
700.651	41931.57
700.997	41891.79
701.342	41785.81
701.688	41769.09
702.033	41845.69
702.379	41665.81
702.724	41628.07
703.069	41620.61
703.415	41213.62
703.76	41288.19
704.105	41268.53
704.45	41099.5
704.795	40840.07
705.14	40861.54
705.485	40760.52
705.83	40633.97
706.175	40681.2
706.52	40382.23
706.865	40359.4
707.209	40257.03
707.554	40097.49
707.899	40339.29
708.243	40116.7
708.588	39991.5
708.932	39775.92
709.277	39765.75
709.621	39868.57
709.966	39464.29
710.31	39666.54
710.654	39342.93
710.998	39424.97
711.342	39464.51
711.687	39341.58
712.031	39136.16
712.375	38992.89
712.719	39087.35
713.063	38885.09
713.407	39149.95
713.75	38703.4
714.094	38777.53
714.438	38706.79
714.782	38621.82
715.125	38502.73
715.469	38489.85
715.812	38250.76
716.156	38085.34
716.499	38095.74
716.843	38126.47
717.186	37918.79
717.53	38139.58
717.873	38173.93
718.216	37894.38
718.559	37863.2
718.902	37441.97
719.246	37658.91
719.589	37512.47
719.932	37352.7
720.275	37411.46
720.617	37201.75
720.96	37312.48
721.303	37328.75
721.646	37115.2
721.989	36942.32
722.331	37055.31
722.674	36892.83
723.016	36997.69
723.359	36889.67
723.701	36928.31
724.044	36652.38
724.386	36586.4
724.729	36761.99
725.071	36705.26
725.413	36487.87
725.755	36584.14
726.097	36344.37
726.439	36154.54
726.782	36223.47
727.124	36281.77
727.465	36061.89
727.807	36070.93
728.149	35934.44
728.491	35997.94
728.833	36087.88
729.175	35837.26
729.516	35885.85
729.858	35772.41
730.199	35834.78
730.541	35646.99
730.882	35633.43
731.224	35750.49
731.565	35415.81
731.906	35432.98
732.248	35478.18
732.589	35318.18
732.93	35309.59
733.271	35128.13
733.612	35149.37
733.953	35245.19
734.294	35085.42
734.635	34934.69
734.976	34937.17
735.317	34786.44
735.658	34718.2
735.999	34793.22
736.339	34776.05
736.68	34796.61
737.021	34775.82
737.361	34427.81
737.702	34677.07
738.042	34707.8
738.383	34482.27
738.723	34552.33
739.063	34422.16
739.404	34387.36
739.744	34219.68
740.084	34242.05
740.424	34156.63
740.764	34203.86
741.104	34153.69
741.444	33936.75
741.784	34028.05
742.124	33983.98
742.464	34007.26
742.804	33803.42
743.143	33795.06
743.483	33831.44
743.823	33705.12
744.162	33566.59
744.502	33705.79
744.841	33511.45
745.181	33601.39
745.52	33543.09
745.86	33505.12
746.199	33521.17
746.538	33251.8
746.877	33386.93
747.216	33223.77
747.556	33073.49
747.895	33103.32
748.234	32998.24
748.573	32941.07
748.911	32857.46
749.25	32957.57
749.589	32728.65
749.928	32762.77
750.267	32784.46
750.605	32744.69
750.944	32548.08
751.283	32550.57
751.621	32577.24
751.96	32365.04
752.298	32303.8
752.636	32363.68
752.975	32180.64
753.313	32023.35
753.651	32070.58
753.989	31975.22
754.327	32054.31
754.666	31859.74
755.004	31864.49
755.342	31671.05
755.679	31662.68
756.017	31560.09
756.355	31499.52
756.693	31383.82
757.031	31507.21
757.368	31325.29
757.706	31321
758.044	31076.26
758.381	31185.86
758.719	31075.36
759.056	31022.02
759.394	30899.31
759.731	30673.33
760.068	30755.36
760.405	30675.14
760.743	30475.15
761.08	30459.33
761.417	30216.17
761.754	30307.01
762.091	30193.12
762.428	30062.27
762.765	29969.17
763.102	29919.45
763.438	29693.24
763.775	29599.69
764.112	29676.3
764.449	29732.34
764.785	29438.34
765.122	29286.7
765.458	29279.24
765.795	29256.19
766.131	29208.29
766.467	28997.9
766.804	29069.31
767.14	28662.76
767.476	28711.8
767.812	28737.11
768.148	28599.04
768.485	28482.66
768.821	28397.01
769.157	28329.44
769.492	28257.12
769.828	28236.56
770.164	27972.16
770.5	27854.2
770.836	27798.15
771.171	27609.23
771.507	27697.14
771.842	27362.91
772.178	27450.82
772.513	27233.87
772.849	27245.85
773.184	27207.21
773.519	27169.47
773.855	26962.92
774.19	26759.99
774.525	26731.74
774.86	26703.72
775.195	26692.87
775.53	26586.66
775.865	26355.71
776.2	26175.6
776.535	26102.38
776.87	26179.89
777.205	26027.58
777.539	25817.64
777.874	25922.95
778.209	25708.49
778.543	25671.88
778.878	25545.56
779.212	25490.64
779.547	25301.95
779.881	25426.46
780.215	25134.49
780.55	25215.4
780.884	24996.42
781.218	24957.78
781.552	25020.37
781.886	24862.64
782.22	24609.99
782.554	24601.85
782.888	24428.07
783.222	24263.1
783.556	24257.91
783.889	24139.04
784.223	23897.46
784.557	23917.58
784.89	23972.94
785.224	23804.59
785.557	23778.6
785.891	23704.7
786.224	23588.77
786.558	23528.21
786.891	23416.8
787.224	23302
787.557	23216.35
787.891	23183.59
788.224	23190.36
788.557	23030.6
788.89	22983.36
789.223	22988.56
789.556	22787.21
789.888	22797.83
790.221	22645.29
790.554	22483.49
790.887	22585.41
791.219	22397.17
791.552	22346.32
791.884	22174.12
792.217	22078.53
792.549	21989.04
792.882	21872.43
793.214	21872.89
793.546	21884.18
793.879	21705.88
794.211	21526
794.543	21662.27
794.875	21546.34
795.207	21551.76
795.539	21392.67
795.871	21471.77
796.203	21299.12
796.535	21147.48
796.867	21155.62
797.198	21062.96
797.53	21049.86
797.862	20862.52
798.193	20918.11
798.525	20787.49
798.856	20809.86
799.188	20585.01
799.519	20610.77
799.85	20424.34
800.182	20545.01
800.513	20461.62
800.844	20238.35
801.175	20295.07
801.506	20352.93
801.837	20167.39
802.168	20074.29
802.499	20027.74
802.83	19960.17
803.161	19843.33
803.491	19842.88
803.822	19828.65
804.153	19838.14
804.483	19527.64
804.814	19484.02
805.145	19574.64
805.475	19489.22
805.805	19422.33
806.136	19397.92
806.466	19314.53
806.796	19387.3
807.126	19127.87
807.457	19196.35
807.787	19143.24
808.117	18995.22
808.447	18876.58
808.777	18915.67
809.107	18853.08
809.436	18832.97
809.766	18865.05
810.096	18748
810.426	18642.91
810.755	18653.31
811.085	18694.89
811.414	18563.59
811.744	18512.97
812.073	18395.46
812.403	18333.77
812.732	18214
813.061	18317.27
813.39	18114.11
813.719	18056.04
814.049	18169.93
814.378	18131.51
814.707	18005.87
815.036	18022.37
815.365	17957.06
815.693	17748.7
816.022	17813.33
816.351	17802.03
816.68	17671.87
817.008	17623.73
817.337	17509.16
817.665	17477.52
817.994	17601.81
818.322	17500.12
818.651	17380.8
818.979	17410.63
819.307	17441.36
819.636	17395.26
819.964	17285.44
820.292	17314.14
820.62	17319.11
820.948	17196.85
821.276	17216.96
821.604	17233.01
821.932	17248.15
822.259	17263.29
822.587	17202.95
822.915	17121.6
823.243	17242.95
823.57	17151.88
823.898	17254.48
824.225	17098.32
824.553	17056.51
824.88	17089.96
825.207	17176.51
825.535	16990.53
825.862	17139.22
826.189	17103.52
826.516	17127.02
826.843	17162.27
827.17	17139.22
827.497	17185.55
827.824	17130.41
828.151	17186.68
828.478	17156.85
828.805	17153.91
829.131	17172.9
829.458	17102.84
829.785	16968.61
830.111	17025.33
830.438	17127.02
830.764	17035.27
831.09	17028.94
831.417	16976.06
831.743	17104.42
832.069	17073.69
832.395	16908.72
832.722	17029.4
833.048	16960.7
833.374	17017.42
833.7	16826.92
834.026	16916.41
834.351	16859.46
834.677	16816.3
835.003	16922.96
835.329	17010.87
835.654	16871.89
835.98	16789.86
836.306	16776.52
836.631	16709.63
836.956	16809.74
837.282	16747.6
837.607	16644.1
837.932	16637.32
838.258	16621.72
838.583	16552.12
838.908	16527.26
839.233	16552.57
839.558	16485.23
839.883	16424.67
840.208	16421.5
840.533	16446.59
840.858	16351
841.182	16384.89
841.507	16356.19
841.832	16193.94
842.156	16198.46
842.481	16201.85
842.805	16181.96
843.13	16167.27
843.454	16185.35
843.778	16068.97
844.103	16002.08
844.427	15960.05
844.751	15923.89
845.075	15913.72
845.399	15854.06
845.723	15765.02
846.047	15871.69
846.371	15640.51
846.695	15665.82
847.019	15523.9
847.343	15513.5
847.666	15431.92
847.99	15353.96
848.313	15296.56
848.637	15160.07
848.96	15132.27
849.284	15214.98
849.607	15012.05
849.931	15067.64
850.254	14916.46
850.577	14902.67
850.9	14768.21
851.223	14726.86
851.546	14588.11
851.869	14558.5
852.192	14682.57
852.515	14497.26
852.838	14466.53
853.161	14475.79
853.483	14388.34
853.806	14288
854.129	14180.88
854.451	14235.35
854.774	14175.91
855.096	14161.22
855.419	14138.63
855.741	14094.56
856.063	14037.61
856.385	13955.81
856.708	13876.26
857.03	13813.21
857.352	13871.29
857.674	13744.96
857.996	13705.42
858.318	13734.79
858.64	13708.81
858.961	13621.58
859.283	13513.11
859.605	13491.41
859.926	13533.67
860.248	13514.24
860.57	13452.99
860.891	13418.64
861.212	13296.39
861.534	13264.75
861.855	13322.38
862.176	13269.72
862.498	13312.88
862.819	13296.61
863.14	13128.71
863.461	13128.71
863.782	13068.82
864.103	13075.83
864.424	13039.9
864.745	13094.36
865.065	12979.56
865.386	12930.97
865.707	12912.89
866.027	12940.69
866.348	12931.65
866.668	12956.74
866.989	12806.01
867.309	12768.49
867.63	12779.57
867.95	12834.93
868.27	12638.1
868.59	12734.59
868.91	12772.33
869.23	12753.35
869.55	12585.9
869.87	12693.69
870.19	12637.65
870.51	12688.49
870.83	12772.79
871.15	12610.08
871.469	12552.9
871.789	12591.77
872.109	12467.71
872.428	12418.9
872.748	12502.28
873.067	12447.37
873.386	12471.1
873.706	12505.67
874.025	12369.63
874.344	12365.11
874.663	12376.86
874.982	12350.2
875.301	12352.68
875.62	12279.47
875.939	12208.96
876.258	12258.45
876.577	12195.63
876.896	12217.77
877.214	12186.13
877.533	12136.87
877.852	12117.44
878.17	12077.21
878.489	12110.66
878.807	12172.35
879.125	12163.54
879.444	12067.49
879.762	12028.85
880.08	12083.09
880.398	11992.92
880.716	11976.65
881.034	11939.81
881.352	11980.26
881.67	11853.04
881.988	11862.98
882.306	11822.98
882.624	11785.01
882.941	11803.09
883.259	11697.79
883.577	11715.86
883.894	11689.65
884.212	11624.79
884.529	11669.54
884.846	11586.83
885.164	11502.31
885.481	11528.52
885.798	11531.01
886.115	11410.11
886.432	11482.2
886.75	11398.58
887.067	11428.64
887.383	11348.19
887.7	11388.64
888.017	11317.46
888.334	11305.25
888.651	11264.8
888.967	11265.48
889.284	11222.54
889.6	11208.31
889.917	11095.77
890.233	11119.5
890.55	11008.76
890.866	11106.39
891.182	10985.94
891.498	10981.87
891.815	10924.02
892.131	10832.05
892.447	10850.12
892.763	10853.97
893.079	10827.98
893.395	10778.94
893.71	10794.98
894.026	10726.29
894.342	10691.26
894.657	10659.39
894.973	10610.13
895.289	10603.35
895.604	10569.91
895.92	10494.88
896.235	10422.11
896.55	10434.77
896.865	10485.16
897.181	10380.98
897.496	10364.04
897.811	10359.06
898.126	10352.74
898.441	10276.35
898.756	10270.93
899.071	10143.48
899.386	10144.83
899.7	10028.9
900.015	10026.19
900.33	9997.04
900.644	9969.92
900.959	9966.08
901.273	9940.32
901.588	9875.69
901.902	9760.44
902.216	9746.2
902.531	9808.34
902.845	9742.36
903.159	9667.33
903.473	9649.7
903.787	9638.63
904.101	9533.1
904.415	9555.47
904.729	9440.9
905.042	9471.86
905.356	9421.91
905.67	9442.7
905.984	9413.33
906.297	9335.14
906.611	9321.8
906.924	9294.23
907.237	9265.53
907.551	9219.66
907.864	9102.83
908.177	9176.27
908.491	9028.93
908.804	9104.63
909.117	9024.41
909.43	8995.26
909.743	8892.66
910.056	8880.68
910.368	8837.97
910.681	8845.88
910.994	8805.43
911.307	8805.21
911.619	8708.03
911.932	8791.65
912.244	8640.69
912.557	8632.78
912.869	8613.12
913.181	8506.68
913.494	8533.12
913.806	8455.39
914.118	8437.53
914.43	8362.51
914.742	8352.34
915.054	8385.33
915.366	8273.02
915.678	8213.81
915.99	8189.4
916.302	8157.99
916.613	8138.33
916.925	8181.72
917.236	8134.72
917.548	8040.03
917.859	8092
918.171	8029.18
918.482	7969.75
918.794	7853.37
919.105	7892.46
919.416	7795.97
919.727	7839.13
920.038	7776.98
920.349	7741.28
920.66	7756.87
920.971	7652.92
921.282	7632.81
921.593	7610.44
921.903	7533.83
922.214	7582.41
922.525	7452.93
922.835	7533.83
923.146	7458.35
923.456	7426.49
923.767	7432.36
924.077	7371.12
924.387	7342.65
924.697	7312.82
925.008	7281.18
925.318	7308.75
925.628	7205.02
925.938	7177.23
926.248	7153.27
926.558	7120.28
926.867	7097.23
927.177	7086.16
927.487	7041.41
927.796	6954.86
928.106	6981.3
928.416	6948.76
928.725	6972.03
929.034	6794.41
929.344	6889.32
929.653	6890.91
929.962	6838.25
930.271	6794.41
930.581	6703.57
930.89	6720.97
931.199	6765.94
931.508	6633.06
931.817	6647.75
932.125	6583.12
932.434	6565.27
932.743	6524.81
933.051	6532.05
933.36	6498.37
933.669	6498.15
933.977	6415.21
934.286	6417.92
934.594	6328.66
934.902	6343.58
935.21	6339.51
935.519	6296.57
935.827	6233.97
936.135	6241.66
936.443	6149.91
936.751	6161.43
937.059	6160.53
937.367	6078.95
937.674	6108.78
937.982	6053.41
938.29	6026.75
938.597	5990.14
938.905	5938.39
939.213	5892.06
939.52	5900.2
939.827	5954.43
940.135	5842.8
940.442	5859.07
940.749	5862.46
941.056	5812.97
941.363	5731.16
941.67	5757.15
941.977	5744.5
942.284	5694.1
942.591	5707.43
942.898	5659.53
943.205	5672.63
943.511	5601.67
943.818	5580.88
944.125	5581.56
944.431	5496.37
944.738	5478.97
945.044	5443.03
945.35	5449.81
945.657	5417.72
945.963	5428.8
946.269	5417.5
946.575	5375.24
946.881	5344.28
947.187	5322.13
947.493	5239.65
947.799	5299.54
948.105	5258.86
948.41	5226.77
948.716	5169.6
949.022	5208.24
949.327	5158.07
949.633	5121.91
949.938	5156.94
950.244	5045.98
950.549	5008.02
950.854	5059.77
951.16	5012.99
951.465	4938.19
951.77	4946.78
952.075	4940.22
952.38	4939.09
952.685	4918.75
952.99	4870.85
953.294	4891.41
953.599	4834.46
953.904	4840.34
954.209	4763.96
954.513	4824.52
954.818	4761.7
955.122	4730.74
955.426	4714.47
955.731	4694.35
956.035	4667.24
956.339	4683.73
956.643	4625.43
956.948	4606.22
957.252	4597.63
957.556	4554.24
957.86	4552.89
958.163	4511.53
958.467	4546.56
958.771	4515.83
959.075	4451.65
959.378	4471.53
959.682	4434.7
959.985	4423.85
960.289	4350.18
960.592	4394.93
960.896	4322.39
961.199	4360.35
961.502	4344.08
961.805	4347.02
962.108	4294.14
962.411	4265.89
962.714	4252.56
963.017	4200.36
963.32	4212.78
963.623	4179.57
963.926	4233.58
964.228	4142.73
964.531	4146.12
964.833	4113.35
965.136	4099.57
965.438	4098.66
965.741	4014.82
966.043	4023.64
966.345	4038.33
966.648	3986.35
966.95	4021.15
967.252	3982.06
967.554	3944.77
967.856	3986.8
968.158	3905
968.46	3903.19
968.761	3907.26
969.063	3849.63
969.365	3883.08
969.666	3817.77
969.968	3787.49
970.269	3816.86
970.571	3810.99
970.872	3763.31
971.174	3718.56
971.475	3741.61
971.776	3684.89
972.077	3695.06
972.378	3724.44
972.679	3676.08
972.98	3608.96
973.281	3623.65
973.582	3636.53
973.883	3608.05
974.183	3572.12
974.484	3583.87
974.785	3560.15
975.085	3567.15
975.386	3544.55
975.686	3541.62
975.986	3496.42
976.287	3506.59
976.587	3459.81
976.887	3404.22
977.187	3413.48
977.487	3430.43
977.787	3388.4
978.087	3398.79
978.387	3359.93
978.687	3349.76
978.987	3344.78
979.286	3321.06
979.586	3316.99
979.885	3276.54
980.185	3280.38
980.484	3246.71
980.784	3282.87
981.083	3259.14
981.382	3200.16
981.682	3239.48
981.981	3131.46
982.28	3164.9
982.579	3128.52
982.878	3177.56
983.177	3185.24
983.475	3132.81
983.774	3135.52
984.073	3064.57
984.372	3038.35
984.67	3058.01
984.969	3052.82
985.267	3069.76
985.566	3033.61
985.864	2993.16
986.162	2956.32
986.461	2980.5
986.759	2963.78
987.057	2958.58
987.355	2914.51
987.653	2910.9
987.951	2925.36
988.249	2870.67
988.547	2877.68
988.844	2858.92
989.142	2854.18
989.44	2829.54
989.737	2831.35
990.035	2858.7
990.332	2801.07
990.63	2792.94
990.927	2801.52
991.224	2761.98
991.521	2729.21
991.819	2715.42
992.116	2714.29
992.413	2699.38
992.71	2744.12
993.006	2718.59
993.303	2682.66
993.6	2680.4
993.897	2687.63
994.193	2652.83
994.49	2670.23
994.787	2601.75
995.083	2592.04
995.379	2575.09
995.676	2605.14
995.972	2568.53
996.268	2550.68
996.565	2557.91
996.861	2473.4
997.157	2489.21
997.453	2490.8
997.749	2507.52
998.044	2433.17
998.34	2441.08
998.636	2453.28
998.932	2415.54
999.227	2439.27
999.523	2368.77
999.818	2373.51
1000.114	2360.86
1000.409	2383.23
1000.704	2356.79
1001	2343
1001.295	2304.81
1001.59	2315.43
1001.885	2289.22
1002.18	2289.67
1002.475	2288.54
1002.77	2256.45
1003.065	2212.84
1003.359	2256.23
1003.654	2159.73
1003.949	2225.49
1004.243	2183.01
1004.538	2203.12
1004.832	2182.33
1005.127	2139.84
1005.421	2174.65
1005.715	2119.05
1006.009	2143.46
1006.304	2117.25
1006.598	2102.56
1006.892	2109.56
1007.186	2079.28
1007.48	2076.34
1007.773	2074.54
1008.067	2050.58
1008.361	2036.8
1008.655	2026.63
1008.948	2025.72
1009.242	2002.22
1009.535	1954.54
1009.829	1978.72
1010.122	1941.88
1010.415	1956.35
1010.708	1946.4
1011.001	1948.21
1011.295	1928.1
1011.588	1898.27
1011.881	1912.51
1012.173	1883.58
1012.466	1893.07
1012.759	1878.61
1013.052	1844.49
1013.344	1829.34
1013.637	1834.77
1013.93	1836.58
1014.222	1839.51
1014.514	1818.72
1014.807	1804.26
1015.099	1778.72
1015.391	1771.49
1015.683	1762.68
1015.976	1743.25
1016.268	1775.11
1016.56	1729.23
1016.851	1731.72
1017.143	1703.47
1017.435	1746.18
1017.727	1701.66
1018.018	1654.66
1018.31	1671.16
1018.602	1674.55
1018.893	1660.99
1019.185	1609.69
1019.476	1604.04
1019.767	1627.32
1020.058	1602.91
1020.35	1603.59
1020.641	1576.47
1020.932	1574.21
1021.223	1565.17
1021.514	1548.9
1021.804	1530.37
1022.095	1499.86
1022.386	1474.33
1022.677	1472.29
1022.967	1495.34
1023.258	1492.86
1023.548	1467.09
1023.839	1479.75
1024.129	1456.25
1024.419	1457.83
1024.709	1463.25
1025	1444.27
1025.29	1430.26
1025.58	1418.51
1025.87	1356.14
1026.16	1391.62
1026.449	1402.69
1026.739	1400.88
1027.029	1348.23
1027.319	1330.6
1027.608	1356.14
1027.898	1342.58
1028.187	1294.67
1028.477	1333.31
1028.766	1305.97
1029.055	1291.28
1029.344	1291.05
1029.634	1285.18
1029.923	1274.56
1030.212	1269.13
1030.501	1256.25
1030.79	1230.26
1031.078	1246.54
1031.367	1225.74
1031.656	1242.69
1031.945	1209.25
1032.233	1210.15
1032.522	1193.66
1032.81	1203.82
1033.099	1177.16
1033.387	1188.46
1033.675	1181
1033.963	1141.91
1034.251	1149.81
1034.54	1129.02
1034.828	1156.59
1035.116	1120.66
1035.403	1123.6
1035.691	1110.04
1035.979	1095.35
1036.267	1115.24
1036.554	1073.88
1036.842	1084.51
1037.129	1060.55
1037.417	1065.07
1037.704	1032.76
1037.992	1066.65
1038.279	1050.38
1038.566	1011.96
1038.853	1011.96
1039.14	1011.96
