Data from White_paper_FLMS001491_069.txt Node
Date: Tue Feb 07 10:35:25 GMT 2017
User: dcchb
Spectrometer: FLMS00149
Trigger mode: 0
Integration Time (sec): 2.000000E-2
Scans to average: 10
Electric dark correction enabled: true
Nonlinearity correction enabled: false
Boxcar width: 0
XAxis mode: Wavelengths
Number of Pixels in Spectrum: 2048
>>>>>Begin Spectral Data<<<<<
341.393	-9.43
341.776	-9.43
342.16	-9.43
342.543	-48.98
342.927	-42.88
343.31	-60.05
343.693	-67.51
344.077	-56.44
344.46	-51.47
344.843	-46.27
345.226	-60.05
345.61	-44.69
345.993	-20.51
346.376	-15.31
346.759	26.27
347.142	0.28
347.525	42.32
347.908	49.09
348.291	100.39
348.674	82.99
349.057	120.96
349.44	145.36
349.823	142.65
350.206	155.53
350.588	239.37
350.971	240.5
351.354	246.38
351.737	282.31
352.119	299.48
352.502	293.16
352.884	330.67
353.267	325.7
353.65	312.59
354.032	341.52
354.414	342.42
354.797	351.01
355.179	341.97
355.562	349.2
355.944	341.29
356.326	385.13
356.709	381.97
357.091	358.24
357.473	385.81
357.855	383.32
358.238	371.35
358.62	378.8
359.002	365.47
359.384	395.98
359.766	352.82
360.148	372.25
360.53	373.83
360.912	376.54
361.294	372.25
361.676	360.95
362.057	386.26
362.439	377.22
362.821	377.67
363.203	363.66
363.584	364.57
363.966	375.87
364.348	379.71
364.729	363.44
365.111	377.45
365.493	367.05
365.874	369.76
366.256	373.61
366.637	383.1
367.019	386.04
367.4	350.33
367.781	368.86
368.163	368.86
368.544	355.53
368.925	356.43
369.306	358.47
369.688	354.62
370.069	365.24
370.45	381.97
370.831	365.02
371.212	405.24
371.593	383.1
371.974	355.53
372.355	369.54
372.736	383.32
373.117	391.91
373.498	370.67
373.879	389.42
374.26	383.55
374.641	367.5
375.021	377.45
375.402	384.45
375.783	376.54
376.163	402.31
376.544	379.93
376.925	376.54
377.305	397.79
377.686	393.49
378.066	421.06
378.447	386.94
378.827	397.56
379.208	386.26
379.588	414.96
379.968	408.18
380.349	419.25
380.729	403.89
381.109	431.68
381.489	420.84
381.87	411.8
382.25	412.25
382.63	437.56
383.01	446.82
383.39	431.68
383.77	436.88
384.15	461.74
384.53	452.25
384.91	456.32
385.29	432.81
385.67	460.38
386.049	477.11
386.429	459.25
386.809	476.65
387.189	467.16
387.568	473.94
387.948	468.52
388.328	472.36
388.707	486.15
389.087	476.88
389.466	481.17
389.846	491.34
390.225	508.97
390.605	494.28
390.984	511.46
391.363	508.97
391.743	502.42
392.122	497.67
392.501	513.26
392.881	532.02
393.26	532.7
393.639	529.08
394.018	575.63
394.397	556.65
394.776	559.59
395.155	585.13
395.534	556.65
395.913	574.96
396.292	571.57
396.671	599.81
397.05	623.99
397.429	631.45
397.808	583.09
398.186	601.62
398.565	601.4
398.944	605.46
399.323	617.44
399.701	639.36
400.08	648.4
400.458	640.49
400.837	670.77
401.215	653.15
401.594	677.55
401.972	665.12
402.351	685.69
402.729	694.05
403.107	704.67
403.486	724.33
403.864	739.25
404.242	741.05
404.62	782.63
404.999	780.6
405.377	793.26
405.755	810.88
406.133	813.82
406.511	831.22
406.889	855.63
407.267	856.53
407.645	866.25
408.023	893.37
408.401	927.26
408.779	929.52
409.156	955.96
409.534	968.17
409.912	1011.33
410.29	1015.17
410.667	1027.15
411.045	1108.28
411.422	1092.46
411.8	1117.77
412.178	1163.64
412.555	1170.65
412.933	1249.06
413.31	1251.1
413.687	1247.03
414.065	1307.14
414.442	1335.16
414.819	1350.3
415.197	1375.61
415.574	1388.49
415.951	1423.75
416.328	1455.39
416.705	1464.88
417.082	1503.52
417.46	1529.06
417.837	1557.98
418.214	1567.7
418.591	1614.25
418.967	1638.43
419.344	1676.85
419.721	1671.65
420.098	1704.42
420.475	1742.84
420.852	1784.19
421.228	1822.38
421.605	1835.49
421.982	1856.5
422.358	1859.89
422.735	1889.95
423.111	1903.28
423.488	1973.34
423.864	1979.89
424.241	1980.57
424.617	2026.67
424.994	2020.12
425.37	2031.19
425.746	2076.16
426.123	2120
426.499	2142.15
426.875	2182.6
427.251	2246.1
427.627	2260.34
428.003	2301.69
428.379	2308.47
428.756	2343.27
429.132	2412.42
429.507	2411.52
429.883	2462.14
430.259	2491.97
430.635	2545.3
431.011	2569.93
431.387	2609.71
431.763	2668.23
432.138	2700.78
432.514	2717.95
432.89	2749.59
433.265	2796.59
433.641	2812.41
434.016	2895.35
434.392	2943.93
434.767	2994.78
435.143	2987.55
435.518	3049.24
435.894	3067.55
436.269	3120.43
436.644	3164.04
437.02	3170.59
437.395	3221.89
437.77	3254.43
438.145	3289.69
438.52	3324.94
438.895	3333.98
439.271	3392.06
439.646	3442.68
440.021	3479.96
440.395	3491.49
440.77	3484.71
441.145	3501.21
441.52	3595.67
441.895	3588.44
442.27	3613.52
442.645	3668.89
443.019	3697.59
443.394	3705.5
443.769	3737.13
444.143	3712.28
444.518	3779.17
444.892	3774.19
445.267	3859.16
445.641	3828.66
446.016	3867.3
446.39	3920.86
446.764	3938.71
447.139	3945.49
447.513	3979.61
447.887	3975.09
448.262	4015.54
448.636	4023.23
449.01	4065.71
449.384	4091.02
449.758	4162.66
450.132	4186.16
450.506	4211.47
450.88	4236.1
451.254	4215.54
451.628	4323.56
452.002	4338.7
452.376	4364.69
452.75	4405.59
453.123	4440.84
453.497	4545.7
453.871	4581.18
454.244	4665.47
454.618	4647.17
454.992	4778.24
455.365	4744.56
455.739	4871.57
456.112	4907.95
456.486	4950.66
456.859	4995.63
457.232	5103.65
457.606	5080.37
457.979	5148.85
458.352	5332.35
458.725	5336.41
459.099	5310.65
459.472	5461.83
459.845	5501.15
460.218	5533.7
460.591	5610.53
460.964	5646.46
461.337	5767.36
461.71	5850.3
462.083	5951.09
462.456	5956.74
462.829	5984.08
463.201	6138.43
463.574	6103.62
463.947	6182.04
464.32	6303.39
464.692	6377.52
465.065	6457.29
465.438	6521.24
465.81	6581.35
466.183	6706.55
466.555	6834
466.928	6857.28
467.3	6899.99
467.672	7043.49
468.045	7227.44
468.417	7161
468.789	7239.41
469.161	7355.34
469.534	7515.57
469.906	7643.7
470.278	7678.27
470.65	7732.96
471.022	7969.79
471.394	8094.76
471.766	8177.69
472.138	8274.87
472.51	8394.64
472.882	8557.35
473.253	8663.56
473.625	8728.19
473.997	8912.14
474.369	8983.32
474.74	9083.89
475.112	9277.1
475.484	9465.34
475.855	9550.54
476.227	9663.31
476.598	9960.47
476.97	10022.84
477.341	10273.01
477.713	10435.94
478.084	10427.8
478.455	10778.98
478.827	10790.96
479.198	11155.92
479.569	11144.17
479.94	11436.37
480.311	11489.7
480.682	11839.29
481.053	12090.36
481.424	12207.87
481.795	12378.26
482.166	12549.56
482.537	12710.23
482.908	13015.08
483.279	13139.15
483.65	13350.21
484.021	13606.03
484.391	13770.99
484.762	13837.43
485.133	14008.5
485.503	14247.14
485.874	14493.91
486.244	14696.85
486.615	14923.96
486.985	15072.65
487.356	15345.42
487.726	15448.46
488.097	15790.6
488.467	15791.28
488.837	16208.22
489.207	16335.22
489.578	16574.31
489.948	16729.11
490.318	16958.48
490.688	16980.4
491.058	17335.42
491.428	17459.48
491.798	17682.53
492.168	17966.59
492.538	17976.31
492.908	18282.74
493.278	18439.8
493.648	18550.08
494.017	18831.65
494.387	18888.83
494.757	19026
495.126	19240.68
495.496	19374.24
495.866	19453.1
496.235	19742.81
496.605	19764.96
496.974	20020.1
497.344	20131.73
497.713	20226.42
498.082	20375.57
498.452	20627.99
498.821	20694.2
499.19	20752.05
499.559	20984.82
499.928	21100.97
500.298	21217.58
500.667	21465.71
501.036	21388.19
501.405	21654.85
501.774	21654.63
502.143	21878.35
502.512	21960.16
502.88	22255.52
503.249	22316.08
503.618	22426.36
503.987	22625.22
504.356	22782.06
504.724	22858.21
505.093	22907.48
505.462	22936.85
505.83	23064.08
506.199	23394.24
506.567	23558.99
506.936	23582.49
507.304	23962.59
507.672	24039.2
508.041	24095.92
508.409	24249.59
508.777	24468.79
509.145	24798.05
509.514	24618.62
509.882	25001.21
510.25	24898.38
510.618	25223.8
510.986	25249.56
511.354	25505.37
511.722	25637.35
512.09	25921.41
512.458	25900.17
512.826	26200.05
513.193	26218.12
513.561	26452.24
513.929	26649.3
514.297	26815.85
514.664	26979.69
515.032	27109.17
515.4	27402.73
515.767	27481.37
516.135	27573.34
516.502	27455.38
516.869	27937.4
517.237	28061.69
517.604	28029.6
517.972	28374.23
518.339	28534.22
518.706	28622.35
519.073	28835
519.44	29061.21
519.808	29331.04
520.175	29245.84
520.542	29742.55
520.909	29923.56
521.276	29904.81
521.643	30185.48
522.009	30290.11
522.376	30550.67
522.743	30667.5
523.11	31038.34
523.477	31328.95
523.843	31512.22
524.21	31716.96
524.577	31995.6
524.943	32227.68
525.31	32150.62
525.676	32565.08
526.043	32775.24
526.409	32929.36
526.776	33243.48
527.142	33386.3
527.508	33601.66
527.874	33883.23
528.241	33999.84
528.607	34085.49
528.973	34437.34
529.339	34478.92
529.705	34868.07
530.071	35169.08
530.437	35227.38
530.803	35491.55
531.169	35651.55
531.535	35663.53
531.901	35729.96
532.267	35891.09
532.632	36112.78
532.998	36349.61
533.364	36622.37
533.73	36698.07
534.095	36938.75
534.461	37091.74
534.826	37396.36
535.192	37253.99
535.557	37595
535.923	37689.46
536.288	37867.08
536.653	38014.42
537.019	37937.82
537.384	38099.62
537.749	38490.8
538.114	38318.82
538.479	38538.93
538.845	38775.99
539.21	38697.34
539.575	38869.32
539.94	39080.61
540.305	39220.49
540.67	39258.91
541.034	39475.85
541.399	39692.35
541.764	39755.62
542.129	39936.63
542.494	39926.24
542.858	40259.56
543.223	40144.09
543.587	40363.29
543.952	40462.27
544.316	40620.01
544.681	40668.14
545.045	40972.54
545.41	41121.69
545.774	41143.16
546.138	41316.26
546.503	41349.7
546.867	41303.6
547.231	41675.8
547.595	41740.2
547.959	42016.35
548.324	42080.76
548.688	42084.15
549.052	42379.96
549.416	42450.69
549.779	42434.87
550.143	42601.42
550.507	42866.73
550.871	42851.59
551.235	43013.39
551.599	43419.25
551.962	43468.74
552.326	43538.12
552.689	43651.34
553.053	43682.3
553.417	43598.68
553.78	44213.36
554.143	44111.89
554.507	44478.44
554.87	44249.97
555.234	44815.6
555.597	44583.52
555.96	44764.76
556.323	44970.4
556.686	45091.07
557.05	45334.91
557.413	45416.26
557.776	45559.31
558.139	45726.09
558.502	45804.5
558.865	45984.16
559.228	46260.54
559.59	46358.61
559.953	46477.03
560.316	46722.22
560.679	46816
561.041	47053.73
561.404	47142.55
561.767	47310.9
562.129	47307.29
562.492	47728.07
562.854	47818.69
563.217	47858.91
563.579	48007.83
563.941	48368.28
564.304	48390.65
564.666	48632.68
565.028	48717.42
565.39	48731.88
565.753	49037.19
566.115	49161.7
566.477	49249.61
566.839	49314.69
567.201	49671.97
567.563	49691.63
567.925	49819.31
568.287	49879.87
568.648	50019.31
569.01	50215.46
569.372	50434.21
569.734	50283.25
570.095	50657.93
570.457	50894.99
570.819	50891.83
571.18	50798.72
571.542	51054.76
571.903	51084.59
572.265	51289.56
572.626	51420.17
572.987	51386.28
573.349	51532.49
573.71	51685.7
574.071	51787.85
574.432	51864.91
574.794	52129.53
575.155	52055.86
575.516	51919.37
575.877	52167.27
576.238	52200.94
576.599	52409.75
576.96	52440.26
577.32	52459.24
577.681	52565.23
578.042	52673.25
578.403	52765.67
578.763	52741.72
579.124	52785.11
579.485	52922.51
579.845	53054.03
580.206	52930.42
580.566	53035.05
580.927	53151.65
581.287	53144.87
581.648	53172.44
582.008	53217.19
582.368	53264.19
582.728	53310.07
583.089	53259.45
583.449	53343.74
583.809	53303.97
584.169	53432.55
584.529	53284.76
584.889	53670.28
585.249	53493.79
585.609	53413.12
585.969	53590.51
586.329	53419.89
586.688	53615.82
587.048	53477.52
587.408	53514.81
587.768	53547.8
588.127	53602.26
588.487	53591.19
588.846	53748.93
589.206	53562.94
589.565	53643.62
589.925	53709.6
590.284	53701.92
590.643	53722.49
591.003	53840
591.362	53926.55
591.721	53839.54
592.08	53865.53
592.44	53939.88
592.799	53930.84
593.158	54024.4
593.517	53953.67
593.876	53960.67
594.235	53948.92
594.593	54018.98
594.952	54092.42
595.311	53997.05
595.67	54004.96
596.029	54156.6
596.387	54142.59
596.746	54291.28
597.104	54108.69
597.463	54109.14
597.822	54266.43
598.18	54139.2
598.538	54195.24
598.897	54353.43
599.255	54123.15
599.613	54435.46
599.972	54316.37
600.33	54455.12
600.688	54271.85
601.046	54352.07
601.404	54542.8
601.762	54540.32
602.12	54678.62
602.478	54531.5
602.836	54529.7
603.194	54467.32
603.552	54527.66
603.91	54418.74
604.268	54629.35
604.625	54504.84
604.983	54714.78
605.341	54506.42
605.698	54708.45
606.056	54763.81
606.413	54732.63
606.771	54804.94
607.128	54870.93
607.485	54691.05
607.843	54769.46
608.2	54923.36
608.557	54964.71
608.914	54882.46
609.272	54999.97
609.629	55038.38
609.986	55163.8
610.343	55017.14
610.7	55113.18
611.057	55126.29
611.414	55170.13
611.771	55149.79
612.127	55306.17
612.484	55251.49
612.841	55323.12
613.198	55189.79
613.554	55257.36
613.911	55429.11
614.267	55397.92
614.624	55423.68
614.98	55330.81
615.337	55454.19
615.693	55451.71
616.05	55389.11
616.406	55562.89
616.762	55437.92
617.118	55484.7
617.475	55493.06
617.831	55639.72
618.187	55613.28
618.543	55567.86
618.899	55722.66
619.255	55711.13
619.611	55637.69
619.967	55729.89
620.323	55791.81
620.678	55690.8
621.034	55673.62
621.39	55630.46
621.746	55608.09
622.101	55954.74
622.457	55692.83
622.812	55714.75
623.168	55832.26
623.523	55831.13
623.879	55881.3
624.234	55703.45
624.589	55820.96
624.945	55859.83
625.3	55797.91
625.655	55787.97
626.01	55854.86
626.365	55813.28
626.72	55774.41
627.075	55784.8
627.43	55777.12
627.785	55671.14
628.14	55862.54
628.495	55823.22
628.85	55806.95
629.205	55686.05
629.559	55893.95
629.914	55747.07
630.269	55760.62
630.623	55714.07
630.978	55711.36
631.332	55746.61
631.687	55806.5
632.041	55644.02
632.396	55763.56
632.75	55648.31
633.104	55770.57
633.459	55613.28
633.813	55614.64
634.167	55677.91
634.521	55612.38
634.875	55688.31
635.229	55600.18
635.583	55452.16
635.937	55517.47
636.291	55535.09
636.645	55508.65
636.999	55460.75
637.352	55461.65
637.706	55410.12
638.06	55539.61
638.413	55430.69
638.767	55367.87
639.121	55366.06
639.474	55293.07
639.828	55343.46
640.181	55389.79
640.534	55301.88
640.888	55240.41
641.241	55091.49
641.594	55211.26
641.947	55239.51
642.301	55255.78
642.654	55203.8
643.007	55168.55
643.36	55157.48
643.713	55145.05
644.066	55310.92
644.419	54929.91
644.771	54938.72
645.124	54583.93
645.477	54548
645.83	54446.99
646.182	54364.28
646.535	54282.47
646.888	54415.12
647.24	54208.8
647.593	54324.73
647.945	54304.17
648.298	54166.32
648.65	54074.79
649.002	54005.19
649.355	54225.07
649.707	54100.1
650.059	54233.66
650.411	54561.79
650.763	54619.86
651.115	54928.33
651.467	54815.11
651.819	54761.33
652.171	54736.24
652.523	54638.17
652.875	54663.48
653.227	54610.82
653.578	54792.51
653.93	54688.11
654.282	54656.7
654.633	54516.14
654.985	54580.09
655.337	54630.48
655.688	54657.15
656.039	54693.99
656.391	54445.4
656.742	54480.43
657.094	54494.67
657.445	54634.78
657.796	54515.23
658.147	54472.07
658.498	54531.28
658.849	54595.91
659.2	54424.84
659.551	54425.07
659.902	54500.54
660.253	54432.52
660.604	54442.01
660.955	54329.02
661.306	54545.51
661.656	54312.3
662.007	54347.55
662.358	54364.73
662.708	54298.52
663.059	54388
663.409	54189.59
663.76	54367.67
664.11	54259.42
664.461	54327.89
664.811	54351.4
665.161	54279.53
665.511	54180.1
665.862	54308.91
666.212	54242.92
666.562	54269.82
666.912	54191.63
667.262	54131.74
667.612	54190.95
667.962	54237.95
668.312	54103.49
668.662	54338.06
669.011	54162.02
669.361	54060.78
669.711	54077.05
670.06	54042.7
670.41	54003.16
670.76	53953.44
671.109	54008.58
671.459	53976.26
671.808	53758.64
672.157	53944.17
672.507	53683.39
672.856	53805.2
673.205	53780.56
673.554	53894.91
673.904	53645.43
674.253	53941.24
674.602	53797.96
674.951	53300.58
675.3	53231.2
675.649	53780.34
675.998	53609.04
676.346	53700.79
676.695	53823.95
677.044	53542.15
677.393	53615.82
677.741	53621.92
678.09	53491.08
678.438	53470.74
678.787	53481.59
679.135	53460.8
679.484	53149.62
679.832	53346.9
680.181	53158.66
680.529	53259
680.877	53084.99
681.225	53128.83
681.573	53240.69
681.922	53044.09
682.27	52987.59
682.618	52997.31
682.966	52810.19
683.314	52953.01
683.661	52884.09
684.009	52679.58
684.357	52613.81
684.705	52609.52
685.053	52636.64
685.4	52482.52
685.748	52355.52
686.095	52401.16
686.443	52202.53
686.79	52095.18
687.138	52210.66
687.485	52058.12
687.832	51949.43
688.18	52079.37
688.527	51901.97
688.874	51836.21
689.221	51689.54
689.568	51666.04
689.915	51622.2
690.262	51626.27
690.609	51480.28
690.956	51395.77
691.303	51289.1
691.65	51176.79
691.997	51228.54
692.344	50951.03
692.69	50926.4
693.037	50891.83
693.383	50697.71
693.73	50699.06
694.077	50556.47
694.423	50596.92
694.769	50413.19
695.116	50371.16
695.462	50320.54
695.808	50226.08
696.155	50295.68
696.501	50022.24
696.847	49956.26
697.193	49802.81
697.539	49858.18
697.885	49554.69
698.231	49584.52
698.577	49569.15
698.923	49517.62
699.269	49259.78
699.614	49031.31
699.96	48987.92
700.306	48991.99
700.651	48932.78
700.997	48716.97
701.342	48767.36
701.688	48592.9
702.033	48507.03
702.379	48481.95
702.724	48312.68
703.069	48419.57
703.415	47989.53
703.76	48144.55
704.105	48061.84
704.45	47768.97
704.795	47668.41
705.14	47530.78
705.485	47464.12
705.83	47299.38
706.175	47371.47
706.52	47329.21
706.865	47222.77
707.209	47144.81
707.554	46943.68
707.899	47030.23
708.243	46859.16
708.588	46731.94
708.932	46508.44
709.277	46527.42
709.621	46648.32
709.966	46268.67
710.31	46393.19
710.654	46137.6
710.998	46228.9
711.342	46131.95
711.687	45877.72
712.031	45834.56
712.375	45557.73
712.719	45833.2
713.063	45597.5
713.407	45840.66
713.75	45535.58
714.094	45472.76
714.438	45296.04
714.782	45359.32
715.125	45040.91
715.469	45176.04
715.812	45031.41
716.156	44817.41
716.499	44663.74
716.843	44884.98
717.186	44636.85
717.53	44702.16
717.873	44788.71
718.216	44532.44
718.559	44427.59
718.902	44164.54
719.246	44273.92
719.589	44287.71
719.932	43970.43
720.275	44000.26
720.617	43944.66
720.96	43840.49
721.303	43940.6
721.646	43798.9
721.989	43523.66
722.331	43747.83
722.674	43439.37
723.016	43681.17
723.359	43538.35
723.701	43444.79
724.044	43220.61
724.386	43146.72
724.729	43223.33
725.071	43125.02
725.413	43116.89
725.755	42957.8
726.097	42928.19
726.439	42666.73
726.782	42644.13
727.124	42883.9
727.465	42751.93
727.807	42598.26
728.149	42469.67
728.491	42440.97
728.833	42519.84
729.175	42361.43
729.516	42329.11
729.858	42157.59
730.199	42142.23
730.541	42117.37
730.882	42012.51
731.224	42051.61
731.565	41799.86
731.906	41976.35
732.248	41953.98
732.589	41665.85
732.93	41626.31
733.271	41634.67
733.612	41619.3
733.953	41727.09
734.294	41398.06
734.635	41441.45
734.976	41511.28
735.317	41148.81
735.658	41220.67
735.999	41231.29
736.339	41073.78
736.68	41248.69
737.021	41085.98
737.361	40879.89
737.702	41031.07
738.042	41018.19
738.383	40932.99
738.723	40879.43
739.063	40685.09
739.404	40864.29
739.744	40601.25
740.084	40603.28
740.424	40724.86
740.764	40566.67
741.104	40612.1
741.444	40226.57
741.784	40409.84
742.124	40363.74
742.464	40228.15
742.804	40265.66
743.143	40126.46
743.483	40049.17
743.823	40041.72
744.162	39898.44
744.502	40036.52
744.841	39729.86
745.181	39849.4
745.52	39758.33
745.86	39782.06
746.199	39661.84
746.538	39559.02
746.877	39735.28
747.216	39674.04
747.556	39477.66
747.895	39541.62
748.234	39406.93
748.573	39314.28
748.911	39156.54
749.25	39211.45
749.589	39006.04
749.928	39079.71
750.267	39161.29
750.605	39031.12
750.944	38977.79
751.283	38737.12
751.621	38760.62
751.96	38696.67
752.298	38684.92
752.636	38563.11
752.975	38448.76
753.313	38246.73
753.651	38467.07
753.989	38090.13
754.327	38124.25
754.666	38089.68
755.004	38034.08
755.342	37986.4
755.679	38023.24
756.017	37697.6
756.355	37884.94
756.693	37561.55
757.031	37618.28
757.368	37371.5
757.706	37470.48
758.044	37242.92
758.381	37263.26
758.719	37110.04
759.056	37081.57
759.394	36868.92
759.731	36738.07
760.068	36725.64
760.405	36502.15
760.743	36403.62
761.08	36521.58
761.417	36297.86
761.754	36349.16
762.091	36191.87
762.428	35974.03
762.765	35723.18
763.102	35921.6
763.438	35816.97
763.775	35592.79
764.112	35729.74
764.449	35744.65
764.785	35420.82
765.122	35193.26
765.458	35176.08
765.795	35149.41
766.131	35031.45
766.467	34908.74
766.804	34772.48
767.14	34621.29
767.476	34616.1
767.812	34373.39
768.148	34394.86
768.485	34219.27
768.821	34014.76
769.157	33970.69
769.492	33924.59
769.828	33960.29
770.164	33649.57
770.5	33443.92
770.836	33462.68
771.171	33203.7
771.507	33236.24
771.842	33049.81
772.178	33036.02
772.513	32916.48
772.849	32774.56
773.184	32677.62
773.519	32684.62
773.855	32429.49
774.19	32309.04
774.525	32312.43
774.86	32055.71
775.195	32168.02
775.53	32043.28
775.865	31928.93
776.2	31633.12
776.535	31404.43
776.87	31412.34
777.205	31228.61
777.539	31136.86
777.874	31243.08
778.209	30878.57
778.543	30862.52
778.878	30693.03
779.212	30610.33
779.547	30460.95
779.881	30512.7
780.215	30305.02
780.55	30373.72
780.884	30224.12
781.218	30084.24
781.552	30153.39
781.886	30030.91
782.22	29678.15
782.554	29658.26
782.888	29452.39
783.222	29306.4
783.556	29209.23
783.889	29168.1
784.223	28900.31
784.557	28894.89
784.89	28909.8
785.224	28806.98
785.557	28721.11
785.891	28530.61
786.224	28522.92
786.558	28463.49
786.891	28365.86
787.224	28178.52
787.557	28058.08
787.891	28094.91
788.224	27923.39
788.557	27934.69
788.89	27769.27
789.223	27670.74
789.556	27459.67
789.888	27496.73
790.221	27362.73
790.554	27306.01
790.887	27230.53
791.219	27060.81
791.552	27023.07
791.884	26875.73
792.217	26735.62
792.549	26655.17
792.882	26523.2
793.214	26409.08
793.546	26439.14
793.879	26337.22
794.211	26091.57
794.543	26325.01
794.875	26171.35
795.207	26085.7
795.539	26049.09
795.871	26043.89
796.203	25738.59
796.535	25611.81
796.867	25626.28
797.198	25396.68
797.53	25521.19
797.862	25303.12
798.193	25422.44
798.525	25161.65
798.856	25149.45
799.188	24912.62
799.519	24885.73
799.85	24676.24
800.182	24782.46
800.513	24626.75
800.844	24457.49
801.175	24588.34
801.506	24512.41
801.837	24475.35
802.168	24410.94
802.499	24278.51
802.83	24096.15
803.161	24061.57
803.491	24103.15
803.822	24125.52
804.153	23856.38
804.483	23801.01
804.814	23588.14
805.145	23695.03
805.475	23625.42
805.805	23431.3
806.136	23506.11
806.466	23448.25
806.796	23378.42
807.126	23291.42
807.457	23208.71
807.787	23262.95
808.117	23057.3
808.447	22991.09
808.777	23050.98
809.107	22982.5
809.436	22834.26
809.766	22814.82
810.096	22806.91
810.426	22523.53
810.755	22630.2
811.085	22652.79
811.414	22452.57
811.744	22397.21
812.073	22432.24
812.403	22365.34
812.732	22083.54
813.061	22209.42
813.39	22073.83
813.719	21953.15
814.049	22118.57
814.378	21974.39
814.707	21816.21
815.036	21834.96
815.365	21777.34
815.693	21555.65
816.022	21561.75
816.351	21501.41
816.68	21448.31
817.008	21559.72
817.337	21317.91
817.665	21283.56
817.994	21348.2
818.322	21305.94
818.651	21133.29
818.979	21103.23
819.307	21154.98
819.636	21108.88
819.964	20910.92
820.292	20984.59
820.62	20979.62
820.948	20982.1
821.276	20938.04
821.604	20861.2
821.932	20915.44
822.259	20891.26
822.587	20876.57
822.915	20823.46
823.243	20926.51
823.57	20769.23
823.898	20815.33
824.225	20834.76
824.553	20803.8
824.88	20718.16
825.207	20798.83
825.535	20744.37
825.862	20805.84
826.189	20695.78
826.516	20749.12
826.843	20884.71
827.17	20771.49
827.497	20802.9
827.824	20838.15
828.151	20826.18
828.478	20693.52
828.805	20817.81
829.131	20689.68
829.458	20692.39
829.785	20677.7
830.111	20683.81
830.438	20781.66
830.764	20833.86
831.09	20722.45
831.417	20623.47
831.743	20688.33
832.069	20591.83
832.395	20630.47
832.722	20658.5
833.048	20505.96
833.374	20575.11
833.7	20518.84
834.026	20506.18
834.351	20525.62
834.677	20542.12
835.003	20454.89
835.329	20538.5
835.654	20495.56
835.98	20313.87
836.306	20367.2
836.631	20332.18
836.956	20326.08
837.282	20365.4
837.607	20141.45
837.932	20181.67
838.258	20171.28
838.583	20147.1
838.908	20065.29
839.233	20082.92
839.558	20136.02
839.883	19952.75
840.208	19951.85
840.533	19937.61
840.858	19924.73
841.182	19858.97
841.507	19826.88
841.832	19673.21
842.156	19756.37
842.481	19692.65
842.805	19636.38
843.13	19662.14
843.454	19585.3
843.778	19534.01
844.103	19435.25
844.427	19453.33
844.751	19488.13
845.075	19288.14
845.399	19246.1
845.723	19203.62
846.047	19318.42
846.371	19011.08
846.695	19033.68
847.019	18808.38
847.343	18723.86
847.666	18678.66
847.99	18659.68
848.313	18659
848.637	18411.55
848.96	18477.31
849.284	18294.04
849.607	18218.56
849.931	18189.41
850.254	18066.47
850.577	18022.18
850.9	17929.98
851.223	17835.29
851.546	17739.03
851.869	17726.14
852.192	17789.87
852.515	17608.18
852.838	17524.57
853.161	17615.19
853.483	17339.49
853.806	17295.65
854.129	17279.15
854.451	17327.51
854.774	17249.77
855.096	17084.13
855.419	17145.37
855.741	17047.07
856.063	17003
856.385	16919.84
856.708	16889.33
857.03	16810.69
857.352	16811.82
857.674	16699.28
857.996	16661.99
858.318	16586.29
858.64	16604.37
858.961	16547.19
859.283	16424.94
859.605	16396.46
859.926	16523.24
860.248	16338.16
860.57	16264.49
860.891	16287.99
861.212	16193.98
861.534	16107.66
861.855	16143.36
862.176	16107.66
862.498	16097.49
862.819	16179.97
863.14	16005.96
863.461	15964.16
863.782	16042.8
864.103	15895.23
864.424	15896.81
864.745	15963.48
865.065	15819.98
865.386	15704.73
865.707	15853.88
866.027	15784.73
866.348	15692.98
866.668	15682.13
866.989	15665.41
867.309	15493.66
867.63	15570.95
867.95	15556.71
868.27	15436.71
868.59	15473.32
868.91	15489.14
869.23	15460.21
869.55	15388.58
869.87	15496.37
870.19	15462.47
870.51	15462.93
870.83	15417.05
871.15	15220.67
871.469	15253.67
871.789	15238.53
872.109	15243.95
872.428	15173.22
872.748	15214.12
873.067	15222.03
873.386	15168.25
873.706	15124.4
874.025	15087.34
874.344	14986.1
874.663	15049.38
874.982	14983.62
875.301	14976.16
875.62	14973.45
875.939	14912.21
876.258	14880.8
876.577	14867.46
876.896	14790.85
877.214	14732.1
877.533	14716.05
877.852	14807.8
878.17	14745.21
878.489	14733
878.807	14756.96
879.125	14645.1
879.444	14695.49
879.762	14551.76
880.08	14584.53
880.398	14545.44
880.716	14550.63
881.034	14519.67
881.352	14481.26
881.67	14408.49
881.988	14408.72
882.306	14358.77
882.624	14393.58
882.941	14265.67
883.259	14252.11
883.577	14216.63
883.894	14203.52
884.212	14112.91
884.529	14181.15
884.846	14130.76
885.164	14102.96
885.481	14015.51
885.798	13995.17
886.115	13904.78
886.432	13960.14
886.75	13909.52
887.067	13886.92
887.383	13810.54
887.7	13858.68
888.017	13799.47
888.334	13816.87
888.651	13709.07
888.967	13694.61
889.284	13647.83
889.6	13593.6
889.917	13549.08
890.233	13488.29
890.55	13410.33
890.866	13470.44
891.182	13377.56
891.498	13250.78
891.815	13265.02
892.131	13217.56
892.447	13250.33
892.763	13171.46
893.079	13121.07
893.395	13071.8
893.71	13057.34
894.026	12985.48
894.342	13035.87
894.657	12824.13
894.973	12871.58
895.289	12843.79
895.604	12851.47
895.92	12780.51
896.235	12702.77
896.55	12754.52
896.865	12657.12
897.181	12592.95
897.496	12557.47
897.811	12539.61
898.126	12428.88
898.441	12412.16
898.756	12392.5
899.071	12315.89
899.386	12341.65
899.7	12244.93
900.015	12155.22
900.33	12096.24
900.644	12112.73
900.959	12057.37
901.273	11973.53
901.588	12009.46
901.902	11878.84
902.216	11805.17
902.531	11793.19
902.845	11818.5
903.159	11766.3
903.473	11723.14
903.787	11603.59
904.101	11576.02
904.415	11580.99
904.729	11497.83
905.042	11515.01
905.356	11424.39
905.67	11438.4
905.984	11331.06
906.297	11305.75
906.611	11259.87
906.924	11178.07
907.237	11198.18
907.551	11232.3
907.864	11103.49
908.177	11023.5
908.491	10973.78
908.804	10950.95
909.117	10875.7
909.43	10752.32
909.743	10786.67
910.056	10825.76
910.368	10764.75
910.681	10668.25
910.994	10641.36
911.307	10640.68
911.619	10564.07
911.932	10545.54
912.244	10464.41
912.557	10388.48
912.869	10410.4
913.181	10282.72
913.494	10344.87
913.806	10361.37
914.118	10276.17
914.43	10101.71
914.742	10160.02
915.054	10095.16
915.366	10059.23
915.678	9981.26
915.99	9963.41
916.302	9892
916.613	9899.91
916.925	9795.96
917.236	9747.6
917.548	9747.82
917.859	9707.15
918.171	9623.31
918.482	9572.69
918.794	9557.55
919.105	9544.44
919.416	9512.57
919.727	9462.18
920.038	9429.64
920.349	9398.68
920.66	9247.27
920.971	9342.64
921.282	9271.45
921.593	9213.83
921.903	9133.83
922.214	9082.53
922.525	9101.74
922.835	9026.71
923.146	8989.42
923.456	9007.96
923.767	9002.76
924.077	8911.46
924.387	8877.11
924.697	8894.29
925.008	8842.54
925.318	8742.88
925.628	8752.14
925.938	8699.49
926.248	8567.29
926.558	8601.19
926.867	8472.38
927.177	8524.8
927.487	8450.46
927.796	8420.63
928.106	8407.07
928.416	8361.19
928.725	8378.82
929.034	8345.37
929.344	8273.51
929.653	8239.16
929.962	8151.93
930.271	8112.84
930.581	8137.02
930.89	8033.29
931.199	8013.86
931.508	7963.46
931.817	7998.04
932.125	7924.59
932.434	7964.59
932.743	7851.15
933.051	7836.69
933.36	7819.74
933.669	7726.86
933.977	7740.64
934.286	7717.37
934.594	7628.78
934.902	7572.74
935.21	7570.93
935.519	7571.83
935.827	7519.41
936.135	7486.19
936.443	7501.55
936.751	7436.47
937.059	7395.12
937.367	7359.19
937.674	7312.86
937.982	7283.25
938.29	7190.15
938.597	7248.91
938.905	7190.83
939.213	7143.82
939.52	7115.12
939.827	7078.29
940.135	7081.9
940.442	7033.77
940.749	6989.7
941.056	6966.2
941.363	6934.79
941.67	6941.34
941.977	6908.12
942.284	6879.2
942.591	6855.24
942.898	6765.98
943.205	6793.55
943.511	6733.89
943.818	6682.37
944.125	6662.25
944.431	6595.14
944.738	6621.8
945.044	6560.11
945.35	6549.49
945.657	6448.7
945.963	6468.14
946.269	6401.47
946.575	6433.56
946.881	6374.8
947.187	6368.93
947.493	6349.04
947.799	6302.04
948.105	6245.09
948.41	6209.38
948.716	6230.4
949.022	6208.93
949.327	6178.43
949.633	6115.15
949.938	6153.12
950.244	6149.5
950.549	6062.5
950.854	6037.41
951.16	6028.15
951.465	5958.09
951.77	5951.76
952.075	5938.66
952.38	5894.82
952.685	5925.32
952.99	5854.82
953.294	5802.39
953.599	5784.76
953.904	5799.45
954.209	5699.12
954.513	5733.01
954.818	5684.65
955.122	5681.94
955.426	5650.98
955.731	5620.93
956.035	5623.86
956.339	5604.2
956.643	5558.78
956.948	5522.4
957.252	5478.33
957.556	5466.81
957.86	5414.6
958.163	5432.46
958.467	5403.3
958.771	5424.32
959.075	5394.04
959.378	5306.13
959.682	5276.3
959.985	5248.28
960.289	5230.88
960.592	5245.57
960.896	5275.85
961.199	5193.59
961.502	5136.87
961.805	5138.68
962.108	5114.05
962.411	5053.71
962.714	5030.88
963.017	5026.37
963.32	5069.75
963.623	5018.68
963.926	4970.32
964.228	4955.86
964.531	4951.34
964.833	4969.87
965.136	4898.91
965.438	4866.82
965.741	4805.13
966.043	4849.87
966.345	4799.93
966.648	4798.57
966.95	4735.75
967.252	4784.34
967.554	4716.09
967.856	4713.15
968.158	4655.75
968.46	4635.87
968.761	4577.34
969.063	4634.28
969.365	4579.82
969.666	4618.01
969.968	4498.92
970.269	4485.14
970.571	4534.4
970.872	4459.83
971.174	4467.51
971.475	4403.33
971.776	4399.71
972.077	4426.38
972.378	4388.19
972.679	4401.75
972.98	4341.86
973.281	4337.12
973.582	4315.42
973.883	4271.58
974.183	4254.86
974.484	4251.92
974.785	4239.95
975.085	4201.08
975.386	4221.87
975.686	4161.75
975.986	4139.38
976.287	4106.84
976.587	4084.92
976.887	4063.23
977.187	4086.05
977.487	3995.43
977.787	3997.01
978.087	4013.74
978.387	4010.57
978.687	3994.3
978.987	3945.26
979.286	3933.96
979.586	3916.11
979.885	3898.49
980.185	3923.34
980.484	3836.79
980.784	3841.54
981.083	3839.05
981.382	3827.98
981.682	3734.42
981.981	3754.99
982.28	3723.57
982.579	3707.53
982.878	3709.79
983.177	3704.59
983.475	3662.33
983.774	3607.87
984.073	3647.64
984.372	3645.16
984.67	3612.39
984.969	3620.3
985.267	3599.28
985.566	3580.98
985.864	3594.99
986.162	3550.02
986.461	3508.66
986.759	3527.65
987.057	3458.04
987.355	3451.49
987.653	3445.39
987.951	3440.42
988.249	3415.33
988.547	3429.8
988.844	3365.17
989.142	3392.06
989.44	3375.56
989.737	3332.17
990.035	3329.91
990.332	3307.54
990.63	3278.84
990.927	3301.44
991.224	3282.91
991.521	3235.23
991.819	3272.74
992.116	3186.41
992.413	3173.08
992.71	3201.1
993.006	3192.06
993.303	3192.97
993.6	3156.13
993.897	3128.11
994.193	3123.36
994.49	3076.81
994.787	3065.51
995.083	3078.39
995.379	3040.88
995.676	3042.24
995.972	3054.21
996.268	3021.67
996.565	2968.57
996.861	2970.83
997.157	2932.63
997.453	2905.52
997.749	2906.65
998.044	2920.66
998.34	2889.02
998.636	2860.09
998.932	2850.15
999.227	2817.16
999.523	2812.19
999.818	2816.03
1000.114	2742.58
1000.409	2783.26
1000.704	2748.68
1001	2748.91
1001.295	2743.49
1001.59	2646.77
1001.885	2714.56
1002.18	2665.75
1002.475	2709.14
1002.77	2657.61
1003.065	2652.42
1003.359	2621.46
1003.654	2607.22
1003.949	2559.99
1004.243	2564.73
1004.538	2542.81
1004.832	2554.11
1005.127	2564.73
1005.421	2535.36
1005.715	2524.06
1006.009	2503.72
1006.304	2455.59
1006.598	2456.72
1006.892	2444.96
1007.186	2422.37
1007.48	2362.71
1007.773	2380.78
1008.067	2374.68
1008.361	2392.99
1008.655	2313.44
1008.948	2357.28
1009.242	2344.18
1009.535	2330.39
1009.829	2331.07
1010.122	2316.83
1010.415	2283.39
1010.708	2280.22
1011.001	2227.79
1011.295	2212.65
1011.588	2214.46
1011.881	2218.3
1012.173	2181.69
1012.466	2167.46
1012.759	2162.26
1013.052	2176.5
1013.344	2125.88
1013.637	2155.03
1013.93	2108.7
1014.222	2108.25
1014.514	2067.35
1014.807	2064.41
1015.099	2052.21
1015.391	2056.95
1015.683	2031.42
1015.976	2022.15
1016.268	1998.42
1016.56	1990.96
1016.851	1990.29
1017.143	1992.77
1017.435	1973.11
1017.727	1932.66
1018.018	1924.98
1018.31	1897.63
1018.602	1902.83
1018.893	1905.77
1019.185	1889.95
1019.476	1842.72
1019.767	1869.61
1020.058	1840.23
1020.35	1840.23
1020.641	1823.96
1020.932	1791.42
1021.223	1797.75
1021.514	1770.63
1021.804	1757.52
1022.095	1790.97
1022.386	1774.93
1022.677	1729.28
1022.967	1705.32
1023.258	1712.1
1023.548	1717.07
1023.839	1658.32
1024.129	1666.45
1024.419	1678.88
1024.709	1636.4
1025	1644.08
1025.29	1632.56
1025.58	1587.59
1025.87	1604.76
1026.16	1611.09
1026.449	1574.03
1026.739	1578.32
1027.029	1584.42
1027.319	1545.55
1027.608	1536.06
1027.898	1541.03
1028.187	1521.6
1028.477	1536.06
1028.766	1490.64
1029.055	1480.24
1029.344	1475.72
1029.634	1469.17
1029.923	1468.27
1030.212	1446.12
1030.501	1457.87
1030.79	1439.11
1031.078	1408.83
1031.367	1404.31
1031.656	1386.69
1031.945	1395.05
1032.233	1383.3
1032.522	1360.92
1032.81	1357.99
1033.099	1371.32
1033.387	1339
1033.675	1318.67
1033.963	1326.12
1034.251	1306.01
1034.54	1287.93
1034.828	1294.71
1035.116	1282.73
1035.403	1269.18
1035.691	1267.37
1035.979	1275.5
1036.267	1256.52
1036.554	1251.1
1036.842	1250.87
1037.129	1248.39
1037.417	1221.72
1037.704	1202.28
1037.992	1211.55
1038.279	1197.31
1038.566	1181.49
1038.853	1181.49
1039.14	1181.49
