Data from white_steel_sheet_FLMS001491_041.txt Node
Date: Tue Feb 07 10:57:54 GMT 2017
User: dcchb
Spectrometer: FLMS00149
Trigger mode: 0
Integration Time (sec): 2.000000E-2
Scans to average: 10
Electric dark correction enabled: true
Nonlinearity correction enabled: false
Boxcar width: 0
XAxis mode: Wavelengths
Number of Pixels in Spectrum: 2048
>>>>>Begin Spectral Data<<<<<
341.393	-19.91
341.776	-19.91
342.16	-19.91
342.543	-73.7
342.927	-47.71
343.31	-75.51
343.693	-67.15
344.077	-45.45
344.46	-49.52
344.843	-48.16
345.226	-31.44
345.61	-25.79
345.993	-22.85
346.376	-8.62
346.759	-3.87
347.142	32.74
347.525	38.16
347.908	57.15
348.291	88.11
348.674	79.07
349.057	83.13
349.44	124.04
349.823	128.33
350.206	173.53
350.588	203.13
350.971	225.5
351.354	215.11
351.737	263.24
352.119	263.69
352.502	276.12
352.884	278.16
353.267	280.64
353.65	298.72
354.032	301.66
354.414	310.47
354.797	323.81
355.179	343.69
355.562	314.09
355.944	327.42
356.326	343.01
356.709	340.98
357.091	342.34
357.473	342.79
357.855	336.91
358.238	356.57
358.62	350.7
359.002	346.63
359.384	346.18
359.766	335.33
360.148	352.96
360.53	336.91
360.912	333.97
361.294	343.92
361.676	338.72
362.057	331.26
362.439	345.27
362.821	335.78
363.203	343.69
363.584	334.88
363.966	334.88
364.348	335.33
364.729	339.62
365.111	310.25
365.493	346.18
365.874	327.87
366.256	316.8
366.637	316.12
367.019	303.01
367.4	321.55
367.781	316.8
368.163	343.92
368.544	334.43
368.925	338.72
369.306	334.43
369.688	336.23
370.069	322.68
370.45	335.78
370.831	337.14
371.212	340.08
371.593	323.81
371.974	327.19
372.355	314.99
372.736	329.68
373.117	323.35
373.498	338.72
373.879	337.59
374.26	325.39
374.641	323.81
375.021	336.01
375.402	342.56
375.783	340.08
376.163	337.82
376.544	348.21
376.925	373.07
377.305	329.23
377.686	353.41
378.066	371.04
378.447	352.28
378.827	334.43
379.208	361.54
379.588	348.66
379.968	359.51
380.349	355.22
380.729	340.08
381.109	354.76
381.489	346.4
381.87	350.47
382.25	358.15
382.63	348.21
383.01	367.87
383.39	370.81
383.77	394.54
384.15	375.1
384.53	363.35
384.91	372.62
385.29	380.53
385.67	394.99
386.049	380.75
386.429	368.1
386.809	388.21
387.189	413.97
387.568	400.41
387.948	374.2
388.328	394.31
388.707	404.93
389.087	413.07
389.466	411.94
389.846	406.51
390.225	423.46
390.605	408.77
390.984	416.68
391.363	452.16
391.743	447.42
392.122	458.94
392.501	447.87
392.881	435.44
393.26	453.97
393.639	470.47
394.018	441.09
394.397	453.75
394.776	438.15
395.155	447.87
395.534	464.37
395.913	478.83
396.292	479.06
396.671	506.85
397.05	517.02
397.429	479.51
397.808	499.85
398.186	507.76
398.565	517.92
398.944	521.09
399.323	510.92
399.701	535.32
400.08	538.94
400.458	525.83
400.837	553.4
401.215	549.79
401.594	565.83
401.972	567.64
402.351	611.71
402.729	584.59
403.107	577.81
403.486	612.84
403.864	609.9
404.242	619.16
404.62	617.36
404.999	642.67
405.377	623.91
405.755	642.67
406.133	666.39
406.511	677.69
406.889	667.52
407.267	676.11
407.645	721.31
408.023	712.95
408.401	726.05
408.779	715.89
409.156	734.87
409.534	772.38
409.912	782.55
410.29	772.15
410.667	791.36
411.045	804.7
411.422	798.82
411.8	825.49
412.178	836.56
412.555	848.09
412.933	889.44
413.31	853.51
413.687	853.96
414.065	867.75
414.442	899.16
414.819	916.56
415.197	904.35
415.574	948.87
415.951	951.13
416.328	957.01
416.705	944.35
417.082	993.39
417.46	985.03
417.837	990
418.214	1025.26
418.591	1016.67
418.967	1029.1
419.344	1011.92
419.721	1040.85
420.098	1041.07
420.475	1067.74
420.852	1059.83
421.228	1104.8
421.605	1093.5
421.982	1089.21
422.358	1136.67
422.735	1135.31
423.111	1135.99
423.488	1128.98
423.864	1158.81
424.241	1185.25
424.617	1179.38
424.994	1202.2
425.37	1226.83
425.746	1213.05
426.123	1230.67
426.499	1254.85
426.875	1249.66
427.251	1286.94
427.627	1306.38
428.003	1315.87
428.379	1315.42
428.756	1323.55
429.132	1372.14
429.507	1388.41
429.883	1414.17
430.259	1435.41
430.635	1421.18
431.011	1432.48
431.387	1481.29
431.763	1503.21
432.138	1520.38
432.514	1522.19
432.89	1529.2
433.265	1566.94
433.641	1608.07
434.016	1606.94
434.392	1642.41
434.767	1674.05
435.143	1657.33
435.518	1705.46
435.894	1701.17
436.269	1747.95
436.644	1768.06
437.02	1764.45
437.395	1774.61
437.77	1796.76
438.145	1827.95
438.52	1830.43
438.895	1861.39
439.271	1880.83
439.646	1906.59
440.021	1917.89
440.395	1935.06
440.77	1919.24
441.145	1944.1
441.52	1978.22
441.895	1983.65
442.27	2008.05
442.645	2005.34
443.019	2022.07
443.394	2060.71
443.769	2087.37
444.143	2068.17
444.518	2088.73
444.892	2113.59
445.267	2117.88
445.641	2120.14
446.016	2123.08
446.39	2177.77
446.764	2184.55
447.139	2193.81
447.513	2221.38
447.887	2227.94
448.262	2271.55
448.636	2267.03
449.01	2285.11
449.384	2298.22
449.758	2325.11
450.132	2354.49
450.506	2402.85
450.88	2347.93
451.254	2366.92
451.628	2431.77
452.002	2469.29
452.376	2483.07
452.75	2498.89
453.123	2519.68
453.497	2585.21
453.871	2568.72
454.244	2657.08
454.618	2664.08
454.992	2647.81
455.365	2678.09
455.739	2743.18
456.112	2786.34
456.486	2849.61
456.859	2851.87
457.232	2900.01
457.606	2880.8
457.979	2925.77
458.352	2952.89
458.725	3012.55
459.099	3053.22
459.472	3083.05
459.845	3119.44
460.218	3122.38
460.591	3128.93
460.964	3176.61
461.337	3241.24
461.71	3302.03
462.083	3346.55
462.456	3363.05
462.829	3342.93
463.201	3419.54
463.574	3444.63
463.947	3536.6
464.32	3577.05
464.692	3615.47
465.065	3609.59
465.438	3687.33
465.81	3743.15
466.183	3771.85
466.555	3839.42
466.928	3841
467.3	3915.35
467.672	3932.98
468.045	4059.75
468.417	4003.93
468.789	4088.68
469.161	4126.64
469.534	4239.41
469.906	4258.84
470.278	4304.04
470.65	4348.11
471.022	4435.79
471.394	4491.38
471.766	4532.06
472.138	4620.19
472.51	4665.84
472.882	4773.63
473.253	4826.74
473.625	4934.98
473.997	5034.64
474.369	5067.86
474.74	5081.19
475.112	5179.72
475.484	5237.57
475.855	5334.52
476.227	5348.53
476.598	5545.14
476.97	5601.86
477.341	5740.84
477.713	5809.08
478.084	5814.73
478.455	5939.02
478.827	6060.15
479.198	6222.41
479.569	6210.2
479.94	6382.18
480.311	6440.48
480.682	6547.14
481.053	6708.72
481.424	6819.68
481.795	6866.46
482.166	6988.94
482.537	7134.02
482.908	7259.22
483.279	7349.38
483.65	7412.43
484.021	7557.97
484.391	7712.09
484.762	7755.47
485.133	7875.7
485.503	7923.38
485.874	8134.45
486.244	8281.34
486.615	8380.09
486.985	8494.89
487.356	8640.65
487.726	8696.69
488.097	8843.81
488.467	8882.22
488.837	9105.04
489.207	9213.06
489.578	9309.11
489.948	9452.6
490.318	9609.66
490.688	9643.79
491.058	9691.02
491.428	9867.06
491.798	9965.36
492.168	10176.43
492.538	10171.68
492.908	10344.56
493.278	10453.48
493.648	10473.14
494.017	10667.04
494.387	10753.81
494.757	10763.3
495.126	10975.73
495.496	10958.33
495.866	11142.05
496.235	11279.68
496.605	11341.37
496.974	11338.2
497.344	11526.9
497.713	11563.28
498.082	11700
498.452	11744.97
498.821	11900.45
499.19	11947.45
499.559	12064.06
499.928	12125.53
500.298	12150.61
500.667	12303.83
501.036	12288.46
501.405	12418.63
501.774	12494.11
502.143	12601.9
502.512	12623.14
502.88	12753.08
503.249	12835.79
503.618	12981.55
503.987	13060.87
504.356	13124.82
504.724	13228.32
505.093	13272.39
505.462	13321.2
505.83	13465.83
506.199	13544.25
506.567	13827.18
506.936	13790.34
507.304	13914.41
507.672	14005.48
508.041	14173.16
508.409	14256.09
508.777	14280.05
509.145	14387.16
509.514	14415.41
509.882	14612.92
510.25	14652.92
510.618	14708.51
510.986	14830.32
511.354	15006.81
511.722	15093.81
512.09	15233.02
512.458	15307.82
512.826	15417.87
513.193	15476.17
513.561	15573.57
513.929	15700.12
514.297	15863.28
514.664	15922.04
515.032	16064.63
515.4	16176.27
515.767	16337.4
516.135	16452.87
516.502	16301.92
516.869	16653.77
517.237	16766.31
517.604	16726.54
517.972	16962.01
518.339	17086.08
518.706	17145.96
519.073	17232.96
519.44	17374.43
519.808	17659.85
520.175	17550.7
520.542	17872.5
520.909	17971.48
521.276	17942.1
521.643	18241.3
522.009	18418.7
522.376	18503.67
522.743	18618.24
523.11	18806.03
523.477	18876.09
523.843	19057.1
524.21	19275.85
524.577	19450.31
524.943	19497.31
525.31	19616.86
525.676	19801.71
526.043	20034.7
526.409	20067.01
526.776	20272.43
527.142	20336.84
527.508	20513.78
527.874	20628.58
528.241	20816.6
528.607	20847.33
528.973	21106.99
529.339	21085.07
529.705	21338.62
530.071	21502.01
530.437	21565.73
530.803	21613.41
531.169	21873.29
531.535	21782.45
531.901	21998.94
532.267	22032.16
532.632	22253.62
532.998	22391.7
533.364	22538.36
533.73	22545.14
534.095	22762.76
534.461	22824.23
534.826	23037.78
535.192	23103.77
535.557	23222.19
535.923	23069.2
536.288	23282.75
536.653	23342.18
537.019	23362.75
537.384	23555.06
537.749	23631.44
538.114	23803.19
538.479	23774.49
538.845	23905.33
539.21	23989.62
539.575	24093.12
539.94	24228.49
540.305	24311.87
540.67	24396.39
541.034	24458.09
541.399	24505.54
541.764	24555.71
542.129	24711.64
542.494	24823.5
542.858	24853.1
543.223	24943.72
543.587	25084.74
543.952	25159.76
544.316	25185.3
544.681	25203.6
545.045	25266.88
545.41	25443.14
545.774	25486.76
546.138	25621.22
546.503	25731.95
546.867	25786.86
547.231	25891.49
547.595	25893.08
547.959	25981.66
548.324	26142.11
548.688	26211.26
549.052	26395.66
549.416	26373.74
549.779	26341.65
550.143	26465.26
550.507	26611.48
550.871	26826.39
551.235	26818.93
551.599	26880.17
551.962	27042.2
552.326	26968.53
552.689	27194.74
553.053	27182.99
553.417	27252.81
553.78	27613.48
554.143	27506.59
554.507	27625.91
554.87	27723.54
555.234	28080.59
555.597	27887.37
555.96	28081.95
556.323	28255.73
556.686	28253.69
557.05	28531.2
557.413	28510.18
557.776	28682.83
558.139	28882.38
558.502	28799.67
558.865	28984.75
559.228	29210.73
559.59	29147.45
559.953	29375.7
560.316	29638.51
560.679	29682.36
561.041	29822.24
561.404	29923.7
561.767	30125.96
562.129	30174.09
562.492	30406.18
562.854	30421.54
563.217	30402.34
563.579	30586.51
563.941	30772.95
564.304	30774.53
564.666	31023.56
565.028	31182.88
565.39	31264.23
565.753	31455.64
566.115	31469.88
566.477	31717.33
566.839	31791.68
567.201	31936.08
567.563	32000.26
567.925	32142.4
568.287	32073.03
568.648	32270.54
569.01	32430.31
569.372	32688.38
569.734	32584.65
570.095	32891.54
570.457	32802.5
570.819	32946.45
571.18	32942.83
571.542	33120.46
571.903	33220.57
572.265	33334.01
572.626	33491.97
572.987	33432.76
573.349	33585.76
573.71	33725.64
574.071	33686.77
574.432	33795.92
574.794	34079.3
575.155	34006.99
575.516	33950.27
575.877	34102.58
576.238	34195.23
576.599	34381.89
576.96	34311.84
577.32	34403.81
577.681	34523.36
578.042	34576.92
578.403	34528.1
578.763	34557.03
579.124	34634.77
579.485	34782.56
579.845	34743.24
580.206	34636.12
580.566	34733.97
580.927	34756.8
581.287	34914.76
581.648	34816.23
582.008	34973.97
582.368	34928.32
582.728	35067.3
583.089	34985.49
583.449	34866.63
583.809	35044.25
584.169	35062.33
584.529	34989.79
584.889	35288.08
585.249	35056.9
585.609	34957.24
585.969	35200.18
586.329	35056.23
586.688	35085.38
587.048	34866.85
587.408	34991.59
587.768	34976.68
588.127	34990.69
588.487	34901.43
588.846	35279.04
589.206	34915.89
589.565	35019.16
589.925	35220.51
590.284	35056.68
590.643	35162.66
591.003	35170.35
591.362	35240.4
591.721	35077.02
592.08	35086.51
592.44	35216.9
592.799	35072.72
593.158	35169.67
593.517	35132.16
593.876	35081.76
594.235	35034.3
594.593	35272.94
594.952	35203.34
595.311	35202.21
595.67	35170.35
596.029	35439.94
596.387	35358.36
596.746	35359.95
597.104	35212.83
597.463	35280.17
597.822	35289.67
598.18	35204.24
598.538	35248.54
598.897	35573.27
599.255	35140.52
599.613	35706.38
599.972	35445.14
600.33	35386.16
600.688	35324.47
601.046	35379.38
601.404	35441.07
601.762	35479.26
602.12	35678.36
602.478	35576.66
602.836	35544.35
603.194	35425.25
603.552	35483.78
603.91	35411.7
604.268	35559.94
604.625	35376.89
604.983	35574.86
605.341	35427.74
605.698	35667.06
606.056	35775.3
606.413	35643.78
606.771	35793.61
607.128	35821.4
607.485	35729.65
607.843	35663.89
608.2	35890.33
608.557	36002.19
608.914	35828.86
609.272	35890.33
609.629	36038.12
609.986	36162.41
610.343	36046.93
610.7	36303.2
611.057	36293.25
611.414	36132.58
611.771	36149.76
612.127	36326.7
612.484	36435.85
612.841	36457.77
613.198	36232.47
613.554	36216.42
613.911	36673.58
614.267	36479.92
614.624	36457.32
614.98	36616.86
615.337	36650.31
615.693	36659.35
616.05	36602.63
616.406	36813.47
616.762	36780.02
617.118	36703.64
617.475	36731.44
617.831	36986.12
618.187	36897.76
618.543	36870.64
618.899	37002.61
619.255	37129.16
619.611	37251.2
619.967	37213
620.323	37124.87
620.678	36974.59
621.034	36854.37
621.39	36981.82
621.746	36770.3
622.101	37405.77
622.457	36978.89
622.812	37115.61
623.168	37260.91
623.523	37180.92
623.879	37382.27
624.234	37127.58
624.589	37202.61
624.945	37093.46
625.3	37181.14
625.655	37259.56
626.01	37146.34
626.365	37213.91
626.72	37224.98
627.075	37086
627.43	37058.43
627.785	37059.56
628.14	37147.24
628.495	37166.45
628.85	37060.47
629.205	36974.59
629.559	37226.11
629.914	37117.19
630.269	37093.01
630.623	36821.15
630.978	36804.65
631.332	37033.12
631.687	37056.62
632.041	36787.71
632.396	36996.51
632.75	36734.37
633.104	36840.36
633.459	36735.28
633.813	36625.45
634.167	36646.92
634.521	36503.19
634.875	36615.28
635.229	36594.72
635.583	36357.89
635.937	36445.79
636.291	36255.29
636.645	36367.38
636.999	36187.04
637.352	36285.57
637.706	36020.95
638.06	36269.75
638.413	36212.8
638.767	36085.12
639.121	35930.1
639.474	35911.8
639.828	35871.34
640.181	35928.07
640.534	35869.76
640.888	35794.06
641.241	35537.57
641.594	35639.71
641.947	35843.1
642.301	35630.45
642.654	35707.28
643.007	35675.19
643.36	35560.39
643.713	35381.19
644.066	35446.27
644.419	35358.59
644.771	35054.19
645.124	34826.17
645.477	34647.87
645.83	34398.16
646.182	34308.67
646.535	34337.15
646.888	34343.25
647.24	34170.37
647.593	34356.58
647.945	34200.88
648.298	34038.4
648.65	34078.17
649.002	33962.47
649.355	33979.64
649.707	33898.06
650.059	34092.41
650.411	34483.81
650.763	34432.29
651.115	34935.55
651.467	34712.96
651.819	34850.81
652.171	34654.2
652.523	34642.9
652.875	34608.78
653.227	34335.57
653.578	34729.23
653.93	34555
654.282	34463.02
654.633	34260.09
654.985	34323.14
655.337	34347.54
655.688	34195.23
656.039	34512.06
656.391	34036.59
656.742	34162.01
657.094	34275.23
657.445	34383.93
657.796	34110.94
658.147	34082.47
658.498	34032.52
658.849	34147.1
659.2	33952.98
659.551	33913.2
659.902	34079.3
660.253	33883.37
660.604	33940.55
660.955	33642.48
661.306	33753.66
661.656	33655.13
662.007	33659.2
662.358	33675.92
662.708	33624.85
663.059	33705.07
663.409	33337.17
663.76	33542.59
664.11	33536.27
664.461	33594.34
664.811	33516.38
665.161	33367
665.511	33335.14
665.862	33193
666.212	33298.31
666.562	33219.89
666.912	33018.99
667.262	33081.14
667.612	32901.71
667.962	32913.46
668.312	32859.45
668.662	32838.2
669.011	32632.33
669.361	32660.13
669.711	32582.17
670.06	32505.78
670.41	32403.64
670.76	32186.02
671.109	32367.71
671.459	32316.86
671.808	32147.15
672.157	32174.94
672.507	31909.64
672.856	31940.6
673.205	31954.61
673.554	31976.31
673.904	31784.45
674.253	31974.72
674.602	31892.47
674.951	31286.15
675.3	31109.66
675.649	31653.6
675.998	31696.99
676.346	31609.76
676.695	31710.32
677.044	31509.2
677.393	31580.38
677.741	31651.12
678.09	31471.91
678.438	31449.77
678.787	31463.78
679.135	31365.47
679.484	31224.01
679.832	31350.33
680.181	31189.21
680.529	31455.87
680.877	31116.22
681.225	31161.86
681.573	31328.19
681.922	31096.78
682.27	31128.87
682.618	31266.72
682.966	31299.04
683.314	31142.43
683.661	31095.65
684.009	31036.22
684.357	31123.9
684.705	31038.48
685.053	31205.03
685.4	31089.32
685.748	30989.67
686.095	31107.4
686.443	30986.5
686.79	30988.31
687.138	30904.7
687.485	30982.21
687.832	30882.32
688.18	30894.07
688.527	30992.6
688.874	30878.93
689.221	30904.24
689.568	30861.99
689.915	30927.07
690.262	30860.18
690.609	30748.32
690.956	30678.94
691.303	30715.32
691.65	30553.52
691.997	30583.12
692.344	30512.39
692.69	30443.69
693.037	30454.09
693.383	30257.71
693.73	30475.55
694.077	30318.04
694.423	30293.86
694.769	30311.27
695.116	30143.59
695.462	30233.98
695.808	30143.13
696.155	30241.89
696.501	29903.14
696.847	30052.74
697.193	29815.68
697.539	29865.63
697.885	29767.1
698.231	29611.17
698.577	29601.91
698.923	29637.38
699.269	29347.9
699.614	29401.68
699.96	29328.47
700.306	29370.95
700.651	29218.86
700.997	29231.07
701.342	29107.23
701.688	28942.49
702.033	28900
702.379	29009.15
702.724	28882.83
703.069	28847.8
703.415	28622.5
703.76	28642.61
704.105	28544.76
704.45	28432.67
704.795	28208.04
705.14	28142.06
705.485	28187.71
705.83	28168.95
706.175	28241.26
706.52	27949.97
706.865	27980.93
707.209	27966.69
707.554	27949.75
707.899	28011.89
708.243	27755.85
708.588	27659.58
708.932	27574.16
709.277	27534.84
709.621	27586.82
709.966	27403.09
710.31	27453.71
710.654	27162.42
710.998	27318.35
711.342	27226.6
711.687	27152.93
712.031	27032.03
712.375	26943.22
712.719	26934.4
713.063	26935.31
713.407	26932.82
713.75	26753.39
714.094	26825.48
714.438	26753.17
714.782	26720.4
715.125	26540.06
715.469	26677.01
715.812	26484.93
716.156	26449.45
716.499	26411.25
716.843	26425.04
717.186	26358.15
717.53	26421.65
717.873	26291.03
718.216	26208.55
718.559	26189.79
718.902	25939.85
719.246	26068.89
719.589	25940.31
719.932	25886.75
720.275	25752.29
720.617	25795.9
720.96	25793.19
721.303	25723.82
721.646	25794.55
721.989	25507.32
722.331	25678.84
722.674	25407.44
723.016	25484.73
723.359	25562.69
723.701	25527.21
724.044	25350.27
724.386	25184.62
724.729	25342.13
725.071	25180.78
725.413	25216.71
725.755	25231.85
726.097	25015.36
726.439	24870.28
726.782	25050.61
727.124	25196.6
727.465	24955.47
727.807	24946.43
728.149	24763.84
728.491	24813.33
728.833	24753.67
729.175	24742.37
729.516	24728.14
729.858	24695.59
730.199	24657.63
730.541	24582.83
730.882	24507.8
731.224	24553
731.565	24441.14
731.906	24400.91
732.248	24403.62
732.589	24315.26
732.93	24226.68
733.271	24180.58
733.612	24254.7
733.953	24261.25
734.294	24070.75
734.635	24055.84
734.976	24121.15
735.317	23953.47
735.658	23989.17
735.999	24008.15
736.339	23940.81
736.68	23976.06
737.021	23925.44
737.361	23728.39
737.702	23760.93
738.042	23726.58
738.383	23698.56
738.723	23652.46
739.063	23577.43
739.404	23703.08
739.744	23614.94
740.084	23476.64
740.424	23473.03
740.764	23537.66
741.104	23510.77
741.444	23410.2
741.784	23376.08
742.124	23445.23
742.464	23254.5
742.804	23306.25
743.143	23265.12
743.483	23169.08
743.823	23127.95
744.162	23096.77
744.502	23212.02
744.841	23063.77
745.181	23049.31
745.52	22932.7
745.86	22979.71
746.199	22868.97
746.538	22728.87
746.877	22812.93
747.216	22816.55
747.556	22726.61
747.895	22660.62
748.234	22642.54
748.573	22557.8
748.911	22536.78
749.25	22621.52
749.589	22418.82
749.928	22484.58
750.267	22570
750.605	22448.42
750.944	22338.37
751.283	22182.67
751.621	22243.23
751.96	22160.29
752.298	22132.27
752.636	22140.41
752.975	22051.82
753.313	21937.47
753.651	21924.37
753.989	21850.7
754.327	21909.9
754.666	21719.63
755.004	21818.61
755.342	21831.26
755.679	21668.1
756.017	21658.84
756.355	21646.86
756.693	21570.25
757.031	21515.11
757.368	21414.32
757.706	21364.83
758.044	21285.06
758.381	21296.36
758.719	21127.55
759.056	21193.54
759.394	21099.08
759.731	20960.55
760.068	20960.55
760.405	20820.67
760.743	20798.52
761.08	20864.06
761.417	20749.71
761.754	20713.1
762.091	20551.75
762.428	20544.52
762.765	20392.2
763.102	20438.76
763.438	20352.66
763.775	20254.35
764.112	20276.73
764.449	20281.92
764.785	20013.68
765.122	19995.15
765.458	20018.43
765.795	19877.87
766.131	19948.37
766.467	19893.46
766.804	19815.72
767.14	19599.23
767.476	19542.28
767.812	19465.22
768.148	19493.92
768.485	19389.07
768.821	19316.98
769.157	19265.91
769.492	19236.53
769.828	19226.13
770.164	18969.87
770.5	19024.1
770.836	19002.64
771.171	18813.49
771.507	18784.79
771.842	18769.42
772.178	18746.82
772.513	18703.21
772.849	18599.71
773.184	18521.74
773.519	18366.27
773.855	18318.36
774.19	18287.63
774.525	18244.69
774.86	18258.47
775.195	18156.56
775.53	18157.69
775.865	18018.03
776.2	17876.11
776.535	17771.03
776.87	17840.63
777.205	17686.29
777.539	17624.82
777.874	17678.15
778.209	17494.43
778.543	17378.95
778.878	17304.15
779.212	17355.9
779.547	17193.42
779.881	17225.06
780.215	17092.63
780.55	17134.44
780.884	16991.39
781.218	16957.49
781.552	16915.69
781.886	16859.19
782.22	16683.6
782.554	16669.82
782.888	16529.93
783.222	16479.54
783.556	16424.62
783.889	16361.35
784.223	16333.78
784.557	16306.89
784.89	16272.76
785.224	16167.91
785.557	16079.32
785.891	16096.27
786.224	16009.27
786.558	15976.73
786.891	15862.38
787.224	15720.24
787.557	15723.17
787.891	15746.22
788.224	15684.08
788.557	15647.02
788.89	15639.33
789.223	15593.01
789.556	15524.99
789.888	15471.2
790.221	15361.15
790.554	15254.49
790.887	15258.1
791.219	15212.68
791.552	15180.82
791.884	15103.08
792.217	14979.92
792.549	14925.23
792.882	14834.16
793.214	14741.51
793.546	14861.5
793.879	14726.36
794.211	14666.03
794.543	14664.67
794.875	14599.81
795.207	14622.86
795.539	14552.81
795.871	14529.08
796.203	14473.49
796.535	14308.97
796.867	14230.56
797.198	14208.41
797.53	14195.3
797.862	14131.8
798.193	14151.69
798.525	14129.09
798.856	14077.79
799.188	14000.51
799.519	13886.61
799.85	13854.75
800.182	13757.8
800.513	13870.12
800.844	13655.66
801.175	13738.14
801.506	13685.49
801.837	13621.99
802.168	13670.57
802.499	13550.58
802.83	13499.5
803.161	13499.96
803.491	13515.77
803.822	13428.09
804.153	13392.39
804.483	13268.1
804.814	13253.63
805.145	13247.76
805.475	13238.27
805.805	13145.61
806.136	13278.94
806.466	13130.25
806.796	13127.08
807.126	13026.3
807.457	13060.42
807.787	13024.49
808.117	12886.64
808.447	12809.35
808.777	12867.66
809.107	12808
809.436	12776.81
809.766	12756.02
810.096	12649.58
810.426	12598.74
810.755	12667.66
811.085	12617.04
811.414	12565.52
811.744	12501.34
812.073	12449.81
812.403	12403.26
812.732	12424.05
813.061	12403.26
813.39	12336.37
813.719	12337.73
814.049	12331.4
814.378	12286.2
814.707	12259.76
815.036	12263.15
815.365	12192.19
815.693	12091.63
816.022	12018.19
816.351	12011.86
816.68	11955.82
817.008	12012.76
817.337	11861.58
817.665	11869.94
817.994	11849.38
818.322	11836.04
818.651	11756.72
818.979	11706.78
819.307	11785.88
819.636	11757.85
819.964	11638.08
820.292	11687.35
820.62	11747.91
820.948	11637.18
821.276	11675.6
821.604	11667.46
821.932	11609.38
822.259	11614.58
822.587	11620.01
822.915	11594.24
823.243	11611.87
823.57	11611.87
823.898	11572.32
824.225	11508.82
824.553	11524.87
824.88	11479.9
825.207	11578.2
825.535	11478.31
825.862	11582.27
826.189	11514.47
826.516	11583.85
826.843	11576.84
827.17	11595.6
827.497	11591.08
827.824	11649.83
828.151	11550.85
828.478	11545.88
828.805	11618.2
829.131	11558.76
829.458	11549.5
829.785	11480.35
830.111	11495.04
830.438	11557.63
830.764	11445.09
831.09	11527.13
831.417	11455.94
831.743	11640.57
832.069	11476.96
832.395	11453.46
832.722	11528.26
833.048	11410.52
833.374	11472.66
833.7	11392.44
834.026	11480.8
834.351	11416.39
834.677	11398.54
835.003	11437.64
835.329	11408.03
835.654	11328.04
835.98	11323.06
836.306	11335.49
836.631	11272.44
836.956	11386.79
837.282	11300.01
837.607	11288.26
837.932	11251.65
838.258	11269.28
838.583	11197.42
838.908	11125.78
839.233	11171.2
839.558	11175.95
839.883	11180.47
840.208	11067.25
840.533	11118.1
840.858	11027.25
841.182	11042.62
841.507	11010.53
841.832	11053.01
842.156	11047.14
842.481	10963.07
842.805	10940.7
843.13	10956.75
843.454	10885.79
843.778	10814.6
844.103	10815.51
844.427	10818.9
844.751	10881.49
845.075	10814.6
845.399	10732.8
845.723	10622.97
846.047	10642.18
846.371	10615.74
846.695	10582.07
847.019	10470.66
847.343	10472.01
847.666	10385.24
847.99	10437.21
848.313	10368.29
848.637	10282.64
848.96	10222.98
849.284	10210.32
849.607	10124.9
849.931	10132.36
850.254	10135.3
850.577	9974.4
850.9	9987.51
851.223	9987.73
851.546	9884.91
851.869	9820.73
852.192	9951.35
852.515	9784.35
852.838	9817.11
853.161	9797.91
853.483	9724.01
853.806	9665.93
854.129	9647.4
854.451	9655.31
854.774	9545.71
855.096	9586.61
855.419	9458.48
855.741	9550
856.063	9474.07
856.385	9405.15
856.708	9407.18
857.03	9316.56
857.352	9381.42
857.674	9366.51
857.996	9330.57
858.318	9280.86
858.64	9213.29
858.961	9237.24
859.283	9186.4
859.605	9157.92
859.926	9164.48
860.248	9080.18
860.57	9105.95
860.891	9087.42
861.212	9018.04
861.534	9084.03
861.855	8929
862.176	9006.51
862.498	9020.53
862.819	8987.98
863.14	8910.92
863.461	8835.45
863.782	8924.03
864.103	8871.38
864.424	8897.14
864.745	8826.41
865.065	8811.04
865.386	8765.62
865.707	8791.15
866.027	8753.41
866.348	8728.33
866.668	8735.34
866.989	8761.78
867.309	8675.9
867.63	8662.34
867.95	8618.28
868.27	8596.13
868.59	8583.02
868.91	8592.97
869.23	8592.97
869.55	8547.77
869.87	8562.68
870.19	8544.15
870.51	8527.43
870.83	8572.18
871.15	8506.64
871.469	8513.87
871.789	8526.75
872.109	8489.01
872.428	8449.47
872.748	8419.64
873.067	8473.2
873.386	8459.64
873.706	8476.81
874.025	8337.15
874.344	8379.86
874.663	8395.91
874.982	8416.7
875.301	8358.85
875.62	8310.49
875.939	8288.12
876.258	8320.66
876.577	8276.36
876.896	8305.29
877.214	8167.89
877.533	8167.44
877.852	8255.57
878.17	8258.29
878.489	8263.71
878.807	8212.86
879.125	8159.31
879.444	8183.03
879.762	8144.84
880.08	8181
880.398	8066.43
880.716	8018.97
881.034	8136.71
881.352	8075.92
881.67	8022.81
881.988	8032.3
882.306	8010.38
882.624	8008.35
882.941	7937.62
883.259	7943.04
883.577	7937.16
883.894	7915.24
884.212	7937.39
884.529	7869.6
884.846	7894.91
885.164	7842.03
885.481	7813.1
885.798	7813.33
886.115	7775.59
886.432	7750.05
886.75	7699.88
887.067	7724.06
887.383	7641.35
887.7	7693.55
888.017	7637.74
888.334	7643.16
888.651	7585.08
888.967	7636.83
889.284	7569.04
889.6	7537.4
889.917	7540.79
890.233	7510.73
890.55	7501.92
890.866	7475.71
891.182	7426.9
891.498	7346.9
891.815	7385.54
892.131	7313.68
892.447	7290.18
892.763	7303.96
893.079	7339.89
893.395	7257.41
893.71	7304.64
894.026	7216.96
894.342	7205.43
894.657	7218.76
894.973	7146.45
895.289	7190.29
895.604	7167.69
895.92	7099.45
896.235	7101.25
896.55	7107.36
896.865	7057.19
897.181	7012.67
897.496	7050.86
897.811	7024.87
898.126	6946.46
898.441	6887.02
898.756	6936.06
899.071	6915.27
899.386	6898.1
899.7	6839.34
900.015	6811.09
900.33	6777.87
900.644	6738.1
900.959	6749.17
901.273	6698.1
901.588	6706.24
901.902	6692.23
902.216	6652.23
902.531	6577.88
902.845	6562.51
903.159	6592.79
903.473	6592.11
903.787	6530.2
904.101	6457.2
904.415	6459.91
904.729	6423.98
905.042	6387.37
905.356	6365.23
905.67	6356.64
905.984	6338.79
906.297	6289.3
906.611	6306.25
906.924	6309.64
907.237	6293.14
907.551	6189.19
907.864	6178.79
908.177	6150.09
908.491	6148.28
908.804	6121.39
909.117	6112.13
909.43	6041.39
909.743	6023.77
910.056	6042.52
910.368	6017.21
910.681	5981.51
910.994	5963.2
911.307	5896.54
911.619	5888.18
911.932	5907.39
912.244	5879.37
912.557	5875.98
912.869	5821.51
913.181	5858.35
913.494	5798.01
913.806	5763.21
914.118	5769.99
914.43	5724.12
914.742	5703.1
915.054	5652.48
915.366	5594.63
915.678	5646.38
915.99	5605.25
916.302	5570.22
916.613	5561.86
916.925	5497.68
917.236	5510.56
917.548	5450.9
917.859	5464.46
918.171	5442.54
918.482	5378.59
918.794	5393.5
919.105	5419.04
919.416	5339.94
919.727	5373.84
920.038	5318.48
920.349	5243
920.66	5250.91
920.971	5236.22
921.282	5239.83
921.593	5207.97
921.903	5146.96
922.214	5131.81
922.525	5109.22
922.835	5083
923.146	5068.31
923.456	5059.73
923.767	5062.89
924.077	5046.17
924.387	5025.15
924.697	4956.45
925.008	4966.85
925.318	4932.72
925.628	4971.59
925.938	4936.79
926.248	4875.1
926.558	4854.31
926.867	4850.24
927.177	4825.83
927.487	4775.44
927.796	4765.5
928.106	4721.2
928.416	4753.75
928.725	4739.51
929.034	4706.74
929.344	4685.72
929.653	4678.04
929.962	4581.77
930.271	4623.8
930.581	4652.73
930.89	4579.29
931.199	4523.02
931.508	4499.06
931.817	4510.81
932.125	4506.75
932.434	4493.19
932.743	4475.11
933.051	4441.21
933.36	4400.53
933.669	4375.22
933.977	4363.25
934.286	4329.58
934.594	4358.5
934.902	4334.55
935.21	4297.71
935.519	4318.73
935.827	4279.18
936.135	4223.82
936.443	4210.03
936.751	4158.28
937.059	4234.89
937.367	4182.46
937.674	4172.74
937.982	4163.03
938.29	4140.88
938.597	4118.06
938.905	4050.03
939.213	4083.03
939.52	4060.43
939.827	4072.63
940.135	4068.57
940.442	4002.13
940.749	3982.92
941.056	3983.6
941.363	3956.93
941.67	3931.39
941.977	3916.48
942.284	3886.88
942.591	3903.37
942.898	3889.81
943.205	3811.17
943.511	3841
943.818	3820.66
944.125	3820.44
944.431	3740.89
944.738	3769.82
945.044	3775.24
945.35	3787.44
945.657	3757.61
945.963	3749.93
946.269	3720.33
946.575	3695.24
946.881	3657.73
947.187	3668.12
947.493	3648.92
947.799	3605.3
948.105	3647.33
948.41	3592.19
948.716	3563.04
949.022	3556.49
949.327	3551.52
949.633	3500.44
949.938	3527.34
950.244	3500.9
950.549	3449.37
950.854	3463.16
951.16	3478.98
951.465	3435.59
951.77	3449.82
952.075	3422.71
952.38	3386.1
952.685	3408.7
952.99	3379.09
953.294	3382.48
953.599	3358.53
953.904	3300.45
954.209	3275.14
954.513	3299.77
954.818	3248.7
955.122	3229.04
955.426	3253.45
955.731	3238.3
956.035	3241.47
956.339	3228.59
956.643	3186.55
956.948	3175.93
957.252	3153.34
957.556	3109.49
957.86	3139.55
958.163	3124.64
958.467	3118.76
958.771	3117.86
959.075	3114.69
959.378	3073.34
959.682	3069.04
959.985	3039.44
960.289	3019.1
960.592	2996.05
960.896	2998.54
961.199	3024.52
961.502	2944.75
961.805	2933.23
962.108	2948.37
962.411	2962.15
962.714	2911.76
963.017	2887.13
963.32	2945.66
963.623	2907.47
963.926	2905.88
964.228	2826.34
964.531	2846.22
964.833	2918.99
965.136	2856.17
965.438	2815.72
965.741	2751.54
966.043	2802.38
966.345	2789.5
966.648	2773.91
966.95	2789.05
967.252	2706.57
967.554	2725.55
967.856	2728.49
968.158	2733.23
968.46	2724.65
968.761	2697.08
969.063	2671.77
969.365	2679.9
969.666	2642.39
969.968	2622.95
970.269	2599.45
970.571	2627.47
970.872	2611.88
971.174	2598.1
971.475	2573.01
971.776	2563.07
972.077	2585.89
972.378	2564.2
972.679	2554.03
972.98	2549.06
973.281	2523.97
973.582	2558.32
973.883	2479.23
974.183	2492.56
974.484	2484.88
974.785	2427.03
975.085	2438.78
975.386	2467.03
975.686	2450.08
975.986	2435.61
976.287	2411.21
976.587	2384.54
976.887	2369.63
977.187	2380.47
977.487	2361.27
977.787	2367.82
978.087	2390.19
978.387	2356.97
978.687	2331.21
978.987	2307.93
979.286	2311.32
979.586	2338.22
979.885	2252.57
980.185	2284.88
980.484	2282.62
980.784	2293.02
981.083	2259.12
981.382	2237.43
981.682	2237.2
981.981	2252.34
982.28	2228.61
982.579	2222.74
982.878	2163.3
983.177	2215.51
983.475	2192.91
983.774	2160.37
984.073	2144.77
984.372	2146.81
984.67	2119.92
984.969	2135.28
985.267	2079.92
985.566	2094.38
985.864	2087.6
986.162	2051.22
986.461	2073.82
986.759	2092.8
987.057	2043.31
987.355	2040.37
987.653	2046.92
987.951	2050.99
988.249	2038.56
988.547	2033.82
988.844	2010.54
989.142	2005.34
989.44	2006.25
989.737	1983.2
990.035	1953.37
990.332	1954.95
990.63	1982.97
990.927	1938.9
991.224	1913.37
991.521	1949.75
991.819	1925.34
992.116	1923.76
992.413	1922.41
992.71	1937.32
993.006	1902.07
993.303	1883.99
993.6	1877.66
993.897	1882.86
994.193	1861.84
994.49	1833.6
994.787	1835.4
995.083	1818.23
995.379	1800.83
995.676	1808.51
995.972	1801.96
996.268	1785.01
996.565	1797.89
996.861	1778.68
997.157	1774.61
997.453	1762.64
997.749	1742.3
998.044	1744.33
998.34	1720.6
998.636	1743.65
998.932	1739.36
999.227	1709.98
999.523	1667.27
999.818	1717.89
1000.114	1692.13
1000.409	1688.29
1000.704	1655.97
1001	1671.11
1001.295	1676.31
1001.59	1674.73
1001.885	1636.31
1002.18	1627.27
1002.475	1648.74
1002.77	1649.19
1003.065	1603.77
1003.359	1574.39
1003.654	1614.84
1003.949	1577.33
1004.243	1559.03
1004.538	1552.47
1004.832	1563.77
1005.127	1557.44
1005.421	1522.64
1005.715	1551.34
1006.009	1491.91
1006.304	1511.57
1006.598	1493.94
1006.892	1520.61
1007.186	1505.47
1007.48	1478.58
1007.773	1460.05
1008.067	1467.73
1008.361	1435.87
1008.655	1433.83
1008.948	1440.16
1009.242	1426.15
1009.535	1430.89
1009.829	1411.69
1010.122	1414.17
1010.415	1413.95
1010.708	1394.74
1011.001	1374.85
1011.295	1400.61
1011.588	1400.39
1011.881	1375.75
1012.173	1364.23
1012.466	1365.81
1012.759	1342.99
1013.052	1344.12
1013.344	1329.43
1013.637	1305.47
1013.93	1302.54
1014.222	1307.96
1014.514	1307.73
1014.807	1286.94
1015.099	1259.6
1015.391	1250.56
1015.683	1270.22
1015.976	1242.65
1016.268	1251.01
1016.56	1262.09
1016.851	1247.17
1017.143	1235.87
1017.435	1236.55
1017.727	1238.13
1018.018	1202.43
1018.31	1199.04
1018.602	1221.86
1018.893	1172.6
1019.185	1191.13
1019.476	1154.52
1019.767	1186.61
1020.058	1133.5
1020.35	1126.27
1020.641	1121.98
1020.932	1167.85
1021.223	1133.73
1021.514	1137.57
1021.804	1102.99
1022.095	1129.89
1022.386	1114.29
1022.677	1099.6
1022.967	1109.1
1023.258	1069.77
1023.548	1096.21
1023.839	1066.38
1024.129	1094.18
1024.419	1080.17
1024.709	1045.82
1025	1062.54
1025.29	1060.73
1025.58	1031.58
1025.87	1048.98
1026.16	1019.61
1026.449	1026.16
1026.739	987.74
1027.029	1032.71
1027.319	1018.7
1027.608	1000.4
1027.898	985.48
1028.187	1003.56
1028.477	985.03
1028.766	973.73
1029.055	961.08
1029.344	958.59
1029.634	934.86
1029.923	946.16
1030.212	948.42
1030.501	920.63
1030.79	940.74
1031.078	884.24
1031.367	916.11
1031.656	900.29
1031.945	898.71
1032.233	913.39
1032.522	886.28
1032.81	902.55
1033.099	866.16
1033.387	871.36
1033.675	832.72
1033.963	883.56
1034.251	869.78
1034.54	862.55
1034.828	866.39
1035.116	851.47
1035.403	844.7
1035.691	843.11
1035.979	832.49
1036.267	824.36
1036.554	803.79
1036.842	813.28
1037.129	827.52
1037.417	811.25
1037.704	810.8
1037.992	819.61
1038.279	784.13
1038.566	799.95
1038.853	799.95
1039.14	799.95
