Data from White_reflection_standard_FLMS001491_070.txt Node
Date: Tue Feb 07 10:32:09 GMT 2017
User: dcchb
Spectrometer: FLMS00149
Trigger mode: 0
Integration Time (sec): 2.000000E-2
Scans to average: 10
Electric dark correction enabled: true
Nonlinearity correction enabled: false
Boxcar width: 0
XAxis mode: Wavelengths
Number of Pixels in Spectrum: 2048
>>>>>Begin Spectral Data<<<<<
341.393	-11.12
341.776	-11.12
342.16	-11.12
342.543	-64.22
342.927	-79.36
343.31	-60.38
343.693	-61.28
344.077	-69.65
344.46	-58.57
344.843	-42.53
345.226	-32.81
345.61	-45.24
345.993	-33.94
346.376	-4.34
346.759	10.8
347.142	28.21
347.525	47.41
347.908	62.78
348.291	46.74
348.674	95.32
349.057	117.47
349.44	114.08
349.823	142.78
350.206	166.05
350.588	228.88
350.971	270.46
351.354	249.44
351.737	264.13
352.119	285.83
352.502	301.64
352.884	339.84
353.267	340.06
353.65	340.06
354.032	347.29
354.414	353.85
354.797	367.86
355.179	373.73
355.562	361.3
355.944	388.87
356.326	395.43
356.709	379.61
357.091	408.08
357.473	402.66
357.855	392.72
358.238	403.56
358.62	383
359.002	412.15
359.384	418.25
359.766	396.56
360.148	402.66
360.53	393.17
360.912	409.66
361.294	424.58
361.676	385.03
362.057	397.24
362.439	398.37
362.821	400.17
363.203	402.43
363.584	415.09
363.966	419.61
364.348	416.9
364.729	393.62
365.111	399.27
365.493	383
365.874	406.27
366.256	420.29
366.637	415.77
367.019	402.88
367.4	423
367.781	409.66
368.163	428.87
368.544	416.22
368.925	410.57
369.306	406.73
369.688	430.45
370.069	410.34
370.45	432.71
370.831	428.87
371.212	439.49
371.593	415.54
371.974	429.32
372.355	446.5
372.736	440.17
373.117	437.23
373.498	454.18
373.879	444.24
374.26	470
374.641	410.12
375.021	431.81
375.402	454.41
375.783	467.74
376.163	510
376.544	498.25
376.925	493.5
377.305	477.69
377.686	498.48
378.066	491.47
378.447	490.57
378.827	505.93
379.208	508.19
379.588	519.49
379.968	511.13
380.349	521.98
380.729	526.27
381.109	507.29
381.489	522.2
381.87	533.28
382.25	557.23
382.63	543.9
383.01	557.91
383.39	552.49
383.77	568.76
384.15	568.76
384.53	573.05
384.91	603.33
385.29	579.38
385.67	571.47
386.049	592.71
386.429	603.11
386.809	606.72
387.189	611.69
387.568	630
387.948	645.36
388.328	653.73
388.707	641.97
389.087	660.73
389.466	651.92
389.846	665.48
390.225	679.04
390.605	688.53
390.984	694.63
391.363	727.4
391.743	679.04
392.122	713.16
392.501	728.98
392.881	731.92
393.26	754.06
393.639	751.35
394.018	764.01
394.397	762.65
394.776	787.06
395.155	768.75
395.534	788.64
395.913	778.02
396.292	802.87
396.671	839.26
397.05	812.37
397.429	858.24
397.808	827.51
398.186	873.16
398.565	872.03
398.944	856.88
399.323	882.42
399.701	895.75
400.08	916.54
400.458	902.53
400.837	902.76
401.215	918.35
401.594	912.25
401.972	938.01
402.351	970.78
402.729	961.74
403.107	974.85
403.486	977.79
403.864	988.63
404.242	1001.06
404.62	1021.17
404.999	1031.34
405.377	1035.41
405.755	1038.8
406.133	1078.8
406.511	1053.72
406.889	1085.35
407.267	1094.17
407.645	1133.71
408.023	1158.57
408.401	1161.06
408.779	1173.03
409.156	1181.62
409.534	1196.31
409.912	1229.08
410.29	1237.44
410.667	1232.47
411.045	1272.01
411.422	1270.21
411.8	1314.05
412.178	1304.1
412.555	1351.79
412.933	1357.21
413.31	1369.19
413.687	1396.08
414.065	1400.15
414.442	1418.68
414.819	1441.95
415.197	1439.47
415.574	1481.05
415.951	1501.84
416.328	1522.63
416.705	1543.42
417.082	1528.96
417.46	1552.91
417.837	1588.16
418.214	1611.67
418.591	1597.43
418.967	1630.2
419.344	1646.92
419.721	1652.57
420.098	1656.64
420.475	1667.26
420.852	1713.13
421.228	1741.61
421.605	1745.45
421.982	1759.01
422.358	1801.04
422.735	1800.36
423.111	1812.57
423.488	1861.15
423.864	1860.7
424.241	1863.64
424.617	1919.91
424.994	1930.75
425.37	1923.97
425.746	1970.98
426.123	2018.89
426.499	2012.11
426.875	2011.88
427.251	2064.54
427.627	2115.61
428.003	2093.91
428.379	2128.49
428.756	2184.31
429.132	2226.34
429.507	2229.5
429.883	2258.43
430.259	2302.95
430.635	2363.51
431.011	2366.68
431.387	2384.75
431.763	2455.94
432.138	2464.75
432.514	2490.29
432.89	2541.81
433.265	2575.71
433.641	2590.4
434.016	2653
434.392	2638.53
434.767	2698.19
435.143	2704.29
435.518	2779.09
435.894	2821.58
436.269	2831.75
436.644	2837.62
437.02	2900.22
437.395	2874.91
437.77	2972.31
438.145	2996.04
438.52	2986.32
438.895	3053.66
439.271	3073.55
439.646	3135.24
440.021	3158.52
440.395	3160.55
440.77	3135.47
441.145	3191.29
441.52	3229.03
441.895	3277.39
442.27	3318.29
442.645	3287.55
443.019	3354.67
443.394	3342.92
443.769	3426.31
444.143	3393.31
444.518	3471.05
444.892	3464.05
445.267	3502.24
445.641	3525.97
446.016	3544.72
446.39	3565.97
446.764	3622.24
447.139	3586.76
447.513	3678.28
447.887	3640.31
448.262	3678.5
448.636	3723.48
449.01	3800.31
449.384	3808.45
449.758	3840.99
450.132	3900.42
450.506	3941.1
450.88	3943.58
451.254	3955.11
451.628	3987.88
452.002	4048.21
452.376	4083.69
452.75	4159.62
453.123	4205.72
453.497	4228.55
453.871	4276.68
454.244	4385.61
454.618	4401.65
454.992	4422.44
455.365	4467.18
455.739	4606.62
456.112	4658.82
456.486	4650.68
456.859	4724.81
457.232	4862.2
457.606	4805.48
457.979	4894.29
458.352	4979.49
458.725	5045.93
459.099	5043.89
459.472	5198.01
459.845	5210.44
460.218	5251.12
460.591	5295.41
460.964	5381.06
461.337	5527.72
461.71	5570.21
462.083	5588.06
462.456	5732.69
462.829	5713.71
463.201	5812.46
463.574	5765.46
463.947	5901.05
464.32	6053.58
464.692	6079.8
465.065	6143.3
465.438	6217.2
465.81	6307.36
466.183	6350.53
466.555	6566.34
466.928	6515.04
467.3	6549.84
467.672	6761.59
468.045	6868.93
468.417	6874.13
468.789	6922.94
469.161	7076.16
469.534	7241.8
469.906	7329.48
470.278	7380.1
470.65	7499.2
471.022	7590.49
471.394	7755.46
471.766	7808.79
472.138	7925.4
472.51	8140.08
472.882	8177.6
473.253	8275.45
473.625	8477.47
473.997	8591.6
474.369	8612.84
474.74	8771.03
475.112	8993.85
475.484	9084.46
475.855	9317.23
476.227	9346.6
476.598	9566.49
476.97	9695.52
477.341	9941.62
477.713	10077.66
478.084	10108.39
478.455	10436.97
478.827	10449.63
479.198	10813.46
479.569	10788.6
479.94	11171.19
480.311	11204.18
480.682	11472.2
481.053	11716.26
481.424	11898.18
481.795	11999.42
482.166	12274.44
482.537	12328.45
482.908	12661.09
483.279	12837.13
483.65	12987.41
484.021	13308.76
484.391	13432.6
484.762	13575.87
485.133	13626.27
485.503	13885.92
485.874	14188.06
486.244	14284.1
486.615	14633.7
486.985	14782.39
487.356	15014.7
487.726	15239.78
488.097	15494.92
488.467	15641.35
488.837	15835.25
489.207	16166.76
489.578	16295.8
489.948	16520.88
490.318	16725.39
490.688	16814.43
491.058	17124.48
491.428	17328.32
491.798	17474.75
492.168	17765.37
492.538	17804.46
492.908	18116.09
493.278	18302.08
493.648	18358.34
494.017	18488.74
494.387	18684.44
494.757	18946.58
495.126	19008.27
495.496	19153.13
495.866	19329.62
496.235	19572.1
496.605	19747.91
496.974	19940
497.344	20143.83
497.713	20135.93
498.082	20367.78
498.452	20604.16
498.821	20685.29
499.19	20757.15
499.559	21013.64
499.928	21101.32
500.298	21189.46
500.667	21530.01
501.036	21496.79
501.405	21650.24
501.774	21723
502.143	21986.95
502.512	22092.48
502.88	22234.63
503.249	22347.17
503.618	22544
503.987	22597.1
504.356	22766.14
504.724	22948.05
505.093	23059.92
505.462	23169.97
505.83	23446.8
506.199	23523.18
506.567	23848.14
506.936	23968.82
507.304	24216.5
507.672	24378.98
508.041	24351.63
508.409	24533.32
508.777	24770.61
509.145	24947.1
509.514	25059.86
509.882	25307.31
510.25	25341.44
510.618	25497.37
510.986	25702.33
511.354	25926.51
511.722	26160.17
512.09	26444.01
512.458	26392.48
512.826	26767.62
513.193	26796.09
513.561	26885.8
513.929	27180.03
514.297	27475.39
514.664	27603.53
515.032	27704.54
515.4	27996.06
515.767	28124.64
516.135	28195.83
516.502	28176.84
516.869	28654.35
517.237	28709.03
517.604	28836.26
517.972	29043.04
518.339	29456.58
518.706	29573.42
519.073	29709.46
519.44	29956.01
519.808	30196
520.175	30211.14
520.542	30691.13
520.909	30819.49
521.276	30955.08
521.643	31197.1
522.009	31406.82
522.376	31722.97
522.743	31901.94
523.11	32181.48
523.477	32541.47
523.843	32664.41
524.21	33087
524.577	33213.1
524.943	33452.19
525.31	33662.12
525.676	33953.87
526.043	34156.35
526.409	34258.04
526.776	34667.97
527.142	34775.77
527.508	35030
527.874	35257.56
528.241	35505.46
528.607	35618.68
528.973	36010.99
529.339	35965.57
529.705	36358.55
530.071	36634.7
530.437	36726.22
530.803	37170.73
531.169	37283.5
531.535	37251.41
531.901	37320.11
532.267	37596.48
532.632	37773.43
532.998	37867.44
533.364	38240.99
533.73	38287.76
534.095	38583.8
534.461	38682.56
534.826	38936.33
535.192	38984.02
535.557	39367.51
535.923	39409.77
536.288	39541.29
536.653	39793.94
537.019	39579.48
537.384	40030.54
537.749	40055.4
538.114	40222.63
538.479	40327.48
538.845	40468.95
539.21	40532.9
539.575	40895.15
539.94	40849.28
540.305	41216.73
540.67	41015.83
541.034	41290.62
541.399	41583.95
541.764	41655.81
542.129	41752.53
542.494	41835.24
542.858	41959.08
543.223	42125.63
543.587	42320.43
543.952	42302.8
544.316	42467.54
544.681	42644.03
545.045	42764.71
545.41	42932.39
545.774	43229.78
546.138	43071.37
546.503	43283.34
546.867	43234.08
547.231	43745.93
547.595	43703.22
547.959	43899.14
548.324	43971.68
548.688	44255.52
549.052	44208.74
549.416	44232.69
549.779	44454.38
550.143	44668.61
550.507	44782.06
550.871	44967.81
551.235	44813.47
551.599	45243.29
551.962	45396.05
552.326	45547.91
552.689	45686.89
553.053	45686.44
553.417	45716.04
553.78	46325.07
554.143	46121.91
554.507	46203.71
554.87	46447.78
555.234	46932.73
555.597	46753.53
555.96	46921.89
556.323	47241.88
556.686	47171.6
557.05	47547.63
557.413	47514.41
557.776	47687.29
558.139	47953.72
558.502	48045.47
558.865	48169.09
559.228	48430.1
559.59	48503.32
559.953	48710.77
560.316	48924.32
560.679	49038.89
561.041	49319.56
561.404	49443.63
561.767	49531.31
562.129	49514.36
562.492	50023.95
562.854	49898.98
563.217	50039.77
563.579	50181.91
563.941	50419.42
564.304	50542.36
564.666	50818.96
565.028	50776.7
565.39	50967.66
565.753	51206.75
566.115	51283.81
566.477	51335.56
566.839	51457.14
567.201	51736.45
567.563	51658.26
567.925	52013.73
568.287	51884.47
568.648	51951.13
569.01	52186.16
569.372	52439.26
569.734	52350.9
570.095	52616.88
570.457	52694.17
570.819	52749.53
571.18	52815.97
571.542	52950.2
571.903	52980.94
572.265	53182.29
572.626	53192.91
572.987	53184.77
573.349	53353.58
573.71	53491.88
574.071	53519.91
574.432	53703.86
574.794	53868.82
575.155	53926
575.516	53813.68
575.877	53922.83
576.238	54023.62
576.599	54143.17
576.96	54105.88
577.32	54130.74
577.681	54324.18
578.042	54295.03
578.403	54330.73
578.763	54274.69
579.124	54420
579.485	54516.26
579.845	54541.8
580.206	54462.03
580.566	54502.93
580.927	54575.25
581.287	54629.48
581.648	54563.72
582.008	54717.39
582.368	54611.86
582.728	54740.67
583.089	54638.75
583.449	54657.5
583.809	54714.23
584.169	54826.54
584.529	54734.34
584.889	54952.19
585.249	54770.95
585.609	54700.67
585.969	54858.85
586.329	54744.96
586.688	54807.78
587.048	54815.01
587.408	54731.85
587.768	54758.29
588.127	54799.87
588.487	54738.18
588.846	54948.12
589.206	54749.03
589.565	54814.56
589.925	54910.83
590.284	54822.92
590.643	54866.54
591.003	54936.82
591.362	54953.09
591.721	54946.08
592.08	54917.16
592.44	55061.56
592.799	54994.44
593.158	54892.98
593.517	55021.56
593.876	54989.02
594.235	54914.45
594.593	54936.82
594.952	55092.29
595.311	54969.81
595.67	55051.39
596.029	55169.81
596.387	55205.29
596.746	55223.82
597.104	55124.61
597.463	55080.09
597.822	55205.51
598.18	55067.21
598.538	55113.08
598.897	55299.97
599.255	54961.68
599.613	55456.58
599.972	55261.56
600.33	55366.19
600.688	55260.43
601.046	55301.33
601.404	55462.68
601.762	55323.25
602.12	55498.39
602.478	55530.93
602.836	55451.83
603.194	55280.54
603.552	55387.2
603.91	55414.32
604.268	55541.1
604.625	55457.26
604.983	55571.83
605.341	55382.46
605.698	55628.1
606.056	55663.13
606.413	55617.93
606.771	55790.58
607.128	55774.08
607.485	55676.69
607.843	55727.76
608.2	55853.86
608.557	55881.88
608.914	55762.11
609.272	55927.75
609.629	55989.9
609.986	55999.84
610.343	55879.17
610.7	56104.92
611.057	56033.29
611.414	56052.72
611.771	56049.56
612.127	56237.8
612.484	56154.87
612.841	56227.41
613.198	56112.38
613.554	56150.35
613.911	56340.17
614.267	56240.29
614.624	56223.34
614.98	56332.71
615.337	56426.04
615.693	56282.32
616.05	56333.62
616.406	56484.35
616.762	56401.64
617.118	56403.67
617.475	56438.25
617.831	56447.74
618.187	56542.88
618.543	56475.53
618.899	56587.4
619.255	56525.48
619.611	56537.91
619.967	56643.67
620.323	56613.61
620.678	56541.52
621.034	56557.34
621.39	56612.71
621.746	56459.72
622.101	56776.32
622.457	56521.18
622.812	56584.91
623.168	56705.36
623.523	56645.93
623.879	56717.11
624.234	56536.78
624.589	56609.99
624.945	56630.33
625.3	56606.83
625.655	56590.11
626.01	56639.82
626.365	56666.72
626.72	56615.87
627.075	56527.96
627.43	56582.42
627.785	56479.6
628.14	56553.5
628.495	56609.09
628.85	56540.84
629.205	56478.92
629.559	56621.29
629.914	56500.84
630.269	56509.43
630.623	56418.36
630.978	56390.34
631.332	56429.21
631.687	56516.21
632.041	56350.57
632.396	56392.83
632.75	56275.09
633.104	56321.64
633.459	56261.08
633.813	56217.24
634.167	56167.75
634.521	56130.46
634.875	56141.53
635.229	56102.21
635.583	56006.39
635.937	56004.13
636.291	55990.8
636.645	55975.66
636.999	55926.62
637.352	55961.88
637.706	55784.93
638.06	55958.03
638.413	55742.67
638.767	55724.82
639.121	55807.98
639.474	55592.85
639.828	55648.21
640.181	55700.41
640.534	55645.73
640.888	55555.11
641.241	55470.36
641.594	55466.07
641.947	55587.87
642.301	55441.66
642.654	55466.75
643.007	55433.08
643.36	55337.49
643.713	55352.63
644.066	55384.49
644.419	55175.46
644.771	55033.31
645.124	54718.97
645.477	54714
645.83	54521.69
646.182	54400.79
646.535	54329.83
646.888	54417.96
647.24	54143.84
647.593	54372.54
647.945	54311.75
648.298	54044.19
648.65	54023.4
649.002	53981.82
649.355	54118.53
649.707	54020.46
650.059	54171.41
650.411	54432.65
650.763	54476.49
651.115	54789.25
651.467	54696.6
651.819	54621.57
652.171	54569.14
652.523	54496.83
652.875	54510.84
653.227	54322.6
653.578	54583.83
653.93	54427
654.282	54349.72
654.633	54311.07
654.985	54215.71
655.337	54345.42
655.688	54227.68
656.039	54338.19
656.391	54102.72
656.742	54156.73
657.094	54145.2
657.445	54253.22
657.796	54114.92
658.147	54069.95
658.498	54096.16
658.849	54159.89
659.2	54027.01
659.551	54017.07
659.902	54088.03
660.253	53937.07
660.604	53999.89
660.955	53880.35
661.306	53949.05
661.656	53808.94
662.007	53962.38
662.358	53933.68
662.708	53896.17
663.059	53808.03
663.409	53697.75
663.76	53905.88
664.11	53815.04
664.461	53844.42
664.811	53714.7
665.161	53768.04
665.511	53644.87
665.862	53700.92
666.212	53789.96
666.562	53664.31
666.912	53642.84
667.262	53610.3
667.612	53577.31
667.962	53621.15
668.312	53584.99
668.662	53634.93
669.011	53564.42
669.361	53491.66
669.711	53538.21
670.06	53490.08
670.41	53383.41
670.76	53406.24
671.109	53498.21
671.459	53364.2
671.808	53309.06
672.157	53368.72
672.507	53228.39
672.856	53222.96
673.205	53268.39
673.554	53307.71
673.904	53155.85
674.253	53320.14
674.602	53234.49
674.951	52781.62
675.3	52596.31
675.649	53160.59
675.998	53060.26
676.346	53053.7
676.695	53222.74
677.044	52862.52
677.393	52927.83
677.741	53033.37
678.09	52882.86
678.438	52889.41
678.787	52931.45
679.135	52961.05
679.484	52597.9
679.832	52647.84
680.181	52583.66
680.529	52713.37
680.877	52508.41
681.225	52486.04
681.573	52774.84
681.922	52544.34
682.27	52422.08
682.618	52446.04
682.966	52264.57
683.314	52374.85
683.661	52261.41
684.009	52051.92
684.357	52021.87
684.705	52049.44
685.053	51961.3
685.4	51899.16
685.748	51751.37
686.095	51761.76
686.443	51621.88
686.79	51416.91
687.138	51551.14
687.485	51616
687.832	51416.01
688.18	51567.19
688.527	51330.36
688.874	51221.21
689.221	51213.53
689.568	51042.46
689.915	50932.18
690.262	50939.41
690.609	50824.38
690.956	50715.23
691.303	50737.38
691.65	50505.52
691.997	50507.1
692.344	50343.04
692.69	50303.04
693.037	50284.51
693.383	50031.86
693.73	50090.62
694.077	49918.87
694.423	49921.36
694.769	49727.46
695.116	49516.85
695.462	49690.85
695.808	49323.63
696.155	49566.11
696.501	49254.71
696.847	49272.11
697.193	49102.85
697.539	49096.75
697.885	48905.56
698.231	48712.12
698.577	48663.99
698.923	48651.79
699.269	48414.73
699.614	48245.24
699.96	48122.31
700.306	48299.7
700.651	47980.39
700.997	47834.41
701.342	47868.53
701.688	47706.27
702.033	47593.51
702.379	47603
702.724	47524.36
703.069	47473.96
703.415	47187.64
703.76	47104.26
704.105	47134.54
704.45	47132.28
704.795	46725.96
705.14	46754.21
705.485	46641.44
705.83	46416.59
706.175	46431.96
706.52	46375.91
706.865	46223.38
707.209	46149.93
707.554	46071.74
707.899	46101.12
708.243	45830.17
708.588	45780.45
708.932	45459.55
709.277	45483.73
709.621	45461.36
709.966	45319.22
710.31	45338.65
710.654	44954.03
710.998	45054.59
711.342	45063.41
711.687	44881.49
712.031	44797.2
712.375	44552.46
712.719	44665.68
713.063	44562.85
713.407	44702.29
713.75	44475.62
714.094	44325.35
714.438	44301.84
714.782	44152.92
715.125	43896.2
715.469	44050.55
715.812	43734.63
716.156	43618.92
716.499	43787.96
716.843	43765.81
717.186	43402.66
717.53	43575.54
717.873	43588.87
718.216	43423.67
718.559	43293.06
718.902	43032.95
719.246	43128.54
719.589	42933.29
719.932	42775.56
720.275	42778.27
720.617	42767.42
720.96	42663.92
721.303	42596.13
721.646	42598.39
721.989	42379.86
722.331	42587.76
722.674	42295.12
723.016	42545.73
723.359	42253.54
723.701	42265.29
724.044	42064.84
724.386	41612.87
724.729	42033.88
725.071	41750.27
725.413	41960.21
725.755	41798.86
726.097	41536.04
726.439	41404.97
726.782	41337.63
727.124	41659.88
727.465	41360.45
727.807	41187.12
728.149	41174.02
728.491	41068.26
728.833	41222.38
729.175	41114.81
729.516	40914.81
729.858	40756.63
730.199	40928.6
730.541	40661.94
730.882	40641.37
731.224	40697.64
731.565	40443.64
731.906	40487.71
732.248	40571.55
732.589	40372.68
732.93	40214.72
733.271	40242.06
733.612	40233.93
733.953	40215.62
734.294	40001.84
734.635	40012.01
734.976	40144.21
735.317	39840.27
735.658	39800.95
735.999	39662.42
736.339	39572.25
736.68	39659.48
737.021	39536.32
737.361	39414.74
737.702	39498.13
738.042	39353.73
738.383	39292.94
738.723	39293.39
739.063	39213.84
739.404	39151.92
739.744	39136.1
740.084	38928.2
740.424	38904.7
740.764	38946.28
741.104	38952.61
741.444	38695.44
741.784	38785.6
742.124	38756.9
742.464	38717.58
742.804	38564.14
743.143	38423.81
743.483	38383.58
743.823	38097.49
744.162	38328.89
744.502	38271.04
744.841	38071.5
745.181	38283.7
745.52	38068.11
745.86	38051.61
746.199	37818.17
746.538	37838.28
746.877	37869.7
747.216	37762.58
747.556	37825.86
747.895	37734.11
748.234	37532.08
748.573	37461.57
748.911	37474.68
749.25	37441.01
749.589	37209.37
749.928	37217.96
750.267	37307.9
750.605	37151.52
750.944	37037.18
751.283	36919.44
751.621	36935.03
751.96	36606
752.298	36778.88
752.636	36589.73
752.975	36532.33
753.313	36392.22
753.651	36403.07
753.989	36406.01
754.327	36173.7
754.666	35985.45
755.004	36010.08
755.342	35987.26
755.679	35880.14
756.017	35773.48
756.355	35862.52
756.693	35442.87
757.031	35649.64
757.368	35448.07
757.706	35511.57
758.044	35260.95
758.381	35265.92
758.719	35075.42
759.056	35239.71
759.394	34917.91
759.731	34853.28
760.068	34770.12
760.405	34485.38
760.743	34301.65
761.08	34408.54
761.417	34264.59
761.754	34230.24
762.091	34059.63
762.428	34053.75
762.765	33974.88
763.102	33934.88
763.438	33737.15
763.775	33535.8
764.112	33561.34
764.449	33624.84
764.785	33394.79
765.122	33175.13
765.458	33095.58
765.795	33040.9
766.131	32970.39
766.467	32836.61
766.804	32668.03
767.14	32647.91
767.476	32636.39
767.812	32356.62
768.148	32406.11
768.485	32260.8
768.821	31899.01
769.157	31956.18
769.492	31895.16
769.828	31927.03
770.164	31534.04
770.5	31549.86
770.836	31447.49
771.171	31334.05
771.507	31207.95
771.842	30994.62
772.178	31016.09
772.513	30874.85
772.849	30735.87
773.184	30580.85
773.519	30682.99
773.855	30429.89
774.19	30348.54
774.525	30212.27
774.86	30127.08
775.195	30111.71
775.53	30072.84
775.865	29887.99
776.2	29627.43
776.535	29414.1
776.87	29432.4
777.205	29310.37
777.539	29273.31
777.874	29116.48
778.209	28965.98
778.543	28951.29
778.878	28721.24
779.212	28763.5
779.547	28480.34
779.881	28543.39
780.215	28473.11
780.55	28330.06
780.884	28264.3
781.218	28094.59
781.552	28156.96
781.886	27947.02
782.22	27821.6
782.554	27665.22
782.888	27516.3
783.222	27359.24
783.556	27265
783.889	27239.24
784.223	27042.41
784.557	26931
784.89	26992.47
785.224	26832.7
785.557	26670.89
785.891	26637.22
786.224	26623.66
786.558	26540.28
786.891	26349.1
787.224	26291.47
787.557	26152.26
787.891	26155.88
788.224	26055.54
788.557	25992.27
788.89	25931.93
789.223	25897.58
789.556	25665.27
789.888	25480.87
790.221	25445.16
790.554	25300.08
790.887	25260.08
791.219	25095.34
791.552	25154.55
791.884	24926.31
792.217	24999.98
792.549	24847.67
792.882	24735.35
793.214	24632.53
793.546	24692.42
793.879	24458.52
794.211	24368.81
794.543	24453.1
794.875	24241.81
795.207	24359.32
795.539	24206.78
795.871	24093.34
796.203	23881.59
796.535	23855.38
796.867	23635.72
797.198	23773.34
797.53	23659.45
797.862	23501.26
798.193	23485.22
798.525	23419.45
798.856	23374.26
799.188	23127.71
799.519	23106.69
799.85	23068.73
800.182	23036.41
800.513	23023.99
800.844	22914.38
801.175	22865.57
801.506	22820.83
801.837	22695.18
802.168	22706.93
802.499	22556.2
802.83	22448.18
803.161	22371.57
803.491	22364.12
803.822	22369.31
804.153	22241.41
804.483	22072.37
804.814	22070.11
805.145	21961.64
805.475	21913.73
805.805	21851.13
806.136	21865.15
806.466	21709.22
806.796	21733.62
807.126	21591.71
807.457	21529.79
807.787	21557.81
808.117	21417.93
808.447	21271.71
808.777	21435.1
809.107	21237.82
809.436	21142.45
809.766	21271.04
810.096	21057.26
810.426	20974.32
810.755	20996.92
811.085	20948.79
811.414	20874.44
811.744	20650.94
812.073	20653.43
812.403	20766.87
812.732	20602.35
813.061	20574.56
813.39	20447.56
813.719	20389.7
814.049	20525.07
814.378	20353.32
814.707	20271.06
815.036	20190.16
815.365	20080.11
815.693	19964.63
816.022	19979.77
816.351	19947.23
816.68	19829.49
817.008	19944.29
817.337	19704.07
817.665	19687.12
817.994	19776.84
818.322	19658.2
818.651	19532.55
818.979	19580.69
819.307	19618.2
819.636	19564.64
819.964	19346.57
820.292	19441.93
820.62	19388.15
820.948	19317.64
821.276	19497.52
821.604	19365.1
821.932	19421.14
822.259	19433.12
822.587	19326.23
822.915	19355.83
823.243	19376.85
823.57	19289.39
823.898	19300.69
824.225	19242.16
824.553	19210.75
824.88	19261.37
825.207	19365.55
825.535	19289.62
825.862	19365.78
826.189	19131.66
826.516	19284.2
826.843	19283.97
827.17	19270.86
827.497	19335.95
827.824	19210.53
828.151	19390.63
828.478	19201.71
828.805	19310.64
829.131	19275.38
829.458	19280.58
829.785	19157.42
830.111	19236.29
830.438	19277.42
830.764	19192.45
831.09	19232.9
831.417	19029.06
831.743	19159.68
832.069	19160.13
832.395	18932.34
832.722	19065.9
833.048	19023.19
833.374	19096.18
833.7	18980.7
834.026	19021.38
834.351	19069.74
834.677	18960.59
835.003	19008.05
835.329	18964.88
835.654	18885.79
835.98	18831.78
836.306	18847.82
836.631	18851.67
836.956	18900.25
837.282	18867.03
837.607	18699.58
837.932	18615.29
838.258	18752.68
838.583	18627.49
838.908	18585.91
839.233	18584.78
839.558	18555.85
839.883	18429.53
840.208	18406.71
840.533	18374.39
840.858	18416.42
841.182	18282.41
841.507	18392.47
841.832	18307.05
842.156	18324.22
842.481	18219.59
842.805	18282.19
843.13	18143.21
843.454	18026.6
843.778	18017.34
844.103	17976.21
844.427	17865.93
844.751	17890.33
845.075	17854.63
845.399	17755.42
845.723	17705.48
846.047	17770.34
846.371	17591.13
846.695	17552.26
847.019	17475.66
847.343	17354.98
847.666	17302.33
847.99	17187.75
848.313	17184.59
848.637	17080.19
848.96	17050.81
849.284	17052.84
849.607	16888.33
849.931	16871.83
850.254	16684.04
850.577	16651.27
850.9	16539.18
851.223	16512.29
851.546	16392.97
851.869	16278.4
852.192	16432.97
852.515	16201.79
852.838	16188.01
853.161	16165.63
853.483	16088.8
853.806	15992.76
854.129	16044.28
854.451	15976.26
854.774	15819.2
855.096	15770.39
855.419	15807
855.741	15760.67
856.063	15601.36
856.385	15633.22
856.708	15558.64
857.03	15489.72
857.352	15548.48
857.674	15395.94
857.996	15386.22
858.318	15253.34
858.64	15355.71
858.961	15297.18
859.283	15210.63
859.605	15124.08
859.926	15177.86
860.248	15106.68
860.57	15079.34
860.891	15024.2
861.212	14943.52
861.534	14891.32
861.855	14852
862.176	14829.85
862.498	14884.76
862.819	14854.03
863.14	14725.45
863.461	14713.92
863.782	14690.19
864.103	14736.29
864.424	14654.71
864.745	14651.32
865.065	14598.9
865.386	14524.32
865.707	14534.26
866.027	14584.88
866.348	14549.86
866.668	14482.51
866.989	14417.21
867.309	14340.37
867.63	14395.51
867.95	14364.33
868.27	14269.86
868.59	14277.55
868.91	14179.92
869.23	14316.64
869.55	14161.62
869.87	14243.88
870.19	14153.26
870.51	14106.71
870.83	14027.84
871.15	14038.91
871.469	14103.09
871.789	14068.74
872.109	13966.14
872.428	14020.61
872.748	13990.1
873.067	14006.37
873.386	14047.27
873.706	13921.63
874.025	13850.89
874.344	13839.82
874.663	13885.92
874.982	13879.82
875.301	13820.61
875.62	13767.73
875.939	13702.65
876.258	13736.32
876.577	13673.5
876.896	13678.92
877.214	13634.18
877.533	13587.62
877.852	13629.88
878.17	13572.93
878.489	13581.52
878.807	13601.18
879.125	13524.57
879.444	13442.54
879.762	13516.89
880.08	13446.38
880.398	13359.15
880.716	13436.67
881.034	13375.88
881.352	13341.98
881.67	13297.24
881.988	13318.03
882.306	13307.4
882.624	13254.07
882.941	13195.09
883.259	13090.46
883.577	13127.07
883.894	13099.95
884.212	13103.79
884.529	13085.26
884.846	13082.78
885.164	12953.97
885.481	12928.66
885.798	12972.95
886.115	12846.17
886.432	12851.37
886.75	12829.22
887.067	12822.67
887.383	12742
887.7	12728.44
888.017	12635.11
888.334	12731.83
888.651	12679.17
888.967	12547.42
889.284	12525.5
889.6	12559.4
889.917	12426.3
890.233	12485.51
890.55	12380.65
890.866	12422.91
891.182	12420.2
891.498	12245.74
891.815	12266.75
892.131	12254.32
892.447	12175.68
892.763	12189.47
893.079	12103.37
893.395	12085.06
893.71	12022.24
894.026	11998.29
894.342	11911.06
894.657	11928.68
894.973	11857.72
895.289	11847.56
895.604	11839.19
895.92	11802.59
896.235	11667.22
896.55	11733.43
896.865	11679.2
897.181	11629.26
897.496	11590.39
897.811	11506.32
898.126	11499.54
898.441	11503.61
898.756	11359.43
899.071	11356.04
899.386	11408.02
899.7	11323.5
900.015	11238.08
900.33	11166.9
900.644	11141.36
900.959	11097.74
901.273	11074.47
901.588	11000.8
901.902	10980.91
902.216	10926.9
902.531	10880.12
902.845	10931.65
903.159	10762.61
903.473	10803.29
903.787	10772.56
904.101	10697.53
904.415	10727.59
904.729	10660.69
905.042	10577.76
905.356	10582.73
905.67	10537.53
905.984	10502.51
906.297	10512.9
906.611	10396.29
906.924	10405.11
907.237	10352
907.551	10280.82
907.864	10268.84
908.177	10238.56
908.491	10177.77
908.804	10056.87
909.117	10076.75
909.43	9999.69
909.743	9949.98
910.056	9948.4
910.368	9962.18
910.681	9809.42
910.994	9829.76
911.307	9780.72
911.619	9726.03
911.932	9737.1
912.244	9663.66
912.557	9687.61
912.869	9563.32
913.181	9537.56
913.494	9517.67
913.806	9403.78
914.118	9441.97
914.43	9375.76
914.742	9347.73
915.054	9348.41
915.366	9254.4
915.678	9187.51
915.99	9219.15
916.302	9101.19
916.613	9048.08
916.925	9070
917.236	9068.19
917.548	8985.03
917.859	9004.69
918.171	8921.98
918.482	8906.62
918.794	8858.03
919.105	8832.27
919.416	8718.37
919.727	8733.51
920.038	8741.42
920.349	8660.07
920.66	8609
920.971	8639.5
921.282	8540.75
921.593	8466.18
921.903	8461.2
922.214	8416.23
922.525	8376.01
922.835	8380.75
923.146	8319.74
923.456	8310.02
923.767	8265.95
924.077	8201.78
924.387	8142.34
924.697	8165.39
925.008	8096.69
925.318	8177.6
925.628	8063.25
925.938	8034.32
926.248	7994.55
926.558	7903.7
926.867	7934.21
927.177	7825.74
927.487	7829.13
927.796	7754.1
928.106	7776.93
928.416	7717.27
928.725	7708
929.034	7699.42
929.344	7670.04
929.653	7597.5
929.962	7544.84
930.271	7470.04
930.581	7461
930.89	7420.33
931.199	7390.05
931.508	7384.4
931.817	7410.16
932.125	7308.24
932.434	7258.98
932.743	7250.39
933.051	7183.05
933.36	7246.32
933.669	7150.28
933.977	7110.05
934.286	7097.62
934.594	7060.79
934.902	7069.15
935.21	7030.06
935.519	6987.34
935.827	6941.47
936.135	6913.9
936.443	6859.66
936.751	6869.83
937.059	6864.18
937.367	6740.57
937.674	6776.05
937.982	6748.71
938.29	6730.85
938.597	6705.09
938.905	6619.44
939.213	6578.09
939.52	6558.66
939.827	6617.18
940.135	6517.75
940.442	6481.82
940.749	6490.41
941.056	6471.2
941.363	6407.02
941.67	6400.92
941.977	6364.76
942.284	6378.77
942.591	6282.5
942.898	6242.51
943.205	6257.19
943.511	6221.49
943.818	6181.94
944.125	6122.51
944.431	6110.31
944.738	6088.61
945.044	6091.32
945.35	6017.88
945.657	6033.7
945.963	5992.57
946.269	5946.02
946.575	5939.69
946.881	5894.27
947.187	5915.28
947.493	5818.79
947.799	5796.87
948.105	5783.08
948.41	5741.28
948.716	5764.1
949.022	5743.31
949.327	5739.02
949.633	5634.84
949.938	5659.92
950.244	5598.45
950.549	5540.15
950.854	5570.43
951.16	5553.26
951.465	5486.59
951.77	5527.04
952.075	5459.93
952.38	5498.8
952.685	5439.14
952.99	5424.45
953.294	5375.18
953.599	5316.2
953.904	5355.3
954.209	5304.45
954.513	5280.04
954.818	5243.89
955.122	5272.36
955.426	5208.63
955.731	5207.96
956.035	5142.87
956.339	5184
956.643	5168.86
956.948	5087.28
957.252	5101.07
957.556	5080.5
957.86	5028.53
958.163	5081.18
958.467	5003.67
958.771	4982.2
959.075	4919.6
959.378	4906.27
959.682	4923.44
959.985	4907.63
960.289	4892.94
960.592	4845.03
960.896	4857.91
961.199	4814.29
961.502	4767.97
961.805	4723.9
962.108	4774.52
962.411	4761.64
962.714	4641.87
963.017	4634.64
963.32	4669.89
963.623	4601.42
963.926	4580.4
964.228	4625.6
964.531	4568.88
964.833	4586.5
965.136	4505.6
965.438	4522.1
965.741	4523.91
966.043	4476
966.345	4407.98
966.648	4417.69
966.95	4419.05
967.252	4333.63
967.554	4386.73
967.856	4355.55
968.158	4338.15
968.46	4288.43
968.761	4276.46
969.063	4248.43
969.365	4251.37
969.666	4192.62
969.968	4214.54
970.269	4176.34
970.571	4186.97
970.872	4142.67
971.174	4115.56
971.475	4110.81
971.776	4046.63
972.077	4067.42
972.378	3998.72
972.679	4027.2
972.98	4019.51
973.281	3991.27
973.582	3959.63
973.883	3951.27
974.183	3958.5
974.484	3934.54
974.785	3895.9
975.085	3881.21
975.386	3942.9
975.686	3855.45
975.986	3860.65
976.287	3816.13
976.587	3782.91
976.887	3772.06
977.187	3805.73
977.487	3754.44
977.787	3747.88
978.087	3701.78
978.387	3676.92
978.687	3688.22
978.987	3649.58
979.286	3644.61
979.586	3622.46
979.885	3611.84
980.185	3552.18
980.484	3570.94
980.784	3599.19
981.083	3539.07
981.382	3567.55
981.682	3547.43
981.981	3529.13
982.28	3502.46
982.579	3494.78
982.878	3466.76
983.177	3437.83
983.475	3407.78
983.774	3405.97
984.073	3368
984.372	3396.25
984.67	3343.6
984.969	3338.4
985.267	3296.14
985.566	3293.2
985.864	3322.58
986.162	3282.81
986.461	3270.15
986.759	3278.74
987.057	3239.19
987.355	3225.64
987.653	3231.51
987.951	3207.78
988.249	3224.05
988.547	3172.3
988.844	3168.24
989.142	3128.24
989.44	3121.23
989.737	3038.07
990.035	3058.18
990.332	3058.18
990.63	3049.14
990.927	3028.35
991.224	3058.86
991.521	3016.6
991.819	3041.91
992.116	2984.51
992.413	2984.74
992.71	2973.21
993.006	2971.18
993.303	2936.83
993.6	2945.64
993.897	2923.95
994.193	2895.93
994.49	2895.02
994.787	2855.7
995.083	2866.77
995.379	2838.53
995.676	2806.21
995.972	2803.5
996.268	2806.21
996.565	2765.53
996.861	2774.8
997.157	2755.82
997.453	2709.49
997.749	2717.85
998.044	2706.33
998.34	2698.19
998.636	2674.01
998.932	2680.79
999.227	2649.83
999.523	2631.07
999.818	2621.36
1000.114	2575.71
1000.409	2580
1000.704	2595.37
1001	2563.96
1001.295	2572.55
1001.59	2524.41
1001.885	2505.65
1002.18	2470.18
1002.475	2446.9
1002.77	2492.77
1003.065	2450.97
1003.359	2433.11
1003.654	2438.54
1003.949	2416.17
1004.243	2414.36
1004.538	2385.21
1004.832	2398.54
1005.127	2373.23
1005.421	2349.5
1005.715	2345.21
1006.009	2332.55
1006.304	2311.99
1006.598	2308.6
1006.892	2262.5
1007.186	2281.25
1007.48	2287.36
1007.773	2265.89
1008.067	2205.1
1008.361	2225.44
1008.655	2184.53
1008.948	2176.85
1009.242	2176.4
1009.535	2158.32
1009.829	2147.47
1010.122	2121.48
1010.415	2085.33
1010.708	2124.42
1011.001	2089.39
1011.295	2090.75
1011.588	2072.67
1011.881	2040.13
1012.173	2054.59
1012.466	2026.12
1012.759	2052.79
1013.052	2006.23
1013.344	2008.49
1013.637	1976.4
1013.93	1971.88
1014.222	1961.71
1014.514	1959
1014.807	1940.25
1015.099	1942.51
1015.391	1907.48
1015.683	1912.45
1015.976	1895.5
1016.268	1897.76
1016.56	1845.56
1016.851	1831.1
1017.143	1842.17
1017.435	1837.2
1017.727	1808.72
1018.018	1804.43
1018.31	1785.67
1018.602	1774.83
1018.893	1744.54
1019.185	1747.71
1019.476	1761.72
1019.767	1742.28
1020.058	1724.66
1020.35	1727.37
1020.641	1644.43
1020.932	1679.24
1021.223	1677.65
1021.514	1634.94
1021.804	1659.12
1022.095	1641.27
1022.386	1640.14
1022.677	1629.07
1022.967	1595.4
1023.258	1583.42
1023.548	1583.64
1023.839	1540.93
1024.129	1574.38
1024.419	1559.01
1024.709	1556.53
1025	1540.71
1025.29	1497.55
1025.58	1508.62
1025.87	1516.3
1026.16	1504.55
1026.449	1503.65
1026.739	1455.29
1027.029	1466.36
1027.319	1465.91
1027.608	1445.8
1027.898	1450.31
1028.187	1435.17
1028.477	1413.93
1028.766	1428.39
1029.055	1390.88
1029.344	1395.4
1029.634	1361.5
1029.923	1360.15
1030.212	1379.13
1030.501	1334.61
1030.79	1358.34
1031.078	1315.4
1031.367	1330.32
1031.656	1327.83
1031.945	1240.6
1032.233	1279.47
1032.522	1281.51
1032.81	1263.2
1033.099	1256.87
1033.387	1247.61
1033.675	1235.86
1033.963	1236.99
1034.251	1231.79
1034.54	1216.2
1034.828	1205.12
1035.116	1187.95
1035.403	1197.21
1035.691	1191.34
1035.979	1193.15
1036.267	1177.33
1036.554	1147.95
1036.842	1131
1037.129	1144.79
1037.417	1136.65
1037.704	1131.91
1037.992	1156.31
1038.279	1114.73
1038.566	1127.39
1038.853	1127.39
1039.14	1127.39
