Data from whiteboard_FLMS001491_00021.txt Node
Date: Wed Feb 08 11:25:49 GMT 2017
User: dcchb
Spectrometer: FLMS00149
Trigger mode: 0
Integration Time (sec): 2.000000E-2
Scans to average: 10
Electric dark correction enabled: true
Nonlinearity correction enabled: false
Boxcar width: 0
XAxis mode: Wavelengths
Number of Pixels in Spectrum: 2048
>>>>>Begin Spectral Data<<<<<
341.393	-6.26
341.776	-6.26
342.16	-6.26
342.543	-59.81
342.927	-50.78
343.31	-84.67
343.693	-77.89
344.077	-60.04
344.46	-58.01
344.843	-35.63
345.226	-45.8
345.61	-22.08
345.993	-23.43
346.376	3.69
346.759	10.47
347.142	21.99
347.525	43.01
347.908	68.09
348.291	80.07
348.674	78.94
349.057	101.31
349.44	141.08
349.823	154.64
350.206	171.59
350.588	238.48
350.971	251.36
351.354	283
351.737	306.5
352.119	305.83
352.502	307.41
352.884	322.55
353.267	326.39
353.65	347.18
354.032	330.91
354.414	350.57
354.797	356.22
355.179	373.62
355.562	353.51
355.944	344.24
356.326	360.29
356.709	371.13
357.091	387.41
357.473	373.39
357.855	373.62
358.238	376.11
358.62	375.65
359.002	418.14
359.384	393.05
359.766	397.8
360.148	381.08
360.53	387.41
360.912	396.67
361.294	378.37
361.676	405.03
362.057	393.96
362.439	361.19
362.821	395.99
363.203	389.89
363.584	395.54
363.966	385.6
364.348	373.85
364.729	391.02
365.111	395.31
365.493	374.3
365.874	395.31
366.256	384.69
366.637	392.15
367.019	357.8
367.4	386.05
367.781	381.53
368.163	396.22
368.544	380.4
368.925	388.76
369.306	391.92
369.688	369.55
370.069	390.34
370.45	393.05
370.831	385.37
371.212	396.67
371.593	387.63
371.974	386.28
372.355	385.82
372.736	421.75
373.117	398.48
373.498	396.9
373.879	388.99
374.26	400.06
374.641	386.95
375.021	399.16
375.402	413.85
375.783	388.53
376.163	438.93
376.544	426.05
376.925	426.73
377.305	405.71
377.686	417.23
378.066	438.25
378.447	447.97
378.827	441.64
379.208	417.46
379.588	418.36
379.968	448.65
380.349	419.27
380.729	425.6
381.109	445.26
381.489	454.97
381.87	449.32
382.25	453.39
382.63	455.65
383.01	460.4
383.39	489.55
383.77	471.92
384.15	463.34
384.53	484.8
384.91	479.83
385.29	473.28
385.67	536.55
386.049	505.37
386.429	507.63
386.809	521.19
387.189	517.35
387.568	522.77
387.948	551.47
388.328	545.59
388.707	530
389.087	541.3
389.466	539.72
389.846	559.83
390.225	553.28
390.605	571.13
390.984	572.71
391.363	577.23
391.743	567.06
392.122	606.38
392.501	604.35
392.881	641.86
393.26	622.43
393.639	614.52
394.018	640.05
394.397	626.04
394.776	619.94
395.155	655.65
395.534	672.6
395.913	678.02
396.292	668.75
396.671	681.18
397.05	676.44
397.429	717.79
397.808	720.28
398.186	730.22
398.565	749.88
398.944	730.45
399.323	752.59
399.701	747.85
400.08	757.34
400.458	747.62
400.837	796.66
401.215	805.93
401.594	828.52
401.972	824.91
402.351	825.59
402.729	829.65
403.107	855.87
403.486	883.21
403.864	872.59
404.242	889.54
404.62	906.94
404.999	934.51
405.377	930.67
405.755	976.77
406.133	984.45
406.511	1009.99
406.889	1009.54
407.267	1038.24
407.645	1047.73
408.023	1102.87
408.401	1112.81
408.779	1103.09
409.156	1154.62
409.534	1137.22
409.912	1162.75
410.29	1218.12
410.667	1195.07
411.045	1233.94
411.422	1266.48
411.8	1269.64
412.178	1303.77
412.555	1327.95
412.933	1330.21
413.31	1374.72
413.687	1391.9
414.065	1403.42
414.442	1445.91
414.819	1442.74
415.197	1478.9
415.574	1500.37
415.951	1534.04
416.328	1553.48
416.705	1530.65
417.082	1576.07
417.46	1602.29
417.837	1603.42
418.214	1619.69
418.591	1645.68
418.967	1689.29
419.344	1693.13
419.721	1718.67
420.098	1695.62
420.475	1784.88
420.852	1761.15
421.228	1777.43
421.605	1807.25
421.982	1814.71
422.358	1837.54
422.735	1879.8
423.111	1899.23
423.488	1920.7
423.864	1929.96
424.241	1969.96
424.617	1990.75
424.994	1994.82
425.37	2039.57
425.746	2066.68
426.123	2087.93
426.499	2120.69
426.875	2140.81
427.251	2217.19
427.627	2221.93
428.003	2254.02
428.379	2269.62
428.756	2270.52
429.132	2324.3
429.507	2368.14
429.883	2386
430.259	2433.45
430.635	2463.51
431.011	2486.78
431.387	2556.16
431.763	2571.53
432.138	2604.52
432.514	2673.9
432.89	2675.03
433.265	2735.37
433.641	2768.59
434.016	2776.72
434.392	2828.7
434.767	2919.32
435.143	2894.23
435.518	2937.62
435.894	3020.78
436.269	3018.75
436.644	3089.48
437.02	3094.68
437.395	3138.97
437.77	3127.45
438.145	3237.05
438.52	3209.93
438.895	3301.9
439.271	3296.93
439.646	3369.93
440.021	3412.64
440.395	3438.17
440.77	3391.62
441.145	3421.68
441.52	3543.03
441.895	3504.16
442.27	3565.4
442.645	3557.04
443.019	3598.17
443.394	3628.22
443.769	3654.44
444.143	3676.36
444.518	3730.14
444.892	3736.7
445.267	3763.14
445.641	3823.02
446.016	3798.16
446.39	3842.91
446.764	3841.1
447.139	3841.55
447.513	3929.91
447.887	3998.84
448.262	4035.44
448.636	3998.61
449.01	4121.77
449.384	4114.54
449.758	4152.05
450.132	4217.59
450.506	4216.68
450.88	4208.1
451.254	4289
451.628	4386.62
452.002	4430.24
452.376	4424.59
452.75	4453.74
453.123	4540.29
453.497	4556.56
453.871	4588.88
454.244	4745.03
454.618	4751.58
454.992	4773.96
455.365	4827.29
455.739	4992.93
456.112	4990
456.486	5006.27
456.859	5121.97
457.232	5168.52
457.606	5193.38
457.979	5280.38
458.352	5414.39
458.725	5507.5
459.099	5464.11
459.472	5678.79
459.845	5681.05
460.218	5720.6
460.591	5780.03
460.964	5827.71
461.337	5970.99
461.71	6105.45
462.083	6141.6
462.456	6149.29
462.829	6236.74
463.201	6322.16
463.574	6367.59
463.947	6467.02
464.32	6617.98
464.692	6659.1
465.065	6654.81
465.438	6786.56
465.81	6906.78
466.183	6949.49
466.555	7164.4
466.928	7147.68
467.3	7108.58
467.672	7228.58
468.045	7519.19
468.417	7542.02
468.789	7572.53
469.161	7691.62
469.534	7784.5
469.906	7994.66
470.278	8030.14
470.65	8187.43
471.022	8307.65
471.394	8539.96
471.766	8536.12
472.138	8711.25
472.51	8878.48
472.882	8937.46
473.253	9063.34
473.625	9275.08
473.997	9490.22
474.369	9554.85
474.74	9612.25
475.112	9800.26
475.484	9966.14
475.855	10161.39
476.227	10243.64
476.598	10606.12
476.97	10561.37
477.341	10876.17
477.713	11018.54
478.084	11128.14
478.455	11421.01
478.827	11503.5
479.198	11827.56
479.569	11807.44
479.94	12231.16
480.311	12267.09
480.682	12530.14
481.053	12866.4
481.424	13119.5
481.795	13194.75
482.166	13392.49
482.537	13596.1
482.908	13834.96
483.279	14044.22
483.65	14294.16
484.021	14507.94
484.391	14812.56
484.762	14862.73
485.133	15051.2
485.503	15279.67
485.874	15562.15
486.244	15786.1
486.615	16130.27
486.985	16219.53
487.356	16535.23
487.726	16758.27
488.097	17057.93
488.467	17065.38
488.837	17555.54
489.207	17768.19
489.578	18026.04
489.948	18168.63
490.318	18454.5
490.688	18535.63
491.058	18830.76
491.428	19153.24
491.798	19261.03
492.168	19668.48
492.538	19825.76
492.908	19919.77
493.278	20260.55
493.648	20225.98
494.017	20598.85
494.387	20740.09
494.757	20817.83
495.126	21095.11
495.496	21138.05
495.866	21392.05
496.235	21611.03
496.605	21732.61
496.974	21904.81
497.344	22069.55
497.713	22271.58
498.082	22367.39
498.452	22621.85
498.821	22839.7
499.19	22831.33
499.559	23037.43
499.928	23210.99
500.298	23373.02
500.667	23675.15
501.036	23654.14
501.405	23878.99
501.774	23981.81
502.143	24158.08
502.512	24278.08
502.88	24511.97
503.249	24661.8
503.618	24898.85
503.987	25123.93
504.356	25096.36
504.724	25307.88
505.093	25497.25
505.462	25699.28
505.83	25867.41
506.199	26087.52
506.567	26444.8
506.936	26475.98
507.304	26817.44
507.672	26840.04
508.041	26937.22
508.409	27202.07
508.777	27418.78
509.145	27630.08
509.514	27665.33
509.882	27901.26
510.25	27919.11
510.618	28172.66
510.986	28326.78
511.354	28519.55
511.722	28709.82
512.09	28992.08
512.458	28941.68
512.826	29258.74
513.193	29435.91
513.561	29588.67
513.929	29829.12
514.297	29972.84
514.664	30301.19
515.032	30331.93
515.4	30709.55
515.767	30805.59
516.135	30961.97
516.502	30990.22
516.869	31623.19
517.237	31660.03
517.604	31616.19
517.972	31983.41
518.339	32147.93
518.706	32342.72
519.073	32482.83
519.44	32827.68
519.808	33119.2
520.175	33233.32
520.542	33722.35
520.909	33916.47
521.276	33841.21
521.643	34312.84
522.009	34541.76
522.376	34854.07
522.743	35063.56
523.11	35536.31
523.477	35725.46
523.843	36029.63
524.21	36377.19
524.577	36554.82
524.943	36809.27
525.31	36967.23
525.676	37222.37
526.043	37510.72
526.409	37677.72
526.776	38072.74
527.142	38229.35
527.508	38381.21
527.874	38717.02
528.241	38898.93
528.607	39103.22
528.973	39413.05
529.339	39388.64
529.705	39856.2
530.071	40118.34
530.437	40163.31
530.803	40341.38
531.169	40526.91
531.535	40523.07
531.901	40827.47
532.267	41009.16
532.632	41202.83
532.998	41369.6
533.364	41732.31
533.73	41746.09
534.095	42130.71
534.461	42115.35
534.826	42399.41
535.192	42497.71
535.557	42831.94
535.923	42826.52
536.288	42948.09
536.653	43319.61
537.019	43288.2
537.384	43528.87
537.749	43576.1
538.114	43821.74
538.479	44053.83
538.845	44225.8
539.21	44231
539.575	44420.37
539.94	44485.23
540.305	44871.43
540.67	44819.01
541.034	45098.55
541.399	45377.63
541.764	45392.55
542.129	45468.03
542.494	45587.57
542.858	45699.66
543.223	45690.85
543.587	46011.52
543.952	46012.65
544.316	46224.39
544.681	46224.62
545.045	46352.75
545.41	46653.99
545.774	46660.54
546.138	46779.86
546.503	46987.76
546.867	46991.38
547.231	47354.31
547.595	47439.5
547.959	47552.94
548.324	47458.48
548.688	47676.33
549.052	47806.05
549.416	47994.51
549.779	47989.09
550.143	48066.6
550.507	48295.3
550.871	48445.35
551.235	48434.73
551.599	48758.79
551.962	48805.12
552.326	48894.15
552.689	49179.79
553.053	49130.53
553.417	49187.93
553.78	49695.49
554.143	49542.5
554.507	49733.9
554.87	49835.37
555.234	50196.04
555.597	50060.68
555.96	50144.74
556.323	50331.85
556.686	50379.99
557.05	50693.2
557.413	50708.57
557.776	50866.76
558.139	51012.06
558.502	51033.76
558.865	51257.48
559.228	51494.31
559.59	51548.09
559.953	51564.59
560.316	51927.29
560.679	51938.59
561.041	52083.45
561.404	52132.26
561.767	52522.31
562.129	52367.51
562.492	52661.96
562.854	52631
563.217	52731.57
563.579	52930.43
563.941	53110.54
564.304	53314.37
564.666	53500.13
565.028	53484.31
565.39	53607.25
565.753	53818.99
566.115	53896.05
566.477	53906.9
566.839	54085.88
567.201	54269.6
567.563	54242.94
567.925	54494.46
568.287	54517.73
568.648	54577.39
569.01	54832.3
569.372	54906.65
569.734	54842.47
570.095	55050.37
570.457	55236.81
570.819	55287.66
571.18	55322.91
571.542	55423.92
571.903	55538.27
572.265	55525.84
572.626	55661.88
572.987	55705.05
573.349	55702.33
573.71	55857.13
574.071	55902.56
574.432	56014.19
574.794	56173.51
575.155	56178.48
575.516	56056.9
575.877	56193.17
576.238	56356.33
576.599	56354.97
576.96	56443.78
577.32	56476.78
577.681	56519.26
578.042	56625.93
578.403	56574.85
578.763	56626.6
579.124	56686.26
579.485	56775.75
579.845	56834.28
580.206	56737.34
580.566	56777.79
580.927	56824.11
581.287	56898.01
581.648	56854.39
582.008	56938.91
582.368	56921.74
582.728	57017.55
583.089	56995.63
583.449	57011.45
583.809	57074.73
584.169	57053.94
584.529	57007.39
584.889	57150.21
585.249	57039.47
585.609	56953.15
585.969	57188.4
586.329	57082.64
586.688	57109.08
587.048	57150.21
587.408	57049.87
587.768	57078.8
588.127	57108.85
588.487	57043.09
588.846	57238.79
589.206	57070.21
589.565	57137.1
589.925	57251.22
590.284	57191.34
590.643	57225.01
591.003	57207.61
591.362	57317.89
591.721	57232.92
592.08	57243.09
592.44	57354.27
592.799	57320.37
593.158	57266.59
593.517	57327.6
593.876	57307.94
594.235	57288.51
594.593	57376.42
594.952	57345
595.311	57288.06
595.67	57333.48
596.029	57498.22
596.387	57486.24
596.746	57566.69
597.104	57478.33
597.463	57408.96
597.822	57523.53
598.18	57431.1
598.538	57446.7
598.897	57652.34
599.255	57437.88
599.613	57759.46
599.972	57521.27
600.33	57652.79
600.688	57509.07
601.046	57604.66
601.404	57703.19
601.762	57583.19
602.12	57769.85
602.478	57676.52
602.836	57606.92
603.194	57577.99
603.552	57599.69
603.91	57544.09
604.268	57723.75
604.625	57637.65
604.983	57694.6
605.341	57563.53
605.698	57745.9
606.056	57752.68
606.413	57701.6
606.771	57844.65
607.128	57868.61
607.485	57766.91
607.843	57816.63
608.2	57964.2
608.557	58025.44
608.914	57929.85
609.272	58033.35
609.629	58018.21
609.986	58147.24
610.343	57995.16
610.7	58202.83
611.057	58268.82
611.414	58152.89
611.771	58144.3
612.127	58320.35
612.484	58284.87
612.841	58362.15
613.198	58375.48
613.554	58343.85
613.911	58460.91
614.267	58468.14
614.624	58415.71
614.98	58446.44
615.337	58557.17
615.693	58556.5
616.05	58525.54
616.406	58688.92
616.762	58515.14
617.118	58569.15
617.475	58602.6
617.831	58722.37
618.187	58704.06
618.543	58714.91
618.899	58867.9
619.255	58792.42
619.611	58689.6
619.967	58861.12
620.323	58930.72
620.678	58780.22
621.034	58712.43
621.39	58750.62
621.746	58679.66
622.101	58948.8
622.457	58735.93
622.812	58825.42
623.168	58917.62
623.523	58819.31
623.879	58889.14
624.234	58751.52
624.589	58817.96
624.945	58836.49
625.3	58815.47
625.655	58752.88
626.01	58747.9
626.365	58778.19
626.72	58727.79
627.075	58693.67
627.43	58679.88
627.785	58570.51
628.14	58679.43
628.495	58676.95
628.85	58565.08
629.205	58507.01
629.559	58620.9
629.914	58575.93
630.269	58548.14
630.623	58403.05
630.978	58398.76
631.332	58533.22
631.687	58522.6
632.041	58379.1
632.396	58438.99
632.75	58331.19
633.104	58371.87
633.459	58210.74
633.813	58275.37
634.167	58293.68
634.521	58218.65
634.875	58281.25
635.229	58202.83
635.583	58063.4
635.937	58137.3
636.291	58156.28
636.645	58116.73
636.999	58035.61
637.352	58105.89
637.706	58011.88
638.06	58128.49
638.413	58001.94
638.767	57982.95
639.121	58062.05
639.474	57933.91
639.828	57981.37
640.181	57966.46
640.534	57939.34
640.888	57927.36
641.241	57773.69
641.594	57831.77
641.947	57951.77
642.301	57845.33
642.654	57901.15
643.007	57810.3
643.36	57865.67
643.713	57731.43
644.066	57829.74
644.419	57631.78
644.771	57548.61
645.124	57244.22
645.477	57215.97
645.83	57052.58
646.182	57006.71
646.535	56882.87
646.888	56891
647.24	56722.65
647.593	56863.21
647.945	56805.81
648.298	56658.24
648.65	56613.72
649.002	56555.87
649.355	56597.23
649.707	56538.47
650.059	56673.38
650.411	56994.28
650.763	56885.13
651.115	57186.14
651.467	57057.1
651.819	57068.63
652.171	57010.55
652.523	56944.11
652.875	56983.43
653.227	56774.85
653.578	57027.27
653.93	56861.85
654.282	56715.19
654.633	56654.85
654.985	56684.68
655.337	56759.71
655.688	56724.45
656.039	56843.77
656.391	56421.86
656.742	56563.33
657.094	56513.16
657.445	56675.19
657.796	56561.52
658.147	56447.85
658.498	56409.21
658.849	56523.78
659.2	56499.6
659.551	56375.31
659.902	56489.43
660.253	56361.75
660.604	56408.98
660.955	56232.26
661.306	56315.2
661.656	56311.58
662.007	56243.79
662.358	56305.71
662.708	56205.82
663.059	56248.54
663.409	56122.66
663.76	56264.58
664.11	56230
664.461	56223.23
664.811	56322.66
665.161	56215.54
665.511	56252.83
665.862	56230.91
666.212	56332.15
666.562	56358.36
666.912	56248.08
667.262	56262.77
667.612	56248.31
667.962	56244.24
668.312	56163.57
668.662	56307.97
669.011	56262.77
669.361	56095.32
669.711	56143.23
670.06	56091.93
670.41	56059.39
670.76	56044.7
671.109	56114.08
671.459	56059.39
671.808	56009.67
672.157	56043.34
672.507	55911.37
672.856	55848.77
673.205	55927.19
673.554	56001.99
673.904	55881.31
674.253	56001.31
674.602	55799.06
674.951	55452.62
675.3	55312.06
675.649	55720.64
675.998	55732.39
676.346	55771.94
676.695	55755.21
677.044	55578.5
677.393	55563.81
677.741	55750.24
678.09	55593.19
678.438	55479.97
678.787	55519.74
679.135	55523.36
679.484	55278.17
679.832	55435.9
680.181	55222.12
680.529	55253.99
680.877	55101.22
681.225	55158.85
681.573	55288.79
681.922	55131.05
682.27	55017.61
682.618	55009.25
682.966	54979.19
683.314	54913.88
683.661	54907.78
684.009	54775.58
684.357	54693.32
684.705	54594.34
685.053	54587.11
685.4	54507.34
685.748	54410.39
686.095	54417.17
686.443	54312.09
686.79	54213.33
687.138	54284.29
687.485	54258.53
687.832	54156.84
688.18	54140.57
688.527	53990.52
688.874	53978.54
689.221	53869.61
689.568	53779.67
689.915	53723.86
690.262	53788.49
690.609	53639.11
690.956	53505.1
691.303	53459.91
691.65	53363.64
691.997	53292
692.344	53172.46
692.69	53135.17
693.037	53103.76
693.383	52885.23
693.73	53059.69
694.077	52795.74
694.423	52760.49
694.769	52685.92
695.116	52687.95
695.462	52666.03
695.808	52459.48
696.155	52584.22
696.501	52328.64
696.847	52294.29
697.193	52023.56
697.539	52191.24
697.885	51899.27
698.231	51784.25
698.577	51897.24
698.923	51843.91
699.269	51754.64
699.614	51463.12
699.96	51526.17
700.306	51550.81
700.651	51371.83
700.997	51272.85
701.342	51175
701.688	51192.85
702.033	51090.93
702.379	51012.74
702.724	50950.6
703.069	51006.41
703.415	50565.75
703.76	50624.73
704.105	50635.58
704.45	50396.49
704.795	50321.91
705.14	50222.7
705.485	50103.39
705.83	49928.25
706.175	50059.77
706.52	49921.92
706.865	49776.84
707.209	49726.67
707.554	49533.91
707.899	49607.58
708.243	49414.59
708.588	49280.58
708.932	49048.72
709.277	48962.63
709.621	49083.07
709.966	48912.91
710.31	48968.5
710.654	48594.73
710.998	48715.85
711.342	48632.69
711.687	48366.26
712.031	48330.55
712.375	48150.44
712.719	48200.84
713.063	48010.11
713.407	48217.79
713.75	47907.51
714.094	47901.18
714.438	47755.43
714.782	47708.42
715.125	47579.84
715.469	47709.55
715.812	47402.67
716.156	47232.28
716.499	47219.17
716.843	47333.29
717.186	46960.87
717.53	47018.95
717.873	46994.32
718.216	46796.58
718.559	46608.79
718.902	46526.53
719.246	46524.5
719.589	46343.26
719.932	46199.76
720.275	46218.74
720.617	46138.74
720.96	46084.51
721.303	46075.92
721.646	46063.72
721.989	45788.02
722.331	45922.48
722.674	45834.12
723.016	45728.13
723.359	45691.52
723.701	45802.93
724.044	45462.15
724.386	45233.68
724.729	45369.73
725.071	45328.37
725.413	45147.13
725.755	45027.59
726.097	45032.56
726.439	44830.3
726.782	44866.01
727.124	44953.92
727.465	44667.6
727.807	44543.98
728.149	44683.64
728.491	44583.98
728.833	44565.45
729.175	44501.27
729.516	44426.7
729.858	44174.28
730.199	44358
730.541	44332.92
730.882	44127.95
731.224	44207.95
731.565	44038.69
731.906	44113.94
732.248	44082.98
732.589	43820.61
732.93	43774.29
733.271	43843.21
733.612	43829.43
733.953	43838.24
734.294	43577.23
734.635	43520.96
734.976	43663.33
735.317	43328.65
735.658	43385.37
735.999	43172.49
736.339	43250.91
736.68	43450.23
737.021	43182.44
737.361	42974.76
737.702	43157.58
738.042	43036.23
738.383	42871.71
738.723	42988.09
739.063	42771.6
739.404	42781.09
739.744	42619.06
740.084	42505.62
740.424	42572.06
740.764	42484.83
741.104	42404.38
741.444	42283.25
741.784	42081.22
742.124	42163.93
742.464	42119.42
742.804	42036.25
743.143	42014.56
743.483	41965.29
743.823	41765.98
744.162	41722.36
744.502	41712.19
744.841	41488.92
745.181	41509.49
745.52	41366.21
745.86	41477.62
746.199	41323.05
746.538	41212.09
746.877	41371.64
747.216	41192.21
747.556	40987.47
747.895	41107.69
748.234	40813.69
748.573	40767.13
748.911	40645.56
749.25	40713.8
749.589	40495.95
749.928	40453.7
750.267	40457.31
750.605	40253.02
750.944	40094.61
751.283	40037.21
751.621	40035.63
751.96	39921.96
752.298	39896.2
752.636	39773.26
752.975	39573.27
753.313	39559.03
753.651	39659.59
753.989	39416.21
754.327	39237.46
754.666	39221.64
755.004	39156.33
755.342	39103.45
755.679	39180.51
756.017	38876.34
756.355	38926.5
756.693	38687.64
757.031	38786.17
757.368	38485.39
757.706	38439.29
758.044	38426.63
758.381	38427.53
758.719	38122.46
759.056	38181.89
759.394	37962.69
759.731	37846.99
760.068	37736.93
760.405	37596.82
760.743	37498.07
761.08	37543.94
761.417	37401.57
761.754	37245.19
762.091	37147.34
762.428	37113.9
762.765	36848.82
763.102	36965.2
763.438	36768.37
763.775	36550.07
764.112	36587.58
764.449	36702.38
764.785	36436.85
765.122	36202.51
765.458	36067.82
765.795	36150.31
766.131	35911.22
766.467	35877.55
766.804	35695.86
767.14	35520.49
767.476	35474.84
767.812	35411.57
768.148	35374.73
768.485	35261.29
768.821	35203.44
769.157	35009.77
769.492	34960.96
769.828	34969.09
770.164	34642.1
770.5	34631.7
770.836	34557.35
771.171	34386.74
771.507	34358.04
771.842	33993.98
772.178	33954.88
772.513	33963.7
772.849	33761.22
773.184	33720.54
773.519	33602.8
773.855	33386.54
774.19	33411.62
774.525	33234.45
774.86	33179.09
775.195	33085.53
775.53	32918.98
775.865	32643.28
776.2	32576.39
776.535	32271.31
776.87	32414.59
777.205	32271.31
777.539	32057.53
777.874	32152.45
778.209	31857.99
778.543	31846.69
778.878	31604.66
779.212	31564.44
779.547	31352.01
779.881	31506.13
780.215	31191.79
780.55	31166.71
780.884	30927.17
781.218	30888.07
781.552	30732.37
781.886	30691.92
782.22	30406.73
782.554	30408.31
782.888	30032.5
783.222	30001.54
783.556	29798.61
783.889	29801.09
784.223	29655.11
784.557	29540.31
784.89	29558.84
785.224	29438.62
785.557	29272.52
785.891	29272.07
786.224	29055.8
786.558	29008.12
786.891	28806.09
787.224	28660.33
787.557	28489.27
787.891	28510.28
788.224	28471.41
788.557	28459.21
788.89	28370.17
789.223	28180.57
789.556	28066.45
789.888	28104.42
790.221	27933.12
790.554	27704.2
790.887	27779.45
791.219	27537.65
791.552	27574.49
791.884	27278.45
792.217	27378.56
792.549	27051.34
792.882	26958.91
793.214	26834.62
793.546	26837.11
793.879	26759.37
794.211	26486.38
794.543	26621.52
794.875	26556.43
795.207	26517.79
795.539	26342.2
795.871	26364.58
796.203	26087.75
796.535	26056.33
796.867	25981.08
797.198	25903.8
797.53	25866.06
797.862	25675.33
798.193	25790.35
798.525	25545.39
798.856	25662.9
799.188	25333.19
799.519	25222.68
799.85	25140.65
800.182	25056.81
800.513	25038.06
800.844	24993.99
801.175	25107.21
801.506	24976.59
801.837	24755.35
802.168	24703.38
802.499	24633.55
802.83	24512.65
803.161	24524.17
803.491	24409.82
803.822	24538.18
804.153	24425.19
804.483	24143.84
804.814	24104.07
805.145	24215.48
805.475	24041.7
805.805	24085.31
806.136	23955.6
806.466	23981.81
806.796	23897.07
807.126	23612.56
807.457	23650.97
807.787	23735.04
808.117	23534.82
808.447	23505.89
808.777	23589.28
809.107	23492.11
809.436	23297.09
809.766	23345.67
810.096	23182.96
810.426	23142.51
810.755	23130.08
811.085	23057.54
811.414	22929.86
811.744	22821.62
812.073	22796.76
812.403	22862.07
812.732	22745.91
813.061	22738.91
813.39	22642.87
813.719	22480.84
814.049	22616.43
814.378	22471.12
814.707	22364.91
815.036	22308.64
815.365	22323.78
815.693	22093.28
816.022	22145.03
816.351	22084.91
816.68	21905.26
817.008	22078.81
817.337	21844.24
817.665	21844.69
817.994	21863.68
818.322	21686.28
818.651	21698.94
818.979	21535.78
819.307	21635.89
819.636	21560.41
819.964	21425.95
820.292	21548.2
820.62	21430.24
820.948	21430.92
821.276	21491.26
821.604	21258.49
821.932	21303.47
822.259	21363.35
822.587	21334.42
822.915	21197.48
823.243	21360.19
823.57	21336.01
823.898	21286.52
824.225	21174.66
824.553	21255.56
824.88	21211.04
825.207	21193.41
825.535	21161.55
825.862	21175.56
826.189	21143.02
826.516	21235.22
826.843	21254.2
827.17	21113.41
827.497	21220.53
827.824	21224.15
828.151	21046.52
828.478	21008.56
828.805	21083.13
829.131	20992.29
829.458	21065.05
829.785	20886.53
830.111	20960.42
830.438	21046.52
830.764	20978.5
831.09	20963.81
831.417	20825.29
831.743	21023.47
832.069	20886.08
832.395	20773.31
832.722	20973.76
833.048	20775.12
833.374	20746.19
833.7	20692.18
834.026	20695.8
834.351	20772.86
834.677	20611.51
835.003	20842.91
835.329	20732.86
835.654	20629.36
835.98	20516.82
836.306	20623.94
836.631	20566.54
836.956	20630.26
837.282	20621
837.607	20460.78
837.932	20407.22
838.258	20353.43
838.583	20431.17
838.908	20399.53
839.233	20367.67
839.558	20190.5
839.883	20267.33
840.208	20118.41
840.533	20124.97
840.858	20157.96
841.182	20117.96
841.507	20230.27
841.832	20032.54
842.156	19992.77
842.481	20017.17
842.805	19951.18
843.13	19867.12
843.454	19923.39
843.778	19793.22
844.103	19808.14
844.427	19872.54
844.751	19738.08
845.075	19650.63
845.399	19554.13
845.723	19414.7
846.047	19565.88
846.371	19427.81
846.695	19404.76
847.019	19250.64
847.343	19223.97
847.666	19034.82
847.99	18995.96
848.313	19042.96
848.637	18880.25
848.96	18905.79
849.284	18760.93
849.607	18781.5
849.931	18544.44
850.254	18407.04
850.577	18444.78
850.9	18380.15
851.223	18302.41
851.546	18288.86
851.869	18103.78
852.192	18200.72
852.515	18060.61
852.838	17921.41
853.161	18033.04
853.483	17868.08
853.806	17843.9
854.129	17775.42
854.451	17670.79
854.774	17600.06
855.096	17477.58
855.419	17535.88
855.741	17334.98
856.063	17393.96
856.385	17264.02
856.708	17280.07
857.03	17260.18
857.352	17189.9
857.674	17179.05
857.996	17007.53
858.318	16932.05
858.64	17010.02
858.961	16841.21
859.283	16900.64
859.605	16768.22
859.926	16679.86
860.248	16767.77
860.57	16689.12
860.891	16635.11
861.212	16584.27
861.534	16483.7
861.855	16403.26
862.176	16463.14
862.498	16405.51
862.819	16354.89
863.14	16280.09
863.461	16279.42
863.782	16289.36
864.103	16264.28
864.424	16163.49
864.745	16293.88
865.065	16163.94
865.386	16015.92
865.707	16036.94
866.027	15985.41
866.348	15987.45
866.668	15992.64
866.989	15902.25
867.309	15824.97
867.63	15842.59
867.95	15827.68
868.27	15674.91
868.59	15642.15
868.91	15643.28
869.23	15588.59
869.55	15580
869.87	15776.15
870.19	15569.6
870.51	15558.31
870.83	15602.6
871.15	15434.47
871.469	15459.1
871.789	15535.71
872.109	15402.83
872.428	15375.03
872.748	15338.42
873.067	15305.2
873.386	15316.96
873.706	15320.12
874.025	15241.93
874.344	15336.16
874.663	15236.05
874.982	15203.51
875.301	15180.01
875.62	15041.03
875.939	15028.6
876.258	15109.05
876.577	15020.24
876.896	15028.6
877.214	15029.96
877.533	15001.94
877.852	14959
878.17	14903.86
878.489	14898.21
878.807	14879
879.125	14893.01
879.444	14889.85
879.762	14692.11
880.08	14756.97
880.398	14675.39
880.716	14756.29
881.034	14664.32
881.352	14725.56
881.67	14592
881.988	14657.09
882.306	14558.33
882.624	14524.43
882.941	14478.56
883.259	14389.52
883.577	14346.59
883.894	14360.15
884.212	14362.4
884.529	14310.2
884.846	14339.81
885.164	14304.55
885.481	14256.87
885.798	14201.96
886.115	14160.38
886.432	14188.17
886.75	14114.95
887.067	14149.98
887.383	14039.93
887.7	14011.23
888.017	14073.15
888.334	14104.78
888.651	14000.61
888.967	13928.07
889.284	13912.7
889.6	13888.07
889.917	13782.08
890.233	13782.31
890.55	13754.74
890.866	13727.85
891.182	13760.39
891.498	13732.59
891.815	13557.45
892.131	13603.1
892.447	13578.7
892.763	13497.79
893.079	13504.57
893.395	13424.58
893.71	13425.25
894.026	13398.36
894.342	13409.66
894.657	13198.82
894.973	13247.86
895.289	13213.28
895.604	13232.72
895.92	13086.96
896.235	13033.63
896.55	13116.79
896.865	13024.13
897.181	13036.11
897.496	13005.6
897.811	12935.1
898.126	12868.43
898.441	12827.53
898.756	12846.96
899.071	12729.45
899.386	12772.16
899.7	12665.27
900.015	12592.06
900.33	12579.4
900.644	12492.85
900.959	12550.02
901.273	12409.01
901.588	12385.96
901.902	12329.01
902.216	12295.34
902.531	12364.27
902.845	12215.12
903.159	12177.83
903.473	12241.56
903.787	12120.66
904.101	12053.54
904.415	12021.22
904.729	11945.75
905.042	11830.04
905.356	11842.7
905.67	11799.76
905.984	11791.4
906.297	11668.01
906.611	11625.3
906.924	11614
907.237	11617.39
907.551	11592.08
907.864	11516.38
908.177	11544.85
908.491	11475.48
908.804	11372.2
909.117	11405.42
909.43	11275.03
909.743	11151.64
910.056	11195.03
910.368	11116.16
910.681	11054.92
910.994	11022.38
911.307	11014.92
911.619	10944.19
911.932	10937.64
912.244	10810.86
912.557	10799.11
912.869	10764.99
913.181	10714.37
913.494	10675.27
913.806	10646.57
914.118	10576.74
914.43	10544.88
914.742	10556.4
915.054	10457.2
915.366	10436.18
915.678	10324.54
915.99	10277.31
916.302	10228.05
916.613	10250.42
916.925	10228.5
917.236	10101.05
917.548	10041.16
917.859	10052.91
918.171	9930.88
918.482	9989.64
918.794	9857.89
919.105	9876.87
919.416	9731.57
919.727	9736.54
920.038	9733.6
920.349	9633.49
920.66	9632.13
920.971	9563.21
921.282	9586.71
921.593	9440.73
921.903	9341.29
922.214	9324.12
922.525	9350.56
922.835	9276.44
923.146	9234.18
923.456	9185.59
923.767	9179.26
924.077	9128.19
924.387	9053.62
924.697	9050.23
925.008	8992.83
925.318	8898.59
925.628	8922.32
925.938	8860.85
926.248	8777.92
926.558	8704.47
926.867	8745.38
927.177	8701.08
927.487	8700.18
927.796	8573.63
928.106	8557.13
928.416	8497.47
928.725	8471.94
929.034	8424.48
929.344	8471.26
929.653	8429.68
929.962	8348.1
930.271	8326.41
930.581	8238.72
930.89	8168.44
931.199	8151.95
931.508	8173.42
931.817	8116.02
932.125	8047.09
932.434	8049.35
932.743	7979.75
933.051	7946.3
933.36	7974.78
933.669	7878.73
933.977	7857.72
934.286	7827.66
934.594	7797.15
934.902	7812.75
935.21	7653.65
935.519	7715.8
935.827	7659.53
936.135	7646.65
936.443	7586.31
936.751	7516.03
937.059	7532.53
937.367	7470.61
937.674	7495.92
937.982	7388.12
938.29	7433.55
938.597	7375.02
938.905	7347.9
939.213	7316.49
939.52	7263.16
939.827	7270.16
940.135	7183.38
940.442	7171.41
940.749	7134.12
941.056	7115.82
941.363	7038.08
941.67	7057.51
941.977	7069.49
942.284	6978.19
942.591	6984.07
942.898	6950.4
943.205	6939.55
943.511	6883.96
943.818	6901.13
944.125	6855.26
944.431	6809.38
944.738	6824.3
945.044	6769.84
945.35	6742.94
945.657	6711.08
945.963	6706.11
946.269	6658.43
946.575	6674.47
946.881	6615.94
947.187	6560.58
947.493	6564.19
947.799	6555.38
948.105	6524.42
948.41	6479.9
948.716	6449.17
949.022	6515.61
949.327	6432.44
949.633	6291.43
949.938	6342.05
950.244	6377.3
950.549	6271.32
950.854	6316.29
951.16	6311.09
951.465	6264.99
951.77	6187.25
952.075	6233.81
952.38	6144.09
952.685	6179.12
952.99	6095.96
953.294	6053.92
953.599	6059.57
953.904	6082.17
954.209	6034.94
954.513	5993.36
954.818	5958.11
955.122	5970.99
955.426	5911.1
955.731	5919.91
956.035	5874.49
956.339	5859.13
956.643	5893.93
956.948	5865
957.252	5798.79
957.556	5742.52
957.86	5740.94
958.163	5661.16
958.467	5736.42
958.771	5697.77
959.075	5664.1
959.378	5656.19
959.682	5648.96
959.985	5641.05
960.289	5546.14
960.592	5497.33
960.896	5526.93
961.199	5458.46
961.502	5452.13
961.805	5459.81
962.108	5393.6
962.411	5387.05
962.714	5359.48
963.017	5363.32
963.32	5379.36
963.623	5314.96
963.926	5281.74
964.228	5225.92
964.531	5202.19
964.833	5189.09
965.136	5165.58
965.438	5139.82
965.741	5112.7
966.043	5085.13
966.345	5113.38
966.648	5023.44
966.95	5079.71
967.252	4972.14
967.554	4973.5
967.856	4955.19
968.158	4924.46
968.46	4923.78
968.761	4879.04
969.063	4858.02
969.365	4839.04
969.666	4801.98
969.968	4739.16
970.269	4748.42
970.571	4724.01
970.872	4674.3
971.174	4670.68
971.475	4670
971.776	4648.08
972.077	4608.54
972.378	4591.36
972.679	4615.32
972.98	4546.84
973.281	4501.2
973.582	4497.35
973.883	4466.39
974.183	4471.82
974.484	4428.43
974.785	4371.93
975.085	4398.83
975.386	4400.86
975.686	4346.4
975.986	4353.4
976.287	4313.63
976.587	4289.45
976.887	4274.76
977.187	4280.64
977.487	4187.08
977.787	4178.27
978.087	4164.93
978.387	4164.25
978.687	4146.4
978.987	4113.63
979.286	4034.31
979.586	4086.74
979.885	4041.09
980.185	4049.46
980.484	4007.87
980.784	3991.6
981.083	4005.39
981.382	3940.53
981.682	3924.49
981.981	3940.98
982.28	3903.24
982.579	3870.25
982.878	3858.27
983.177	3864.6
983.475	3850.14
983.774	3761.55
984.073	3783.02
984.372	3736.02
984.67	3729.92
984.969	3712.06
985.267	3679.07
985.566	3642.46
985.864	3624.83
986.162	3639.52
986.461	3605.85
986.759	3618.51
987.057	3551.16
987.355	3537.15
987.653	3527.21
987.951	3474.1
988.249	3505.52
988.547	3496.48
988.844	3444.95
989.142	3491.28
989.44	3454.67
989.737	3409.25
990.035	3420.09
990.332	3401.79
990.63	3415.57
990.927	3370.38
991.224	3342.13
991.521	3303.26
991.819	3309.14
992.116	3338.74
992.413	3291.96
992.71	3262.36
993.006	3243.6
993.303	3237.27
993.6	3246.99
993.897	3171.74
994.193	3179.87
994.49	3179.2
994.787	3173.55
995.083	3117.5
995.379	3142.59
995.676	3123.6
995.972	3087.45
996.268	3070.5
996.565	3053.1
996.861	3041.12
997.157	3041.57
997.453	2999.09
997.749	3000.9
998.044	2995.25
998.34	2978.07
998.636	2952.31
998.932	2971.07
999.227	2951.41
999.523	2927.45
999.818	2933.1
1000.114	2910.5
1000.409	2901.46
1000.704	2883.38
1001	2854.46
1001.295	2879.77
1001.59	2835.93
1001.885	2826.89
1002.18	2785.53
1002.475	2784.18
1002.77	2754.8
1003.065	2720.68
1003.359	2763.39
1003.654	2711.19
1003.949	2705.99
1004.243	2715.71
1004.538	2664.86
1004.832	2643.16
1005.127	2677.06
1005.421	2649.94
1005.715	2619.89
1006.009	2576.95
1006.304	2608.59
1006.598	2566.78
1006.892	2536.95
1007.186	2545.31
1007.48	2553.45
1007.773	2522.72
1008.067	2529.5
1008.361	2509.16
1008.655	2473.23
1008.948	2442.04
1009.242	2469.16
1009.535	2441.59
1009.829	2416.96
1010.122	2402.72
1010.415	2413.57
1010.708	2391.87
1011.001	2367.92
1011.295	2351.42
1011.588	2337.64
1011.881	2307.58
1012.173	2323.63
1012.466	2307.35
1012.759	2306.45
1013.052	2248.15
1013.344	2281.14
1013.637	2280.01
1013.93	2248.6
1014.222	2243.18
1014.514	2219.9
1014.807	2199.56
1015.099	2176.28
1015.391	2181.26
1015.683	2132.9
1015.976	2154.82
1016.268	2111.65
1016.56	2121.82
1016.851	2119.11
1017.143	2098.55
1017.435	2071.2
1017.727	2119.34
1018.018	2067.13
1018.31	2064.2
1018.602	2037.53
1018.893	2020.13
1019.185	2010.87
1019.476	1981.71
1019.767	2007.93
1020.058	1948.49
1020.35	1986.69
1020.641	1909.85
1020.932	1901.26
1021.223	1903.3
1021.514	1913.01
1021.804	1881.15
1022.095	1872.56
1022.386	1856.29
1022.677	1850.19
1022.967	1800.25
1023.258	1811.77
1023.548	1785.11
1023.839	1794.6
1024.129	1769.52
1024.419	1767.71
1024.709	1756.41
1025	1740.82
1025.29	1737.65
1025.58	1731.32
1025.87	1716.64
1026.16	1695.62
1026.449	1693.81
1026.739	1683.42
1027.029	1651.33
1027.319	1642.06
1027.608	1639.8
1027.898	1626.02
1028.187	1595.96
1028.477	1607.03
1028.766	1593.7
1029.055	1583.76
1029.344	1577.2
1029.634	1558
1029.923	1543.31
1030.212	1516.41
1030.501	1534.95
1030.79	1504.66
1031.078	1482.97
1031.367	1490.65
1031.656	1483.87
1031.945	1506.92
1032.233	1458.11
1032.522	1432.58
1032.81	1424.44
1033.099	1405.68
1033.387	1437.09
1033.675	1421.05
1033.963	1397.55
1034.251	1382.86
1034.54	1370.2
1034.828	1373.14
1035.116	1358.23
1035.403	1367.04
1035.691	1330.43
1035.979	1310.09
1036.267	1319.36
1036.554	1310.32
1036.842	1284.33
1037.129	1305.35
1037.417	1272.58
1037.704	1276.2
1037.992	1255.4
1038.279	1266.7
1038.566	1243.2
1038.853	1243.2
1039.14	1243.2
