Data from whiteboard_FLMS001491_00087.txt Node
Date: Wed Feb 08 11:28:29 GMT 2017
User: dcchb
Spectrometer: FLMS00149
Trigger mode: 0
Integration Time (sec): 2.000000E-2
Scans to average: 10
Electric dark correction enabled: true
Nonlinearity correction enabled: false
Boxcar width: 0
XAxis mode: Wavelengths
Number of Pixels in Spectrum: 2048
>>>>>Begin Spectral Data<<<<<
341.393	-11.29
341.776	-11.29
342.16	-11.29
342.543	-58.52
342.927	-76.59
343.31	-76.82
343.693	-76.14
344.077	-60.1
344.46	-58.06
344.843	-61.68
345.226	-45.63
345.61	-26.88
345.993	15.15
346.376	-22.81
346.759	4.99
347.142	24.42
347.525	19.22
347.908	62.61
348.291	89.73
348.674	109.84
349.057	102.16
349.44	134.25
349.823	150.52
350.206	153.23
350.588	209.95
350.971	225.77
351.354	266
351.737	266.22
352.119	277.97
352.502	285.43
352.884	292.21
353.267	308.71
353.65	314.58
354.032	318.65
354.414	330.85
354.797	323.4
355.179	324.75
355.562	352.32
355.944	354.81
356.326	353.23
356.709	369.5
357.091	348.25
357.473	359.55
357.855	372.21
358.238	369.27
358.62	376.95
359.002	368.14
359.384	375.82
359.766	348.25
360.148	349.16
360.53	377.18
360.912	382.38
361.294	374.47
361.676	376.05
362.057	349.16
362.439	362.26
362.821	380.12
363.203	367.24
363.584	348.25
363.966	375.37
364.348	364.98
364.729	351.64
365.111	337.63
365.493	378.08
365.874	348.93
366.256	364.75
366.637	365.88
367.019	347.35
367.4	339.44
367.781	341.47
368.163	370.4
368.544	356.61
368.925	367.46
369.306	364.52
369.688	353.45
370.069	353.68
370.45	360
370.831	363.39
371.212	360.68
371.593	340.8
371.974	353.9
372.355	356.84
372.736	352.55
373.117	342.83
373.498	363.17
373.879	371.08
374.26	353.45
374.641	362.94
375.021	356.61
375.402	364.52
375.783	363.39
376.163	405.43
376.544	373.79
376.925	384.64
377.305	377.18
377.686	379.67
378.066	389.61
378.447	364.52
378.827	397.74
379.208	397.29
379.588	402.94
379.968	391.19
380.349	390.96
380.729	393.45
381.109	414.92
381.489	404.75
381.87	414.92
382.25	417.18
382.63	431.42
383.01	411.53
383.39	423.05
383.77	415.6
384.15	435.71
384.53	442.04
384.91	415.6
385.29	433.45
385.67	416.95
386.049	461.92
386.429	470.96
386.809	450.62
387.189	470.51
387.568	476.84
387.948	465.54
388.328	458.53
388.707	454.24
389.087	480
389.466	490.62
389.846	467.12
390.225	479.32
390.605	502.15
390.984	516.61
391.363	495.59
391.743	523.84
392.122	504.86
392.501	531.75
392.881	547.8
393.26	517.06
393.639	543.73
394.018	555.25
394.397	563.39
394.776	578.08
395.155	562.03
395.534	579.43
395.913	599.77
396.292	572.2
396.671	614.46
397.05	632.31
397.429	629.6
397.808	651.3
398.186	648.36
398.565	625.76
398.944	639.77
399.323	666.89
399.701	681.13
400.08	681.58
400.458	665.31
400.837	721.8
401.215	732.65
401.594	721.8
401.972	757.73
402.351	740.56
402.729	762.25
403.107	790.05
403.486	792.31
403.864	819.65
404.242	823.5
404.62	858.52
404.999	838.64
405.377	875.02
405.755	892.19
406.133	897.84
406.511	911.4
406.889	934
407.267	966.54
407.645	960.89
408.023	985.98
408.401	977.84
408.779	1018.07
409.156	1021.91
409.534	1076.14
409.912	1070.72
410.29	1104.39
410.667	1156.37
411.045	1149.59
411.422	1182.13
411.8	1200.66
412.178	1232.98
412.555	1256.48
412.933	1271.62
413.31	1315.69
413.687	1303.03
414.065	1319.08
414.442	1370.37
414.819	1346.65
415.197	1377.38
415.574	1409.24
415.951	1444.72
416.328	1454.44
416.705	1486.53
417.082	1515.23
417.46	1523.82
417.837	1541.44
418.214	1569.46
418.591	1565.85
418.967	1531.05
419.344	1615.11
419.721	1627.09
420.098	1647.88
420.475	1694.66
420.852	1722.23
421.228	1693.53
421.605	1712.96
421.982	1775.33
422.358	1751.83
422.735	1788.89
423.111	1795.9
423.488	1854.88
423.864	1857.14
424.241	1889.68
424.617	1907.08
424.994	1907.31
425.37	1953.41
425.746	1973.52
426.123	2004.71
426.499	2016.68
426.875	2057.36
427.251	2083.58
427.627	2123.35
428.003	2158.83
428.379	2171.03
428.756	2192.95
429.132	2247.86
429.507	2246.28
429.883	2261.42
430.259	2364.92
430.635	2322.21
431.011	2384.13
431.387	2420.52
431.763	2498.03
432.138	2515.2
432.514	2516.33
432.89	2503.23
433.265	2566.73
433.641	2626.84
434.016	2680.17
434.392	2724.69
434.767	2731.24
435.143	2745.48
435.518	2801.07
435.894	2797.68
436.269	2889.2
436.644	2885.14
437.02	2934.17
437.395	2929.65
437.77	3020.27
438.145	3003.55
438.52	3068.86
438.895	3098.24
439.271	3130.1
439.646	3227.95
440.021	3236.09
440.395	3229.76
440.77	3216.65
441.145	3238.57
441.52	3326.48
441.895	3316.76
442.27	3348.85
442.645	3358.34
443.019	3396.53
443.394	3403.09
443.769	3473.82
444.143	3404.22
444.518	3519.92
444.892	3504.55
445.267	3595.4
445.641	3611.9
446.016	3534.84
446.39	3588.39
446.764	3638.79
447.139	3653.93
447.513	3722.4
447.887	3716.07
448.262	3742.29
448.636	3766.02
449.01	3816.41
449.384	3853.7
449.758	3868.84
450.132	3986.12
450.506	3948.84
450.88	3999.68
451.254	4002.39
451.628	4046.01
452.002	4110.87
452.376	4125.56
452.75	4196.74
453.123	4224.08
453.497	4276.51
453.871	4330.97
454.244	4395.38
454.618	4433.12
454.992	4485.55
455.365	4546.11
455.739	4645.99
456.112	4674.69
456.486	4720.12
456.859	4763.96
457.232	4850.06
457.606	4877.4
457.979	4968.7
458.352	5049.6
458.725	5113.33
459.099	5131.86
459.472	5215.7
459.845	5291.17
460.218	5325.07
460.591	5375.01
460.964	5426.54
461.337	5559.87
461.71	5630.6
462.083	5728.68
462.456	5705.17
462.829	5722.12
463.201	5846.19
463.574	5877.6
463.947	5940.65
464.32	6072.4
464.692	6123.69
465.065	6163.92
465.438	6286.4
465.81	6362.33
466.183	6397.13
466.555	6618.82
466.928	6622.66
467.3	6652.95
467.672	6713.28
468.045	6921.19
468.417	6890.91
468.789	6975.88
469.161	7072.14
469.534	7226.72
469.906	7362.76
470.278	7391.23
470.65	7490.21
471.022	7658.8
471.394	7823.54
471.766	7859.92
472.138	8033.02
472.51	8181.27
472.882	8306.01
473.253	8338.33
473.625	8433.46
473.997	8663.29
474.369	8744.19
474.74	8781.93
475.112	9003.62
475.484	9092.2
475.855	9304.18
476.227	9346.44
476.598	9614.45
476.97	9648.12
477.341	9918.4
477.713	10091.5
478.084	10073.87
478.455	10417.82
478.827	10507.31
479.198	10860.75
479.569	10819.39
479.94	11171.7
480.311	11201.98
480.682	11512.71
481.053	11778.24
481.424	11979.59
481.795	12026.82
482.166	12312.68
482.537	12425.9
482.908	12672.68
483.279	12759.45
483.65	13053.23
484.021	13291.64
484.391	13481.92
484.762	13596.72
485.133	13665.64
485.503	13969.14
485.874	14141.34
486.244	14293.42
486.615	14518.95
486.985	14705.16
487.356	15033.74
487.726	15126.62
488.097	15473.51
488.467	15521.87
488.837	15771.35
489.207	15936.77
489.578	16266.03
489.948	16445.91
490.318	16651.1
490.688	16731.1
491.058	17034.59
491.428	17313.68
491.798	17273.68
492.168	17727.68
492.538	17812.2
492.908	17992.54
493.278	18210.38
493.648	18224.62
494.017	18530.15
494.387	18709.58
494.757	18811.04
495.126	18962
495.496	19078.38
495.866	19163.13
496.235	19464.81
496.605	19734.18
496.974	19781.87
497.344	19853.05
497.713	20078.81
498.082	20170.11
498.452	20352.7
498.821	20518.8
499.19	20614.39
499.559	20815.74
499.928	20958.33
500.298	21019.8
500.667	21320.13
501.036	21171.21
501.405	21444.87
501.774	21582.95
502.143	21890.74
502.512	21807.58
502.88	22052.09
503.249	22138.87
503.618	22219.99
503.987	22439.65
504.356	22623.83
504.724	22746.99
505.093	22829.24
505.462	22990.6
505.83	23103.81
506.199	23376.57
506.567	23573.86
506.936	23586.51
507.304	23895.43
507.672	23909.22
508.041	24212.48
508.409	24234.41
508.777	24368.19
509.145	24600.95
509.514	24742.19
509.882	24941.05
510.25	24856.31
510.618	25094.27
510.986	25325.45
511.354	25428.95
511.722	25612.22
512.09	25887.92
512.458	26037.75
512.826	26081.59
513.193	26319.32
513.561	26409.04
513.929	26663.04
514.297	26834.56
514.664	27082.92
515.032	27180.77
515.4	27411.27
515.767	27524.26
516.135	27656.24
516.502	27652.17
516.869	28203.79
517.237	28272.94
517.604	28230.91
517.972	28668.41
518.339	28762.65
518.706	28876.09
519.073	29082.87
519.44	29212.35
519.808	29535.06
520.175	29652.34
520.542	30028.15
520.909	30163.51
521.276	30174.81
521.643	30473.56
522.009	30708.59
522.376	30861.58
522.743	31144.51
523.11	31535.23
523.477	31693.19
523.843	31839.85
524.21	32159.62
524.577	32486.84
524.943	32504.7
525.31	32747.85
525.676	33073.72
526.043	33299.93
526.409	33421.73
526.776	33857.88
527.142	33812.46
527.508	34005.45
527.874	34168.61
528.241	34338.09
528.607	34456.96
528.973	34832.77
529.339	34771.08
529.705	35268.47
530.071	35563.82
530.437	35582.58
530.803	35803.14
531.169	36183.02
531.535	36110.25
531.901	36322.45
532.267	36507.3
532.632	36825.71
532.998	36943.68
533.364	37168.98
533.73	37318.13
534.095	37549.99
534.461	37761.28
534.826	37792.47
535.192	37953.82
535.557	38251.44
535.923	38260.03
536.288	38394.94
536.653	38731.65
537.019	38624.31
537.384	38847.35
537.749	38850.29
538.114	39038.76
538.479	39070.85
538.845	39384.29
539.21	39339.54
539.575	39502.93
539.94	39678.97
540.305	39970.71
540.67	39862.47
541.034	40227.43
541.399	40239.41
541.764	40257.26
542.129	40342.23
542.494	40489.12
542.858	40649.57
543.223	40698.83
543.587	40935.66
543.952	41057.24
544.316	41139.72
544.681	41236.22
545.045	41419.04
545.41	41531.13
545.774	41688.64
546.138	41787.39
546.503	41958.91
546.867	42072.81
547.231	42371.1
547.595	42441.38
547.959	42661.49
548.324	42665.33
548.688	42764.77
549.052	42966.34
549.416	42957.3
549.779	43104.19
550.143	43353
550.507	43560.22
550.871	43695.14
551.235	43771.97
551.599	43978.52
551.962	44028.69
552.326	44167.21
552.689	44531.72
553.053	44326.31
553.417	44439.07
553.78	45015.33
554.143	44740.98
554.507	44933.3
554.87	45306.39
555.234	45596.33
555.597	45393.85
555.96	45660.51
556.323	45820.73
556.686	45875.64
557.05	46088.07
557.413	46161.51
557.776	46285.35
558.139	46484.89
558.502	46591.33
558.865	46784.09
559.228	46973.24
559.59	47087.82
559.953	47135.05
560.316	47475.15
560.679	47561.7
561.041	47784.75
561.404	47948.81
561.767	48227.45
562.129	48117.84
562.492	48547.21
562.854	48582.69
563.217	48544.05
563.579	48675.8
563.941	48977.03
564.304	49159.17
564.666	49426.96
565.028	49539.05
565.39	49613.17
565.753	49704.7
566.115	49932.71
566.477	49952.15
566.839	50130.9
567.201	50322.08
567.563	50432.81
567.925	50665.12
568.287	50713.48
568.648	50759.13
569.01	50943.53
569.372	51102.85
569.734	51081.61
570.095	51326.57
570.457	51417.42
570.819	51397.98
571.18	51473.91
571.542	51776.05
571.903	51765.21
572.265	51967.91
572.626	51998.65
572.987	51946.9
573.349	52069.38
573.71	52223.95
574.071	52311.86
574.432	52407.68
574.794	52638.18
575.155	52661
575.516	52454.45
575.877	52789.59
576.238	52766.99
576.599	52891.73
576.96	52892.63
577.32	52980.99
577.681	53064.16
578.042	53218.73
578.403	53182.8
578.763	53194.55
579.124	53252.4
579.485	53354.32
579.845	53551.83
580.206	53338.27
580.566	53359.74
580.927	53430.93
581.287	53467.31
581.648	53447.87
582.008	53571.26
582.368	53507.99
582.728	53573.07
583.089	53503.92
583.449	53581.2
583.809	53592.28
584.169	53656.23
584.529	53562.67
584.889	53839.5
585.249	53639.96
585.609	53622.78
585.969	53823.01
586.329	53714.53
586.688	53742.1
587.048	53701.43
587.408	53686.51
587.768	53670.69
588.127	53661.88
588.487	53595.89
588.846	53800.41
589.206	53580.3
589.565	53673.63
589.925	53788.66
590.284	53753.63
590.643	53783.01
591.003	53888.31
591.362	53904.13
591.721	53903.46
592.08	53883.34
592.44	53984.58
592.799	53990.46
593.158	53887.41
593.517	53876.11
593.876	53921.53
594.235	53862.1
594.593	53893.74
594.952	53969.22
595.311	53858.94
595.67	53905.94
596.029	54041.76
596.387	53987.52
596.746	54025.71
597.104	53926.51
597.463	54021.64
597.822	54059.61
598.18	54047.63
598.538	53983.68
598.897	54187.29
599.255	53957.01
599.613	54461.18
599.972	54230.9
600.33	54434.74
600.688	54154.75
601.046	54378.7
601.404	54421.63
601.762	54303.9
602.12	54482.65
602.478	54434.74
602.836	54442.2
603.194	54307.29
603.552	54398.58
603.91	54236.1
604.268	54410.11
604.625	54296.89
604.983	54410.33
605.341	54245.59
605.698	54458.24
606.056	54404.01
606.413	54314.52
606.771	54540.73
607.128	54501.41
607.485	54381.18
607.843	54381.64
608.2	54553.61
608.557	54570.33
608.914	54524.23
609.272	54659.82
609.629	54755.18
609.986	54758.35
610.343	54635.41
610.7	54853.26
611.057	54752.02
611.414	54792.25
611.771	54819.82
612.127	54872.02
612.484	54897.1
612.841	55003.99
613.198	54826.6
613.554	54823.43
613.911	55018.68
614.267	55035.63
614.624	55045.57
614.98	55066.36
615.337	55165.34
615.693	55154.72
616.05	55163.99
616.406	55318.11
616.762	55134.61
617.118	55147.94
617.475	55190.43
617.831	55305.68
618.187	55252.8
618.543	55354.49
618.899	55452.57
619.255	55439.46
619.611	55343.19
619.967	55387.71
620.323	55441.72
620.678	55375.06
621.034	55361.5
621.39	55288.5
621.746	55268.39
622.101	55585.22
622.457	55319.01
622.812	55336.64
623.168	55433.13
623.523	55347.94
623.879	55481.49
624.234	55247.83
624.589	55332.57
624.945	55346.58
625.3	55375.96
625.655	55341.61
626.01	55376.19
626.365	55375.28
626.72	55318.33
627.075	55289.86
627.43	55201.73
627.785	55241.27
628.14	55284.89
628.495	55312.68
628.85	55163.31
629.205	55170.99
629.559	55310.65
629.914	55069.3
630.269	55070.43
630.623	54945.91
630.978	54889.64
631.332	55012.8
631.687	55213.25
632.041	54975.29
632.396	54944.11
632.75	54873.37
633.104	54975.52
633.459	54850.55
633.813	54852.58
634.167	54804.22
634.521	54768.97
634.875	54838.35
635.229	54712.7
635.583	54613.49
635.937	54658.01
636.291	54615.3
636.645	54652.81
636.999	54571.23
637.352	54552.48
637.706	54541.4
638.06	54549.31
638.413	54578.92
638.767	54340.96
639.121	54410.11
639.474	54318.81
639.828	54346.38
640.181	54323.56
640.534	54358.81
640.888	54228.42
641.241	54082.21
641.594	54129.21
641.947	54286.95
642.301	54132.6
642.654	54049.89
643.007	54151.13
643.36	53994.53
643.713	54011.7
644.066	54106.39
644.419	53829.56
644.771	53638.38
645.124	53390.7
645.477	53282.45
645.83	53076.81
646.182	52968.79
646.535	53013.08
646.888	53031.84
647.24	52866.65
647.593	53000.65
647.945	52959.75
648.298	52837.72
648.65	52731.28
649.002	52563.15
649.355	52649.93
649.707	52601.34
650.059	52713.43
650.411	52971.95
650.763	53109.35
651.115	53413.07
651.467	53258.05
651.819	53229.8
652.171	53147.09
652.523	53134.89
652.875	53096.7
653.227	52956.14
653.578	53159.97
653.93	53027.09
654.282	52808.12
654.633	52877.04
654.985	52883.6
655.337	52857.16
655.688	52785.29
656.039	52940.54
656.391	52656.71
656.742	52699.42
657.094	52714.79
657.445	52850.38
657.796	52698.97
658.147	52623.49
658.498	52671.62
658.849	52701
659.2	52504.4
659.551	52484.74
659.902	52572.87
660.253	52491.06
660.604	52571.06
660.955	52391.18
661.306	52531.74
661.656	52414.46
662.007	52341.91
662.358	52467.34
662.708	52392.99
663.059	52411.97
663.409	52159.55
663.76	52321.35
664.11	52400.22
664.461	52369.26
664.811	52288.13
665.161	52301.69
665.511	52254.46
665.862	52272.54
666.212	52327.9
666.562	52331.52
666.912	52196.38
667.262	52163.39
667.612	52132.2
667.962	52202.71
668.312	52037.06
668.662	52354.34
669.011	52199.32
669.361	52156.61
669.711	52021.7
670.06	51925.65
670.41	51896.28
670.76	51818.31
671.109	51929.95
671.459	51969.5
671.808	51720.24
672.157	51909.16
672.507	51637.75
672.856	51621.26
673.205	51724.76
673.554	51811.76
673.904	51625.32
674.253	51715.94
674.602	51635.04
674.951	51130.87
675.3	50886.36
675.649	51494.71
675.998	51404.09
676.346	51343.52
676.695	51456.51
677.044	51166.35
677.393	51256.97
677.741	51261.27
678.09	51192.34
678.438	51105.11
678.787	51162.28
679.135	51237.54
679.484	50905.34
679.832	51024.21
680.181	50816.76
680.529	50924.32
680.877	50836.64
681.225	50711.9
681.573	50931.1
681.922	50701.73
682.27	50567.27
682.618	50669.87
682.966	50424.23
683.314	50495.18
683.661	50407.05
684.009	50290.9
684.357	50159.83
684.705	50126.15
685.053	50095.65
685.4	50028.53
685.748	49898.59
686.095	49857.23
686.443	49729.78
686.79	49592.83
687.138	49789.44
687.485	49668.54
687.832	49541.31
688.18	49518.26
688.527	49440.07
688.874	49297.7
689.221	49200.08
689.568	49241.88
689.915	48994.43
690.262	49083.02
690.609	48907.2
690.956	48833.76
691.303	48790.37
691.65	48596.25
691.997	48594.44
692.344	48393.09
692.69	48377.95
693.037	48340.21
693.383	47845.76
693.73	48130.95
694.077	47757.85
694.423	47730.96
694.769	47667.91
695.116	47648.25
695.462	47536.39
695.808	47535.94
696.155	47580.91
696.501	47284.65
696.847	47265.66
697.193	46927.37
697.539	47136.4
697.885	46705.68
698.231	46695.06
698.577	46614.61
698.923	46570.77
699.269	46564.67
699.614	46171.23
699.96	46111.34
700.306	46062.08
700.651	45849.88
700.997	45711.81
701.342	45587.29
701.688	45591.36
702.033	45390.46
702.379	45326.05
702.724	45210.35
703.069	45297.13
703.415	44676.35
703.76	44924.48
704.105	44840.42
704.45	44688.1
704.795	44416.93
705.14	44386.64
705.485	44312.97
705.83	44153.88
706.175	44274.78
706.52	44105.75
706.865	43988.69
707.209	43906.2
707.554	43730.16
707.899	43742.14
708.243	43566.78
708.588	43473.22
708.932	43095.6
709.277	43152.78
709.621	43181.7
709.966	42932.67
710.31	43023.06
710.654	42696.97
710.998	42664.43
711.342	42642.28
711.687	42519.35
712.031	42378.11
712.375	42207.72
712.719	42433.25
713.063	42256.08
713.407	42464.89
713.75	42002.75
714.094	41901.96
714.438	41887.95
714.782	41755.53
715.125	41699.26
715.469	41715.3
715.812	41517.11
716.156	41306.72
716.499	41399.83
716.843	41295.65
717.186	40973.85
717.53	41234.41
717.873	41027.18
718.216	41046.39
718.559	40951.93
718.902	40596.23
719.246	40609.12
719.589	40530.7
719.932	40405.05
720.275	40439.4
720.617	40337.94
720.96	40207.77
721.303	40335
721.646	40259.07
721.989	40056.59
722.331	40072.18
722.674	39905.63
723.016	39811.4
723.359	39779.53
723.701	39812.53
724.044	39547
724.386	39417.73
724.729	39571.63
725.071	39364.4
725.413	39436.72
725.755	39441.01
726.097	39109.04
726.439	38918.99
726.782	38952.44
727.124	39192.66
727.465	38941.36
727.807	38776.62
728.149	38755.83
728.491	38631.99
728.833	38629.96
729.175	38531.66
729.516	38369.4
729.858	38334.6
730.199	38399.46
730.541	38196.3
730.882	38178.22
731.224	38172.12
731.565	37901.84
731.906	37935.51
732.248	38042.4
732.589	37726.03
732.93	37608.97
733.271	37655.52
733.612	37729.19
733.953	37751.56
734.294	37579.14
734.635	37669.53
734.976	37593.83
735.317	37357.22
735.658	37460.05
735.999	37439.26
736.339	37197.91
736.68	37342.76
737.021	37045.82
737.361	36938.03
737.702	37130.11
738.042	36968.53
738.383	36984.8
738.723	36908.87
739.063	36797.01
739.404	36821.64
739.744	36630.46
740.084	36600.63
740.424	36532.61
740.764	36593.85
741.104	36564.48
741.444	36344.6
741.784	36103.02
742.124	36234.54
742.464	36247.2
742.804	36228.21
743.143	35943.7
743.483	36086.3
743.823	35807.66
744.162	35863.7
744.502	35762.01
744.841	35692.18
745.181	35657.16
745.52	35421.46
745.86	35603.82
746.199	35499.42
746.538	35387.33
746.877	35404.28
747.216	35401.12
747.556	35225.53
747.895	35268.01
748.234	35033.22
748.573	35000.22
748.911	34926.1
749.25	35025.99
749.589	34688.37
749.928	34787.57
750.267	34675.26
750.605	34571.53
750.944	34496.28
751.283	34400.69
751.621	34346.68
751.96	34227.59
752.298	34144.43
752.636	34089.97
752.975	33927.03
753.313	33873.7
753.651	33923.64
753.989	33721.39
754.327	33601.16
754.666	33540.6
755.004	33596.42
755.342	33471
755.679	33287.73
756.017	33057.45
756.355	33266.26
756.693	33034.63
757.031	33102.87
757.368	32790.34
757.706	32935.65
758.044	32634.86
758.381	32732.94
758.719	32702.21
759.056	32680.96
759.394	32513.28
759.731	32295.66
760.068	32258.6
760.405	31967.08
760.743	31977.93
761.08	32208.43
761.417	31852.74
761.754	31883.47
762.091	31772.51
762.428	31497.27
762.765	31389.92
763.102	31607.09
763.438	31406.42
763.775	31134.11
764.112	31304.5
764.449	31104.06
764.785	30844.85
765.122	30798.75
765.458	30720.79
765.795	30518.53
766.131	30493.45
766.467	30488.25
766.804	30287.13
767.14	30164.42
767.476	30168.94
767.812	29957.42
768.148	30082.84
768.485	29892.11
768.821	29744.32
769.157	29818.89
769.492	29571.89
769.828	29453.93
770.164	29238.12
770.5	29217.78
770.836	29233.14
771.171	29024.79
771.507	28980.27
771.842	28738.69
772.178	28810.56
772.513	28626.61
772.849	28608.53
773.184	28391.13
773.519	28535.99
773.855	28217.35
774.19	28097.35
774.525	28077.02
774.86	28049.67
775.195	27938.94
775.53	27829.11
775.865	27703.01
776.2	27560.65
776.535	27297.38
776.87	27276.36
777.205	27237.49
777.539	27108
777.874	27238.39
778.209	26883.15
778.543	26841.34
778.878	26690.61
779.212	26618.98
779.547	26543.5
779.881	26516.15
780.215	26363.61
780.55	26335.59
780.884	26176.73
781.218	26083.17
781.552	26077.07
781.886	25888.82
782.22	25764.31
782.554	25654.71
782.888	25405.67
783.222	25389.18
783.556	25227.37
783.889	25169.3
784.223	24899.25
784.557	24929.98
784.89	25113.03
785.224	24708.07
785.557	24694.05
785.891	24712.13
786.224	24506.49
786.558	24499.03
786.891	24300.39
787.224	24264.69
787.557	24025.15
787.891	24029.66
788.224	23952.38
788.557	23931.36
788.89	23843.91
789.223	23735.89
789.556	23481.66
789.888	23491.6
790.221	23347.2
790.554	23292.06
790.887	23239.86
791.219	23205.28
791.552	23175.45
791.884	23041.22
792.217	23008.9
792.549	22817.04
792.882	22755.57
793.214	22633.54
793.546	22575.69
793.879	22534.79
794.211	22339.31
794.543	22516.48
794.875	22380.22
795.207	22378.18
795.539	22118.75
795.871	22139.77
796.203	22041.92
796.535	21878.76
796.867	21917.63
797.198	21864.07
797.53	21811.87
797.862	21626.79
798.193	21652.33
798.525	21621.14
798.856	21584.08
799.188	21322.62
799.519	21260.7
799.85	21100.93
800.182	21165.56
800.513	21026.13
800.844	20936.41
801.175	20995.85
801.506	20935.96
801.837	20844.21
802.168	20768.73
802.499	20828.84
802.83	20558.12
803.161	20529.64
803.491	20456.88
803.822	20619.13
804.153	20371.23
804.483	20247.39
804.814	20222.31
805.145	20162.42
805.475	20144.8
805.805	20022.99
806.136	19968.08
806.466	20053.95
806.796	19916.55
807.126	19847.18
807.457	19783.22
807.787	19734.18
808.117	19760.4
808.447	19490.35
808.777	19644.92
809.107	19486.06
809.436	19441.08
809.766	19507.3
810.096	19360.86
810.426	19284.03
810.755	19327.87
811.085	19252.39
811.414	19242.22
811.744	19093.07
812.073	19066.63
812.403	19088.33
812.732	18945.96
813.061	18945.05
813.39	18736.7
813.719	18724.04
814.049	18910.93
814.378	18842.23
814.707	18609.24
815.036	18689.47
815.365	18511.17
815.693	18414.9
816.022	18410.15
816.351	18308.23
816.68	18173.55
817.008	18185.07
817.337	18118.41
817.665	18021.91
817.994	18188.46
818.322	18003.61
818.651	17912.99
818.979	17945.98
819.307	17991.86
819.636	17795.03
819.964	17752.09
820.292	17825.53
820.62	17756.38
820.948	17758.64
821.276	17765.2
821.604	17628.25
821.932	17699.44
822.259	17647.91
822.587	17617.86
822.915	17636.16
823.243	17711.19
823.57	17626.67
823.898	17601.36
824.225	17501.47
824.553	17583.28
824.88	17553.22
825.207	17640.45
825.535	17549.84
825.862	17604.52
826.189	17573.56
826.516	17591.87
826.843	17647.91
827.17	17561.59
827.497	17584.64
827.824	17520.68
828.151	17542.83
828.478	17503.51
828.805	17535.6
829.131	17410.18
829.458	17520.23
829.785	17476.62
830.111	17347.81
830.438	17490.63
830.764	17553.22
831.09	17463.06
831.417	17390.74
831.743	17465.77
832.069	17312.33
832.395	17308.71
832.722	17520.01
833.048	17418.09
833.374	17302.16
833.7	17346.9
834.026	17312.1
834.351	17332.67
834.677	17375.38
835.003	17305.55
835.329	17246.79
835.654	17190.3
835.98	17153.46
836.306	17304.64
836.631	17102.84
836.956	17212.89
837.282	17149.39
837.607	16980.58
837.932	16920.47
838.258	16954.14
838.583	16977.65
838.908	16900.59
839.233	16882.51
839.558	16915.5
839.883	16725.45
840.208	16810.87
840.533	16689.52
840.858	16736.75
841.182	16689.52
841.507	16558.45
841.832	16629.63
842.156	16523.65
842.481	16558.67
842.805	16585.57
843.13	16422.86
843.454	16465.12
843.778	16422.86
844.103	16388.51
844.427	16231.23
844.751	16308.51
845.075	16233.26
845.399	16135.64
845.723	16032.81
846.047	16106.71
846.371	15924.79
846.695	15874.17
847.019	15799.15
847.343	15814.06
847.666	15718.02
847.99	15630.34
848.313	15676.66
848.637	15466.73
848.96	15603.22
849.284	15471.25
849.607	15314.19
849.931	15300.18
850.254	15152.61
850.577	15041.43
850.9	14990.81
851.223	14950.13
851.546	14957.13
851.869	14876.46
852.192	14828.32
852.515	14652.51
852.838	14684.37
853.161	14698.84
853.483	14584.26
853.806	14446.64
854.129	14425.17
854.451	14317.83
854.774	14364.61
855.096	14339.3
855.419	14288
855.741	14250.49
856.063	14202.13
856.385	14149.02
856.708	14089.81
857.03	14057.72
857.352	14020.89
857.674	13999.87
857.996	14013.88
858.318	13932.76
858.64	13872.87
858.961	13770.5
859.283	13775.7
859.605	13643.5
859.926	13807.56
860.248	13632.88
860.57	13601.01
860.891	13638.98
861.212	13539.77
861.534	13584.97
861.855	13447.12
862.176	13448.7
862.498	13555.36
862.819	13394.69
863.14	13353.11
863.461	13366.67
863.782	13300.68
864.103	13271.3
864.424	13295.71
864.745	13275.15
865.065	13222.27
865.386	13103.85
865.707	13164.41
866.027	13214.81
866.348	13159.67
866.668	13157.41
866.989	13140.46
867.309	12936.62
867.63	13086.68
867.95	13022.5
868.27	12916.74
868.59	12971.2
868.91	12949.96
869.23	12935.95
869.55	12902.95
869.87	12880.13
870.19	12832.9
870.51	12807.14
870.83	12765.33
871.15	12719.68
871.469	12659.57
871.789	12747.02
872.109	12709.06
872.428	12633.13
872.748	12667.7
873.067	12596.07
873.386	12654.82
873.706	12609.17
874.025	12583.86
874.344	12474.04
874.663	12560.36
874.982	12437.2
875.301	12405.56
875.62	12434.72
875.939	12331.22
876.258	12403.98
876.577	12365.79
876.896	12401.72
877.214	12227.04
877.533	12305.23
877.852	12249.18
878.17	12273.36
878.489	12300.03
878.807	12258.45
879.125	12155.4
879.444	12100.71
879.762	12133.25
880.08	12120.37
880.398	12043.99
880.716	12059.13
881.034	11995.63
881.352	12084.22
881.67	12019.59
881.988	11981.39
882.306	11950.21
882.624	11881.74
882.941	11807.39
883.259	11778.46
883.577	11773.49
883.894	11642.65
884.212	11791.12
884.529	11730.78
884.846	11590.44
885.164	11688.97
885.481	11623.89
885.798	11604.45
886.115	11549.54
886.432	11565.81
886.75	11549.99
887.067	11482.42
887.383	11469.32
887.7	11463.22
888.017	11425.25
888.334	11425.25
888.651	11307.97
888.967	11293.5
889.284	11310.68
889.6	11208.76
889.917	11065.49
890.233	11188.42
890.55	11077.46
890.866	11088.31
891.182	11023.91
891.498	11045.37
891.815	10957.24
892.131	10995.43
892.447	10885.83
892.763	10837.24
893.079	10841.54
893.395	10771.93
893.71	10733.07
894.026	10759.73
894.342	10794.08
894.657	10670.92
894.973	10620.07
895.289	10614.65
895.604	10590.24
895.92	10487.2
896.235	10423.47
896.55	10452.39
896.865	10440.19
897.181	10401.32
897.496	10400.87
897.811	10275.22
898.126	10282.23
898.441	10219.41
898.756	10199.52
899.071	10167.88
899.386	10181.89
899.7	10037.49
900.015	10060.99
900.33	9928.79
900.644	10009.02
900.959	9955.46
901.273	9886.76
901.588	9832.3
901.902	9887.21
902.216	9790.49
902.531	9789.36
902.845	9752.07
903.159	9705.07
903.473	9722.7
903.787	9606.54
904.101	9554.11
904.415	9554.11
904.729	9531.97
905.042	9432.31
905.356	9431.86
905.67	9457.17
905.984	9447
906.297	9340.33
906.611	9348.69
906.924	9302.14
907.237	9185.76
907.551	9251.3
907.864	9157.06
908.177	9138.76
908.491	9134.24
908.804	9089.04
909.117	9033
909.43	8962.94
909.743	8949.38
910.056	8912.32
910.368	8858.31
910.681	8832.78
910.994	8838.2
911.307	8769.5
911.619	8733.8
911.932	8773.34
912.244	8634.14
912.557	8591.65
912.869	8545.55
913.181	8596.17
913.494	8523.18
913.806	8470.53
914.118	8420.13
914.43	8384.2
914.742	8408.83
915.054	8320.7
915.366	8273.24
915.678	8247.71
915.99	8300.36
916.302	8195.05
916.613	8079.35
916.925	8077.54
917.236	8103.98
917.548	8065.79
917.859	8010.2
918.171	7941.27
918.482	7925.23
918.794	7908.28
919.105	7821.96
919.416	7820.15
919.727	7845.68
920.038	7755.29
920.349	7751.45
920.66	7682.52
920.971	7669.64
921.282	7558.46
921.593	7564.79
921.903	7509.42
922.214	7466.26
922.525	7514.17
922.835	7468.29
923.146	7414.06
923.456	7338.35
923.767	7356.2
924.077	7260.61
924.387	7293.83
924.697	7253.16
925.008	7215.19
925.318	7244.12
925.628	7157.57
925.938	7161.86
926.248	7046.38
926.558	7012.03
926.867	7053.16
927.177	7013.62
927.487	7012.26
927.796	6899.95
928.106	6920.51
928.416	6867.86
928.725	6834.86
929.034	6852.26
929.344	6782.66
929.653	6752.38
929.962	6747.18
930.271	6672.83
930.581	6661.99
930.89	6603
931.199	6598.94
931.508	6630.35
931.817	6586.73
932.125	6512.39
932.434	6512.61
932.743	6489.34
933.051	6419.96
933.36	6356.91
933.669	6365.27
933.977	6298.83
934.286	6316.46
934.594	6303.13
934.902	6261.54
935.21	6250.47
935.519	6219.06
935.827	6179.74
936.135	6164.6
936.443	6097.71
936.751	6028.1
937.059	6097.03
937.367	5971.83
937.674	6035.56
937.982	5988.78
938.29	5935.23
938.597	5963.25
938.905	5885.74
939.213	5885.74
939.52	5850.03
939.827	5862.68
940.135	5769.58
940.442	5763.25
940.749	5761.67
941.056	5742.91
941.363	5708.11
941.67	5677.38
941.977	5628.34
942.284	5572.75
942.591	5597.16
942.898	5539.3
943.205	5553.54
943.511	5516.03
943.818	5489.81
944.125	5403.49
944.431	5461.34
944.738	5383.15
945.044	5369.36
945.35	5384.28
945.657	5300.21
945.963	5278.29
946.269	5303.6
946.575	5249.59
946.881	5253.66
947.187	5241.46
947.493	5190.16
947.799	5140.67
948.105	5128.92
948.41	5100.67
948.716	5084.4
949.022	5039.2
949.327	5071.75
949.633	5027.23
949.938	4979.09
950.244	5040.11
950.549	4927.57
950.854	4880.79
951.16	4927.79
951.465	4894.8
951.77	4845.31
952.075	4815.93
952.38	4826.33
952.685	4823.16
952.99	4769.38
953.294	4813.9
953.599	4722.83
953.904	4718.31
954.209	4666.33
954.513	4707.69
954.818	4628.14
955.122	4610.97
955.426	4569.61
955.731	4615.71
956.035	4558.09
956.339	4520.8
956.643	4591.08
956.948	4488.48
957.252	4499.56
957.556	4484.19
957.86	4453.91
958.163	4468.82
958.467	4425.43
958.771	4388.83
959.075	4415.94
959.378	4375.49
959.682	4308.15
959.985	4312.44
960.289	4282.39
960.592	4273.8
960.896	4231.09
961.199	4222.95
961.502	4238.32
961.805	4224.76
962.108	4192.67
962.411	4192.67
962.714	4178.89
963.017	4107.02
963.32	4100.47
963.623	4074.48
963.926	4074.48
964.228	4057.08
964.531	4072
964.833	4067.25
965.136	4049.63
965.438	4008.04
965.741	3942.51
966.043	3950.42
966.345	3919.69
966.648	3888.73
966.95	3938.44
967.252	3862.06
967.554	3849.4
967.856	3865.9
968.158	3862.74
968.46	3813.7
968.761	3768.5
969.063	3791.1
969.365	3767.82
969.666	3756.98
969.968	3693.48
970.269	3669.97
970.571	3637.88
970.872	3644.21
971.174	3606.47
971.475	3622.07
971.776	3614.61
972.077	3594.27
972.378	3588.62
972.679	3573.93
972.98	3555.85
973.281	3520.37
973.582	3521.05
973.883	3507.04
974.183	3477.44
974.484	3498.91
974.785	3449.64
975.085	3434.95
975.386	3447.38
975.686	3425.69
975.986	3381.85
976.287	3410.77
976.587	3299.36
976.887	3329.87
977.187	3332.58
977.487	3274.05
977.787	3288.29
978.087	3274.96
978.387	3283.32
978.687	3254.17
978.987	3255.52
979.286	3257.33
979.586	3240.15
979.885	3195.41
980.185	3180.5
980.484	3183.66
980.784	3180.04
981.083	3153.83
981.382	3109.08
981.682	3095.98
981.981	3110.89
982.28	3084.23
982.579	3070.89
982.878	3049.88
983.177	3072.25
983.475	3038.13
983.774	2998.81
984.073	3005.13
984.372	2999.26
984.67	2973.27
984.969	2950.22
985.267	2961.07
985.566	2935.08
985.864	2908.64
986.162	2888.53
986.461	2898.92
986.759	2904.8
987.057	2865.93
987.355	2828.41
987.653	2830.22
987.951	2818.47
988.249	2817.57
988.547	2807.62
988.844	2754.29
989.142	2782.99
989.44	2747.96
989.737	2740.51
990.035	2702.99
990.332	2701.41
990.63	2703.45
990.927	2687.85
991.224	2662.77
991.521	2653.73
991.819	2643.33
992.116	2613.05
992.413	2586.61
992.71	2570.57
993.006	2594.3
993.303	2579.61
993.6	2577.57
993.897	2578.93
994.193	2563.11
994.49	2540.06
994.787	2529.67
995.083	2507.07
995.379	2468.2
995.676	2482.43
995.972	2476.33
996.268	2423.23
996.565	2421.65
996.861	2412.61
997.157	2413.96
997.453	2388.88
997.749	2392.04
998.044	2373.74
998.34	2390.69
998.636	2336.22
998.932	2346.39
999.227	2313.63
999.523	2291.71
999.818	2282.67
1000.114	2293.51
1000.409	2260.75
1000.704	2261.88
1001	2261.65
1001.295	2277.02
1001.59	2225.49
1001.885	2198.37
1002.18	2208.09
1002.475	2192.5
1002.77	2175.1
1003.065	2173.29
1003.359	2125.16
1003.654	2144.82
1003.949	2119.51
1004.243	2121.31
1004.538	2122.44
1004.832	2113.4
1005.127	2113.63
1005.421	2070.69
1005.715	2072.5
1006.009	2046.29
1006.304	2034.31
1006.598	2030.47
1006.892	1997.02
1007.186	2013.52
1007.48	1994.31
1007.773	1960.19
1008.067	1962.67
1008.361	1959.28
1008.655	1940.53
1008.948	1922.22
1009.242	1927.87
1009.535	1933.97
1009.829	1904.6
1010.122	1860.76
1010.415	1862.11
1010.708	1874.54
1011.001	1874.09
1011.295	1835.67
1011.588	1810.59
1011.881	1813.98
1012.173	1808.55
1012.466	1775.79
1012.759	1774.2
1013.052	1810.14
1013.344	1783.02
1013.637	1788.44
1013.93	1749.57
1014.222	1757.93
1014.514	1735.79
1014.807	1696.47
1015.099	1699.18
1015.391	1718.61
1015.683	1666.64
1015.976	1677.03
1016.268	1663.7
1016.56	1663.93
1016.851	1650.59
1017.143	1637.26
1017.435	1655.79
1017.727	1586.64
1018.018	1586.64
1018.31	1590.93
1018.602	1611.27
1018.893	1557.04
1019.185	1570.14
1019.476	1559.07
1019.767	1545.74
1020.058	1555.91
1020.35	1546.64
1020.641	1504.83
1020.932	1484.95
1021.223	1516.13
1021.514	1478.39
1021.804	1476.59
1022.095	1473.42
1022.386	1449.47
1022.677	1431.16
1022.967	1418.28
1023.258	1412.63
1023.548	1396.81
1023.839	1393.42
1024.129	1376.48
1024.419	1367.66
1024.709	1375.57
1025	1372.86
1025.29	1347.55
1025.58	1364.5
1025.87	1350.71
1026.16	1320.66
1026.449	1326.76
1026.739	1303.71
1027.029	1272.07
1027.319	1268.23
1027.608	1316.82
1027.898	1267.55
1028.187	1252.18
1028.477	1238.63
1028.766	1242.47
1029.055	1248.12
1029.344	1212.19
1029.634	1205.63
1029.923	1215.35
1030.212	1195.01
1030.501	1186.88
1030.79	1197.04
1031.078	1178.51
1031.367	1174.22
1031.656	1142.81
1031.945	1148.68
1032.233	1138.52
1032.522	1143.71
1032.81	1123.83
1033.099	1103.26
1033.387	1138.74
1033.675	1121.11
1033.963	1090.15
1034.251	1100.55
1034.54	1070.04
1034.828	1067.56
1035.116	1075.47
1035.403	1052.19
1035.691	1051.51
1035.979	1020.33
1036.267	1034.34
1036.554	1036.82
1036.842	1045.18
1037.129	1025.3
1037.417	998.63
1037.704	1019.2
1037.992	1017.84
1038.279	998.41
1038.566	1012.42
1038.853	1012.42
1039.14	1012.42
