Data from white_poster_card_FLMS001491_00098.txt Node
Date: Wed Feb 08 11:52:18 GMT 2017
User: dcchb
Spectrometer: FLMS00149
Trigger mode: 0
Integration Time (sec): 2.000000E-2
Scans to average: 10
Electric dark correction enabled: true
Nonlinearity correction enabled: false
Boxcar width: 0
XAxis mode: Wavelengths
Number of Pixels in Spectrum: 2048
>>>>>Begin Spectral Data<<<<<
341.393	-21.38
341.776	-21.38
342.16	-21.38
342.543	-60.93
342.927	-61.38
343.31	-63.19
343.693	-79.01
344.077	-77.65
344.46	-65.45
344.843	-54.15
345.226	-26.81
345.61	-43.08
345.993	-27.26
346.376	5.96
346.759	16.13
347.142	55.45
347.525	30.82
347.908	40.31
348.291	80.31
348.674	106.75
349.057	100.87
349.44	128.22
349.823	134.09
350.206	172.96
350.588	180.64
350.971	206.41
351.354	225.84
351.737	207.76
352.119	254.54
352.502	245.05
352.884	270.81
353.267	291.6
353.65	284.15
354.032	309.46
354.414	311.71
354.797	321.21
355.179	315.56
355.562	320.53
355.944	316.46
356.326	330.25
356.709	332.73
357.091	353.07
357.473	350.81
357.855	324.14
358.238	335.67
358.62	359.17
359.002	338.61
359.384	344.93
359.766	329.57
360.148	347.19
360.53	322.56
360.912	335.67
361.294	321.21
361.676	330.02
362.057	324.37
362.439	339.28
362.821	317.14
363.203	311.94
363.584	304.94
363.966	323.47
364.348	328.44
364.729	310.36
365.111	341.77
365.493	311.04
365.874	304.48
366.256	328.66
366.637	327.53
367.019	307.65
367.4	308.78
367.781	309
368.163	306.74
368.544	335.44
368.925	306.74
369.306	328.89
369.688	316.23
370.069	300.87
370.45	310.59
370.831	317.36
371.212	313.97
371.593	303.58
371.974	316.01
372.355	312.84
372.736	306.74
373.117	316.91
373.498	312.17
373.879	318.49
374.26	322.34
374.641	311.94
375.021	335.22
375.402	331.38
375.783	324.6
376.163	320.98
376.544	334.54
376.925	313.75
377.305	339.96
377.686	327.31
378.066	326.18
378.447	336.8
378.827	333.41
379.208	322.11
379.588	341.77
379.968	337.03
380.349	337.7
380.729	330.7
381.109	345.84
381.489	346.29
381.87	324.37
382.25	339.51
382.63	351.71
383.01	355.56
383.39	337.25
383.77	360.75
384.15	349.91
384.53	358.27
384.91	330.47
385.29	343.13
385.67	353.52
386.049	371.6
386.429	356.46
386.809	344.93
387.189	349.23
387.568	368.89
387.948	354.88
388.328	394.2
388.707	373.63
389.087	365.05
389.466	349.23
389.846	356.23
390.225	379.74
390.605	381.54
390.984	361.21
391.363	386.52
391.743	378.38
392.122	379.74
392.501	394.88
392.881	365.5
393.26	374.76
393.639	372.96
394.018	408.89
394.397	398.27
394.776	407.08
395.155	386.52
395.534	395.33
395.913	405.27
396.292	425.84
396.671	407.08
397.05	413.41
397.429	419.73
397.808	423.8
398.186	436.46
398.565	433.75
398.944	446.4
399.323	425.38
399.701	433.52
400.08	444.82
400.458	425.38
400.837	446.85
401.215	447.76
401.594	452.5
401.972	453.18
402.351	434.42
402.729	451.6
403.107	441.43
403.486	458.15
403.864	456.8
404.242	471.94
404.62	458.38
404.999	477.81
405.377	489.11
405.755	475.78
406.133	461.09
406.511	510.35
406.889	502.67
407.267	514.87
407.645	525.04
408.023	506.06
408.401	527.3
408.779	523.01
409.156	549.9
409.534	548.54
409.912	536.57
410.29	571.37
410.667	573.85
411.045	563.23
411.422	565.49
411.8	605.94
412.178	630.35
412.555	619.05
412.933	639.39
413.31	664.7
413.687	646.85
414.065	693.17
414.442	682.1
414.819	690.24
415.197	716.22
415.574	721.87
415.951	755.09
416.328	771.36
416.705	773.62
417.082	779.05
417.46	777.47
417.837	800.97
418.214	789.22
418.591	824.24
418.967	829.44
419.344	838.93
419.721	856.11
420.098	880.97
420.475	887.97
420.852	878.93
421.228	915.77
421.605	932.94
421.982	948.99
422.358	972.71
422.735	970.68
423.111	980.85
423.488	998.02
423.864	1001.19
424.241	1026.27
424.617	1029.66
424.994	1043.45
425.37	1079.83
425.746	1069.66
426.123	1062.88
426.499	1107.17
426.875	1108.08
427.251	1125.93
427.627	1157.57
428.003	1143.33
428.379	1178.36
428.756	1175.87
429.132	1210.67
429.507	1233.95
429.883	1266.72
430.259	1261.97
430.635	1294.51
431.011	1280.28
431.387	1330.9
431.763	1343.78
432.138	1363.44
432.514	1360.73
432.89	1387.62
433.265	1414.96
433.641	1466.03
434.016	1446.15
434.392	1454.51
434.767	1477.33
435.143	1486.6
435.518	1507.16
435.894	1531.12
436.269	1548.97
436.644	1572.02
437.02	1598.91
437.395	1595.97
437.77	1597.33
438.145	1635.75
438.52	1649.98
438.895	1668.29
439.271	1697.67
439.646	1696.54
440.021	1724.79
440.395	1741.51
440.77	1734.28
441.145	1783.99
441.52	1798.91
441.895	1746.03
442.27	1752.13
442.645	1812.69
443.019	1805.24
443.394	1816.76
443.769	1857.89
444.143	1842.75
444.518	1863.09
444.892	1855.18
445.267	1875.74
445.641	1914.61
446.016	1870.77
446.39	1916.64
446.764	1928.4
447.139	1948.06
447.513	1953.03
447.887	1976.53
448.262	1987.38
448.636	1989.64
449.01	2000.26
449.384	2030.77
449.758	2028.51
450.132	2065.12
450.506	2071.67
450.88	2072.12
451.254	2108.05
451.628	2127.94
452.002	2170.88
452.376	2158.67
452.75	2187.82
453.123	2200.7
453.497	2232.34
453.871	2248.61
454.244	2288.61
454.618	2302.62
454.992	2374.94
455.365	2316.41
455.739	2377.65
456.112	2393.47
456.486	2426.24
456.859	2457.42
457.232	2500.13
457.606	2492.67
457.979	2518.44
458.352	2577.42
458.725	2568.83
459.099	2571.09
459.472	2667.13
459.845	2677.3
460.218	2694.93
460.591	2705.55
460.964	2711.65
461.337	2781.93
461.71	2812.21
462.083	2843.63
462.456	2861.25
462.829	2873.91
463.201	2946.67
463.574	2907.8
463.947	2984.87
464.32	3047.69
464.692	3077.52
465.065	3097.63
465.438	3148.48
465.81	3185.99
466.183	3203.62
466.555	3247.91
466.928	3285.65
467.3	3284.29
467.672	3362.48
468.045	3443.16
468.417	3472.99
468.789	3514.57
469.161	3517.73
469.534	3538.3
469.906	3613.55
470.278	3651.06
470.65	3681.12
471.022	3755.24
471.394	3802.02
471.766	3858.06
472.138	3896.25
472.51	3963.6
472.882	4048.57
473.253	4057.61
473.625	4116.13
473.997	4219.63
474.369	4238.84
474.74	4294.66
475.112	4346.86
475.484	4401.55
475.855	4458.95
476.227	4514.54
476.598	4644.71
476.97	4629.34
477.341	4780.07
477.713	4831.37
478.084	4826.17
478.455	5010.12
478.827	5011.48
479.198	5148.65
479.569	5200.85
479.94	5284.24
480.311	5325.14
480.682	5460.96
481.053	5581.18
481.424	5654.63
481.795	5740.27
482.166	5857.78
482.537	5903.21
482.908	5976.42
483.279	6038.57
483.65	6201.05
484.021	6252.8
484.391	6348.39
484.762	6424.32
485.133	6395.4
485.503	6552.91
485.874	6687.82
486.244	6774.37
486.615	6877.64
486.985	6945.66
487.356	7092.1
487.726	7164.19
488.097	7232.66
488.467	7327.12
488.837	7454.58
489.207	7517.18
489.578	7640.56
489.948	7732.31
490.318	7855.25
490.688	7881.01
491.058	8044.39
491.428	8120.1
491.798	8157.61
492.168	8323.26
492.538	8356.25
492.908	8422.91
493.278	8574.55
493.648	8648.67
494.017	8712.62
494.387	8859.74
494.757	8922.56
495.126	8993.97
495.496	8998.72
495.866	9085.95
496.235	9191.71
496.605	9267.64
496.974	9317.13
497.344	9457.69
497.713	9542.66
498.082	9563
498.452	9655.42
498.821	9775.19
499.19	9772.71
499.559	9912.14
499.928	9929.77
500.298	10015.19
500.667	10096.77
501.036	10130.44
501.405	10188.74
501.774	10244.34
502.143	10344.22
502.512	10410.66
502.88	10518.23
503.249	10514.38
503.618	10555.06
503.987	10619.24
504.356	10725
504.724	10815.62
505.093	10901.72
505.462	10938.78
505.83	11044.99
506.199	11104.43
506.567	11261.48
506.936	11271.88
507.304	11390.97
507.672	11383.74
508.041	11440.24
508.409	11582.83
508.777	11628.03
509.145	11826.67
509.514	11825.31
509.882	11913.67
510.25	11895.82
510.618	12030.05
510.986	12058.98
511.354	12233.66
511.722	12328.12
512.09	12420.78
512.458	12451.28
512.826	12557.72
513.193	12711.61
513.561	12669.13
513.929	12744.38
514.297	12927.88
514.664	12981.89
515.032	13047.43
515.4	13169.46
515.767	13228.44
516.135	13325.16
516.502	13287.19
516.869	13489.22
517.237	13551.82
517.604	13567.86
517.972	13749.78
518.339	13837.91
518.706	13899.83
519.073	14037.91
519.44	14111.58
519.808	14199.26
520.175	14228.19
520.542	14503.43
520.909	14565.58
521.276	14515.64
521.643	14686.7
522.009	14847.15
522.376	14978
522.743	15016.19
523.11	15167.37
523.477	15370.3
523.843	15399.68
524.21	15591.77
524.577	15672.67
524.943	15747.92
525.31	15900.46
525.676	16065.2
526.043	16149.04
526.409	16236.04
526.776	16397.62
527.142	16526.43
527.508	16485.75
527.874	16643.94
528.241	16853.43
528.607	16904.5
528.973	16957.6
529.339	17044.16
529.705	17198.5
530.071	17377.25
530.437	17430.13
530.803	17558.49
531.169	17710.13
531.535	17695.89
531.901	17821.76
532.267	17922.33
532.632	18027.63
532.998	18113.28
533.364	18148.31
533.73	18283.67
534.095	18461.75
534.461	18419.26
534.826	18438.7
535.192	18662.64
535.557	18706.71
535.923	18803.21
536.288	18828.74
536.653	19011.34
537.019	18946.03
537.384	19057.21
537.749	19155.97
538.114	19132.01
538.479	19219.47
538.845	19410.42
539.21	19367.94
539.575	19526.35
539.94	19541.94
540.305	19703.3
540.67	19738.77
541.034	19769.96
541.399	19917.75
541.764	19920.24
542.129	20088.14
542.494	20045.43
542.858	20148.71
543.223	20143.51
543.587	20357.52
543.952	20257.41
544.316	20396.16
544.681	20540.56
545.045	20498.08
545.41	20570.62
545.774	20663.04
546.138	20698.98
546.503	20770.16
546.867	20834.79
547.231	21136.25
547.595	21120.89
547.959	21110.04
548.324	21108.68
548.688	21261.45
549.052	21404.04
549.416	21367.43
549.779	21497.15
550.143	21562.46
550.507	21661.66
550.871	21700.98
551.235	21747.08
551.599	21947.3
551.962	21964.48
552.326	22013.07
552.689	22098.49
553.053	22094.65
553.417	22142.33
553.78	22490.34
554.143	22396.11
554.507	22419.61
554.87	22573.05
555.234	22858.47
555.597	22640.85
555.96	22811.24
556.323	22980.72
556.686	22985.24
557.05	23140.04
557.413	23163.09
557.776	23247.61
558.139	23380.03
558.502	23559.69
558.865	23464.78
559.228	23683.76
559.59	23872.45
559.953	23801.94
560.316	23942.28
560.679	24094.59
561.041	24281.93
561.404	24276.51
561.767	24478.99
562.129	24501.59
562.492	24660
562.854	24721.24
563.217	24786.78
563.579	24866.55
563.941	25074.68
564.304	25170.72
564.666	25345.86
565.028	25310.83
565.39	25477.61
565.753	25555.8
566.115	25759.41
566.477	25876.24
566.839	25819.74
567.201	26089.79
567.563	26073.98
567.925	26318.49
568.287	26374.98
568.648	26502.66
569.01	26608.65
569.372	26701.98
569.734	26645.49
570.095	26727.97
570.457	26962.77
570.819	27025.81
571.18	27000.05
571.542	27118.92
571.903	27298.8
572.265	27288.18
572.626	27381.29
572.987	27307.62
573.349	27413.15
573.71	27640.26
574.071	27703.54
574.432	27873.7
574.794	27996.18
575.155	27908.05
575.516	27899.24
575.877	28044.32
576.238	28097.43
576.599	28196.18
576.96	28169.74
577.32	28249.51
577.681	28482.95
578.042	28353.24
578.403	28486.57
578.763	28524.76
579.124	28581.48
579.485	28551.42
579.845	28748.26
580.206	28690.18
580.566	28615.6
580.927	28732.21
581.287	28748.93
581.648	28732.89
582.008	28767.24
582.368	28868.48
582.728	28898.99
583.089	28772.44
583.449	28960.45
583.809	28827.12
584.169	28895.14
584.529	28887.91
584.889	29116.83
585.249	28871.42
585.609	28824.41
585.969	29075.93
586.329	28941.92
586.688	29059.43
587.048	29014.46
587.408	29011.07
587.768	28898.53
588.127	28961.36
588.487	28866.67
588.846	29130.84
589.206	28854.02
589.565	28930.17
589.925	29076.61
590.284	29084.29
590.643	29068.47
591.003	29072.09
591.362	29328.81
591.721	29185.76
592.08	29296.72
592.44	29173.78
592.799	29208.81
593.158	29079.77
593.517	29092.43
593.876	29188.7
594.235	29044.74
594.593	29155.02
594.952	29200.22
595.311	29246.32
595.67	29233.21
596.029	29282.7
596.387	29376.26
596.746	29301.91
597.104	29350.95
597.463	29184.63
597.822	29423.49
598.18	29305.3
598.538	29368.35
598.897	29555.47
599.255	29177.17
599.613	29840.88
599.972	29315.02
600.33	29552.75
600.688	29410.38
601.046	29574.9
601.404	29807.21
601.762	29604.96
602.12	29783.48
602.478	29806.98
602.836	29726.99
603.194	29556.37
603.552	29664.39
603.91	29595.92
604.268	29712.98
604.625	29715.46
604.983	29858.28
605.341	29601.11
605.698	29903.03
606.056	29949.58
606.413	29936.25
606.771	30013.76
607.128	30079.52
607.485	29943.93
607.843	29995.23
608.2	30113.19
608.557	30169.91
608.914	30098.73
609.272	30306.63
609.629	30215.56
609.986	30372.85
610.343	30296.92
610.7	30535.33
611.057	30307.76
611.414	30342.11
611.771	30496.01
612.127	30507.53
612.484	30453.52
612.841	30600.18
613.198	30506.63
613.554	30507.76
613.911	30634.76
614.267	30645.38
614.624	30633.4
614.98	30537.36
615.337	30743.68
615.693	30837.24
616.05	30658.04
616.406	30869.33
616.762	30799.27
617.118	30681.76
617.475	30898.26
617.831	30778.26
618.187	30941.87
618.543	30888.54
618.899	31080.85
619.255	30909.55
619.611	30908.65
619.967	31081.3
620.323	31085.14
620.678	31085.6
621.034	30943
621.39	30938.93
621.746	30878.59
622.101	31181.19
622.457	31034.75
622.812	31085.14
623.168	31093.73
623.523	31167.63
623.879	31277.91
624.234	31019.38
624.589	31096.22
624.945	31122.2
625.3	31209.66
625.655	31120.4
626.01	31171.47
626.365	31206.27
626.72	31125.82
627.075	31043.56
627.43	31118.14
627.785	30991.36
628.14	31136.67
628.495	30966.73
628.85	31108.87
629.205	30887.18
629.559	31127.85
629.914	31026.16
630.269	30872.04
630.623	30827.75
630.978	30708.66
631.332	31004.92
631.687	30920.18
632.041	30774.64
632.396	30843.57
632.75	30681.54
633.104	30703.91
633.459	30606.96
633.813	30596.79
634.167	30658.94
634.521	30726.06
634.875	30541.2
635.229	30681.31
635.583	30424.82
635.937	30370.81
636.291	30326.07
636.645	30293.07
636.999	30317.48
637.352	30461.88
637.706	30193.64
638.06	30368.33
638.413	30167.88
638.767	30052.85
639.121	30244.26
639.474	29975.12
639.828	30085.17
640.181	30178.27
640.534	29969.92
640.888	29927.66
641.241	29737.38
641.594	29816.02
641.947	29842.69
642.301	29712.98
642.654	29906.64
643.007	29776.25
643.36	29764.05
643.713	29649.02
644.066	29682.02
644.419	29619.87
644.771	29311.4
645.124	29184.63
645.477	29071.41
645.83	28865.99
646.182	28691.53
646.535	28645.89
646.888	28734.02
647.24	28513.46
647.593	28689.73
647.945	28552.1
648.298	28462.84
648.65	28404.99
649.002	28253.13
649.355	28392.78
649.707	28481.6
650.059	28489.28
650.411	28715.04
650.763	28852.66
651.115	29192.54
651.467	28993.22
651.819	28932.88
652.171	28812.43
652.523	28866.67
652.875	28878.65
653.227	28593.01
653.578	28866.9
653.93	28882.94
654.282	28706
654.633	28582.38
654.985	28692.21
655.337	28671.42
655.688	28509.84
656.039	28668.26
656.391	28391.2
656.742	28501.26
657.094	28507.36
657.445	28613.34
657.796	28538.77
658.147	28432.78
658.498	28365.44
658.849	28468.94
659.2	28447.02
659.551	28341.71
659.902	28341.49
660.253	28325.22
660.604	28398.89
660.955	28200.25
661.306	28297.42
661.656	28232.79
662.007	28228.04
662.358	28230.98
662.708	28190.08
663.059	28265.33
663.409	28016.75
663.76	28320.24
664.11	28232.56
664.461	28199.57
664.811	28151.21
665.161	28088.61
665.511	28089.29
665.862	28115.5
666.212	28211.55
666.562	28040.7
666.912	28042.06
667.262	28136.52
667.612	28077.99
667.962	28051.55
668.312	27996.86
668.662	28136.97
669.011	28083.64
669.361	27944.89
669.711	28007.26
670.06	27939.24
670.41	27989.63
670.76	27819.24
671.109	27972.23
671.459	27855.62
671.808	27752.8
672.157	27878
672.507	27616.53
672.856	27728.85
673.205	27676.19
673.554	27804.1
673.904	27727.72
674.253	27854.95
674.602	27742.41
674.951	27280.27
675.3	27087.96
675.649	27547.38
675.998	27547.38
676.346	27629.87
676.695	27634.16
677.044	27336.32
677.393	27584.44
677.741	27600.49
678.09	27478.23
678.438	27338.57
678.787	27469.64
679.135	27363.21
679.484	27157.34
679.832	27318.01
680.181	27150.11
680.529	27321.85
680.877	27095.64
681.225	27170.9
681.573	27259.26
681.922	26954.63
682.27	26924.8
682.618	26999.15
682.966	26861.3
683.314	26979.49
683.661	26828.76
684.009	26802.09
684.357	26609.1
684.705	26697.69
685.053	26625.6
685.4	26514.87
685.748	26500.63
686.095	26408.88
686.443	26274.42
686.79	26225.16
687.138	26326.62
687.485	26363.91
687.832	26276.68
688.18	26166.63
688.527	26052.28
688.874	25969.57
689.221	26041.21
689.568	25974.54
689.915	25916.01
690.262	25891.61
690.609	25736.13
690.956	25706.08
691.303	25733.19
691.65	25473.77
691.997	25464.5
692.344	25321.9
692.69	25431.05
693.037	25356.48
693.383	25132.53
693.73	25213.21
694.077	24949.94
694.423	24977.28
694.769	24912.42
695.116	24912.88
695.462	24909.71
695.808	24816.16
696.155	24739.55
696.501	24595.82
696.847	24586.78
697.193	24440.12
697.539	24482.38
697.885	24376.39
698.231	24237.87
698.577	24233.35
698.923	24311.54
699.269	24057.98
699.614	24044.42
699.96	23914.94
700.306	23942.73
700.651	23966.01
700.997	23815.96
701.342	23813.24
701.688	23669.29
702.033	23683.76
702.379	23550.88
702.724	23554.72
703.069	23611.89
703.415	23214.39
703.76	23299.59
704.105	23323.99
704.45	23221.4
704.795	23176.65
705.14	23041.29
705.485	23127.39
705.83	22942.08
706.175	22984.79
706.52	22958.35
706.865	22842.87
707.209	22763.78
707.554	22705.7
707.899	22696.44
708.243	22641.07
708.588	22672.93
708.932	22359.95
709.277	22462.09
709.621	22436.78
709.966	22302.1
710.31	22276.79
710.654	22098.03
710.998	22118.15
711.342	22145.72
711.687	22136.45
712.031	21973.52
712.375	21889.23
712.719	22066.17
713.063	21881.54
713.407	21862.56
713.75	21836.35
714.094	21835.89
714.438	21703.69
714.782	21738.72
715.125	21616.69
715.469	21632.96
715.812	21464.15
716.156	21343.48
716.499	21462.35
716.843	21369.92
717.186	21371.05
717.53	21345.06
717.873	21390.71
718.216	21277.04
718.559	21184.61
718.902	21023.71
719.246	21116.82
719.589	21012.41
719.932	20966.99
720.275	20975.13
720.617	20863.04
720.96	20897.16
721.303	20864.85
721.646	20839.76
721.989	20755.02
722.331	20767
722.674	20725.42
723.016	20694.46
723.359	20518.64
723.701	20663.72
724.044	20515.48
724.386	20368.14
724.729	20494.01
725.071	20517.29
725.413	20375.14
725.755	20353.45
726.097	20247.24
726.439	20221.47
726.782	20146.67
727.124	20291.08
727.465	20099.67
727.807	20158.42
728.149	20060.35
728.491	20060.8
728.833	20048.37
729.175	20072.1
729.516	19994.81
729.858	19932.89
730.199	19967.47
730.541	19863.97
730.882	19854.25
731.224	19835.27
731.565	19801.15
731.906	19740.13
732.248	19757.08
732.589	19658.78
732.93	19478.22
733.271	19515.05
733.612	19513.02
733.953	19540.81
734.294	19445.68
734.635	19481.15
734.976	19473.7
735.317	19257.88
735.658	19432.12
735.999	19374.04
736.339	19237.32
736.68	19361.84
737.021	19346.02
737.361	19172.69
737.702	19273.02
738.042	19163.65
738.383	19173.82
738.723	19132.92
739.063	19178.79
739.404	19175.4
739.744	19094.72
740.084	19038.68
740.424	19080.49
740.764	18896.54
741.104	18973.82
741.444	18908.74
741.784	18838.69
742.124	18855.41
742.464	18824.22
742.804	18788.07
743.143	18822.87
743.483	18718.46
743.823	18661.97
744.162	18541.74
744.502	18626.94
744.841	18536.55
745.181	18652.93
745.52	18482.99
745.86	18497.45
746.199	18440.73
746.538	18437.34
746.877	18422.88
747.216	18427.85
747.556	18394.18
747.895	18396.89
748.234	18297.23
748.573	18240.74
748.911	18282.09
749.25	18167.74
749.589	18049.33
749.928	18088.65
750.267	18149.21
750.605	18180.4
750.944	18098.14
751.283	17944.47
751.621	18033.06
751.96	17852.5
752.298	17902.21
752.636	17884.81
752.975	17716.91
753.313	17549.23
753.651	17748.09
753.989	17632.16
754.327	17666.51
754.666	17578.15
755.004	17601.66
755.342	17621.99
755.679	17510.58
756.017	17282.12
756.355	17497.93
756.693	17384.71
757.031	17389.68
757.368	17251.16
757.706	17317.6
758.044	17244.83
758.381	17240.31
758.719	17104.27
759.056	17100.2
759.394	17081.9
759.731	16952.18
760.068	16852.52
760.405	16862.47
760.743	16769.36
761.08	16778.63
761.417	16782.69
761.754	16722.13
762.091	16656.82
762.428	16517.39
762.765	16450.05
763.102	16565.3
763.438	16345.87
763.775	16379.09
764.112	16383.16
764.449	16362.59
764.785	16272.2
765.122	16151.3
765.458	16104.29
765.795	16055.71
766.131	16065.65
766.467	16020
766.804	15967.8
767.14	15823.62
767.476	15846.9
767.812	15837.18
768.148	15742.27
768.485	15689.39
768.821	15592.22
769.157	15596.28
769.492	15491.88
769.828	15572.1
770.164	15358.78
770.5	15370.75
770.836	15390.64
771.171	15196.07
771.507	15214.15
771.842	15113.36
772.178	15080.14
772.513	15033.81
772.849	15006.92
773.184	14971.44
773.519	14941.39
773.855	14821.62
774.19	14707.27
774.525	14713.6
774.86	14725.57
775.195	14726.93
775.53	14616.2
775.865	14514.28
776.2	14482.87
776.535	14393.38
776.87	14397.45
777.205	14341.63
777.539	14254.85
777.874	14191.8
778.209	14099.83
778.543	14094.63
778.878	13993.16
779.212	13978.25
779.547	13921.75
779.881	13966.72
780.215	13773.51
780.55	13842.21
780.884	13752.27
781.218	13736.22
781.552	13759.05
781.886	13615.09
782.22	13538.94
782.554	13504.59
782.888	13439.05
783.222	13393.86
783.556	13303.69
783.889	13338.04
784.223	13193.18
784.557	13190.02
784.89	13192.28
785.224	13070.93
785.557	13070.02
785.891	13004.26
786.224	12962.68
786.558	13029.35
786.891	12850.59
787.224	12865.06
787.557	12715.68
787.891	12710.71
788.224	12745.74
788.557	12662.12
788.89	12720.2
789.223	12581.67
789.556	12459.64
789.888	12465.29
790.221	12432.53
790.554	12328.8
790.887	12300.1
791.219	12306.88
791.552	12180.1
791.884	12178.52
792.217	12174
792.549	12159.09
792.882	12054.23
793.214	11916.16
793.546	11972.88
793.879	11924.29
794.211	11824.86
794.543	11871.86
794.875	11814.01
795.207	11841.81
795.539	11720.91
795.871	11741.92
796.203	11634.58
796.535	11589.84
796.867	11534.7
797.198	11610.63
797.53	11586.67
797.862	11433.23
798.193	11475.26
798.525	11413.12
798.856	11430.29
799.188	11357.53
799.519	11267.59
799.85	11185.1
800.182	11227.36
800.513	11157.53
800.844	11122.96
801.175	11153.01
801.506	11157.31
801.837	11073.92
802.168	10981.49
802.499	10974.94
802.83	10928.16
803.161	10834.83
803.491	10944.2
803.822	10955.73
804.153	10878.22
804.483	10759.12
804.814	10732.91
805.145	10761.61
805.475	10764.77
805.805	10642.52
806.136	10686.13
806.466	10585.34
806.796	10662.4
807.126	10562.74
807.457	10521.84
807.787	10459.24
808.117	10478.23
808.447	10411.34
808.777	10484.55
809.107	10381.51
809.436	10334.95
809.766	10309.19
810.096	10257.67
810.426	10213.83
810.755	10274.62
811.085	10173.38
811.414	10205.01
811.744	10181.74
812.073	10064.9
812.403	10168.4
812.732	10042.98
813.061	10093.38
813.39	10010.22
813.719	9996.21
814.049	10051.8
814.378	10029.65
814.707	9974.74
815.036	9980.61
815.365	9808.64
815.693	9772.26
816.022	9819.94
816.351	9765.25
816.68	9710.11
817.008	9673.05
817.337	9637.8
817.665	9584.47
817.994	9716.67
818.322	9655.65
818.651	9645.71
818.979	9555.31
819.307	9574.52
819.636	9561.42
819.964	9528.87
820.292	9539.72
820.62	9550.57
820.948	9525.03
821.276	9528.42
821.604	9448.88
821.932	9471.25
822.259	9482.1
822.587	9433.96
822.915	9481.42
823.243	9489.33
823.57	9429.44
823.898	9450.01
824.225	9375.21
824.553	9413.62
824.88	9405.04
825.207	9539.49
825.535	9374.53
825.862	9407.97
826.189	9400.52
826.516	9428.76
826.843	9471.7
827.17	9440.97
827.497	9436.22
827.824	9450.23
828.151	9424.24
828.478	9386.05
828.805	9447.97
829.131	9457.01
829.458	9340.18
829.785	9325.94
830.111	9326.62
830.438	9401.87
830.764	9340.86
831.09	9374.53
831.417	9309.9
831.743	9368.43
832.069	9369.56
832.395	9321.65
832.722	9358.26
833.048	9297.69
833.374	9329.33
833.7	9324.13
834.026	9377.47
834.351	9311.7
834.677	9341.99
835.003	9324.36
835.329	9281.2
835.654	9273.06
835.98	9227.41
836.306	9246.62
836.631	9228.99
836.956	9184.02
837.282	9182.89
837.607	9159.39
837.932	9160.97
838.258	9145.61
838.583	9126.85
838.908	9140.18
839.233	9131.6
839.558	9090.47
839.883	9130.01
840.208	9032.62
840.533	9026.29
840.858	9085.72
841.182	9071.71
841.507	8915.1
841.832	8975.44
842.156	8991.71
842.481	8956.46
842.805	8918.95
843.13	8856.58
843.454	8886.86
843.778	8806.86
844.103	8838.27
844.427	8797.59
844.751	8798.95
845.075	8776.8
845.399	8782.9
845.723	8727.99
846.047	8741.1
846.371	8663.36
846.695	8622
847.019	8591.27
847.343	8538.17
847.666	8534.55
847.99	8437.38
848.313	8426.76
848.637	8402.58
848.96	8405.29
849.284	8379.98
849.607	8314.22
849.931	8360.54
850.254	8257.04
850.577	8212.75
850.9	8133.66
851.223	8154.67
851.546	8076.48
851.869	8033.55
852.192	8143.15
852.515	7977.05
852.838	7959.2
853.161	7924.4
853.483	7879.43
853.806	7875.81
854.129	7939.99
854.451	7801.91
854.774	7780.45
855.096	7704.06
855.419	7751.07
855.741	7747.23
856.063	7697.51
856.385	7707.23
856.708	7608.7
857.03	7674.91
857.352	7609.38
857.674	7582.03
857.996	7540.23
858.318	7515.14
858.64	7534.12
858.961	7478.08
859.283	7469.94
859.605	7466.56
859.926	7462.26
860.248	7399.21
860.57	7409.16
860.891	7423.39
861.212	7357.86
861.534	7341.59
861.855	7365.31
862.176	7333.68
862.498	7314.02
862.819	7305.88
863.14	7306.79
863.461	7261.36
863.782	7234.02
864.103	7284.41
864.424	7248.93
864.745	7232.44
865.065	7187.69
865.386	7181.14
865.707	7179.56
866.027	7169.39
866.348	7139.78
866.668	7182.95
866.989	7166.9
867.309	7058.66
867.63	7061.59
867.95	7052.1
868.27	7024.31
868.59	7069.96
868.91	7047.81
869.23	7084.42
869.55	7008.26
869.87	7069.96
870.19	6956.51
870.51	6980.92
870.83	7008.26
871.15	6965.55
871.469	6978.66
871.789	6932.11
872.109	6977.08
872.428	6918.32
872.748	6965.78
873.067	6919.45
873.386	6898.21
873.706	6917.64
874.025	6834.03
874.344	6829.06
874.663	6822.28
874.982	6831.09
875.301	6797.65
875.62	6863.41
875.939	6823.63
876.258	6792.22
876.577	6754.48
876.896	6820.24
877.214	6728.04
877.533	6755.84
877.852	6712.9
878.17	6717.65
878.489	6762.39
878.807	6690.76
879.125	6707.48
879.444	6681.72
879.762	6660.47
880.08	6664.99
880.398	6693.47
880.716	6628.39
881.034	6579.8
881.352	6592.91
881.67	6615.5
881.988	6619.8
882.306	6554.26
882.624	6526.92
882.941	6501.83
883.259	6466.36
883.577	6462.74
883.894	6481.04
884.212	6505.68
884.529	6510.65
884.846	6450.31
885.164	6420.71
885.481	6403.31
885.798	6381.84
886.115	6423.64
886.432	6358.56
886.75	6338.9
887.067	6332.57
887.383	6298.22
887.7	6332.57
888.017	6295.29
888.334	6306.59
888.651	6236.53
888.967	6283.08
889.284	6248.28
889.6	6240.82
889.917	6141.39
890.233	6213.93
890.55	6182.07
890.866	6157.66
891.182	6131.45
891.498	6101.62
891.815	6141.84
892.131	6088.96
892.447	6053.48
892.763	6021.4
893.079	6005.58
893.395	6000.38
893.71	5953.37
894.026	5967.61
894.342	5983.43
894.657	5895.07
894.973	5888.52
895.289	5843.32
895.604	5911.12
895.92	5814.17
896.235	5786.15
896.55	5794.96
896.865	5747.05
897.181	5773.49
897.496	5783.89
897.811	5739.14
898.126	5741.18
898.441	5712.93
898.756	5680.84
899.071	5634.29
899.386	5648.52
899.7	5624.12
900.015	5596.55
900.33	5597.9
900.644	5568.53
900.959	5585.93
901.273	5550.45
901.588	5495.53
901.902	5490.56
902.216	5525.82
902.531	5468.64
902.845	5383.67
903.159	5377.34
903.473	5380.73
903.787	5380.06
904.101	5376.67
904.415	5371.02
904.729	5357.01
905.042	5235.88
905.356	5282.21
905.67	5256.9
905.984	5248.08
906.297	5239.95
906.611	5204.24
906.924	5225.94
907.237	5155.66
907.551	5161.98
907.864	5169.44
908.177	5090.57
908.491	5119.72
908.804	5098.71
909.117	5065.49
909.43	4958.82
909.743	4976
910.056	4981.87
910.368	4994.08
910.681	4940.52
910.994	4973.29
911.307	4896.45
911.619	4860.52
911.932	4908.2
912.244	4842.67
912.557	4847.64
912.869	4812.61
913.181	4813.29
913.494	4791.15
913.806	4766.06
914.118	4770.35
914.43	4672.73
914.742	4740.75
915.054	4642.22
915.366	4689
915.678	4620.3
915.99	4572.39
916.302	4583.47
916.613	4595.44
916.925	4521.1
917.236	4600.64
917.548	4522.23
917.859	4515.22
918.171	4487.2
918.482	4485.39
918.794	4467.76
919.105	4480.87
919.416	4392.96
919.727	4411.04
920.038	4380.08
920.349	4357.03
920.66	4313.19
920.971	4350.25
921.282	4295.57
921.593	4277.49
921.903	4259.63
922.214	4315
922.525	4243.36
922.835	4248.33
923.146	4200.88
923.456	4201.1
923.767	4213.99
924.077	4206.53
924.387	4185.29
924.697	4148.68
925.008	4160.88
925.318	4137.6
925.628	4101.67
925.938	4082.24
926.248	4070.26
926.558	4026.42
926.867	4023.03
927.177	4054.89
927.487	3987.1
927.796	3980.09
928.106	3952.07
928.416	3949.81
928.725	3922.02
929.034	3897.84
929.344	3882.69
929.653	3924.5
929.962	3884.5
930.271	3854.67
930.581	3828.23
930.89	3801.34
931.199	3789.82
931.508	3767.9
931.817	3771.74
932.125	3767.9
932.434	3751.4
932.743	3712.53
933.051	3717.95
933.36	3691.06
933.669	3694
933.977	3653.32
934.286	3650.61
934.594	3649.71
934.902	3627.79
935.21	3605.19
935.519	3587.11
935.827	3560.67
936.135	3569.93
936.443	3556.83
936.751	3529.26
937.059	3541.69
937.367	3493.78
937.674	3508.69
937.982	3514.34
938.29	3470.05
938.597	3452.42
938.905	3389.6
939.213	3395.48
939.52	3368.58
939.827	3337.62
940.135	3343.95
940.442	3369.94
940.749	3331.97
941.056	3343.5
941.363	3290.85
941.67	3305.08
941.977	3277.06
942.284	3290.17
942.591	3272.54
942.898	3239.77
943.205	3227.12
943.511	3238.19
943.818	3181.24
944.125	3195.25
944.431	3210.17
944.738	3188.93
945.044	3151.41
945.35	3158.65
945.657	3100.12
945.963	3090.62
946.269	3133.34
946.575	3077.52
946.881	3110.96
947.187	3101.47
947.493	3070.06
947.799	3035.03
948.105	3058.54
948.41	3030.29
948.716	3017.41
949.022	2989.16
949.327	2937.41
949.633	2943.51
949.938	2938.99
950.244	2943.28
950.549	2927.24
950.854	2909.16
951.16	2934.7
951.465	2914.81
951.77	2889.5
952.075	2859.22
952.38	2841.82
952.685	2848.6
952.99	2817.64
953.294	2823.97
953.599	2803.63
953.904	2822.38
954.209	2751.88
954.513	2763.4
954.818	2769.73
955.122	2759.79
955.426	2737.19
955.731	2748.71
956.035	2731.09
956.339	2687.25
956.643	2713.23
956.948	2677.98
957.252	2673.01
957.556	2691.99
957.86	2670.3
958.163	2656.51
958.467	2630.3
958.771	2648.15
959.075	2619
959.378	2567.02
959.682	2597.53
959.985	2568.38
960.289	2602.28
960.592	2570.64
960.896	2577.42
961.199	2566.34
961.502	2534.03
961.805	2544.42
962.108	2510.75
962.411	2494.71
962.714	2487.93
963.017	2477.08
963.32	2441.38
963.623	2437.31
963.926	2465.78
964.228	2453.81
964.531	2419.46
964.833	2410.64
965.136	2402.96
965.438	2403.19
965.741	2373.81
966.043	2386.01
966.345	2350.76
966.648	2384.2
966.95	2365.67
967.252	2336.52
967.554	2331.77
967.856	2342.4
968.158	2317.31
968.46	2298.78
968.761	2306.01
969.063	2298.33
969.365	2279.35
969.666	2274.15
969.968	2238.67
970.269	2215.62
970.571	2249.97
970.872	2190.54
971.174	2196.41
971.475	2209.74
971.776	2210.42
972.077	2211.55
972.378	2180.59
972.679	2186.92
972.98	2174.04
973.281	2174.94
973.582	2126.13
973.883	2127.71
974.183	2126.58
974.484	2110.09
974.785	2130.42
975.085	2105.34
975.386	2082.52
975.686	2071.44
975.986	2079.58
976.287	2086.13
976.587	2033.03
976.887	2054.27
977.187	2031.44
977.487	2031.9
977.787	2020.14
978.087	2017.21
978.387	2004.55
978.687	2021.5
978.987	2003.42
979.286	1979.24
979.586	1980.15
979.885	1967.26
980.185	1953.25
980.484	1959.13
980.784	1944.89
981.083	1900.37
981.382	1925.01
981.682	1943.54
981.981	1940.82
982.28	1896.76
982.579	1899.7
982.878	1881.17
983.177	1878.91
983.475	1870.32
983.774	1840.04
984.073	1876.42
984.372	1820.38
984.67	1845.23
984.969	1865.12
985.267	1822.86
985.566	1826.7
985.864	1834.16
986.162	1821.73
986.461	1795.29
986.759	1808.17
987.057	1807.72
987.355	1755.74
987.653	1756.87
987.951	1754.39
988.249	1732.92
988.547	1729.53
988.844	1737.67
989.142	1740.6
989.44	1742.86
989.737	1741.73
990.035	1699.93
990.332	1749.64
990.63	1683.43
990.927	1690.66
991.224	1730.43
991.521	1685.92
991.819	1680.72
992.116	1643.43
992.413	1661.28
992.71	1662.19
993.006	1626.93
993.303	1655.41
993.6	1610.89
993.897	1634.62
994.193	1625.58
994.49	1581.06
994.787	1621.06
995.083	1586.26
995.379	1564.79
995.676	1584.22
995.972	1541.97
996.268	1565.69
996.565	1538.12
996.861	1567.95
997.157	1558.46
997.453	1533.38
997.749	1523.43
998.044	1502.64
998.34	1530.89
998.636	1527.05
998.932	1528.41
999.227	1500.61
999.523	1489.54
999.818	1461.74
1000.114	1444.34
1000.409	1469.88
1000.704	1439.14
1001	1427.84
1001.295	1452.25
1001.59	1426.94
1001.885	1447.28
1002.18	1428.52
1002.475	1429.65
1002.77	1377.68
1003.065	1370.9
1003.359	1415.87
1003.654	1420.16
1003.949	1388.75
1004.243	1386.04
1004.538	1340.84
1004.832	1375.64
1005.127	1355.53
1005.421	1327.96
1005.715	1333.38
1006.009	1337
1006.304	1320.95
1006.598	1327.28
1006.892	1292.48
1007.186	1293.16
1007.48	1304.68
1007.773	1302.2
1008.067	1304.01
1008.361	1249.77
1008.655	1253.61
1008.948	1264.23
1009.242	1285.47
1009.535	1255.87
1009.829	1246.83
1010.122	1237.11
1010.415	1245.93
1010.708	1245.25
1011.001	1224.69
1011.295	1222.2
1011.588	1209.32
1011.881	1224.23
1012.173	1194.4
1012.466	1189.21
1012.759	1193.95
1013.052	1177.23
1013.344	1188.98
1013.637	1181.3
1013.93	1160.73
1014.222	1143.78
1014.514	1146.72
1014.807	1139.26
1015.099	1094.07
1015.391	1114.18
1015.683	1116.44
1015.976	1124.12
1016.268	1117.12
1016.56	1082.99
1016.851	1089.32
1017.143	1106.72
1017.435	1092.71
1017.727	1075.54
1018.018	1056.1
1018.31	1078.93
1018.602	1074.63
1018.893	1048.42
1019.185	1043.67
1019.476	1055.42
1019.767	1046.61
1020.058	1040.06
1020.35	1033.5
1020.641	1032.83
1020.932	1040.74
1021.223	987.4
1021.514	1018.82
1021.804	1010.68
1022.095	992.83
1022.386	993.28
1022.677	963
1022.967	996.67
1023.258	959.16
1023.548	977.69
1023.839	963.9
1024.129	966.61
1024.419	923.9
1024.709	937.24
1025	929.78
1025.29	914.86
1025.58	920.74
1025.87	934.98
1026.16	928.87
1026.449	894.98
1026.739	917.35
1027.029	889.33
1027.319	892.94
1027.608	879.16
1027.898	880.51
1028.187	887.07
1028.477	879.16
1028.766	863.11
1029.055	874.86
1029.344	863.56
1029.634	853.62
1029.923	840.51
1030.212	851.36
1030.501	834.19
1030.79	857.92
1031.078	850.23
1031.367	826.5
1031.656	845.26
1031.945	818.82
1032.233	839.16
1032.522	832.15
1032.81	821.31
1033.099	816.79
1033.387	793.06
1033.675	787.63
1033.963	799.84
1034.251	778.14
1034.54	777.92
1034.828	773.4
1035.116	760.06
1035.403	777.47
1035.691	749.67
1035.979	758.03
1036.267	765.71
1036.554	746.28
1036.842	746.28
1037.129	773.17
1037.417	719.39
1037.704	743.12
1037.992	735.43
1038.279	723.91
1038.566	738.14
1038.853	738.14
1039.14	738.14
