Data from White_reflection_standard_FLMS001491_078.txt Node
Date: Tue Feb 07 10:32:10 GMT 2017
User: dcchb
Spectrometer: FLMS00149
Trigger mode: 0
Integration Time (sec): 2.000000E-2
Scans to average: 10
Electric dark correction enabled: true
Nonlinearity correction enabled: false
Boxcar width: 0
XAxis mode: Wavelengths
Number of Pixels in Spectrum: 2048
>>>>>Begin Spectral Data<<<<<
341.393	-19.91
341.776	-19.91
342.16	-19.91
342.543	-40.25
342.927	-81.38
343.31	-64.21
343.693	-47.94
344.077	-66.69
344.46	-51.33
344.843	-52.23
345.226	-66.24
345.61	-34.15
345.993	-30.54
346.376	9.91
346.759	16.69
347.142	17.82
347.525	44.04
347.908	63.92
348.291	71.83
348.674	73.64
349.057	115.45
349.44	114.77
349.823	141.66
350.206	165.39
350.588	248.78
350.971	270.7
351.354	249.68
351.737	273.86
352.119	293.3
352.502	316.12
352.884	298.04
353.267	334.2
353.65	335.33
354.032	341.66
354.414	352.96
354.797	364.93
355.179	355.44
355.562	375.56
355.944	359.51
356.326	372.62
356.709	378.49
357.091	361.32
357.473	390.47
357.855	404.48
358.238	392.05
358.62	385.27
359.002	393.86
359.384	392.5
359.766	423.69
360.148	404.25
360.53	388.66
360.912	406.29
361.294	375.33
361.676	410.58
362.057	410.13
362.439	391.6
362.821	408.32
363.203	395.67
363.584	401.54
363.966	401.32
364.348	414.88
364.729	421.66
365.111	393.86
365.493	411.71
365.874	411.03
366.256	394.76
366.637	409
367.019	418.72
367.4	407.87
367.781	407.19
368.163	411.26
368.544	412.16
368.925	421.43
369.306	425.5
369.688	430.24
370.069	415.1
370.45	432.73
370.831	424.82
371.212	422.56
371.593	447.87
371.974	430.69
372.355	444.03
372.736	440.41
373.117	456.23
373.498	458.94
373.879	431.6
374.26	445.84
374.641	432.95
375.021	454.2
375.402	460.07
375.783	470.47
376.163	499.85
376.544	474.31
376.925	469.79
377.305	485.61
377.686	493.74
378.066	480.41
378.447	489
378.827	491.26
379.208	501.2
379.588	500.07
379.968	525.83
380.349	524.25
380.729	520.41
381.109	532.16
381.489	560.18
381.87	531.03
382.25	551.14
382.63	558.15
383.01	556.12
383.39	554.99
383.77	574.65
384.15	564.48
384.53	562.67
384.91	579.17
385.29	590.01
385.67	600.86
386.049	597.47
386.429	604.02
386.809	629.33
387.189	622.1
387.568	621.88
387.948	642.44
388.328	663.23
388.707	638.15
389.087	667.07
389.466	652.16
389.846	668.65
390.225	662.33
390.605	665.26
390.984	679.95
391.363	703.91
391.743	716.56
392.122	712.5
392.501	709.33
392.881	721.76
393.26	740.74
393.639	753.62
394.018	767.18
394.397	766.28
394.776	781.87
395.155	774.19
395.534	800.18
395.913	795.66
396.292	823
396.671	807.63
397.05	818.48
397.429	843.11
397.808	829.1
398.186	828.65
398.565	848.54
398.944	855.99
399.323	862.77
399.701	885.82
400.08	867.52
400.458	889.89
400.837	925.15
401.215	919.95
401.594	929.44
401.972	926.05
402.351	927.18
402.729	963.34
403.107	972.83
403.486	1000.85
403.864	984.35
404.242	976.9
404.62	995.2
404.999	1008.08
405.377	1030.68
405.755	1031.13
406.133	1075.88
406.511	1070.45
406.889	1065.25
407.267	1085.82
407.645	1123.33
408.023	1118.81
408.401	1149.55
408.779	1159.26
409.156	1196.78
409.534	1186.38
409.912	1216.89
410.29	1222.54
410.667	1257.79
411.045	1295.76
411.422	1277.45
411.8	1274.51
412.178	1323.1
412.555	1339.15
412.933	1344.34
413.31	1375.98
413.687	1395.64
414.065	1402.19
414.442	1443.1
414.819	1440.39
415.197	1467.28
415.574	1485.58
415.951	1490.1
416.328	1529.2
416.705	1508.18
417.082	1516.99
417.46	1588.4
417.837	1555.41
418.214	1579.82
418.591	1601.74
418.967	1645.58
419.344	1615.52
419.721	1660.27
420.098	1688.97
420.475	1695.52
420.852	1698.68
421.228	1735.29
421.605	1749.98
421.982	1748.17
422.358	1771.68
422.735	1788.63
423.111	1843.99
423.488	1824.56
423.864	1869.75
424.241	1843.99
424.617	1898.68
424.994	1910.88
425.37	1951.78
425.746	1945.23
426.123	1989.3
426.499	1993.59
426.875	2029.07
427.251	2053.03
427.627	2091.67
428.003	2132.12
428.379	2158.11
428.756	2180.71
429.132	2167.15
429.507	2216.18
429.883	2268.16
430.259	2299.35
430.635	2286.69
431.011	2316.07
431.387	2407.14
431.763	2441.49
432.138	2440.36
432.514	2528.72
432.89	2478.1
433.265	2567.59
433.641	2584.99
434.016	2640.81
434.392	2690.3
434.767	2715.61
435.143	2728.26
435.518	2719
435.894	2766.9
436.269	2825.21
436.644	2883.29
437.02	2920.57
437.395	2895.49
437.77	2962.83
438.145	3001.7
438.52	3023.4
438.895	3040.8
439.271	3083.28
439.646	3160.79
440.021	3182.49
440.395	3171.41
440.77	3152.43
441.145	3187.68
441.52	3261.58
441.895	3241.69
442.27	3310.62
442.645	3309.49
443.019	3377.51
443.394	3346.55
443.769	3417.51
444.143	3411.63
444.518	3459.09
444.892	3454.57
445.267	3490.95
445.641	3522.37
446.016	3531.63
446.39	3582.93
446.764	3614.79
447.139	3593.32
447.513	3682.36
447.887	3676.71
448.262	3695.02
448.636	3695.69
449.01	3761
449.384	3837.38
449.758	3854.11
450.132	3904.28
450.506	3899.98
450.88	3938.85
451.254	3919.64
451.628	3987.89
452.002	4055.91
452.376	4084.61
452.75	4162.12
453.123	4167.09
453.497	4263.14
453.871	4269.24
454.244	4396.92
454.618	4432.62
454.992	4465.17
455.365	4488.22
455.739	4560.3
456.112	4641.21
456.486	4676.91
456.859	4705.61
457.232	4783.8
457.606	4788.55
457.979	4857.02
458.352	4969.33
458.725	5029.22
459.099	5075.77
459.472	5155.99
459.845	5276.9
460.218	5273.51
460.591	5315.54
460.964	5358.25
461.337	5455.2
461.71	5620.61
462.083	5688.86
462.456	5617.23
462.829	5706.94
463.201	5812.47
463.574	5836.2
463.947	5866.26
464.32	6065.57
464.692	6049.3
465.065	6121.62
465.438	6260.82
465.81	6298.11
466.183	6375.4
466.555	6506.24
466.928	6612.45
467.3	6577.43
467.672	6675.5
468.045	6867.14
468.417	6864.2
468.789	6928.15
469.161	7065.55
469.534	7127.47
469.906	7334.02
470.278	7343.73
470.65	7491.98
471.022	7574.01
471.394	7758.64
471.766	7846.32
472.138	7931.29
472.51	8133.54
472.882	8212.86
473.253	8317.49
473.625	8454.89
473.997	8587.09
474.369	8665.28
474.74	8792.96
475.112	8932.84
475.484	9076.34
475.855	9245.6
476.227	9325.6
476.598	9619.38
476.97	9639.04
477.341	9859.15
477.713	10022.08
478.084	10103.21
478.455	10420.26
478.827	10440.15
479.198	10849.86
479.569	10773.93
479.94	11252.56
480.311	11223.41
480.682	11501.82
481.053	11705.43
481.424	11973.67
481.795	12011.41
482.166	12208.01
482.537	12338.86
482.908	12653.2
483.279	12755.34
483.65	12977.03
484.021	13333.18
484.391	13395.78
484.762	13577.69
485.133	13702.89
485.503	13824.47
485.874	14158.24
486.244	14353.04
486.615	14661.06
486.985	14827.15
487.356	15054.49
487.726	15148.73
488.097	15494.48
488.467	15482.73
488.837	15905.32
489.207	16116.61
489.578	16255.36
489.948	16379.88
490.318	16681.12
490.688	16787.78
491.058	16988.9
491.428	17256.47
491.798	17427.76
492.168	17825.27
492.538	17857.58
492.908	18125.14
493.278	18273.39
493.648	18246.5
494.017	18559.71
494.387	18735.52
494.757	19001.51
495.126	19143.42
495.496	19219.81
495.866	19275.4
496.235	19605.56
496.605	19755.61
496.974	19889.62
497.344	20113.57
497.713	20138.88
498.082	20349.72
498.452	20585.19
498.821	20675.59
499.19	20770.27
499.559	20959.87
499.928	21037.61
500.298	21292.29
500.667	21454.32
501.036	21527.99
501.405	21749.68
501.774	21831.04
502.143	21950.81
502.512	22022.67
502.88	22296.56
503.249	22312.83
503.618	22556.44
503.987	22627.63
504.356	22839.37
504.724	22970.44
505.093	23095.41
505.462	23164.11
505.83	23391.45
506.199	23460.6
506.567	23847.71
506.936	23915.5
507.304	24198.88
507.672	24294.93
508.041	24324.76
508.409	24629.38
508.777	24799.77
509.145	25018.97
509.514	25095.36
509.882	25341.45
510.25	25351.4
510.618	25575.34
510.986	25648.11
511.354	25851.04
511.722	26271.37
512.09	26390.01
512.458	26418.71
512.826	26728.76
513.193	26789.32
513.561	26972.14
513.929	27243.78
514.297	27470.44
514.664	27656.87
515.032	27761.73
515.4	27910.42
515.767	28140.47
516.135	28379.11
516.502	28189.74
516.869	28542.5
517.237	28886.44
517.604	28778.42
517.972	29198.07
518.339	29391.06
518.706	29592.41
519.073	29664.5
519.44	29880.99
519.808	30344.94
520.175	30250.25
520.542	30789.67
520.909	30847.97
521.276	30946.28
521.643	31337.68
522.009	31496.77
522.376	31687.73
522.743	31854.5
523.11	32221.05
523.477	32592.34
523.843	32689.73
524.21	33036.39
524.577	33291.3
524.943	33412.2
525.31	33695.13
525.676	33982.13
526.043	34147.55
526.409	34211.73
526.776	34689.23
527.142	34856.46
527.508	34983.46
527.874	35269.1
528.241	35595.42
528.607	35584.35
528.973	35998.57
529.339	36029.76
529.705	36282.63
530.071	36632.91
530.437	36833.58
530.803	37018.43
531.169	37189.28
531.535	37340.23
531.901	37440.8
532.267	37570.51
532.632	37866.77
532.998	37816.15
533.364	38227.89
533.73	38337.27
534.095	38631.72
534.461	38803.02
534.826	38791.49
535.192	39225.83
535.557	39367.3
535.923	39379.73
536.288	39505.83
536.653	39798.47
537.019	39639.61
537.384	39924.35
537.749	39941.07
538.114	40148.75
538.479	40269.87
538.845	40716.19
539.21	40529.08
539.575	40778.11
539.94	40925.68
540.305	41123.64
540.67	41136.97
541.034	41215.84
541.399	41317.53
541.764	41542.83
542.129	41661.02
542.494	41764.98
542.858	42036.83
543.223	42034.8
543.587	42279.76
543.952	42350.27
544.316	42444.28
544.681	42538.51
545.045	42744.61
545.41	43029.8
545.774	43031.83
546.138	43163.81
546.503	43286.29
546.867	43346.63
547.231	43587.75
547.595	43782.55
547.959	43895.09
548.324	43953.39
548.688	44109.55
549.052	44170.11
549.416	44354.51
549.779	44559.25
550.143	44629.31
550.507	44858
550.871	44889.64
551.235	44923.08
551.599	45354.71
551.962	45357.65
552.326	45611.43
552.689	45827.24
553.053	45674.93
553.417	45622.05
553.78	46250.28
554.143	46121.47
554.507	46364.18
554.87	46531.4
555.234	46962.8
555.597	46763.49
555.96	46794.45
556.323	47166.19
556.686	47182.69
557.05	47530.7
557.413	47617.48
557.776	47643.01
558.139	48016.79
558.502	48033.06
558.865	48061.53
559.228	48476.89
559.59	48517.11
559.953	48666.94
560.316	48956.88
560.679	49051.11
561.041	49247.94
561.404	49372.01
561.767	49625.79
562.129	49627.59
562.492	50016.28
562.854	49835.05
563.217	49986.68
563.579	50172.89
563.941	50425.76
564.304	50581.24
564.666	50743.27
565.028	50816.71
565.39	51015.35
565.753	51191.62
566.115	51245.86
566.477	51486.75
566.839	51482.01
567.201	51771.27
567.563	51683.58
567.925	52048.55
568.287	52009.9
568.648	52018.27
569.01	52322.89
569.372	52468.87
569.734	52279.5
570.095	52587.97
570.457	52708.87
570.819	52832.93
571.18	52788.41
571.542	52955.64
571.903	52955.87
572.265	53151.79
572.626	53270.89
572.987	53349.08
573.349	53364.22
573.71	53579.13
574.071	53513.82
574.432	53594.04
574.794	53861.38
575.155	53877.65
575.516	53760.59
575.877	53948.61
576.238	54000.81
576.599	54070.19
576.96	54160.36
577.32	54148.38
577.681	54189.73
578.042	54367.13
578.403	54262.05
578.763	54381.59
579.124	54520.35
579.485	54484.41
579.845	54548.14
580.206	54469.05
580.566	54647.8
580.927	54544.53
581.287	54705.43
581.648	54518.76
582.008	54690.74
582.368	54650.06
582.728	54698.42
583.089	54765.54
583.449	54741.81
583.809	54714.92
584.169	54830.85
584.529	54713.56
584.889	55018.41
585.249	54684.86
585.609	54701.13
585.969	54890.05
586.329	54770.28
586.688	54813.67
587.048	54705.88
587.408	54751.53
587.768	54845.76
588.127	54679.44
588.487	54730.96
588.846	54916.49
589.206	54775.93
589.565	54805.08
589.925	54881.01
590.284	54843.5
590.643	54931.63
591.003	54844.41
591.362	54982.03
591.721	54939.32
592.08	54927.57
592.44	54965.08
592.799	54998.07
593.158	54957.17
593.517	54956.49
593.876	55011.86
594.235	54974.35
594.593	55034.46
594.952	55113.78
595.311	54970.05
595.67	54985.19
596.029	55180.22
596.387	55201.01
596.746	55188.35
597.104	55110.16
597.463	55124.85
597.822	55240.33
598.18	55095.25
598.538	55062.48
598.897	55269.93
599.255	55023.84
599.613	55460.21
599.972	55197.16
600.33	55303.6
600.688	55232.42
601.046	55315.35
601.404	55437.61
601.762	55323.04
602.12	55456.59
602.478	55463.6
602.836	55499.76
603.194	55315.81
603.552	55476.93
603.91	55303.38
604.268	55522.58
604.625	55430.6
604.983	55522.13
605.341	55460.89
605.698	55614.33
606.056	55687.1
606.413	55582.24
606.771	55755.57
607.128	55796.47
607.485	55629.7
607.843	55683.48
608.2	55814.1
608.557	55907.2
608.914	55829.69
609.272	55966.18
609.629	55942.23
609.986	55960.76
610.343	55917.82
610.7	56143.13
611.057	56038.5
611.414	56025.84
611.771	56066.97
612.127	56110.81
612.484	56174.09
612.841	56219.06
613.198	56188.55
613.554	56225.16
613.911	56395.33
614.267	56219.28
614.624	56244.59
614.98	56325.27
615.337	56368.66
615.693	56293.41
616.05	56320.3
616.406	56471.26
616.762	56391.03
617.118	56270.81
617.475	56413.63
617.831	56484.81
618.187	56461.76
618.543	56503.57
618.899	56640.74
619.255	56627.18
619.611	56540.63
619.967	56633.51
620.323	56643.91
620.678	56510.8
621.034	56498.83
621.39	56452.72
621.746	56472.61
622.101	56802.09
622.457	56461.31
622.812	56598.26
623.168	56623.34
623.523	56660.18
623.879	56741.08
624.234	56548.54
624.589	56617.24
624.945	56633.74
625.3	56673.06
625.655	56672.61
626.01	56654.53
626.365	56666.05
626.72	56602.78
627.075	56600.97
627.43	56602.78
627.785	56522.33
628.14	56609.56
628.495	56657.92
628.85	56558.94
629.205	56464.48
629.559	56619.27
629.914	56439.62
630.269	56508.32
630.623	56438.26
630.978	56330.47
631.332	56413.86
631.687	56507.86
632.041	56351.71
632.396	56413.86
632.75	56222
633.104	56350.35
633.459	56181.32
633.813	56202.34
634.167	56228.32
634.521	56211.6
634.875	56140.64
635.229	56116.91
635.583	55919.41
635.937	56031.04
636.291	55980.87
636.645	55959.18
636.999	55873.3
637.352	55982.45
637.706	55702.46
638.06	55921.67
638.413	55854.1
638.767	55698.17
639.121	55787.88
639.474	55709.69
639.828	55675.34
640.181	55643.71
640.534	55624.05
640.888	55552.41
641.241	55459.08
641.594	55498.4
641.947	55542.47
642.301	55407.33
642.654	55436.93
643.007	55422.47
643.36	55365.97
643.713	55273.77
644.066	55437.16
644.419	55156.49
644.771	55046.21
645.124	54691.64
645.477	54621.81
645.83	54506.56
646.182	54344.31
646.535	54327.36
646.888	54363.29
647.24	54199.9
647.593	54410.97
647.945	54342.95
648.298	54162.84
648.65	54105.67
649.002	53989.29
649.355	54111.09
649.707	54055.5
650.059	54213.46
650.411	54449.61
650.763	54499.1
651.115	54838.53
651.467	54621.81
651.819	54613
652.171	54525.77
652.523	54436.28
652.875	54501.36
653.227	54374.59
653.578	54554.92
653.93	54447.13
654.282	54240.13
654.633	54224.08
654.985	54316.51
655.337	54314.93
655.688	54234.48
656.039	54331.65
656.391	54186.8
656.742	54254.59
657.094	54201.71
657.445	54220.92
657.796	54136.85
658.147	54085.33
658.498	54076.06
658.849	54000.36
659.2	54040.58
659.551	54022.51
659.902	54070.41
660.253	53966.24
660.604	54051.43
660.955	53914.26
661.306	53935.05
661.656	53847.6
662.007	53877.2
662.358	53898.22
662.708	53795.17
663.059	53834.71
663.409	53660.48
663.76	53885.79
664.11	53824.77
664.461	53882.62
664.811	53847.82
665.161	53750.2
665.511	53656.19
665.862	53789.52
666.212	53816.64
666.562	53697.99
666.912	53702.06
667.262	53634.04
667.612	53631.56
667.962	53708.16
668.312	53656.87
668.662	53702.74
669.011	53557.43
669.361	53458.91
669.711	53417.78
670.06	53436.98
670.41	53441.73
670.76	53401.05
671.109	53498.68
671.459	53371
671.808	53358.12
672.157	53442.86
672.507	53142.98
672.856	53218.01
673.205	53221.17
673.554	53329.19
673.904	53137.56
674.253	53279.25
674.602	53229.53
674.951	52803.1
675.3	52591.13
675.649	53089.42
675.998	53022.53
676.346	53093.04
676.695	53100.27
677.044	52921.52
677.393	52964.68
677.741	53028.86
678.09	52879.94
678.438	52872.25
678.787	52844.01
679.135	52879.26
679.484	52708.64
679.832	52774.4
680.181	52574.18
680.529	52728.08
680.877	52518.59
681.225	52580.74
681.573	52664.8
681.922	52420.97
682.27	52368.09
682.618	52429.78
682.966	52244.7
683.314	52398.59
683.661	52246.96
684.009	52126.28
684.357	51997.25
684.705	51922
685.053	52004.03
685.4	51972.39
685.748	51864.82
686.095	51781.89
686.443	51648.78
686.79	51568.11
687.138	51524.04
687.485	51502.35
687.832	51375.8
688.18	51463.03
688.527	51250.6
688.874	51272.97
689.221	51201.79
689.568	51092.41
689.915	50945.75
690.262	50904.4
690.609	50895.81
690.956	50737.39
691.303	50722.48
691.65	50550.51
691.997	50512.09
692.344	50276.62
692.69	50274.13
693.037	50296.05
693.383	50073.01
693.73	50021.93
694.077	49820.13
694.423	49884.54
694.769	49785.1
695.116	49588.72
695.462	49639.57
695.808	49440.93
696.155	49464.89
696.501	49202.97
696.847	49186.48
697.193	48948.29
697.539	49170.66
697.885	48858.8
698.231	48636.88
698.577	48702.87
698.923	48658.81
699.269	48449.32
699.614	48205.48
699.96	48299.49
700.306	48278.25
700.651	47976.11
700.997	47862.89
701.342	47847.75
701.688	47778.6
702.033	47666.52
702.379	47669.23
702.724	47523.24
703.069	47379.52
703.415	47113.08
703.76	47137.26
704.105	47064.04
704.45	47066.76
704.795	46732.75
705.14	46661.57
705.485	46657.28
705.83	46362.59
706.175	46466.55
706.52	46321.69
706.865	46136.16
707.209	46162.15
707.554	46093.22
707.899	46169.38
708.243	45767.58
708.588	45794.02
708.932	45404.65
709.277	45482.17
709.621	45570.98
709.966	45312.23
710.31	45342.06
710.654	44853.03
710.998	45109.97
711.342	45161.72
711.687	44957.89
712.031	44659.81
712.375	44611.68
712.719	44709.53
713.063	44521.29
713.407	44545.24
713.75	44452.36
714.094	44401.74
714.438	44291.24
714.782	44244.01
715.125	44068.64
715.469	44048.76
715.812	43878.59
716.156	43581.65
716.499	43644.02
716.843	43780.29
717.186	43414.65
717.53	43597.24
717.873	43562.22
718.216	43349.57
718.559	43199.97
718.902	42888.34
719.246	43056.01
719.589	42853.99
719.932	42867.09
720.275	42899.41
720.617	42702.35
720.96	42719.75
721.303	42661.45
721.646	42664.39
721.989	42416.94
722.331	42479.76
722.674	42470.72
723.016	42370.61
723.359	42148.24
723.701	42141.46
724.044	41983.27
724.386	41767.24
724.729	41964.29
725.071	41858.08
725.413	41809.72
725.755	41756.16
726.097	41532.44
726.439	41579.9
726.782	41435.49
727.124	41532.21
727.465	41340.35
727.807	41313.01
728.149	41113.69
728.491	41045.67
728.833	41184.65
729.175	40996.41
729.516	40812.46
729.858	40951.21
730.199	40911.66
730.541	40753.48
730.882	40595.74
731.224	40744.44
731.565	40564.78
731.906	40459.02
732.248	40510.09
732.589	40241.17
732.93	40118.69
733.271	40162.76
733.612	40227.84
733.953	40276.2
734.294	39997.79
734.635	39931.8
734.976	40030.56
735.317	39758.02
735.658	39678.93
735.999	39697.01
736.339	39549.67
736.68	39544.92
737.021	39645.93
737.361	39371.37
737.702	39611.36
738.042	39335.21
738.383	39265.61
738.723	39444.36
739.063	39186.06
739.404	39222.22
739.744	39140.86
740.084	38946.74
740.424	38982.45
740.764	38834.88
741.104	38939.29
741.444	38751.27
741.784	38669.69
742.124	38727.99
742.464	38734.55
742.804	38545.62
743.143	38526.64
743.483	38377.27
743.823	38300.43
744.162	38267.21
744.502	38201
744.841	38112.64
745.181	38092.53
745.52	38056.15
745.86	38054.11
746.199	37880.33
746.538	37916.26
746.877	37984.51
747.216	37892.08
747.556	37497.52
747.895	37694.57
748.234	37622.49
748.573	37406.22
748.911	37393.56
749.25	37436.95
749.589	37193.34
749.928	37316.96
750.267	37320.35
750.605	36958.32
750.944	37006.23
751.283	36885.1
751.621	37050.3
751.96	36627.26
752.298	36737.31
752.636	36690.31
752.975	36475.17
753.313	36376.19
753.651	36656.41
753.989	36284.44
754.327	36213.71
754.666	36084.45
755.004	36053.94
755.342	36065.69
755.679	35930.1
756.017	35681.29
756.355	35710.22
756.693	35639.49
757.031	35707.06
757.368	35457.34
757.706	35357.23
758.044	35249.67
758.381	35203.79
758.719	35067.07
759.056	35005.38
759.394	34949.79
759.731	34733.97
760.068	34684.48
760.405	34623.02
760.743	34436.13
761.08	34583.92
761.417	34289.24
761.754	34245.62
762.091	34134.44
762.428	34030.72
762.765	33877.27
763.102	33900.32
763.438	33678.86
763.775	33533.33
764.112	33639.77
764.449	33630.73
764.785	33401.35
765.122	33266.67
765.458	33122.26
765.795	33043.17
766.131	33124.52
766.467	32937.64
766.804	32670.75
767.14	32550.53
767.476	32512.56
767.812	32360.7
768.148	32419.01
768.485	32155.74
768.821	32016.53
769.157	31861.96
769.492	31788.29
769.828	31855.41
770.164	31525.47
770.5	31430.11
770.836	31398.69
771.171	31264.23
771.507	31287.06
771.842	30851.82
772.178	30888.2
772.513	30873.96
772.849	30788.31
773.184	30719.39
773.519	30602.78
773.855	30412.96
774.19	30400.53
774.525	30274.88
774.86	30209.57
775.195	30120.31
775.53	30104.04
775.865	29859.3
776.2	29628.35
776.535	29364.85
776.87	29427.9
777.205	29271.74
777.539	29126.66
777.874	29215.25
778.209	29040.79
778.543	28928.93
778.878	28790.4
779.212	28774.36
779.547	28437.19
779.881	28573.23
780.215	28351.54
780.55	28469.96
780.884	28292.56
781.218	28167.14
781.552	28126.01
781.886	27976.86
782.22	27818
782.554	27699.58
782.888	27452.81
783.222	27297.33
783.556	27286.26
783.889	27267.28
784.223	27081.52
784.557	27034.29
784.89	27070.45
785.224	26835.65
785.557	26729.21
785.891	26708.65
786.224	26520.4
786.558	26629.1
786.891	26224.82
787.224	26291.94
787.557	26143.69
787.891	26129.23
788.224	26024.6
788.557	26007.88
788.89	25890.82
789.223	25857.14
789.556	25636.13
789.888	25595.91
790.221	25543.93
790.554	25296.03
790.887	25262.81
791.219	25246.09
791.552	25116.83
791.884	25041.8
792.217	24956.83
792.549	24876.15
792.882	24793.9
793.214	24580.79
793.546	24689.72
793.879	24403.62
794.211	24381.93
794.543	24446.56
794.875	24271.88
795.207	24259.9
795.539	24203.4
795.871	24147.81
796.203	23999.11
796.535	23728.84
796.867	23763.64
797.198	23753.25
797.53	23639.12
797.862	23508.28
798.193	23625.11
798.525	23414.95
798.856	23434.16
799.188	23203.88
799.519	23179.02
799.85	22956.88
800.182	23016.99
800.513	22986.49
800.844	22726.38
801.175	22978.58
801.506	22807.96
801.837	22675.99
802.168	22608.42
802.499	22526.39
802.83	22440.96
803.161	22347.63
803.491	22441.87
803.822	22375.43
804.153	22260.18
804.483	22119.62
804.814	21939.96
805.145	21926.17
805.475	21831.94
805.805	21856.57
806.136	21834.88
806.466	21811.83
806.796	21859.74
807.126	21595.79
807.457	21488.45
807.787	21529.8
808.117	21463.81
808.447	21358.05
808.777	21280.32
809.107	21304.5
809.436	21146.08
809.766	21048.01
810.096	21111.73
810.426	20955.35
810.755	21117.16
811.085	20932.75
811.414	20864.73
811.744	20747.45
812.073	20739.09
812.403	20678.75
812.732	20617.51
813.061	20596.72
813.39	20473.56
813.719	20415.93
814.049	20462.26
814.378	20359.21
814.707	20268.59
815.036	20239.44
815.365	20161.7
815.693	19916.51
816.022	20014.81
816.351	19934.59
816.68	19834.03
817.008	19844.87
817.337	19733.92
817.665	19613.92
817.994	19787.47
818.322	19771.66
818.651	19564.88
818.979	19535.28
819.307	19621.38
819.636	19508.39
819.964	19436.07
820.292	19395.17
820.62	19368.05
820.948	19396.07
821.276	19435.17
821.604	19312.91
821.932	19440.82
822.259	19369.86
822.587	19396.98
822.915	19210.77
823.243	19411.44
823.57	19252.57
823.898	19368.73
824.225	19316.07
824.553	19227.04
824.88	19194.04
825.207	19400.14
825.535	19169.41
825.862	19291.44
826.189	19240.14
826.516	19313.14
826.843	19232.01
827.17	19351.55
827.497	19292.35
827.824	19224.55
828.151	19340.25
828.478	19177.55
828.805	19267.26
829.131	19299.8
829.458	19164.44
829.785	19128.96
830.111	19177.32
830.438	19197.66
830.764	19203.76
831.09	19216.87
831.417	19203.99
831.743	19087.15
832.069	19130.54
832.395	19066.14
832.722	19083.09
833.048	19102.97
833.374	19006.48
833.7	18918.34
834.026	18957.44
834.351	19089.87
834.677	18964.44
835.003	19022.97
835.329	19086.02
835.654	18987.04
835.98	18867.05
836.306	18841.28
836.631	18725.81
836.956	18791.34
837.282	18789.08
837.607	18756.77
837.932	18661.85
838.258	18645.13
838.583	18779.14
838.908	18439.71
839.233	18526.49
839.558	18516.1
839.883	18440.16
840.208	18430.22
840.533	18373.73
840.858	18429.54
841.182	18465.02
841.507	18403.78
841.832	18121.53
842.156	18258.47
842.481	18172.83
842.805	18155.43
843.13	18096.67
843.454	18076.56
843.778	18045.15
844.103	17985.71
844.427	17980.29
844.751	17934.19
845.075	17830.24
845.399	17850.12
845.723	17718.15
846.047	17776.91
846.371	17572.62
846.695	17619.4
847.019	17449.91
847.343	17383.92
847.666	17187.77
847.99	17202.46
848.313	17142.12
848.637	17075.45
848.96	17094.89
849.284	16922.92
849.607	16894.44
849.931	16865.97
850.254	16723.15
850.577	16579.87
850.9	16510.72
851.223	16498.75
851.546	16476.83
851.869	16331.07
852.192	16373.33
852.515	16208.36
852.838	16195.7
853.161	16201.13
853.483	16119.77
853.806	15983.05
854.129	15990.74
854.451	15910.74
854.774	15847.69
855.096	15884.07
855.419	15724.3
855.741	15740.35
856.063	15710.75
856.385	15642.05
856.708	15564.08
857.03	15543.29
857.352	15427.81
857.674	15389.85
857.996	15363.64
858.318	15337.65
858.64	15238.89
858.961	15287.48
859.283	15230.08
859.605	15072.12
859.926	15166.8
860.248	15117.77
860.57	14985.79
860.891	15058.78
861.212	14937.21
861.534	14906.47
861.855	14863.54
862.176	14904.44
862.498	14949.41
862.819	14829.19
863.14	14751.9
863.461	14713.71
863.782	14644.56
864.103	14729.3
864.424	14615.18
864.745	14748.28
865.065	14629.87
865.386	14630.77
865.707	14518.01
866.027	14545.8
866.348	14500.38
866.668	14516.65
866.989	14376.09
867.309	14404.34
867.63	14359.82
867.95	14372.02
868.27	14237.11
868.59	14304
868.91	14245.92
869.23	14188.3
869.55	14209.77
869.87	14245.02
870.19	14147.17
870.51	14162.09
870.83	14179.26
871.15	14052.03
871.469	14026.27
871.789	14057.23
872.109	14100.84
872.428	13915.76
872.748	13976.78
873.067	14014.52
873.386	13991.24
873.706	14027.63
874.025	13957.34
874.344	13821.76
874.663	13932.71
874.982	13897.01
875.301	13864.47
875.62	13734.98
875.939	13751.93
876.258	13750.57
876.577	13685.26
876.896	13719.39
877.214	13612.72
877.533	13621.53
877.852	13588.09
878.17	13661.76
878.489	13580.86
878.807	13552.61
879.125	13492.95
879.444	13532.05
879.762	13430.13
880.08	13454.08
880.398	13362.33
880.716	13441.2
881.034	13428.09
881.352	13395.33
881.67	13370.47
881.988	13319.17
882.306	13238.72
882.624	13227.87
882.941	13152.62
883.259	13153.07
883.577	13110.59
883.894	13069.91
884.212	13048.22
884.529	13034.66
884.846	13049.8
885.164	12979.29
885.481	12928.9
885.798	12938.61
886.115	12839.63
886.432	12903.14
886.75	12838.96
887.067	12838.05
887.383	12766.87
887.7	12794.89
888.017	12676.02
888.334	12738.17
888.651	12656.14
888.967	12635.57
889.284	12460.89
889.6	12537.72
889.917	12389.48
890.233	12507.89
890.55	12362.36
890.866	12401.91
891.182	12342.7
891.498	12330.49
891.815	12236.26
892.131	12194.68
892.447	12253.66
892.763	12109.03
893.079	12141.12
893.395	12063.38
893.71	11998.98
894.026	11989.04
894.342	12049.6
894.657	11909.49
894.973	11833.11
895.289	11949.71
895.604	11851.41
895.92	11735.48
896.235	11715.14
896.55	11647.12
896.865	11653.22
897.181	11610.97
897.496	11636.73
897.811	11550.63
898.126	11473.79
898.441	11405.1
898.756	11401.48
899.071	11341.82
899.386	11376.85
899.7	11323.74
900.015	11225.67
900.33	11232.22
900.644	11153.35
900.959	11100.02
901.273	11124.43
901.588	11016.63
901.902	10963.3
902.216	10943.86
902.531	10891.66
902.845	10912.23
903.159	10790.2
903.473	10769.41
903.787	10704.78
904.101	10656.64
904.415	10724.21
904.729	10591.78
905.042	10620.03
905.356	10543.65
905.67	10561.95
905.984	10468.85
906.297	10479.92
906.611	10371.22
906.924	10380.72
907.237	10301.62
907.551	10274.05
907.864	10305.24
908.177	10211
908.491	10225.47
908.804	10090.33
909.117	10109.31
909.43	10047.84
909.743	9964
910.056	9959.94
910.368	9947.51
910.681	9877.23
910.994	9805.14
911.307	9760.62
911.619	9705.93
911.932	9773.27
912.244	9635.2
912.557	9643.11
912.869	9601.3
913.181	9535.54
913.494	9540.96
913.806	9471.81
914.118	9461.19
914.43	9348.88
914.742	9339.39
915.054	9313.4
915.366	9303
915.678	9216.68
915.99	9185.72
916.302	9144.59
916.613	9107.75
916.925	9070.69
917.236	9081.77
917.548	9013.52
917.859	9019.17
918.171	8889
918.482	8862.56
918.794	8882.68
919.105	8813.98
919.416	8735.56
919.727	8742.57
920.038	8734.88
920.349	8683.59
920.66	8607.88
920.971	8637.71
921.282	8514.55
921.593	8460.31
921.903	8476.59
922.214	8484.95
922.525	8357.04
922.835	8390.94
923.146	8280.66
923.456	8320.66
923.767	8248.12
924.077	8231.62
924.387	8204.73
924.697	8154.33
925.008	8105.75
925.318	8124.05
925.628	8075.24
925.938	7988.46
926.248	7996.15
926.558	7896.26
926.867	7890.39
927.177	7909.82
927.487	7804.06
927.796	7804.51
928.106	7719.54
928.416	7741.92
928.725	7726.1
929.034	7697.62
929.344	7670.96
929.653	7540.34
929.962	7527.91
930.271	7511.86
930.581	7476.39
930.89	7427.35
931.199	7405.2
931.508	7397.07
931.817	7368.14
932.125	7319.78
932.434	7261.25
932.743	7160.69
933.051	7242.72
933.36	7154.59
933.669	7072.78
933.977	7119.33
934.286	7073.68
934.594	7037.98
934.902	7032.56
935.21	7031.88
935.519	6955.5
935.827	6905.78
936.135	6917.76
936.443	6830.07
936.751	6794.6
937.059	6789.4
937.367	6725.9
937.674	6752.11
937.982	6705.33
938.29	6692
938.597	6692.23
938.905	6675.5
939.213	6561.38
939.52	6561.16
939.827	6517.09
940.135	6540.82
940.442	6467.82
940.749	6456.75
941.056	6444.55
941.363	6389.86
941.67	6386.7
941.977	6375.17
942.284	6284.33
942.591	6305.57
942.898	6294.72
943.205	6252.24
943.511	6192.8
943.818	6177.44
944.125	6128.85
944.431	6101.05
944.738	6115.07
945.044	6123.2
945.35	6061.51
945.657	6024.22
945.963	5969.98
946.269	5934.73
946.575	6000.04
946.881	5911.91
947.187	5857.67
947.493	5825.13
947.799	5842.08
948.105	5796.66
948.41	5761.63
948.716	5743.78
949.022	5763.66
949.327	5671.46
949.633	5638.24
949.938	5666.72
950.244	5643.44
950.549	5587.4
950.854	5550.56
951.16	5570.45
951.465	5482.31
951.77	5467.62
952.075	5442.77
952.38	5474.18
952.685	5445.7
952.99	5384.01
953.294	5409.77
953.599	5310.34
953.904	5332.49
954.209	5247.74
954.513	5284.58
954.818	5273.96
955.122	5213.62
955.426	5213.17
955.731	5207.52
956.035	5142.66
956.339	5118.26
956.643	5153.96
956.948	5105.37
957.252	5060.86
957.556	5070.12
957.86	5029.67
958.163	5067.18
958.467	5011.59
958.771	5038.26
959.075	4983.34
959.378	4900.41
959.682	4899.73
959.985	4881.43
960.289	4829
960.592	4893.4
960.896	4798.26
961.199	4774.54
961.502	4802.33
961.805	4730.47
962.108	4701.32
962.411	4711.26
962.714	4675.1
963.017	4638.04
963.32	4666.74
963.623	4647.31
963.926	4615.9
964.228	4568.67
964.531	4550.13
964.833	4569.34
965.136	4527.08
965.438	4486.63
965.741	4455.22
966.043	4488.89
966.345	4443.47
966.648	4417.71
966.95	4379.07
967.252	4315.79
967.554	4393.98
967.856	4303.81
968.158	4284.83
968.46	4288.22
968.761	4239.41
969.063	4271.27
969.365	4252.74
969.666	4239.86
969.968	4148.79
970.269	4208
970.571	4168.45
970.872	4144.95
971.174	4139.52
971.475	4100.65
971.776	4078.51
972.077	4033.54
972.378	4052.07
972.679	4029.47
972.98	4020.43
973.281	3968.68
973.582	3955.57
973.883	3916.48
974.183	3898.4
974.484	3916.03
974.785	3917.38
975.085	3899.98
975.386	3902.47
975.686	3875.12
975.986	3822.02
976.287	3824.05
976.587	3812.75
976.887	3780.21
977.187	3791.96
977.487	3715.35
977.787	3760.55
978.087	3720.1
978.387	3680.78
978.687	3721.23
978.987	3662.02
979.286	3660.67
979.586	3640.1
979.885	3619.09
980.185	3586.09
980.484	3572.31
980.784	3535.02
981.083	3545.87
981.382	3520.78
981.682	3510.16
981.981	3482.82
982.28	3519.65
982.579	3487.56
982.878	3497.05
983.177	3447.56
983.475	3439.66
983.774	3396.49
984.073	3408.02
984.372	3356.95
984.67	3365.31
984.969	3357.4
985.267	3324.63
985.566	3261.13
985.864	3290.51
986.162	3305.87
986.461	3265.42
986.759	3251.41
987.057	3246.44
987.355	3222.03
987.653	3179.55
987.951	3175.48
988.249	3195.37
988.547	3158.98
988.844	3155.82
989.142	3131.64
989.44	3122.38
989.737	3120.57
990.035	3065.65
990.332	3077.63
990.63	3079.89
990.927	3060.23
991.224	3043.51
991.521	2996.96
991.819	2978.2
992.116	3001.7
992.413	2945.43
992.71	2944.75
993.006	2937.52
993.303	2925.77
993.6	2898.2
993.897	2896.62
994.193	2933.68
994.49	2873.12
994.787	2840.58
995.083	2807.36
995.379	2833.12
995.676	2805.32
995.972	2766
996.268	2746.11
996.565	2759.22
996.861	2714.48
997.157	2720.8
997.453	2699.11
997.749	2700.69
998.044	2650.98
998.34	2694.36
998.636	2657.3
998.932	2671.99
999.227	2614.59
999.523	2601.03
999.818	2582.73
1000.114	2597.87
1000.409	2602.16
1000.704	2570.07
1001	2537.08
1001.295	2520.58
1001.59	2519.91
1001.885	2463.86
1002.18	2462.73
1002.475	2491.43
1002.77	2464.77
1003.065	2450.98
1003.359	2445.56
1003.654	2427.03
1003.949	2403.07
1004.243	2418.21
1004.538	2404.65
1004.832	2405.11
1005.127	2391.32
1005.421	2337.76
1005.715	2335.96
1006.009	2331.89
1006.304	2287.14
1006.598	2253.02
1006.892	2294.83
1007.186	2248.5
1007.48	2226.13
1007.773	2234.72
1008.067	2231.78
1008.361	2198.33
1008.655	2182.97
1008.948	2181.16
1009.242	2181.61
1009.535	2144.55
1009.829	2132.57
1010.122	2128.96
1010.415	2150.88
1010.708	2080.6
1011.001	2107.71
1011.295	2105
1011.588	2065.23
1011.881	2051.44
1012.173	2043.31
1012.466	2039.92
1012.759	2036.98
1013.052	2004.21
1013.344	1962.41
1013.637	1954.5
1013.93	1963.08
1014.222	1956.98
1014.514	1939.81
1014.807	1932.35
1015.099	1954.95
1015.391	1918.57
1015.683	1912.69
1015.976	1872.92
1016.268	1865.91
1016.56	1857.32
1016.851	1836.76
1017.143	1827.27
1017.435	1797.89
1017.727	1823.88
1018.018	1793.82
1018.31	1773.26
1018.602	1787.72
1018.893	1779.36
1019.185	1744.11
1019.476	1740.26
1019.767	1717.67
1020.058	1727.61
1020.35	1725.58
1020.641	1705.24
1020.932	1704.56
1021.223	1663.66
1021.514	1658.01
1021.804	1639.25
1022.095	1630.89
1022.386	1610.55
1022.677	1611
1022.967	1633.15
1023.258	1589.53
1023.548	1554.96
1023.839	1568.07
1024.129	1547.28
1024.419	1578.69
1024.709	1538.69
1025	1511.8
1025.29	1517.22
1025.58	1524.68
1025.87	1503.66
1026.16	1477.22
1026.449	1495.75
1026.739	1470.89
1027.029	1453.27
1027.319	1462.08
1027.608	1452.14
1027.898	1407.17
1028.187	1428.41
1028.477	1419.37
1028.766	1410.1
1029.055	1407.17
1029.344	1382.99
1029.634	1363.33
1029.923	1374.4
1030.212	1345.02
1030.501	1322.65
1030.79	1313.16
1031.078	1347.28
1031.367	1301.41
1031.656	1278.58
1031.945	1298.92
1032.233	1288.53
1032.522	1286.04
1032.81	1273.16
1033.099	1241.3
1033.387	1250.11
1033.675	1238.58
1033.963	1239.04
1034.251	1227.96
1034.54	1240.84
1034.828	1196.55
1035.116	1214.63
1035.403	1186.38
1035.691	1162.2
1035.979	1181.18
1036.267	1168.98
1036.554	1144.8
1036.842	1176.89
1037.129	1152.26
1037.417	1137.57
1037.704	1110
1037.992	1135.54
1038.279	1105.03
1038.566	1112.94
1038.853	1112.94
1039.14	1112.94
