Data from white_wall_FLMS001491_074.txt Node
Date: Tue Feb 07 11:05:45 GMT 2017
User: dcchb
Spectrometer: FLMS00149
Trigger mode: 0
Integration Time (sec): 2.000000E-2
Scans to average: 10
Electric dark correction enabled: true
Nonlinearity correction enabled: false
Boxcar width: 0
XAxis mode: Wavelengths
Number of Pixels in Spectrum: 2048
>>>>>Begin Spectral Data<<<<<
341.393	-10.38
341.776	-10.38
342.16	-10.38
342.543	-49.93
342.927	-70.49
343.31	-71.62
343.693	-46.31
344.077	-67.33
344.46	-76.14
344.843	-32.3
345.226	-34.34
345.61	-36.14
345.993	-1.57
346.376	15.83
346.759	-0.21
347.142	35.95
347.525	17.64
347.908	57.87
348.291	42.72
348.674	93.12
349.057	102.84
349.44	123.17
349.823	135.83
350.206	172.66
350.588	199.33
350.971	240.91
351.354	243.17
351.737	251.98
352.119	257.41
352.502	263.28
352.884	298.99
353.267	289.05
353.65	291.31
354.032	306.45
354.414	305.77
354.797	331.53
355.179	323.62
355.562	336.95
355.944	337.86
356.326	344.41
356.709	340.12
357.091	356.84
357.473	356.61
357.855	363.62
358.238	361.59
358.62	347.12
359.002	333.11
359.384	345.32
359.766	360.46
360.148	355.71
360.53	358.42
360.912	327.69
361.294	348.71
361.676	338.31
362.057	340.12
362.439	340.34
362.821	344.19
363.203	345.54
363.584	352.32
363.966	339.67
364.348	365.43
364.729	327.92
365.111	333.79
365.493	331.98
365.874	330.17
366.256	340.57
366.637	333.56
367.019	339.67
367.4	318.65
367.781	339.21
368.163	340.34
368.544	335.15
368.925	341.47
369.306	351.64
369.688	341.7
370.069	323.17
370.45	338.99
370.831	322.72
371.212	324.75
371.593	330.17
371.974	340.8
372.355	354.58
372.736	339.21
373.117	341.47
373.498	341.47
373.879	343.73
374.26	333.79
374.641	341.02
375.021	332.66
375.402	323.4
375.783	333.11
376.163	367.46
376.544	367.91
376.925	361.13
377.305	359.1
377.686	356.39
378.066	338.08
378.447	327.24
378.827	351.42
379.208	361.81
379.588	352.1
379.968	354.36
380.349	373.56
380.729	364.98
381.109	355.49
381.489	369.72
381.87	368.59
382.25	374.47
382.63	378.08
383.01	379.44
383.39	366.11
383.77	374.47
384.15	391.42
384.53	380.34
384.91	402.72
385.29	414.24
385.67	382.83
386.049	394.58
386.429	384.41
386.809	403.62
387.189	397.07
387.568	410.85
387.948	426.44
388.328	398.2
388.707	427.8
389.087	431.64
389.466	442.49
389.846	427.57
390.225	418.76
390.605	437.29
390.984	448.82
391.363	449.49
391.743	453.34
392.122	444.97
392.501	489.94
392.881	472.77
393.26	493.56
393.639	481.81
394.018	502.6
394.397	512.77
394.776	521.36
395.155	524.97
395.534	523.39
395.913	517.06
396.292	537.85
396.671	549.15
397.05	531.07
397.429	571.3
397.808	559.77
398.186	557.29
398.565	571.75
398.944	577.17
399.323	609.04
399.701	586.89
400.08	592.99
400.458	610.17
400.837	644.97
401.215	641.13
401.594	664.86
401.972	666.44
402.351	651.97
402.729	683.39
403.107	702.37
403.486	709.6
403.864	711.41
404.242	706.44
404.62	710.05
404.999	744.63
405.377	776.72
405.755	758.19
406.133	799.54
406.511	804.74
406.889	809.71
407.267	845.64
407.645	847
408.023	874.12
408.401	894.68
408.779	893.1
409.156	906.66
409.534	893.1
409.912	938.52
410.29	955.47
410.667	974.23
411.045	962.02
411.422	988.01
411.8	1040.44
412.178	1031.63
412.555	1054.22
412.933	1052.42
413.31	1090.15
413.687	1087.44
414.065	1119.53
414.442	1118.63
414.819	1135.58
415.197	1152.3
415.574	1194.33
415.951	1173.77
416.328	1158.85
416.705	1208.12
417.082	1210.15
417.46	1239.53
417.837	1215.8
418.214	1242.92
418.591	1260.77
418.967	1287.21
419.344	1315.91
419.721	1328.57
420.098	1311.17
420.475	1339.41
420.852	1364.5
421.228	1371.73
421.605	1371.73
421.982	1418.73
422.358	1425.06
422.735	1397.27
423.111	1440.43
423.488	1443.59
423.864	1466.19
424.241	1520.88
424.617	1527.21
424.994	1519.52
425.37	1556.13
425.746	1537.6
426.123	1567.66
426.499	1596.36
426.875	1594.77
427.251	1642.23
427.627	1677.71
428.003	1660.76
428.379	1690.14
428.756	1706.86
429.132	1760.87
429.507	1764.71
429.883	1806.52
430.259	1817.14
430.635	1838.84
431.011	1835.9
431.387	1875.9
431.763	1938.27
432.138	1934.43
432.514	1988.44
432.89	1997.02
433.265	2040.41
433.641	2044.48
434.016	2077.02
434.392	2094.87
434.767	2147.53
435.143	2154.53
435.518	2143.91
435.894	2209.9
436.269	2221.65
436.644	2234.31
437.02	2267.98
437.395	2282.44
437.77	2305.26
438.145	2360.18
438.52	2381.87
438.895	2382.1
439.271	2414.64
439.646	2446.73
440.021	2493.28
440.395	2484.69
440.77	2449.44
441.145	2499.61
441.52	2581.64
441.895	2537.57
442.27	2591.81
442.645	2581.19
443.019	2644.24
443.394	2639.04
443.769	2671.58
444.143	2667.74
444.518	2712.71
444.892	2710.68
445.267	2740.73
445.641	2779.15
446.016	2785.7
446.39	2806.04
446.764	2809.66
447.139	2842.65
447.513	2883.55
447.887	2890.33
448.262	2910.9
448.636	2910.9
449.01	2980.95
449.384	2994.06
449.758	2998.81
450.132	3063.21
450.506	3084.45
450.88	3128.75
451.254	3098.46
451.628	3168.74
452.002	3189.76
452.376	3196.09
452.75	3280.15
453.123	3298.46
453.497	3371.68
453.871	3378.23
454.244	3414.39
454.618	3458
454.992	3484.22
455.365	3525.57
455.739	3603.08
456.112	3631.56
456.486	3657.09
456.859	3716.07
457.232	3795.17
457.606	3739.35
457.979	3846.24
458.352	3887.14
458.725	3922.4
459.099	3942.06
459.472	4087.82
459.845	4092.56
460.218	4111.77
460.591	4154.71
460.964	4168.04
461.337	4284.65
461.71	4351.09
462.083	4432.21
462.456	4458.2
462.829	4450.74
463.201	4577.07
463.574	4555.15
463.947	4657.74
464.32	4737.29
464.692	4805.09
465.065	4801.92
465.438	4872.43
465.81	4990.84
466.183	5069.49
466.555	5164.62
466.928	5195.58
467.3	5196.49
467.672	5223.15
468.045	5379.76
468.417	5401
468.789	5435.13
469.161	5530.04
469.534	5626.98
469.906	5760.31
470.278	5800.09
470.65	5846.41
471.022	5991.27
471.394	6064.94
471.766	6126.41
472.138	6293.86
472.51	6356.91
472.882	6450.24
473.253	6529.79
473.625	6646.39
473.997	6796.9
474.369	6847.97
474.74	6915.54
475.112	7058.13
475.484	7140.39
475.855	7306.04
476.227	7363.44
476.598	7575.86
476.97	7693.15
477.341	7806.81
477.713	7976.08
478.084	8015.62
478.455	8267.82
478.827	8293.13
479.198	8513.01
479.569	8536.06
479.94	8826
480.311	8958.87
480.682	9054.01
481.053	9252.2
481.424	9470.27
481.795	9564.51
482.166	9711.62
482.537	9873.43
482.908	10075.23
483.279	10169.01
483.65	10327.65
484.021	10624.14
484.391	10735.55
484.762	10822.78
485.133	10932.16
485.503	11079.72
485.874	11346.61
486.244	11449.66
486.615	11647.39
486.985	11747.95
487.356	11998.34
487.726	12063.43
488.097	12335.28
488.467	12369.86
488.837	12653.92
489.207	12848.26
489.578	12975.94
489.948	13137.75
490.318	13371.41
490.688	13365.31
491.058	13694.34
491.428	13787
491.798	13945.64
492.168	14259.53
492.538	14373.42
492.908	14504.94
493.278	14698.38
493.648	14728.67
494.017	14917.36
494.387	15094.53
494.757	15266.28
495.126	15316
495.496	15499.49
495.866	15598.7
496.235	15683.22
496.605	15866.94
496.974	15964.79
497.344	16166.59
497.713	16336.08
498.082	16413.59
498.452	16579.92
498.821	16641.84
499.19	16833.92
499.559	16925.67
499.928	17082.28
500.298	17210.86
500.667	17466.22
501.036	17349.16
501.405	17594.81
501.774	17659.44
502.143	17830.05
502.512	17955.25
502.88	18010.84
503.249	18195.92
503.618	18336.03
503.987	18409.02
504.356	18502.13
504.724	18637.04
505.093	18867.99
505.462	18861.89
505.83	19109.34
506.199	19318.6
506.567	19455.32
506.936	19511.82
507.304	19731.7
507.672	19837.46
508.041	19987.29
508.409	20169.65
508.777	20395.64
509.145	20466.82
509.514	20474.5
509.882	20700.49
510.25	20908.16
510.618	20959.46
510.986	21044.43
511.354	21282.62
511.722	21433.57
512.09	21691.87
512.458	21641.03
512.826	21933.22
513.193	22031.98
513.561	22127.57
513.929	22334.12
514.297	22636.03
514.664	22626.09
515.032	22791.28
515.4	22918.96
515.767	23144.26
516.135	23296.35
516.502	23148.11
516.869	23622.67
517.237	23758.26
517.604	23721.88
517.972	23972.72
518.339	24216.78
518.706	24218.36
519.073	24529.76
519.44	24701.29
519.808	24897.66
520.175	24941.28
520.542	25192.35
520.909	25362.51
521.276	25443.41
521.643	25806.79
522.009	25991.42
522.376	26066.22
522.743	26326.78
523.11	26535.36
523.477	26862.36
523.843	26888.8
524.21	27162.69
524.577	27240.65
524.943	27450.59
525.31	27698.95
525.676	27894.42
526.043	28111.37
526.409	28102.78
526.776	28625.7
527.142	28596.32
527.508	28740.73
527.874	29149.76
528.241	29182.52
528.607	29276.53
528.973	29520.14
529.339	29644.66
529.705	29820.25
530.071	30047.13
530.437	30159.9
530.803	30393.79
531.169	30588.59
531.535	30517.18
531.901	30790.16
532.267	30937.28
532.632	31198.52
532.998	31243.71
533.364	31340.21
533.73	31510.15
534.095	31750.82
534.461	31991.04
534.826	32062.67
535.192	32218.6
535.557	32277.13
535.923	32311.93
536.288	32488.43
536.653	32736.78
537.019	32707.4
537.384	32907.17
537.749	33071.91
538.114	33313.71
538.479	33351.68
538.845	33371.57
539.21	33461.06
539.575	33647.49
539.94	33811.78
540.305	33805.68
540.67	33783.53
541.034	33986.92
541.399	34202.96
541.764	34382.39
542.129	34632.55
542.494	34686.79
542.858	34706.45
543.223	34844.97
543.587	35131.07
543.952	34973.11
544.316	35187.56
544.681	35259.43
545.045	35456.03
545.41	35581.9
545.774	35764.5
546.138	35806.98
546.503	35970.59
546.867	36077.03
547.231	36319.74
547.595	36487.64
547.959	36576
548.324	36664.81
548.688	36632.95
549.052	36792.72
549.416	37063.22
549.779	37107.96
550.143	37168.3
550.507	37625.69
550.871	37658.46
551.235	37690.55
551.599	38145.23
551.962	38143.42
552.326	38140.71
552.689	38499.11
553.053	38235.84
553.417	38522.39
553.78	39023.17
554.143	38939.1
554.507	38977.75
554.87	39331.86
555.234	39629.71
555.597	39481.69
555.96	39723.94
556.323	39866.99
556.686	39982.69
557.05	40313.08
557.413	40521.89
557.776	40473.75
558.139	40824.03
558.502	41014.98
558.865	41117.35
559.228	41353.5
559.59	41399.6
559.953	41615.87
560.316	41967.95
560.679	42065.12
561.041	42366.81
561.404	42492.46
561.767	42642.51
562.129	42594.37
562.492	43105.32
562.854	43110.52
563.217	43056.28
563.579	43333.34
563.941	43550.06
564.304	43914.11
564.666	43976.26
565.028	44126.76
565.39	44329.47
565.753	44497.38
566.115	44598.16
566.477	44644.49
566.839	44881.32
567.201	45042.45
567.563	45222.55
567.925	45542.09
568.287	45475.43
568.648	45582.54
569.01	45778.25
569.372	46093.27
569.734	46087.39
570.095	46340.04
570.457	46428.4
570.819	46558.34
571.18	46570.32
571.542	46773.93
571.903	46883.75
572.265	46975.73
572.626	47130.07
572.987	47133.46
573.349	47361.25
573.71	47468.82
574.071	47586.79
574.432	47585.43
574.794	47966.66
575.155	47882.37
575.516	47922.6
575.877	48017.06
576.238	48089.37
576.599	48219.31
576.96	48279.42
577.32	48282.81
577.681	48332.08
578.042	48447.33
578.403	48289.82
578.763	48689.58
579.124	48560.09
579.485	48768.45
579.845	48882.12
580.206	48739.3
580.566	48695.46
580.927	48798.28
581.287	48948.56
581.648	48949.24
582.008	49027.65
582.368	48838.73
582.728	49011.61
583.089	48899.29
583.449	48928.67
583.809	48937.94
584.169	49104.49
584.529	48989.46
584.889	49356.46
585.249	49177.7
585.609	49071.72
585.969	49145.84
586.329	49138.61
586.688	49164.15
587.048	49131.38
587.408	49093.19
587.768	49058.39
588.127	49121.43
588.487	49152.17
588.846	49404.36
589.206	49073.75
589.565	49228.55
589.925	49304.93
590.284	49205.73
590.643	49335.44
591.003	49406.85
591.362	49508.54
591.721	49440.75
592.08	49425.38
592.44	49494.76
592.799	49396.46
593.158	49350.35
593.517	49408.66
593.876	49478.71
594.235	49414.76
594.593	49365.95
594.952	49455.21
595.311	49344.25
595.67	49501.31
596.029	49633.29
596.387	49571.14
596.746	49676.9
597.104	49572.04
597.463	49595.77
597.822	49834.86
598.18	49539.28
598.538	49566.17
598.897	49766.84
599.255	49537.02
599.613	49975.42
599.972	49769.78
600.33	49809.33
600.688	49635.55
601.046	49935.65
601.404	49877.57
601.762	49901.3
602.12	50013.61
602.478	50098.58
602.836	50085.7
603.194	49883.22
603.552	50033.95
603.91	49979.94
604.268	50110.56
604.625	49944.92
604.983	50131.13
605.341	49985.14
605.698	50168.19
606.056	50273.49
606.413	50317.34
606.771	50411.34
607.128	50483.88
607.485	50282.99
607.843	50285.25
608.2	50598.91
608.557	50647.95
608.914	50428.74
609.272	50588.29
609.629	50660.15
609.986	50749.87
610.343	50584.67
610.7	50871.67
611.057	50844.78
611.414	50799.36
611.771	50848.17
612.127	50889.3
612.484	50945.34
612.841	51040.48
613.198	50966.81
613.554	50929.52
613.911	51174.49
614.267	51140.59
614.624	51066.92
614.98	51171.1
615.337	51298.33
615.693	51255.39
616.05	51227.59
616.406	51411.54
616.762	51363.18
617.118	51234.83
617.475	51355.27
617.831	51466.68
618.187	51438.44
618.543	51608.83
618.899	51704.19
619.255	51581.26
619.611	51544.2
619.967	51684.98
620.323	51765.66
620.678	51595.95
621.034	51470.3
621.39	51571.77
621.746	51556.17
622.101	51991.87
622.457	51656.28
622.812	51779.9
623.168	51835.71
623.523	51687.47
623.879	51972.66
624.234	51617.19
624.589	51755.94
624.945	51748.94
625.3	51824.64
625.655	51799.1
626.01	51827.8
626.365	51793.68
626.72	51813.34
627.075	51787.8
627.43	51702.38
627.785	51582.39
628.14	51681.14
628.495	51823.74
628.85	51756.17
629.205	51563.18
629.559	51816.28
629.914	51664.87
630.269	51677.98
630.623	51574.03
630.978	51499.22
631.332	51576.29
631.687	51654.7
632.041	51525.44
632.396	51563.4
632.75	51453.8
633.104	51499.9
633.459	51330.64
633.813	51352.34
634.167	51411.09
634.521	51230.31
634.875	51303.52
635.229	51326.8
635.583	51152.34
635.937	51179.01
636.291	51226.24
636.645	51037.32
636.999	51057.43
637.352	51202.28
637.706	50918.22
638.06	50978.33
638.413	50962.06
638.767	50858.34
639.121	50890.65
639.474	50710.55
639.828	50784.89
640.181	50658.12
640.534	50712.35
640.888	50601.62
641.241	50570.66
641.594	50552.36
641.947	50610.21
642.301	50454.96
642.654	50486.6
643.007	50442.53
643.36	50421.74
643.713	50387.39
644.066	50602.07
644.419	50259.03
644.771	49919.83
645.124	49667.18
645.477	49699.5
645.83	49375.67
646.182	49322.56
646.535	49210.02
646.888	49254.99
647.24	48948.33
647.593	49278.72
647.945	49094.32
648.298	48971.16
648.65	49014.32
649.002	48823.59
649.355	48954.89
649.707	48980.65
650.059	49086.86
650.411	49437.81
650.763	49498.15
651.115	49824.69
651.467	49807.07
651.819	49680.29
652.171	49546.06
652.523	49476.23
652.875	49457.7
653.227	49443.01
653.578	49687.07
653.93	49526.4
654.282	49401.43
654.633	49269
654.985	49268.1
655.337	49264.48
655.688	49324.37
656.039	49409.34
656.391	49133.86
656.742	49109.01
657.094	49198.95
657.445	49172.51
657.796	49147.65
658.147	49102.45
658.498	49042.57
658.849	49218.16
659.2	49075.56
659.551	49038.05
659.902	49069.46
660.253	49033.98
660.604	49053.64
660.955	48838.73
661.306	49022
661.656	48790.37
662.007	48826.98
662.358	48752.4
662.708	48729.13
663.059	48830.59
663.409	48536.14
663.76	48794.66
664.11	48724.83
664.461	48722.8
664.811	48732.74
665.161	48735.91
665.511	48541.11
665.862	48555.12
666.212	48778.39
666.562	48770.48
666.912	48576.82
667.262	48597.83
667.612	48552.64
667.962	48524.61
668.312	48539.3
668.662	48697.04
669.011	48449.81
669.361	48555.57
669.711	48465.41
670.06	48328.69
670.41	48322.36
670.76	48310.83
671.109	48423.15
671.459	48339.31
671.808	48181.12
672.157	48271.97
672.507	48035.14
672.856	48156.04
673.205	48075.36
673.554	48217.73
673.904	48096.15
674.253	48317.84
674.602	48118.3
674.951	47485.77
675.3	47188.6
675.649	47891.18
675.998	47859.09
676.346	47844.18
676.695	48015.02
677.044	47630.63
677.393	47757.4
677.741	47805.99
678.09	47654.58
678.438	47602.15
678.787	47653.68
679.135	47613.23
679.484	47367.13
679.832	47571.64
680.181	47163.29
680.529	47425.66
680.877	47224.76
681.225	47283.52
681.573	47441.48
681.922	47050.53
682.27	47018.66
682.618	46990.87
682.966	46971.43
683.314	46964.65
683.661	46750.2
684.009	46650.54
684.357	46533.71
684.705	46408.74
685.053	46549.52
685.4	46406.48
685.748	46269.31
686.095	46187.27
686.443	46057.79
686.79	46079.25
687.138	46163.55
687.485	46109.99
687.832	45838.36
688.18	46010.56
688.527	45704.58
688.874	45557.91
689.221	45544.35
689.568	45450.57
689.915	45318.37
690.262	45329.22
690.609	45161.99
690.956	44967.42
691.303	45012.16
691.65	44823.47
691.997	44822.79
692.344	44619.86
692.69	44642
693.037	44577.83
693.383	44241.56
693.73	44425.51
694.077	44056.26
694.423	44077.95
694.769	43973.1
695.116	43909.37
695.462	43848.58
695.808	43673.89
696.155	43640.67
696.501	43491.3
696.847	43421.25
697.193	43163.4
697.539	43345.99
697.885	42866.91
698.231	42849.51
698.577	42884.31
698.923	42751.43
699.269	42589.85
699.614	42344.44
699.96	42254.95
700.306	42402.52
700.651	42089.53
700.997	41895.64
701.342	41969.31
701.688	41929.53
702.033	41777.67
702.379	41797.56
702.724	41585.14
703.069	41719.14
703.415	41205.03
703.76	41221.53
704.105	41372.49
704.45	41159.84
704.795	41070.8
705.14	40868.54
705.485	40909.67
705.83	40661.09
706.175	40588.78
706.52	40395.34
706.865	40582
707.209	40383.59
707.554	40308.56
707.899	40365.05
708.243	40104.04
708.588	40000.54
708.932	39888.23
709.277	39919.19
709.621	39881.68
709.966	39706.31
710.31	39697.28
710.654	39420.45
710.998	39432.42
711.342	39429.94
711.687	39314.01
712.031	39157.18
712.375	39027.69
712.719	39187.46
713.063	39041.25
713.407	39099.55
713.75	38789.28
714.094	38873.34
714.438	38682.16
714.782	38740.92
715.125	38643.74
715.469	38497.31
715.812	38349.29
716.156	38257.09
716.499	38385.22
716.843	38185.9
717.186	38076.98
717.53	38161.27
717.873	38125.34
718.216	37983.2
718.559	37831.56
718.902	37547.5
719.246	37676.31
719.589	37615.07
719.932	37497.56
720.275	37458.24
720.617	37415.08
720.96	37387.73
721.303	37222.31
721.646	37202.65
721.989	37048.53
722.331	37180.73
722.674	37118.36
723.016	37007.63
723.359	37081.98
723.701	37033.16
724.044	36768.99
724.386	36627.3
724.729	36745.71
725.071	36715.43
725.413	36706.62
725.755	36616
726.097	36389.57
726.439	36160.42
726.782	36236.58
727.124	36539.39
727.465	36213.3
727.807	36200.19
728.149	36105.28
728.491	36049.01
728.833	36072.51
729.175	35929.24
729.516	35832.29
729.858	35743.48
730.199	35861.67
730.541	35805.17
730.882	35665.52
731.224	35872.07
731.565	35523.37
731.906	35540.1
732.248	35457.84
732.589	35301.68
732.93	35277.28
733.271	35305.07
733.612	35303.72
733.953	35284.51
734.294	35072.99
734.635	35035.93
734.976	35051.97
735.317	34871.41
735.658	34811.3
735.999	34895.37
736.339	34839.78
736.68	34807.69
737.021	34728.14
737.361	34562.95
737.702	34901.7
738.042	34469.84
738.383	34616.96
738.723	34577.41
739.063	34441.59
739.404	34488.15
739.744	34398.66
740.084	34240.02
740.424	34304.2
740.764	34153.01
741.104	34313.69
741.444	34057.2
741.784	33986.92
742.124	34139.68
742.464	33983.75
742.804	33971.78
743.143	33757.54
743.483	33869.41
743.823	33684.33
744.162	33696.53
744.502	33686.59
744.841	33683.65
745.181	33620.6
745.52	33470.32
745.86	33560.71
746.199	33499.25
746.538	33398.01
746.877	33398.23
747.216	33342.87
747.556	33104.45
747.895	33108.97
748.234	33060.39
748.573	32859.94
748.911	33019.71
749.25	32923.44
749.589	32690.45
749.928	32753.05
750.267	32902.65
750.605	32809.55
750.944	32605.03
751.283	32454.08
751.621	32488.43
751.96	32286.17
752.298	32340.41
752.636	32278.26
752.975	32270.8
753.313	32112.84
753.651	32233.29
753.989	32003.92
754.327	31920.98
754.666	31782.91
755.004	31919.17
755.342	31827.65
755.679	31746.3
756.017	31612.97
756.355	31724.83
756.693	31443.03
757.031	31417.72
757.368	31408.23
757.706	31397.38
758.044	31103.38
758.381	31209.59
758.719	31021.12
759.056	31113.32
759.394	30971.86
759.731	30827.68
760.068	30720.34
760.405	30633.56
760.743	30487.35
761.08	30568.25
761.417	30525.77
761.754	30413.23
762.091	30275.38
762.428	30154.7
762.765	29879.91
763.102	30080.35
763.438	29805.78
763.775	29625
764.112	29759.46
764.449	29772.11
764.785	29600.14
765.122	29295.74
765.458	29285.57
765.795	29125.58
766.131	29149.98
766.467	29064.79
766.804	28971.68
767.14	28895.3
767.476	28780.73
767.812	28676.77
768.148	28678.36
768.485	28447.18
768.821	28387.52
769.157	28396.33
769.492	28300.06
769.828	28292.83
770.164	27916.79
770.5	27901.2
770.836	27926.74
771.171	27689
771.507	27710.25
771.842	27395.9
772.178	27531.27
772.513	27368.56
772.849	27336.7
773.184	27207.21
773.519	27179.86
773.855	26924.96
774.19	26824.17
774.525	26769.03
774.86	26818.29
775.195	26746.88
775.53	26588.47
775.865	26429.38
776.2	26361.13
776.535	26176.73
776.87	26163.39
777.205	26015.15
777.539	25866.23
777.874	25948.71
778.209	25672.79
778.543	25726.12
778.878	25551.43
779.212	25594.82
779.547	25280.03
779.881	25379.01
780.215	25167.04
780.55	25271.89
780.884	25069.19
781.218	25076.64
781.552	24999.58
781.886	24853.37
782.22	24731.79
782.554	24689.76
782.888	24524.57
783.222	24363.22
783.556	24308.53
783.889	24290.67
784.223	24085.26
784.557	23985.82
784.89	23971.59
785.224	23869.89
785.557	23781.99
785.891	23700.41
786.224	23659.28
786.558	23640.97
786.891	23387.65
787.224	23336.8
787.557	23249.57
787.891	23199.18
788.224	23183.13
788.557	23139.52
788.89	23067.43
789.223	23053.87
789.556	22869.24
789.888	22864.95
790.221	22762.35
790.554	22595.58
790.887	22556.71
791.219	22429.25
791.552	22403.27
791.884	22221.12
792.217	22215.7
792.549	22045.54
792.882	21943.17
793.214	21852.77
793.546	21974.35
793.879	21798.09
794.211	21608.26
794.543	21769.84
794.875	21644.87
795.207	21718.54
795.539	21516.51
795.871	21548.83
796.203	21413.24
796.535	21199.23
796.867	21266.57
797.198	21209.17
797.53	21173.92
797.862	20912.91
798.193	20973.7
798.525	20813.25
798.856	20856.87
799.188	20666.59
799.519	20580.26
799.85	20480.83
800.182	20512.24
800.513	20464.33
800.844	20324.9
801.175	20450.32
801.506	20374.39
801.837	20215.98
802.168	20112.25
802.499	20121.29
802.83	19983.22
803.161	19915.87
803.491	19901.41
803.822	19788.65
804.153	19726.05
804.483	19596.34
804.814	19588.88
805.145	19523.57
805.475	19477.24
805.805	19441.54
806.136	19529.22
806.466	19377.13
806.796	19367.19
807.126	19183.92
807.457	19245.61
807.787	19136.69
808.117	19080.87
808.447	18976.01
808.777	19120.19
809.107	18886.98
809.436	18853.08
809.766	18824.6
810.096	18778.05
810.426	18757.49
810.755	18771.05
811.085	18623.25
811.414	18643.37
811.744	18595.91
812.073	18433.2
812.403	18370.83
812.732	18372.86
813.061	18272.3
813.39	18157.73
813.719	18151.4
814.049	18269.36
814.378	18189.59
814.707	18041.8
815.036	18030.95
815.365	17950.05
815.693	17838.64
816.022	17845.42
816.351	17734.01
816.68	17634.58
817.008	17678.42
817.337	17581.25
817.665	17466.22
817.994	17678.19
818.322	17524.07
818.651	17536.73
818.979	17444.53
819.307	17448.59
819.636	17385.09
819.964	17344.64
820.292	17349.84
820.62	17292.21
820.948	17295.6
821.276	17309.84
821.604	17226.68
821.932	17290.41
822.259	17273.68
822.587	17387.81
822.915	17249.28
823.243	17134.03
823.57	17151.88
823.898	17153.46
824.225	17201.82
824.553	17223.74
824.88	17107.81
825.207	17170.18
825.535	17126.8
825.862	17190.75
826.189	17105.78
826.516	17188.04
826.843	17135.38
827.17	17144.2
827.497	17191.88
827.824	17140.81
828.151	17127.7
828.478	17112.33
828.805	17208.83
829.131	17124.54
829.458	17118.89
829.785	17044.54
830.111	17142.84
830.438	17123.41
830.764	17070.07
831.09	17095.38
831.417	17019.45
831.743	17031.2
832.069	17049.28
832.395	16961.6
832.722	17015.61
833.048	16950.98
833.374	16946.46
833.7	16891.77
834.026	16905.78
834.351	16934.48
834.677	16964.99
835.003	16987.36
835.329	16949.62
835.654	16852.23
835.98	16783.75
836.306	16864.43
836.631	16748.95
836.956	16880.93
837.282	16773.36
837.607	16722.06
837.932	16635.06
838.258	16686.81
838.583	16598.22
838.908	16591.89
839.233	16615.85
839.558	16560.71
839.883	16548.73
840.208	16402.75
840.533	16506.25
840.858	16439.58
841.182	16361.84
841.507	16292.02
841.832	16177.89
842.156	16224.67
842.481	16208.4
842.805	16218.34
843.13	16160.49
843.454	16159.59
843.778	16105.81
844.103	16013.83
844.427	15959.82
844.751	16032.59
845.075	16002.53
845.399	15858.13
845.723	15842.99
846.047	15801.63
846.371	15700.17
846.695	15743.55
847.019	15606.38
847.343	15555.31
847.666	15492.94
847.99	15394.86
848.313	15314.87
848.637	15225.6
848.96	15236
849.284	15222.21
849.607	15079.62
849.931	15008.43
850.254	14873.52
850.577	14903.35
850.9	14815.67
851.223	14737.71
851.546	14622.23
851.869	14578.39
852.192	14702.68
852.515	14497.94
852.838	14378.39
853.161	14496.36
853.483	14413.19
853.806	14379.07
854.129	14218.17
854.451	14198.51
854.774	14199.87
855.096	14104.28
855.419	14081.23
855.741	14017.27
856.063	13948.12
856.385	14012.53
856.708	13942.92
857.03	13932.76
857.352	13781.35
857.674	13773.44
857.996	13755.13
858.318	13717.62
858.64	13607.11
858.961	13599.43
859.283	13552.2
859.605	13455.71
859.926	13602.37
860.248	13534.12
860.57	13425.2
860.891	13455.03
861.212	13348.36
861.534	13269.04
861.855	13266.56
862.176	13295.26
862.498	13304.52
862.819	13322.83
863.14	13233.11
863.461	13135.26
863.782	13120.12
864.103	13161.02
864.424	13089.39
864.745	13045.77
865.065	12903.4
865.386	12929.17
865.707	13002.38
866.027	12971.42
866.348	12856.85
866.668	12850.98
866.989	12996.28
867.309	12775.05
867.63	12839.9
867.95	12834.7
868.27	12797.64
868.59	12804.2
868.91	12786.34
869.23	12809.62
869.55	12670.42
869.87	12737.31
870.19	12687.59
870.51	12733.24
870.83	12744.54
871.15	12600.36
871.469	12592.23
871.789	12630.19
872.109	12504.77
872.428	12460.7
872.748	12555.84
873.067	12438.11
873.386	12529.18
873.706	12516.52
874.025	12356.98
874.344	12366.47
874.663	12377.54
874.982	12353.59
875.301	12403.98
875.62	12376.41
875.939	12302.29
876.258	12283.98
876.577	12232.69
876.896	12282.63
877.214	12242.63
877.533	12146.81
877.852	12180.26
878.17	12144.1
878.489	12134.61
878.807	12105.68
879.125	12198.11
879.444	12134.61
879.762	12092.35
880.08	12074.72
880.398	12109.07
880.716	12019.36
881.034	11915.63
881.352	11890.55
881.67	11881.74
881.988	11902.53
882.306	11870.66
882.624	11871.34
882.941	11793.6
883.259	11749.31
883.577	11798.35
883.894	11702.31
884.212	11601.97
884.529	11739.59
884.846	11648.52
885.164	11640.16
885.481	11589.54
885.798	11533.04
886.115	11567.62
886.432	11506.38
886.75	11466.83
887.067	11416.89
887.383	11393.61
887.7	11348.42
888.017	11231.58
888.334	11384.12
888.651	11262.09
888.967	11301.64
889.284	11162.43
889.6	11226.61
889.917	11118.14
890.233	11144.13
890.55	11039.27
890.866	11055.32
891.182	11031.36
891.498	11021.42
891.815	10951.36
892.131	10950.23
892.447	10900.29
892.763	10909.11
893.079	10841.76
893.395	10772.39
893.71	10797.92
894.026	10776.23
894.342	10712.95
894.657	10569.45
894.973	10651.71
895.289	10633.63
895.604	10576.23
895.92	10507.08
896.235	10471.15
896.55	10443.13
896.865	10499.85
897.181	10416.46
897.496	10389.8
897.811	10306.86
898.126	10306.18
898.441	10283.59
898.756	10234.55
899.071	10197.71
899.386	10160.88
899.7	10040.88
900.015	10024.38
900.33	9993.65
900.644	10054.21
900.959	9987.32
901.273	9963.14
901.588	9909.81
901.902	9881.79
902.216	9832.07
902.531	9773.09
902.845	9787.1
903.159	9736.71
903.473	9682.47
903.787	9590.5
904.101	9566.09
904.415	9574.23
904.729	9493.32
905.042	9472.99
905.356	9476.15
905.67	9418.3
905.984	9438.64
906.297	9375.13
906.611	9346.66
906.924	9288.81
907.237	9330.62
907.551	9235.93
907.864	9223.5
908.177	9225.99
908.491	9111.64
908.804	9086.33
909.117	9007.91
909.43	8967.46
909.743	8999.55
910.056	8935.6
910.368	8886.11
910.681	8898.54
910.994	8858.09
911.307	8842.27
911.619	8694.25
911.932	8733.57
912.244	8674.36
912.557	8718.65
912.869	8523.86
913.181	8585.1
913.494	8502.84
913.806	8498.77
914.118	8445.44
914.43	8428.49
914.742	8441.83
915.054	8432.79
915.366	8309.17
915.678	8273.24
915.99	8280.47
916.302	8197.99
916.613	8145.11
916.925	8179.46
917.236	8107.6
917.548	8026.92
917.859	8068.5
918.171	8010.42
918.482	7946.25
918.794	7896.76
919.105	7922.52
919.416	7848.17
919.727	7812.01
920.038	7770.21
920.349	7741.73
920.66	7698.79
920.971	7682.3
921.282	7678.46
921.593	7603.66
921.903	7661.51
922.214	7518.69
922.525	7528.18
922.835	7507.84
923.146	7444.56
923.456	7390.55
923.767	7372.93
924.077	7409.76
924.387	7343.1
924.697	7357.56
925.008	7279.6
925.318	7273.04
925.628	7277.79
925.938	7159.6
926.248	7191.46
926.558	7106.72
926.867	7099.26
927.177	7055.2
927.487	7004.12
927.796	7010
928.106	6965.03
928.416	6988.76
928.725	7008.87
929.034	6905.14
929.344	6877.8
929.653	6900.4
929.962	6754.41
930.271	6778.59
930.581	6756.9
930.89	6664.92
931.199	6668.99
931.508	6623.79
931.817	6692.49
932.125	6654.53
932.434	6580.63
932.743	6528.66
933.051	6503.35
933.36	6465.83
933.669	6399.39
933.977	6431.94
934.286	6433.52
934.594	6432.39
934.902	6334.31
935.21	6302.9
935.519	6247.53
935.827	6253.41
936.135	6254.76
936.443	6195.33
936.751	6124.15
937.059	6194.65
937.367	6119.18
937.674	6085.96
937.982	6084.83
938.29	6057.71
938.597	6085.5
938.905	5986.52
939.213	5978.16
939.52	5918.05
939.827	5903.14
940.135	5922.34
940.442	5887.09
940.749	5860.43
941.056	5851.61
941.363	5704.5
941.67	5711.28
941.977	5726.19
942.284	5672.86
942.591	5683.71
942.898	5654.55
943.205	5674.44
943.511	5587.89
943.818	5586.99
944.125	5570.04
944.431	5556.48
944.738	5510.15
945.044	5471.28
945.35	5441.45
945.657	5409.14
945.963	5390.83
946.269	5345.86
946.575	5335.02
946.881	5373.88
947.187	5341.34
947.493	5305.64
947.799	5280.33
948.105	5234
948.41	5240.78
948.716	5242.81
949.022	5178.86
949.327	5158.07
949.633	5118.52
949.938	5122.59
950.244	5099.77
950.549	5050.73
950.854	5041.01
951.16	5022.25
951.465	4995.81
951.77	4958.53
952.075	4964.4
952.38	4897.96
952.685	4890.96
952.99	4857.74
953.294	4857.97
953.599	4860
953.904	4812.32
954.209	4822.71
954.513	4767.57
954.818	4778.65
955.122	4790.85
955.426	4785.65
955.731	4688.93
956.035	4675.82
956.339	4664.98
956.643	4642.6
956.948	4652.77
957.252	4602.15
957.556	4584.75
957.86	4596.5
958.163	4566.22
958.467	4489.39
958.771	4482.38
959.075	4464.98
959.378	4440.58
959.682	4466.11
959.985	4413.91
960.289	4450.97
960.592	4365.1
960.896	4378.43
961.199	4307.25
961.502	4313.12
961.805	4257.08
962.108	4264.53
962.411	4255.27
962.714	4237.64
963.017	4219.79
963.32	4210.07
963.623	4199.9
963.926	4174.59
964.228	4154.71
964.531	4172.56
964.833	4138.66
965.136	4063.86
965.438	4077.2
965.741	4106.35
966.043	4033.58
966.345	3990.19
966.648	4018.21
966.95	4027.25
967.252	3973.69
967.554	4006.24
967.856	3941.83
968.158	3908.84
968.46	3924.88
968.761	3891.89
969.063	3891.21
969.365	3826.58
969.666	3880.82
969.968	3829.74
970.269	3780.25
970.571	3756.98
970.872	3741.38
971.174	3742.74
971.475	3740.48
971.776	3717.66
972.077	3699.13
972.378	3711.1
972.679	3670.2
972.98	3660.03
973.281	3637.66
973.582	3670.65
973.883	3636.08
974.183	3594.95
974.484	3552.69
974.785	3568.73
975.085	3557.21
975.386	3578.68
975.686	3520.6
975.986	3510.88
976.287	3486.02
976.587	3455.97
976.887	3488.28
977.187	3436.08
977.487	3418.23
977.787	3414.39
978.087	3362.19
978.387	3386.59
978.687	3363.99
978.987	3359.7
979.286	3292.36
979.586	3312.47
979.885	3331.45
980.185	3268.85
980.484	3259.82
980.784	3258.23
981.083	3220.04
981.382	3253.49
981.682	3213.49
981.981	3196.31
982.28	3207.61
982.579	3123.1
982.878	3190.21
983.177	3141.4
983.475	3102.08
983.774	3151.57
984.073	3108.63
984.372	3096.43
984.67	3077
984.969	3033.83
985.267	3070.67
985.566	3022.76
985.864	3004.23
986.162	3000.84
986.461	2965.81
986.759	2915.42
987.057	2963.1
987.355	2948.41
987.653	2943.44
987.951	2921.75
988.249	2892.82
988.547	2872.71
988.844	2840.17
989.142	2886.04
989.44	2823.44
989.737	2792.26
990.035	2838.81
990.332	2834.74
990.63	2796.32
990.927	2792.71
991.224	2771.69
991.521	2755.65
991.819	2744.12
992.116	2716.55
992.413	2720.39
992.71	2702.77
993.006	2678.14
993.303	2695.99
993.6	2684.24
993.897	2678.81
994.193	2661.41
994.49	2660.74
994.787	2587.74
995.083	2611.47
995.379	2564.47
995.676	2577.35
995.972	2575.09
996.268	2535.77
996.565	2558.14
996.861	2524.47
997.157	2488.31
997.453	2523.56
997.749	2471.81
998.044	2478.82
998.34	2458.25
998.636	2471.59
998.932	2426.84
999.227	2427.97
999.523	2378.03
999.818	2437.24
1000.114	2366.73
1000.409	2371.03
1000.704	2330.8
1001	2347.3
1001.295	2321.76
1001.59	2306.85
1001.885	2333.29
1002.18	2296.22
1002.475	2314.08
1002.77	2261.65
1003.065	2284.7
1003.359	2246.06
1003.654	2237.02
1003.949	2235.89
1004.243	2209.67
1004.538	2169.22
1004.832	2184.82
1005.127	2151.37
1005.421	2149.34
1005.715	2129
1006.009	2170.58
1006.304	2163.8
1006.598	2104.82
1006.892	2104.82
1007.186	2087.19
1007.48	2067.53
1007.773	2081.09
1008.067	2051.71
1008.361	2036.34
1008.655	2050.13
1008.948	2029.11
1009.242	2009
1009.535	1988.66
1009.829	1986.4
1010.122	1959.74
1010.415	1934.65
1010.708	1929.91
1011.001	1917.48
1011.295	1925.16
1011.588	1898.5
1011.881	1874.09
1012.173	1861.66
1012.466	1868.44
1012.759	1842.9
1013.052	1867.99
1013.344	1844.94
1013.637	1863.02
1013.93	1837.71
1014.222	1797.48
1014.514	1808.33
1014.807	1810.36
1015.099	1783.92
1015.391	1766.07
1015.683	1764.49
1015.976	1789.57
1016.268	1747.31
1016.56	1721.32
1016.851	1741.44
1017.143	1738.05
1017.435	1714.32
1017.727	1686.98
1018.018	1664.6
1018.31	1656.69
1018.602	1670.48
1018.893	1660.99
1019.185	1621.44
1019.476	1621.89
1019.767	1617.37
1020.058	1619.86
1020.35	1609.69
1020.641	1575.79
1020.932	1546.41
1021.223	1551.61
1021.514	1519.3
1021.804	1515.45
1022.095	1505.06
1022.386	1520.88
1022.677	1508.22
1022.967	1471.16
1023.258	1498.28
1023.548	1461.67
1023.839	1477.94
1024.129	1458.05
1024.419	1443.59
1024.709	1439.52
1025	1432.74
1025.29	1401.33
1025.58	1380.54
1025.87	1384.84
1026.16	1382.12
1026.449	1388
1026.739	1364.27
1027.029	1376.93
1027.319	1371.73
1027.608	1339.64
1027.898	1333.99
1028.187	1291.28
1028.477	1329.92
1028.766	1312.07
1029.055	1306.42
1029.344	1264.84
1029.634	1278.4
1029.923	1254.44
1030.212	1276.14
1030.501	1271.17
1030.79	1222.81
1031.078	1217.84
1031.367	1230.49
1031.656	1234.33
1031.945	1201.79
1032.233	1210.15
1032.522	1206.31
1032.81	1183.71
1033.099	1185.97
1033.387	1149.36
1033.675	1145.07
1033.963	1160.21
1034.251	1159.08
1034.54	1137.39
1034.828	1137.16
1035.116	1130.38
1035.403	1129.93
1035.691	1122.47
1035.979	1088.8
1036.267	1089.03
1036.554	1103.04
1036.842	1084.05
1037.129	1053.77
1037.417	1065.97
1037.704	1059.65
1037.992	1035.02
1038.279	1042.25
1038.566	1026.65
1038.853	1026.65
1039.14	1026.65
