Data from white_wall_FLMS001491_002.txt Node
Date: Tue Feb 07 11:03:11 GMT 2017
User: dcchb
Spectrometer: FLMS00149
Trigger mode: 0
Integration Time (sec): 2.000000E-2
Scans to average: 10
Electric dark correction enabled: true
Nonlinearity correction enabled: false
Boxcar width: 0
XAxis mode: Wavelengths
Number of Pixels in Spectrum: 2048
>>>>>Begin Spectral Data<<<<<
341.393	-18.67
341.776	-18.67
342.16	-18.67
342.543	-48.05
342.927	-74.94
343.31	-68.16
343.693	-78.33
344.077	-47.82
344.46	-38.11
344.843	-47.6
345.226	-41.72
345.61	-38.78
345.993	-15.73
346.376	3.47
346.759	-12.8
347.142	25.85
347.525	37.15
347.908	50.25
348.291	81.21
348.674	82.79
349.057	108.33
349.44	124.38
349.823	136.13
350.206	189.46
350.588	220.19
350.971	225.84
351.354	247.08
351.737	281.43
352.119	269.23
352.502	281.89
352.884	300.64
353.267	288.66
353.65	330.47
354.032	333.64
354.414	330.02
354.797	337.03
355.179	349.91
355.562	356.46
355.944	339.96
356.326	341.32
356.709	384.26
357.091	372.28
357.473	367.08
357.855	350.36
358.238	357.36
358.62	369.34
359.002	361.88
359.384	382.45
359.766	365.27
360.148	363.92
360.53	386.29
360.912	360.53
361.294	366.18
361.676	378.61
362.057	362.56
362.439	355.56
362.821	335.9
363.203	346.29
363.584	346.06
363.966	342.22
364.348	355.78
364.729	333.86
365.111	345.84
365.493	365.72
365.874	342.9
366.256	340.19
366.637	346.06
367.019	344.71
367.4	323.24
367.781	351.26
368.163	344.26
368.544	339.51
368.925	350.36
369.306	354.43
369.688	347.87
370.069	332.51
370.45	340.87
370.831	349
371.212	366.63
371.593	348.78
371.974	320.75
372.355	349.23
372.736	353.3
373.117	342.45
373.498	352.39
373.879	344.26
374.26	337.48
374.641	343.13
375.021	377.93
375.402	343.35
375.783	365.27
376.163	362.56
376.544	365.95
376.925	368.21
377.305	381.32
377.686	372.5
378.066	377.93
378.447	362.11
378.827	391.26
379.208	366.63
379.588	383.8
379.968	377.48
380.349	380.64
380.729	379.74
381.109	371.83
381.489	383.58
381.87	389
382.25	388.55
382.63	381.77
383.01	413.18
383.39	397.81
383.77	405.27
384.15	406.63
384.53	401.66
384.91	412.05
385.29	392.39
385.67	413.63
386.049	416.8
386.429	428.1
386.809	441.2
387.189	417.25
387.568	431.94
387.948	412.96
388.328	418.6
388.707	461.32
389.087	440.07
389.466	442.56
389.846	467.87
390.225	441.2
390.605	462.22
390.984	483.91
391.363	477.36
391.743	501.31
392.122	476.23
392.501	483.69
392.881	506.29
393.26	520.98
393.639	516.68
394.018	538.83
394.397	527.08
394.776	538.6
395.155	564.82
395.534	545.83
395.913	557.81
396.292	569.11
396.671	579.28
397.05	595.1
397.429	600.52
397.808	599.62
398.186	593.06
398.565	598.94
398.944	624.7
399.323	638.71
399.701	636.23
400.08	670.8
400.458	633.51
400.837	675.1
401.215	692.27
401.594	694.98
401.972	721.65
402.351	718.03
402.729	728.65
403.107	744.02
403.486	761.65
403.864	773.4
404.242	802.32
404.62	807.3
404.999	799.84
405.377	842.1
405.755	837.12
406.133	865.37
406.511	868.76
406.889	877.35
407.267	881.42
407.645	923.22
408.023	944.24
408.401	975.2
408.779	963.68
409.156	983.79
409.534	1027.4
409.912	1034.86
410.29	1040.74
410.667	1075.08
411.045	1108.76
411.422	1099.72
411.8	1129.09
412.178	1128.42
412.555	1181.3
412.933	1179.49
413.31	1196.44
413.687	1229.2
414.065	1208.41
414.442	1240.96
414.819	1277.11
415.197	1295.19
415.574	1289.54
415.951	1295.42
416.328	1334.96
416.705	1349.2
417.082	1333.38
417.46	1363.21
417.837	1362.76
418.214	1403.89
418.591	1424.91
418.967	1412.03
419.344	1450.44
419.721	1483.44
420.098	1464.45
420.475	1526.37
420.852	1515.53
421.228	1539.03
421.605	1538.58
421.982	1537.9
422.358	1579.93
422.735	1572.92
423.111	1611.57
423.488	1617.9
423.864	1642.08
424.241	1684.11
424.617	1671.23
424.994	1706.48
425.37	1729.98
425.746	1727.04
426.123	1739.02
426.499	1767.95
426.875	1809.75
427.251	1813.6
427.627	1870.54
428.003	1860.37
428.379	1901.73
428.756	1908.96
429.132	1979.02
429.507	2002.52
429.883	2008.39
430.259	2050.65
430.635	2059.24
431.011	2080.26
431.387	2126.81
431.763	2189.18
432.138	2201.83
432.514	2233.25
432.89	2202.74
433.265	2253.13
433.641	2315.5
434.016	2311.44
434.392	2393.02
434.767	2432.34
435.143	2415.16
435.518	2462.62
435.894	2467.14
436.269	2493.8
436.644	2555.72
437.02	2554.82
437.395	2544.2
437.77	2613.12
438.145	2630.3
438.52	2656.29
438.895	2674.82
439.271	2723.4
439.646	2802.27
440.021	2801.82
440.395	2800.24
440.77	2808.6
441.145	2859.44
441.52	2898.54
441.895	2872.1
442.27	2931.53
442.645	2940.12
443.019	2979.44
443.394	2981.7
443.769	3034.81
444.143	2990.51
444.518	3107.57
444.892	3071.87
445.267	3110.29
445.641	3150.74
446.016	3124.75
446.39	3149.15
446.764	3207.46
447.139	3209.04
447.513	3233.67
447.887	3282.94
448.262	3337.62
448.636	3301.47
449.01	3341.69
449.384	3420.11
449.758	3444.06
450.132	3490.61
450.506	3493.78
450.88	3497.62
451.254	3519.99
451.628	3553.66
452.002	3631.63
452.376	3663.72
452.75	3682.25
453.123	3728.12
453.497	3827.1
453.871	3809.25
454.244	3875.46
454.618	3913.43
454.992	3968.79
455.365	4000.43
455.739	4083.82
456.112	4136.7
456.486	4186.64
456.859	4182.8
457.232	4339.18
457.606	4274.77
457.979	4342.57
458.352	4446.52
458.725	4521.32
459.099	4511.15
459.472	4642.9
459.845	4668.89
460.218	4668.44
460.591	4759.51
460.964	4813.07
461.337	4933.74
461.71	4943.23
462.083	5001.31
462.456	5035.21
462.829	5072.72
463.201	5186.16
463.574	5206.73
463.947	5282.88
464.32	5414.18
464.692	5454.18
465.065	5489.43
465.438	5606.04
465.81	5625.93
466.183	5717.45
466.555	5811.91
466.928	5887.39
467.3	5936.88
467.672	6050.1
468.045	6186.14
468.417	6133.93
468.789	6242.41
469.161	6336.42
469.534	6424.1
469.906	6552.23
470.278	6652.11
470.65	6765.1
471.022	6873.12
471.394	6983.18
471.766	7047.58
472.138	7142.72
472.51	7286.67
472.882	7424.52
473.253	7474.46
473.625	7565.54
473.997	7798.52
474.369	7864.28
474.74	7931.63
475.112	8137.72
475.484	8242.13
475.855	8419.98
476.227	8452.52
476.598	8722.79
476.97	8788.1
477.341	8972.96
477.713	9125.04
478.084	9197.58
478.455	9454.3
478.827	9545.14
479.198	9833.27
479.569	9817.68
479.94	10094.51
480.311	10216.77
480.682	10467.15
481.053	10640.48
481.424	10893.58
481.795	10941.94
482.166	11172.67
482.537	11279.79
482.908	11568.82
483.279	11687.01
483.65	11844.97
484.021	12127.68
484.391	12264.62
484.762	12338.29
485.133	12500.1
485.503	12702.58
485.874	13008.78
486.244	13133.52
486.615	13361.77
486.985	13418.49
487.356	13805.37
487.726	13945.25
488.097	14239.71
488.467	14373.49
488.837	14633.15
489.207	14878.11
489.578	15005.79
489.948	15133.25
490.318	15393.58
490.688	15463.18
491.058	15710.18
491.428	15905.43
491.798	16043.96
492.168	16484.17
492.538	16504.28
492.908	16646.43
493.278	16909.7
493.648	16947.66
494.017	17243.02
494.387	17334.77
494.757	17611.83
495.126	17740.64
495.496	17695.89
495.866	17967.3
496.235	18182.88
496.605	18246.61
496.974	18433.27
497.344	18672.59
497.713	18756.43
498.082	18865.13
498.452	19063.09
498.821	19140.15
499.19	19331.1
499.559	19510.98
499.928	19625.56
500.298	19902.84
500.667	20012.44
501.036	19983.97
501.405	20277.07
501.774	20235.26
502.143	20555.7
502.512	20672.99
502.88	20927.44
503.249	20895.58
503.618	21089.93
503.987	21201.34
504.356	21408.34
504.724	21571.04
505.093	21666.18
505.462	21818.27
505.83	22007.42
506.199	22197.47
506.567	22472.04
506.936	22510
507.304	22728.3
507.672	22788.86
508.041	23049.2
508.409	23224.11
508.777	23388.4
509.145	23615.51
509.514	23567.15
509.882	23729.86
510.25	23843.3
510.618	24123.07
510.986	24222.72
511.354	24393.79
511.722	24665.2
512.09	24928.92
512.458	24855.48
512.826	25256.82
513.193	25334.56
513.561	25448.23
513.929	25669.92
514.297	25899.52
514.664	26133.63
515.032	26174.54
515.4	26417.92
515.767	26575.43
516.135	26779.72
516.502	26561.87
516.869	27063.78
517.237	27248.86
517.604	27163.44
517.972	27600.26
518.339	27816.08
518.706	27901.5
519.073	28097.43
519.44	28401.82
519.808	28623.96
520.175	28553.01
520.542	29014.92
520.909	29167
521.276	29202.93
521.643	29614.67
522.009	29767.66
522.376	30029.35
522.743	30181.44
523.11	30359.06
523.477	30697.81
523.843	30803.34
524.21	31208.98
524.577	31509.31
524.943	31427.51
525.31	31742.3
525.676	32015.74
526.043	32361.49
526.409	32389.06
526.776	32756.06
527.142	32778.66
527.508	33128.48
527.874	33343.84
528.241	33505.87
528.607	33577.05
528.973	33981.11
529.339	33963.26
529.705	34152.63
530.071	34530.02
530.437	34777.02
530.803	34987.87
531.169	35101.99
531.535	35140.63
531.901	35302.89
532.267	35544.46
532.632	35826.94
532.998	35871.01
533.364	36080.27
533.73	36155.07
534.095	36470.09
534.461	36579.69
534.826	36773.13
535.192	36900.13
535.557	37208.37
535.923	37125.89
536.288	37295.15
536.653	37529.95
537.019	37541.92
537.384	37723.16
537.749	37920.9
538.114	37952.99
538.479	38132.87
538.845	38396.59
539.21	38338.06
539.575	38599.75
539.94	38636.13
540.305	38929.91
540.67	38793.19
541.034	39067.31
541.399	39351.82
541.764	39350.69
542.129	39467.52
542.494	39690.11
542.858	39938.02
543.223	39835.42
543.587	40136.2
543.952	40210.1
544.316	40397.44
544.681	40522.41
545.045	40552.24
545.41	40915.39
545.774	40906.81
546.138	40941.38
546.503	41187.25
546.867	41114.03
547.231	41634.92
547.595	41788.14
547.959	41883.5
548.324	41955.59
548.688	42092.76
549.052	42212.08
549.416	42323.04
549.779	42435.13
550.143	42647.55
550.507	42972.97
550.871	43163.24
551.235	43042.79
551.599	43371.37
551.962	43429.68
552.326	43680.74
552.689	43815.43
553.053	43762.78
553.417	43906.05
553.78	44559.37
554.143	44305.13
554.507	44587.39
554.87	44854.05
555.234	45277.09
555.597	44994.61
555.96	45315.05
556.323	45521.6
556.686	45580.58
557.05	45862.61
557.413	45967.92
557.776	46302.14
558.139	46394.35
558.502	46456.49
558.865	46640.89
559.228	46882.02
559.59	47042.01
559.953	47299.18
560.316	47575.78
560.679	47650.81
561.041	47819.17
561.404	47998.37
561.767	48258.48
562.129	48141.87
562.492	48601.29
562.854	48687.39
563.217	48632.03
563.579	48983.88
563.941	49074.73
564.304	49263.2
564.666	49545
565.028	49527.37
565.39	49608.27
565.753	49840.13
566.115	49954.03
566.477	50132.33
566.839	50251.42
567.201	50426.56
567.563	50565.08
567.925	50757.62
568.287	50688.7
568.648	50896.15
569.01	50987.67
569.372	51248.68
569.734	51178.4
570.095	51466.08
570.457	51485.51
570.819	51656.35
571.18	51633.08
571.542	51862.68
571.903	51832.62
572.265	52075.55
572.626	52028.55
572.987	52071.48
573.349	52251.82
573.71	52340.18
574.071	52424.24
574.432	52504.47
574.794	52729.32
575.155	52666.72
575.516	52654.07
575.877	52814.74
576.238	52880.28
576.599	53060.38
576.96	53048.41
577.32	53111.68
577.681	53211.79
578.042	53205.92
578.403	53235.07
578.763	53274.16
579.124	53376.76
579.485	53457.66
579.845	53492.69
580.206	53420.83
580.566	53527.49
580.927	53533.59
581.287	53619.69
581.648	53558
582.008	53684.1
582.368	53611.1
582.728	53652.23
583.089	53609.52
583.449	53683.87
583.809	53687.03
584.169	53738.33
584.529	53607.49
584.889	53816.75
585.249	53749.86
585.609	53640.03
585.969	53828.73
586.329	53711.89
586.688	53816.75
587.048	53811.78
587.408	53797.54
587.768	53812.46
588.127	53821.49
588.487	53836.41
588.846	54057.87
589.206	53798.67
589.565	53849.52
589.925	54074.82
590.284	53916.63
590.643	53927.25
591.003	53988.95
591.362	54018.78
591.721	53994.82
592.08	53947.82
592.44	54041.83
592.799	54016.52
593.158	53996.86
593.517	53947.82
593.876	53996.86
594.235	53923.86
594.593	54086.57
594.952	54005.9
595.311	54000.02
595.67	54093.13
596.029	54183.52
596.387	54221.26
596.746	54187.36
597.104	54173.12
597.463	54059.91
597.822	54239.11
598.18	54194.14
598.538	54142.16
598.897	54352.33
599.255	54043.64
599.613	54460.12
599.972	54214.93
600.33	54377.19
600.688	54211.77
601.046	54427.13
601.404	54425.55
601.762	54390.97
602.12	54578.54
602.478	54505.09
602.836	54488.37
603.194	54390.07
603.552	54500.35
603.91	54359.56
604.268	54514.81
604.625	54493.57
604.983	54562.04
605.341	54458.99
605.698	54591.64
606.056	54681.58
606.413	54651.08
606.771	54727.23
607.128	54765.88
607.485	54707.8
607.843	54745.09
608.2	54827.34
608.557	54930.62
608.914	54844.74
609.272	55036.6
609.629	55051.29
609.986	55130.16
610.343	54939.88
610.7	55217.16
611.057	55108.47
611.414	55072.53
611.771	55123.38
612.127	55223.27
612.484	55185.75
612.841	55356.14
613.198	55212.19
613.554	55244.51
613.911	55411.96
614.267	55415.8
614.624	55395.46
614.98	55384.84
615.337	55490.15
615.693	55498.29
616.05	55503.48
616.406	55700.09
616.762	55554.33
617.118	55513.43
617.475	55626.42
617.831	55659.19
618.187	55679.3
618.543	55732.18
618.899	55850.59
619.255	55808.79
619.611	55799.75
619.967	55822.57
620.323	55919.97
620.678	55843.81
621.034	55806.08
621.39	55800.43
621.746	55729.24
622.101	56026.63
622.457	55775.12
622.812	55934.21
623.168	55920.42
623.523	55916.81
623.879	56052.85
624.234	55871.61
624.589	55964.04
624.945	55945.51
625.3	56048.1
625.655	56000.19
626.01	55950.48
626.365	55986.64
626.72	55964.26
627.075	55963.36
627.43	55858.05
627.785	55803.14
628.14	55898.95
628.495	55957.48
628.85	55865.28
629.205	55796.58
629.559	55957.48
629.914	55822.57
630.269	55808.56
630.623	55676.81
630.978	55706.42
631.332	55811.05
631.687	55772.18
632.041	55757.49
632.396	55844.94
632.75	55587.78
633.104	55712.52
633.459	55642.69
633.813	55581.22
634.167	55559.98
634.521	55501.45
634.875	55556.59
635.229	55501
635.583	55345.97
635.937	55431.4
636.291	55381.91
636.645	55407.44
636.999	55266.88
637.352	55402.24
637.706	55298.07
638.06	55336.48
638.413	55188.46
638.767	55135.58
639.121	55261.46
639.474	55052.42
639.828	55043.84
640.181	55084.96
640.534	55080.44
640.888	55001.12
641.241	54851.98
641.594	54936.95
641.947	54975.81
642.301	54935.14
642.654	54936.95
643.007	54880.9
643.36	54852.65
643.713	54816.95
644.066	54875.48
644.419	54694.92
644.771	54477.97
645.124	54188.26
645.477	54176.51
645.83	53996.18
646.182	53824.88
646.535	53819.23
646.888	53936.52
647.24	53754.38
647.593	53891.32
647.945	53765.9
648.298	53512.58
648.65	53603.65
649.002	53532.69
649.355	53596.42
649.707	53614.72
650.059	53635.51
650.411	54042.28
650.763	54021.94
651.115	54322.72
651.467	54184.42
651.819	54242.05
652.171	54087.48
652.523	54075.27
652.875	54132.9
653.227	53950.08
653.578	54163.41
653.93	54105.55
654.282	53944.43
654.633	53846.13
654.985	54015.61
655.337	53871.21
655.688	53904.2
656.039	54095.16
656.391	53688.16
656.742	53823.98
657.094	53898.78
657.445	53994.6
657.796	53761.83
658.147	53639.35
658.498	53713.7
658.849	53853.58
659.2	53791.21
659.551	53681.16
659.902	53717.99
660.253	53740.59
660.604	53745.11
660.955	53575.85
661.306	53636.87
661.656	53609.97
662.007	53661.95
662.358	53552.8
662.708	53601.61
663.059	53522.07
663.409	53394.84
663.76	53606.58
664.11	53573.59
664.461	53573.82
664.811	53543.54
665.161	53453.82
665.511	53419.25
665.862	53469.64
666.212	53510.54
666.562	53578.56
666.912	53441.62
667.262	53358.46
667.612	53386.48
667.962	53367.04
668.312	53291.34
668.662	53444.56
669.011	53288.18
669.361	53257.67
669.711	53241.17
670.06	53193.04
670.41	53224.9
670.76	53168.86
671.109	53236.65
671.459	53195.3
671.808	53068.29
672.157	53146.48
672.507	53009.31
672.856	52972.48
673.205	53045.24
673.554	53043.21
673.904	52917.11
674.253	53038.69
674.602	52844.57
674.951	52428.99
675.3	52294.08
675.649	52843.22
675.998	52697
676.346	52748.98
676.695	52774.74
677.044	52600.74
677.393	52753.73
677.741	52709.66
678.09	52596.67
678.438	52520.06
678.787	52676.67
679.135	52556.89
679.484	52341.31
679.832	52471.93
680.181	52283.46
680.529	52473.51
680.877	52232.61
681.225	52284.13
681.573	52354.41
681.922	52145.15
682.27	52025.38
682.618	52078.04
682.966	51975.22
683.314	52117.81
683.661	52026.06
684.009	51771.38
684.357	51698.16
684.705	51658.61
685.053	51727.99
685.4	51663.13
685.748	51469.24
686.095	51462.01
686.443	51328.68
686.79	51298.4
687.138	51362.8
687.485	51282.13
687.832	51235.57
688.18	51220.43
688.527	50938.41
688.874	50994.45
689.221	50843.95
689.568	50720.11
689.915	50649.15
690.262	50761.69
690.609	50534.58
690.956	50476.05
691.303	50438.31
691.65	50301.81
691.997	50188.6
692.344	50014.36
692.69	49982.73
693.037	49846.91
693.383	49653.69
693.73	49781.37
694.077	49575.05
694.423	49537.54
694.769	49489.4
695.116	49231.56
695.462	49313.82
695.808	49157.44
696.155	49168.96
696.501	48886.48
696.847	48846.48
697.193	48611.46
697.539	48770.1
697.885	48479.04
698.231	48415.08
698.577	48430.22
698.923	48306.61
699.269	48154.98
699.614	48019.39
699.96	47861.65
700.306	47923.57
700.651	47711.15
700.997	47540.76
701.342	47583.47
701.688	47512.51
702.033	47329.69
702.379	47387.09
702.724	47127.21
703.069	47326.98
703.415	46827.33
703.76	46822.81
704.105	46850.83
704.45	46839.31
704.795	46568.35
705.14	46464.85
705.485	46506.21
705.83	46156.16
706.175	46239.09
706.52	46199.55
706.865	45890.86
707.209	46078.2
707.554	45887.69
707.899	45847.24
708.243	45650.18
708.588	45692.22
708.932	45282.96
709.277	45412.22
709.621	45439.12
709.966	45236.41
710.31	45048.39
710.654	44872.8
710.998	44960.71
711.342	45028.96
711.687	44902.41
712.031	44679.59
712.375	44572.25
712.719	44697.89
713.063	44467.84
713.407	44613.37
713.75	44426.04
714.094	44299.03
714.438	44186.27
714.782	44224.23
715.125	44199.83
715.469	44108.76
715.812	43841.42
716.156	43588.54
716.499	43702.89
716.843	43675.77
717.186	43425.61
717.53	43510.13
717.873	43622.21
718.216	43443.69
718.559	43319.4
718.902	43078.5
719.246	43195.33
719.589	42980.88
719.932	42934.55
720.275	42840.54
720.617	42826.08
720.96	42956.02
721.303	42681
721.646	42756.93
721.989	42445.75
722.331	42576.59
722.674	42517.38
723.016	42555.8
723.359	42404.62
723.701	42454.11
724.044	42022.71
724.386	41870.17
724.729	42184.29
725.071	42137.73
725.413	41945.65
725.755	41991.97
726.097	41776.39
726.439	41539.56
726.782	41664.53
727.124	41895.71
727.465	41457.98
727.807	41394.48
728.149	41464.76
728.491	41261.82
728.833	41381.37
729.175	41198.78
729.516	41195.16
729.858	41054.6
730.199	41196.06
730.541	40949.06
730.882	41015.05
731.224	40967.37
731.565	40602.86
731.906	40744.78
732.248	40721.05
732.589	40600.6
732.93	40510.43
733.271	40611.9
733.612	40475.4
733.953	40603.31
734.294	40227.28
734.635	40195.86
734.976	40262.53
735.317	40160.38
735.658	40168.97
735.999	40088.3
736.339	40021.41
736.68	40059.6
737.021	40003.55
737.361	39799.49
737.702	39836.1
738.042	39813.73
738.383	39723.33
738.723	39768.3
739.063	39635.43
739.404	39667.06
739.744	39455.09
740.084	39315.44
740.424	39501.87
740.764	39168.77
741.104	39432.95
741.444	39082.9
741.784	38936.24
742.124	39170.13
742.464	39007.19
742.804	38910.02
743.143	38906.18
743.483	38813.08
743.823	38708.22
744.162	38663.7
744.502	38757.03
744.841	38659.63
745.181	38574.89
745.52	38314.78
745.86	38429.36
746.199	38346.42
746.538	38302.35
746.877	38308.23
747.216	38188.23
747.556	38044.06
747.895	38046.09
748.234	37978.75
748.573	37969.03
748.911	37900.33
749.25	37781.24
749.589	37645.65
749.928	37553
750.267	37595.71
750.605	37528.82
750.944	37437.29
751.283	37216.73
751.621	37322.95
751.96	37125.21
752.298	37216.28
752.636	37249.27
752.975	36969.06
753.313	36690.19
753.651	37013.35
753.989	36617.88
754.327	36622.17
754.666	36445.91
755.004	36469.18
755.342	36463.08
755.679	36472.8
756.017	36112.81
756.355	36364.33
756.693	36131.79
757.031	36266.7
757.368	35890.21
757.706	35896.99
758.044	35803.89
758.381	35911.23
758.719	35713.95
759.056	35667.4
759.394	35587.4
759.731	35314.18
760.068	35222.44
760.405	35218.59
760.743	35013.18
761.08	35143.34
761.417	34898.83
761.754	34819.96
762.091	34725.05
762.428	34534.09
762.765	34368.22
763.102	34717.36
763.438	34241.9
763.775	34146.08
764.112	34052.52
764.449	34218.85
764.785	34013.88
765.122	33761.46
765.458	33630.16
765.795	33523.72
766.131	33749.93
766.467	33420.9
766.804	33195.14
767.14	33120.57
767.476	33038.76
767.812	32893.01
768.148	32923.29
768.485	32736.17
768.821	32653.24
769.157	32567.82
769.492	32518.55
769.828	32443.75
770.164	32241.95
770.5	32029.75
770.836	31999.24
771.171	31919.7
771.507	31899.13
771.842	31679.93
772.178	31589.31
772.513	31488.75
772.849	31273.84
773.184	31265.7
773.519	31200.17
773.855	31005.15
774.19	30828.43
774.525	30646.51
774.86	30759.95
775.195	30677.24
775.53	30457.14
775.865	30407.42
776.2	30168.78
776.535	30026.87
776.87	30026.87
777.205	29919.75
777.539	29769.02
777.874	29778.28
778.209	29512.53
778.543	29466.2
778.878	29303.95
779.212	29338.07
779.547	29199.99
779.881	29216.27
780.215	28984.63
780.55	29060.79
780.884	28815.6
781.218	28725.21
781.552	28728.82
781.886	28527.92
782.22	28299.91
782.554	28344.65
782.888	28042.51
783.222	27957.99
783.556	27849.97
783.889	27780.82
784.223	27803.42
784.557	27663.31
784.89	27756.19
785.224	27402.98
785.557	27410.21
785.891	27346.03
786.224	27137.9
786.558	27224.45
786.891	26897.23
787.224	26825.37
787.557	26785.14
787.891	26673.51
788.224	26614.07
788.557	26622.44
788.89	26481.65
789.223	26548.09
789.556	26228.77
789.888	26249.56
790.221	26020.42
790.554	25868.33
790.887	25875.11
791.219	25848.22
791.552	25707.66
791.884	25556.7
792.217	25448.91
792.549	25443.26
792.882	25254.34
793.214	25229.7
793.546	25256.37
793.879	25154.45
794.211	24837.62
794.543	25038.52
794.875	24901.8
795.207	24991.74
795.539	24771.41
795.871	24754.91
796.203	24606.44
796.535	24397.41
796.867	24328.71
797.198	24242.16
797.53	24209.17
797.862	24124.2
798.193	24289.16
798.525	23985.67
798.856	24111.09
799.188	23859.8
799.519	23709.29
799.85	23639.46
800.182	23645.79
800.513	23649.41
800.844	23384.33
801.175	23428.85
801.506	23414.61
801.837	23258
802.168	23168.97
802.499	23166.26
802.83	23071.34
803.161	23046.48
803.491	22849.2
803.822	22888.52
804.153	22674.06
804.483	22555.2
804.814	22372.83
805.145	22438.36
805.475	22551.13
805.805	22394.98
806.136	22385.26
806.466	22334.19
806.796	22364.69
807.126	22079.05
807.457	22091.26
807.787	22132.38
808.117	21887.87
808.447	21864.59
808.777	21883.8
809.107	21818.27
809.436	21702.34
809.766	21734.65
810.096	21661.21
810.426	21653.53
810.755	21601.32
811.085	21489.24
811.414	21485.4
811.744	21204.95
812.073	21239.07
812.403	21333.31
812.732	21133.31
813.061	21183.03
813.39	21041.79
813.719	20918.63
814.049	21018.06
814.378	20993.88
814.707	20913.89
815.036	20808.35
815.365	20706.66
815.693	20517.96
816.022	20595.02
816.351	20529.49
816.68	20330.62
817.008	20458.53
817.337	20177.63
817.665	20258.31
817.994	20200.91
818.322	20272.55
818.651	20167.01
818.979	20178.31
819.307	20123.85
819.636	20085.88
819.964	19884.76
820.292	19861.03
820.62	19946.9
820.948	19922.5
821.276	19923.4
821.604	19825.78
821.932	19880.69
822.259	19935.61
822.587	19935.83
822.915	19894.48
823.243	19902.16
823.57	19854.25
823.898	19774.93
824.225	19732.67
824.553	19782.62
824.88	19741.26
825.207	19731.77
825.535	19777.87
825.862	19800.47
826.189	19701.94
826.516	19825.33
826.843	19962.95
827.17	19857.64
827.497	19821.48
827.824	19859
828.151	19753.24
828.478	19774.25
828.805	19925.66
829.131	19744.2
829.458	19782.39
829.785	19601.38
830.111	19713.46
830.438	19805.44
830.764	19706.23
831.09	19760.02
831.417	19601.15
831.743	19695.39
832.069	19637.08
832.395	19612.45
832.722	19736.06
833.048	19679.34
833.374	19645.44
833.7	19403.64
834.026	19470.31
834.351	19641.15
834.677	19549.85
835.003	19564.99
835.329	19536.97
835.654	19524.09
835.98	19384.43
836.306	19538.33
836.631	19332.23
836.956	19320.25
837.282	19416.75
837.607	19238.22
837.932	19232.8
838.258	19144.21
838.583	19169.52
838.908	19115.74
839.233	19092.69
839.558	19028.51
839.883	19023.99
840.208	18990.77
840.533	18962.98
840.858	19035.97
841.182	19043.65
841.507	18990.32
841.832	18771.57
842.156	18798.69
842.481	18831.23
842.805	18721.63
843.13	18711.91
843.454	18614.51
843.778	18670.33
844.103	18594.17
844.427	18520.5
844.751	18561.18
845.075	18466.49
845.399	18329.77
845.723	18250.23
846.047	18358.25
846.371	18148.99
846.695	18140.85
847.019	18010.23
847.343	17865.83
847.666	17873.74
847.99	17748.32
848.313	17757.13
848.637	17544.03
848.96	17618.83
849.284	17489.57
849.607	17339.97
849.931	17375.9
850.254	17218.39
850.577	17132.74
850.9	17061.33
851.223	17033.76
851.546	17046.19
851.869	16891.39
852.192	16890.94
852.515	16776.37
852.838	16743.83
853.161	16670.83
853.483	16594.68
853.806	16496.15
854.129	16446.43
854.451	16464.28
854.774	16361.46
855.096	16309.26
855.419	16290.73
855.741	16288.02
856.063	16111.3
856.385	16101.58
856.708	16041.7
857.03	16036.73
857.352	16003.05
857.674	15898.88
857.996	15922.6
858.318	15776.39
858.64	15774.13
858.961	15768.48
859.283	15609.39
859.605	15618.43
859.926	15583.86
860.248	15544.31
860.57	15515.38
860.891	15498.21
861.212	15358.32
861.534	15319
861.855	15287.14
862.176	15329.85
862.498	15318.78
862.819	15378.21
863.14	15172.79
863.461	15264.77
863.782	15238.78
864.103	15181.83
864.424	15030.42
864.745	15165.56
865.065	14977.32
865.386	14987.71
865.707	15010.09
866.027	14944.55
866.348	14944.78
866.668	14921.73
866.989	14908.62
867.309	14816.19
867.63	14874.5
867.95	14867.04
868.27	14709.75
868.59	14664.11
868.91	14723.54
869.23	14624.11
869.55	14617.1
869.87	14652.35
870.19	14583.2
870.51	14586.37
870.83	14512.7
871.15	14460.95
871.469	14476.09
871.789	14482.19
872.109	14509.99
872.428	14355.87
872.748	14426.6
873.067	14439.48
873.386	14375.98
873.706	14332.82
874.025	14318.35
874.344	14273.16
874.663	14320.61
874.982	14221.41
875.301	14231.12
875.62	14198.13
875.939	14174.18
876.258	14115.87
876.577	14058.25
876.896	14032.26
877.214	13980.73
877.533	14080.84
877.852	14099.38
878.17	14015.99
878.489	14005.37
878.807	13946.84
879.125	13936.89
879.444	13924.01
879.762	13897.35
880.08	13853.96
880.398	13792.72
880.716	13823.45
881.034	13759.95
881.352	13837.46
881.67	13808.31
881.988	13723.11
882.306	13646.05
882.624	13722.44
882.941	13556.79
883.259	13502.33
883.577	13524.25
883.894	13466.17
884.212	13493.29
884.529	13428.21
884.846	13378.26
885.164	13321.99
885.481	13346.85
885.798	13410.81
886.115	13227.99
886.432	13340.52
886.75	13170.81
887.067	13184.82
887.383	13123.81
887.7	13124.71
888.017	13124.49
888.334	13064.37
888.651	13068.67
888.967	13031.61
889.284	12876.13
889.6	12855.57
889.917	12840.2
890.233	12867.32
890.55	12790.71
890.866	12736.47
891.182	12719.07
891.498	12702.58
891.815	12628.45
892.131	12661.22
892.447	12544.16
892.763	12527.89
893.079	12515.24
893.395	12509.36
893.71	12408.12
894.026	12424.62
894.342	12389.36
894.657	12192.08
894.973	12252.42
895.289	12286.77
895.604	12300.55
895.92	12076.15
896.235	12061.24
896.55	12036.38
896.865	12010.62
897.181	11981.69
897.496	11987.11
897.811	11855.14
898.126	11800.68
898.441	11810.17
898.756	11750.06
899.071	11678.65
899.386	11737.18
899.7	11644.52
900.015	11585.09
900.33	11475.72
900.644	11559.78
900.959	11561.81
901.273	11449.28
901.588	11366.79
901.902	11337.41
902.216	11331.99
902.531	11364.08
902.845	11284.99
903.159	11213.12
903.473	11115.72
903.787	11008.83
904.101	10995.28
904.415	10995.28
904.729	11004.77
905.042	10889.74
905.356	10886.58
905.67	10848.16
905.984	10842.51
906.297	10793.93
906.611	10708.96
906.924	10671.22
907.237	10617.66
907.551	10605.91
907.864	10547.15
908.177	10562.07
908.491	10569.98
908.804	10492.92
909.117	10359.13
909.43	10344.9
909.743	10265.35
910.056	10276.65
910.368	10250.66
910.681	10254.96
910.994	10132.02
911.307	10109.65
911.619	10072.36
911.932	10082.98
912.244	10017.9
912.557	10012.93
912.869	9949.2
913.181	9956.66
913.494	9827.85
913.806	9764.57
914.118	9758.7
914.43	9587.86
914.742	9637.8
915.054	9574.3
915.366	9512.15
915.678	9565.26
915.99	9507.41
916.302	9494.3
916.613	9420.85
916.925	9446.62
917.236	9397.35
917.548	9351.03
917.859	9270.12
918.171	9239.84
918.482	9172.95
918.794	9118.94
919.105	9097.02
919.416	9012.28
919.727	9035.55
920.038	9041.65
920.349	8849.12
920.66	8927.31
920.971	8865.61
921.282	8885.95
921.593	8805.73
921.903	8765.28
922.214	8740.19
922.525	8683.7
922.835	8687.99
923.146	8590.59
923.456	8547.66
923.767	8509.69
924.077	8508.34
924.387	8526.87
924.697	8412.97
925.008	8412.52
925.318	8334.55
925.628	8333.42
925.938	8259.53
926.248	8224.95
926.558	8190.6
926.867	8160.77
927.177	8100.44
927.487	8148.12
927.796	7981.8
928.106	8025.64
928.416	7985.64
928.725	8017.73
929.034	7923.49
929.344	7949.93
929.653	7881.69
929.962	7812.53
930.271	7795.36
930.581	7747.68
930.89	7770.95
931.199	7632.2
931.508	7715.81
931.817	7740.22
932.125	7600.34
932.434	7573.9
932.743	7452.09
933.051	7499.1
933.36	7429.27
933.669	7403.28
933.977	7372.09
934.286	7389.95
934.594	7347.46
934.902	7241.02
935.21	7172.78
935.519	7255.49
935.827	7234.47
936.135	7146.79
936.443	7113.34
936.751	7090.97
937.059	7109.73
937.367	7009.62
937.674	6972.78
937.982	7033.8
938.29	6882.16
938.597	6982.27
938.905	6815.27
939.213	6808.72
939.52	6787.7
939.827	6787.48
940.135	6755.84
940.442	6733.69
940.749	6688.5
941.056	6695.73
941.363	6539.57
941.67	6639.23
941.977	6531.44
942.284	6512.46
942.591	6514.26
942.898	6463.64
943.205	6482.17
943.511	6419.35
943.818	6419.58
944.125	6329.41
944.431	6294.61
944.738	6330.54
945.044	6284.89
945.35	6259.58
945.657	6236.3
945.963	6233.14
946.269	6150.43
946.575	6158.11
946.881	6073.37
947.187	6064.56
947.493	6122.18
947.799	6075.18
948.105	5967.39
948.41	5983.43
948.716	5947.5
949.022	5905.69
949.327	5852.13
949.633	5842.42
949.938	5846.03
950.244	5797.67
950.549	5758.58
950.854	5786.37
951.16	5770.55
951.465	5711.35
951.77	5662.76
952.075	5627.96
952.38	5645.13
952.685	5627.96
952.99	5543.89
953.294	5589.77
953.599	5540.28
953.904	5503.89
954.209	5445.82
954.513	5493.05
954.818	5470
955.122	5435.2
955.426	5389.32
955.731	5383.45
956.035	5324.24
956.339	5283.56
956.643	5298.25
956.948	5270
957.252	5266.39
957.556	5241.75
957.86	5208.31
958.163	5146.62
958.467	5186.84
958.771	5135.32
959.075	5136.67
959.378	5099.39
959.682	5109.78
959.985	5044.47
960.289	5024.36
960.592	5003.34
960.896	4999.73
961.199	4938.26
961.502	4921.31
961.805	4924.25
962.108	4889.9
962.411	4858.71
962.714	4841.54
963.017	4830.92
963.32	4874.53
963.623	4804.7
963.926	4807.87
964.228	4763.58
964.531	4724.48
964.833	4674.54
965.136	4667.98
965.438	4680.64
965.741	4623.47
966.043	4620.53
966.345	4597.93
966.648	4649.23
966.95	4579.63
967.252	4526.07
967.554	4528.55
967.856	4532.39
968.158	4502.11
968.46	4474.32
968.761	4430.02
969.063	4461.89
969.365	4393.42
969.666	4364.72
969.968	4392.96
970.269	4360.2
970.571	4337.82
970.872	4302.8
971.174	4274.32
971.475	4251.5
971.776	4220.99
972.077	4217.15
972.378	4246.53
972.679	4194.1
972.98	4178.28
973.281	4124.95
973.582	4089.47
973.883	4094.67
974.183	4121.78
974.484	4084.95
974.785	4052.18
975.085	4058.96
975.386	4060.54
975.686	4064.84
975.986	3983.03
976.287	3977.38
976.587	3953.88
976.887	3952.98
977.187	3923.15
977.487	3896.93
977.787	3908.46
978.087	3888.57
978.387	3821.23
978.687	3831.4
978.987	3787.33
979.286	3802.47
979.586	3805.86
979.885	3751.62
980.185	3736.03
980.484	3712.76
980.784	3720.44
981.083	3688.8
981.382	3642.7
981.682	3666.66
981.981	3654.45
982.28	3614.68
982.579	3576.71
982.878	3570.39
983.177	3589.14
983.475	3593.66
983.774	3544.17
984.073	3519.77
984.372	3498.3
984.67	3505.98
984.969	3499.2
985.267	3484.29
985.566	3487.68
985.864	3425.53
986.162	3391.63
986.461	3383.27
986.759	3427.57
987.057	3398.64
987.355	3329.49
987.653	3321.58
987.951	3281.58
988.249	3291.07
988.547	3314.57
988.844	3270.28
989.142	3241.81
989.44	3221.47
989.737	3212.2
990.035	3216.72
990.332	3198.87
990.63	3185.54
990.927	3162.26
991.224	3160.68
991.521	3165.65
991.819	3130.62
992.116	3117.74
992.413	3121.58
992.71	3083.17
993.006	3078.65
993.303	3065.77
993.6	3053.56
993.897	3060.12
994.193	2997.52
994.49	2978.31
994.787	2993.68
995.083	2937.41
995.379	2915.04
995.676	2910.52
995.972	2923.17
996.268	2871.42
996.565	2860.57
996.861	2856.28
997.157	2844.98
997.453	2823.97
997.749	2815.38
998.044	2798.43
998.34	2749.62
998.636	2756.85
998.932	2770.18
999.227	2761.37
999.523	2731.76
999.818	2703.74
1000.114	2700.58
1000.409	2688.6
1000.704	2660.13
1001	2651.77
1001.295	2643.86
1001.59	2643.86
1001.885	2615.84
1002.18	2598.66
1002.475	2528.38
1002.77	2570.86
1003.065	2536.97
1003.359	2569.73
1003.654	2529.74
1003.949	2517.76
1004.243	2479.57
1004.538	2425.56
1004.832	2453.35
1005.127	2448.83
1005.421	2435.73
1005.715	2429.17
1006.009	2392.79
1006.304	2412.45
1006.598	2404.09
1006.892	2385.56
1007.186	2353.47
1007.48	2344.2
1007.773	2311.66
1008.067	2292.23
1008.361	2299.69
1008.655	2303.53
1008.948	2287.48
1009.242	2264.88
1009.535	2240.48
1009.829	2265.79
1010.122	2211.33
1010.415	2226.47
1010.708	2211.55
1011.001	2179.01
1011.295	2190.31
1011.588	2146.69
1011.881	2130.2
1012.173	2127.49
1012.466	2118.22
1012.759	2131.1
1013.052	2084.55
1013.344	2066.25
1013.637	2081.39
1013.93	2044.78
1014.222	2065.57
1014.514	2047.49
1014.807	2008.62
1015.099	2000.26
1015.391	1999.13
1015.683	2006.13
1015.976	1988.73
1016.268	1965.46
1016.56	1930.43
1016.851	1932.92
1017.143	1920.26
1017.435	1910.99
1017.727	1875.97
1018.018	1875.74
1018.31	1880.04
1018.602	1855.63
1018.893	1824.44
1019.185	1831.68
1019.476	1822.18
1019.767	1777.44
1020.058	1794.16
1020.35	1790.55
1020.641	1775.41
1020.932	1787.83
1021.223	1740.38
1021.514	1726.14
1021.804	1734.05
1022.095	1690.89
1022.386	1687.27
1022.677	1682.75
1022.967	1687.27
1023.258	1684.11
1023.548	1655.41
1023.839	1635.52
1024.129	1640.49
1024.419	1644.34
1024.709	1585.58
1025	1604.79
1025.29	1580.61
1025.58	1563.66
1025.87	1570.89
1026.16	1546.03
1026.449	1534.73
1026.739	1542.42
1027.029	1539.03
1027.319	1523.43
1027.608	1507.16
1027.898	1490.89
1028.187	1477.79
1028.477	1457.67
1028.766	1457.9
1029.055	1465.81
1029.344	1458.35
1029.634	1403.21
1029.923	1401.18
1030.212	1411.12
1030.501	1389.88
1030.79	1372.7
1031.078	1336.09
1031.367	1367.05
1031.656	1358.47
1031.945	1350.11
1032.233	1341.74
1032.522	1318.47
1032.81	1344.46
1033.099	1306.94
1033.387	1327.51
1033.675	1303.78
1033.963	1281.63
1034.251	1289.99
1034.54	1279.83
1034.828	1255.64
1035.116	1245.93
1035.403	1249.77
1035.691	1217.68
1035.979	1225.59
1036.267	1211.58
1036.554	1187.85
1036.842	1186.95
1037.129	1181.75
1037.417	1173.16
1037.704	1180.17
1037.992	1178.81
1038.279	1162.31
1038.566	1146.95
1038.853	1146.95
1039.14	1146.95
