Data from white_wall_FLMS001491_034.txt Node
Date: Tue Feb 07 11:04:17 GMT 2017
User: dcchb
Spectrometer: FLMS00149
Trigger mode: 0
Integration Time (sec): 2.000000E-2
Scans to average: 10
Electric dark correction enabled: true
Nonlinearity correction enabled: false
Boxcar width: 0
XAxis mode: Wavelengths
Number of Pixels in Spectrum: 2048
>>>>>Begin Spectral Data<<<<<
341.393	6.62
341.776	6.62
342.16	6.62
342.543	-58.46
342.927	-52.36
343.31	-79.93
343.693	-79.93
344.077	-49.19
344.46	-64.11
344.843	-49.19
345.226	-49.65
345.61	-17.33
345.993	-31.79
346.376	-5.13
346.759	-15.97
347.142	22.22
347.525	56.11
347.908	70.35
348.291	72.61
348.674	102.89
349.057	118.03
349.44	152.61
349.823	137.92
350.206	172.72
350.588	224.92
350.971	219.05
351.354	226.96
351.737	258.37
352.119	252.72
352.502	282.78
352.884	281.87
353.267	305.83
353.65	302.21
354.032	296.11
354.414	312.83
354.797	330.01
355.179	352.38
355.562	314.19
355.944	344.92
356.326	361.87
356.709	363.45
357.091	356.67
357.473	357.12
357.855	342.89
358.238	370.23
358.62	369.55
359.002	346.95
359.384	339.5
359.766	360.06
360.148	358.25
360.53	360.74
360.912	358.93
361.294	357.8
361.676	330.91
362.057	351.93
362.439	338.14
362.821	337.69
363.203	327.29
363.584	333.62
363.966	338.37
364.348	327.97
364.729	323.45
365.111	356.9
365.493	337.01
365.874	328.2
366.256	308.76
366.637	339.72
367.019	329.55
367.4	345.6
367.781	327.97
368.163	329.78
368.544	305.83
368.925	337.01
369.306	343.56
369.688	324.36
370.069	325.26
370.45	313.73
370.831	344.92
371.212	323.45
371.593	337.69
371.974	336.56
372.355	345.37
372.736	350.34
373.117	316.9
373.498	326.16
373.879	351.93
374.26	322.77
374.641	332.27
375.021	342.89
375.402	339.72
375.783	334.98
376.163	354.64
376.544	335.88
376.925	338.82
377.305	344.69
377.686	368.87
378.066	367.29
378.447	351.93
378.827	365.03
379.208	355.77
379.588	364.13
379.968	368.65
380.349	348.54
380.729	354.86
381.109	369.1
381.489	359.84
381.87	398.7
382.25	376.56
382.63	368.65
383.01	375.65
383.39	357.8
383.77	378.37
384.15	374.07
384.53	402.55
384.91	381.98
385.29	381.08
385.67	380.4
386.049	394.86
386.429	396.67
386.809	381.76
387.189	414.07
387.568	400.51
387.948	401.19
388.328	398.48
388.707	409.78
389.087	399.16
389.466	407.52
389.846	449.55
390.225	441.87
390.605	444.35
390.984	438.48
391.363	438.25
391.743	437.57
392.122	467.4
392.501	452.94
392.881	459.95
393.26	463.56
393.639	471.92
394.018	474.41
394.397	476.44
394.776	483.67
395.155	484.8
395.534	504.46
395.913	486.84
396.292	511.02
396.671	506.27
397.05	540.62
397.429	533.84
397.808	527.74
398.186	533.62
398.565	582.2
398.944	567.74
399.323	575.87
399.701	576.1
400.08	596.89
400.458	608.64
400.837	629.21
401.215	598.47
401.594	630.11
401.972	645.7
402.351	661.52
402.729	669.43
403.107	684.12
403.486	679.15
403.864	704.91
404.242	688.19
404.62	732.48
404.999	738.81
405.377	758.69
405.755	766.6
406.133	778.81
406.511	777.45
406.889	774.97
407.267	797.34
407.645	810.44
408.023	821.74
408.401	846.6
408.779	857
409.156	879.14
409.534	897.22
409.912	901.74
410.29	918.01
410.667	902.65
411.045	948.97
411.422	958.01
411.8	962.53
412.178	988.97
412.555	1013.15
412.933	1029.87
413.31	1024
413.687	1056.09
414.065	1057.67
414.442	1090.21
414.819	1083.43
415.197	1087.95
415.574	1104.9
415.951	1146.93
416.328	1145.35
416.705	1159.59
417.082	1182.19
417.46	1197.55
417.837	1205.24
418.214	1207.5
418.591	1231
418.967	1237.78
419.344	1254.27
419.721	1244.33
420.098	1267.83
420.475	1287.27
420.852	1324.1
421.228	1308.74
421.605	1327.49
421.982	1332.24
422.358	1341.5
422.735	1383.99
423.111	1359.58
423.488	1379.7
423.864	1408.4
424.241	1410.65
424.617	1428.96
424.994	1457.43
425.37	1454.72
425.746	1462.63
426.123	1489.97
426.499	1521.16
426.875	1547.83
427.251	1587.6
427.627	1622.17
428.003	1616.3
428.379	1622.17
428.756	1629.63
429.132	1658.33
429.507	1679.57
429.883	1692.46
430.259	1726.35
430.635	1743.3
431.011	1782.85
431.387	1783.98
431.763	1816.52
432.138	1850.64
432.514	1864.2
432.89	1860.13
433.265	1910.98
433.641	1939.91
434.016	1970.19
434.392	1982.62
434.767	2023.75
435.143	2010.87
435.518	2070.75
435.894	2073.69
436.269	2102.61
436.644	2158.66
437.02	2167.7
437.395	2168.38
437.77	2214.48
438.145	2222.16
438.52	2240.46
438.895	2270.52
439.271	2281.37
439.646	2321.82
440.021	2344.19
440.395	2372.21
440.77	2347.13
441.145	2386.9
441.52	2427.13
441.895	2429.84
442.27	2451.98
442.645	2477.75
443.019	2497.63
443.394	2486.11
443.769	2543.96
444.143	2554.58
444.518	2571.98
444.892	2582.6
445.267	2589.16
445.641	2649.49
446.016	2648.59
446.39	2708.25
446.764	2691.98
447.139	2680.9
447.513	2689.04
447.887	2738.3
448.262	2768.13
448.636	2809.71
449.01	2830.05
449.384	2851.52
449.758	2837.06
450.132	2908.69
450.506	2907.34
450.88	2949.82
451.254	2961.12
451.628	2997.51
452.002	3070.72
452.376	3056.94
452.75	3080.89
453.123	3113.66
453.497	3176.94
453.871	3183.72
454.244	3252.19
454.618	3267.33
454.992	3336.71
455.365	3341.9
455.739	3408.79
456.112	3433.2
456.486	3507.1
456.859	3523.37
457.232	3593.42
457.606	3586.42
457.979	3621.22
458.352	3697.37
458.725	3732.4
459.099	3793.42
459.472	3860.08
459.845	3934.43
460.218	3929.01
460.591	3998.84
460.964	4004.03
461.337	4107.31
461.71	4155.89
462.083	4218.26
462.456	4190.24
462.829	4288.09
463.201	4307.75
463.574	4349.33
463.947	4382.55
464.32	4537.8
464.692	4530.12
465.065	4577.58
465.438	4651.7
465.81	4679.72
466.183	4760.17
466.555	4868.42
466.928	4877.91
467.3	4908.19
467.672	4990.45
468.045	5083.1
468.417	5132.82
468.789	5142.76
469.161	5227.73
469.534	5339.14
469.906	5486.48
470.278	5545.91
470.65	5573.26
471.022	5675.85
471.394	5807.6
471.766	5787.72
472.138	5828.39
472.51	6012.34
472.882	6109.97
473.253	6169.4
473.625	6298.89
473.997	6432.67
474.369	6534.36
474.74	6533.68
475.112	6662.04
475.484	6792.66
475.855	6920.79
476.227	6957.85
476.598	7192.42
476.97	7237.62
477.341	7406.66
477.713	7531.17
478.084	7555.13
478.455	7793.09
478.827	7894.33
479.198	8093.19
479.569	8133.42
479.94	8342
480.311	8394.43
480.682	8616.57
481.053	8747.64
481.424	8939.95
481.795	9003.9
482.166	9177
482.537	9303.78
482.908	9549.2
483.279	9579.48
483.65	9775.63
484.021	9969.98
484.391	10111.9
484.762	10208.62
485.133	10327.71
485.503	10505.33
485.874	10731.99
486.244	10764.08
486.615	10961.36
486.985	11138.76
487.356	11385.99
487.726	11474.35
488.097	11677.05
488.467	11673.44
488.837	12000.89
489.207	12120.88
489.578	12259.41
489.948	12434.77
490.318	12676.57
490.688	12766.51
491.058	12863.91
491.428	13107.52
491.798	13199.5
492.168	13358.59
492.538	13489.21
492.908	13646.04
493.278	13865.47
493.648	13880.84
494.017	14086.25
494.387	14262.29
494.757	14341.16
495.126	14484.89
495.496	14600.59
495.866	14680.59
496.235	14885.78
496.605	15022.27
496.974	15129.84
497.344	15293.45
497.713	15413
498.082	15631.07
498.452	15741.13
498.821	15705.19
499.19	15800.79
499.559	15997.84
499.928	16120.1
500.298	16227.89
500.667	16413.2
501.036	16424.72
501.405	16720.08
501.774	16717.82
502.143	16859.97
502.512	16934.99
502.88	17153.97
503.249	17187.64
503.618	17238.94
503.987	17537.01
504.356	17558.7
504.724	17730.9
505.093	17724.12
505.462	17861.07
505.83	18063.32
506.199	18199.59
506.567	18351.68
506.936	18403.65
507.304	18648.17
507.672	18812.01
508.041	18867.6
508.409	18987.37
508.777	19197.08
509.145	19294.7
509.514	19292.9
509.882	19575.83
510.25	19623.74
510.618	19814.24
510.986	19945.99
511.354	20108.69
511.722	20335.81
512.09	20321.8
512.458	20448.57
512.826	20677.49
513.193	20700.77
513.561	20803.82
513.929	21105.5
514.297	21278.83
514.664	21440.86
515.032	21577.58
515.4	21755.43
515.767	21789.78
516.135	21855.32
516.502	21906.39
516.869	22384.79
517.237	22395.19
517.604	22420.5
517.972	22665.46
518.339	22834.05
518.706	22912.46
519.073	23092.57
519.44	23218.67
519.808	23601.48
520.175	23551.99
520.542	23707.7
520.909	23937.29
521.276	24013
521.643	24250.96
522.009	24488.69
522.376	24618.86
522.743	24822.92
523.11	24990.15
523.477	25240.08
523.843	25393.53
524.21	25668.1
524.577	25844.14
524.943	25812.27
525.31	26110.57
525.676	26333.84
526.043	26466.04
526.409	26677.56
526.776	27037.1
527.142	27058.12
527.508	27250.65
527.874	27421.27
528.241	27532.91
528.607	27628.04
528.973	28011.31
529.339	27971.99
529.705	28191.65
530.071	28527.91
530.437	28588.7
530.803	28772.2
531.169	28974.68
531.535	28825.08
531.901	29089.93
532.267	29256.48
532.632	29448.34
532.998	29443.82
533.364	29775.78
533.73	29612.85
534.095	30115.89
534.461	30198.15
534.826	30370.57
535.192	30519.27
535.557	30790.45
535.923	30637.23
536.288	30773.5
536.653	30954.51
537.019	30931.23
537.384	31152.7
537.749	31389.3
538.114	31297.1
538.479	31357.89
538.845	31663.87
539.21	31489.86
539.575	31775.28
539.94	31850.31
540.305	32170.07
540.67	32239
541.034	32198.77
541.399	32393.57
541.764	32526.9
542.129	32702.71
542.494	32758.08
542.858	32932.54
543.223	32903.61
543.587	33140.89
543.952	33198.97
544.316	33407.1
544.681	33402.81
545.045	33560.77
545.41	33739.97
545.774	33917.14
546.138	33850.03
546.503	33969.57
546.867	34105.39
547.231	34407.3
547.595	34529.33
547.959	34687.07
548.324	34730.68
548.688	34788.99
549.052	35016.33
549.416	35129.99
549.779	35186.26
550.143	35315.53
550.507	35653.82
550.871	35719.36
551.235	35765.46
551.599	36058.56
551.962	36005.45
552.326	36205.9
552.689	36452.9
553.053	36417.19
553.417	36534.7
553.78	36843.17
554.143	36854.92
554.507	37254.01
554.87	37253.33
555.234	37710.49
555.597	37467.56
555.96	37776.93
556.323	38006.3
556.686	38063.25
557.05	38328.1
557.413	38338.95
557.776	38540.3
558.139	38730.58
558.502	38957.01
558.865	38987.97
559.228	39321.97
559.59	39406.04
559.953	39377.34
560.316	39967.83
560.679	39875.63
561.041	40160.6
561.404	40302.74
561.767	40598.78
562.129	40582.05
562.492	41044.87
562.854	40955.83
563.217	40973.23
563.579	41110.4
563.941	41324.18
564.304	41553.33
564.666	41891.17
565.028	41876.03
565.39	42006.42
565.753	42260.65
566.115	42481.21
566.477	42625.39
566.839	42727.53
567.201	42883.46
567.563	42932.28
567.925	43198.93
568.287	43228.99
568.648	43342.89
569.01	43626.27
569.372	43854.51
569.734	43940.84
570.095	44168.4
570.457	44235.97
570.819	44397.77
571.18	44292.69
571.542	44709.63
571.903	44706.01
572.265	44722.06
572.626	44866.24
572.987	44948.27
573.349	45184.42
573.71	45434.81
574.071	45359.1
574.432	45576.27
574.794	45808.36
575.155	45759.55
575.516	45739.21
575.877	45973.33
576.238	46051.74
576.599	46062.14
576.96	46107.78
577.32	46126.09
577.681	46343.03
578.042	46515.46
578.403	46407.21
578.763	46448.79
579.124	46572.63
579.485	46663.93
579.845	46760.65
580.206	46772.4
580.566	46758.16
580.927	46711.84
581.287	46999.29
581.648	46880.87
582.008	46987.08
582.368	46866.41
582.728	47072.28
583.089	46940.08
583.449	47059.17
583.809	47062.11
584.169	47043.35
584.529	46974.65
584.889	47380.07
585.249	47147.76
585.609	46972.85
585.969	47280.86
586.329	47020.53
586.688	47286.28
587.048	47178.49
587.408	47069.79
587.768	47129
588.127	47180.07
588.487	47130.13
588.846	47363.57
589.206	47115.89
589.565	47224.59
589.925	47233.86
590.284	47136.68
590.643	47247.64
591.003	47340.97
591.362	47404.02
591.721	47217.36
592.08	47259.39
592.44	47345.49
592.799	47372.38
593.158	47306.17
593.517	47347.75
593.876	47430.69
594.235	47275.21
594.593	47345.27
594.952	47428.43
595.311	47298.94
595.67	47494.19
596.029	47648.08
596.387	47545.04
596.746	47732.83
597.104	47588.65
597.463	47579.61
597.822	47701.19
598.18	47665.03
598.538	47558.82
598.897	47738.25
599.255	47470.01
599.613	47876.55
599.972	47728.53
600.33	47812.15
600.688	47830
601.046	47865.03
601.404	47984.12
601.762	47949.77
602.12	48074.74
602.478	48186.37
602.836	47997.68
603.194	47797.23
603.552	47944.57
603.91	47862.99
604.268	48070.22
604.625	48015.76
604.983	48057.11
605.341	47903.44
605.698	48096.66
606.056	48255.75
606.413	48307.73
606.771	48338.46
607.128	48340.49
607.485	48222.76
607.843	48368.97
608.2	48515.18
608.557	48597.44
608.914	48533.26
609.272	48722.86
609.629	48753.82
609.986	48806.24
610.343	48713.82
610.7	48888.5
611.057	48864.55
611.414	48835.17
611.771	48842.85
612.127	48870.42
612.484	48961.04
612.841	49176.63
613.198	49114.49
613.554	49017.31
613.911	49368.72
614.267	49291.88
614.624	49283.97
614.98	49231.77
615.337	49372.56
615.693	49357.42
616.05	49210.08
616.406	49496.85
616.762	49377.3
617.118	49320.36
617.475	49401.48
617.831	49434.93
618.187	49589.05
618.543	49616.17
618.899	49799.21
619.255	49667.01
619.611	49635.6
619.967	49804.64
620.323	49860.91
620.678	49730.29
621.034	49665.43
621.39	49677.86
621.746	49561.93
622.101	50026.78
622.457	49623.85
622.812	49823.62
623.168	49828.82
623.523	49818.42
623.879	49864.3
624.234	49646.45
624.589	49836.73
624.945	49884.18
625.3	49864.3
625.655	49836.05
626.01	49853.22
626.365	49917.18
626.72	49755.37
627.075	49811.19
627.43	49836.73
627.785	49660.91
628.14	49789.27
628.495	49824.3
628.85	49905.88
629.205	49664.53
629.559	49905.65
629.914	49767.8
630.269	49742.94
630.623	49667.69
630.978	49538.43
631.332	49849.61
631.687	49891.87
632.041	49691.87
632.396	49584.76
632.75	49531.2
633.104	49647.35
633.459	49417.08
633.813	49440.13
634.167	49414.14
634.521	49418.88
634.875	49415.04
635.229	49390.18
635.583	49266.35
635.937	49304.08
636.291	49245.33
636.645	49211.66
636.999	49062.06
637.352	49225.22
637.706	48896.41
638.06	49095.28
638.413	49035.17
638.767	48956.07
639.121	49013.25
639.474	48640.83
639.828	48832.23
640.181	48849.18
640.534	48846.47
640.888	48706.13
641.241	48530.55
641.594	48588.62
641.947	48719.02
642.301	48436.09
642.654	48595.4
643.007	48630.88
643.36	48451.68
643.713	48422.75
644.066	48512.69
644.419	48342.08
644.771	47996.1
645.124	47639.95
645.477	47587.52
645.83	47430.24
646.182	47229.56
646.535	47135.78
646.888	47253.52
647.24	47071.83
647.593	47184.59
647.945	47170.58
648.298	47009.68
648.65	46846.52
649.002	46603.82
649.355	46952.06
649.707	46884.71
650.059	47006.52
650.411	47503.23
650.763	47339.16
651.115	47731.7
651.467	47464.36
651.819	47605.15
652.171	47453.29
652.523	47471.14
652.875	47428.65
653.227	47319.96
653.578	47493.29
653.93	47297.13
654.282	47298.71
654.633	46984.37
654.985	47198.6
655.337	47185.5
655.688	47262.1
656.039	47310.92
656.391	46844.26
656.742	47120.41
657.094	47110.24
657.445	47108.89
657.796	46961.32
658.147	46804.26
658.498	46910.93
658.849	46988.21
659.2	46780.99
659.551	46756.81
659.902	46879.52
660.253	46637.71
660.604	46858.5
660.955	46585.29
661.306	46832.51
661.656	46675.23
662.007	46735.34
662.358	46768.78
662.708	46615.57
663.059	46753.64
663.409	46452.18
663.76	46683.59
664.11	46535.12
664.461	46671.84
664.811	46657.15
665.161	46600.43
665.511	46572.18
665.862	46457.83
666.212	46514.78
666.562	46421
666.912	46437.27
667.262	46466.42
667.612	46402.01
667.962	46478.62
668.312	46281.57
668.662	46610.6
669.011	46438.4
669.361	46240.66
669.711	46301
670.06	46344.84
670.41	46193.88
670.76	46108.69
671.109	46198.63
671.459	46187.33
671.808	46102.81
672.157	46139.65
672.507	45952.76
672.856	45981.23
673.205	45930.16
673.554	46056.49
673.904	45884.06
674.253	46154.79
674.602	45911.18
674.951	45358.65
675.3	45151.65
675.649	45810.39
675.998	45766.32
676.346	45800.9
676.695	45962.93
677.044	45530.62
677.393	45660.11
677.741	45689.49
678.09	45550.96
678.438	45529.27
678.787	45517.07
679.135	45492.66
679.484	45190.07
679.832	45235.49
680.181	45134.03
680.529	45285.43
680.877	45091.77
681.225	45114.36
681.573	45251.08
681.922	44892.68
682.27	44873.92
682.618	44911.88
682.966	44674.15
683.314	44933.8
683.661	44685.22
684.009	44563.42
684.357	44351.45
684.705	44257.89
685.053	44290.43
685.4	44248.17
685.748	43991
686.095	44012.02
686.443	43861.97
686.79	43788.52
687.138	43938.35
687.485	43914.17
687.832	43642.76
688.18	43641.63
688.527	43404.81
688.874	43407.29
689.221	43327.07
689.568	43184.92
689.915	43043.23
690.262	42872.16
690.609	42919.17
690.956	42783.58
691.303	42771.38
691.65	42602.11
691.997	42596.46
692.344	42365.06
692.69	42350.82
693.037	42327.09
693.383	42119.64
693.73	42196.7
694.077	41931.62
694.423	41841.46
694.769	41824.73
695.116	41558.3
695.462	41627.45
695.808	41489.15
696.155	41586.1
696.501	41275.14
696.847	41251.19
697.193	41165.54
697.539	41175.49
697.885	40831.09
698.231	40657.76
698.577	40563.52
698.923	40590.87
699.269	40521.49
699.614	40248.28
699.96	40114.5
700.306	40134.83
700.651	40062.07
700.997	39724.9
701.342	39801.74
701.688	39673.83
702.033	39608.52
702.379	39699.59
702.724	39475.42
703.069	39564.23
703.415	39025.94
703.76	39111.81
704.105	39209.44
704.45	38962.21
704.795	38824.81
705.14	38706.4
705.485	38676.57
705.83	38512.5
706.175	38537.14
706.52	38393.64
706.865	38372.85
707.209	38316.35
707.554	38134.44
707.899	38256.69
708.243	37986.64
708.588	38071.16
708.932	37662.13
709.277	37827.55
709.621	37673.66
709.966	37451.06
710.31	37555.47
710.654	37179.43
710.998	37346.89
711.342	37341.91
711.687	37309.6
712.031	37150.51
712.375	37080.45
712.719	37059.21
713.063	36880.23
713.407	37048.81
713.75	36800.01
714.094	36930.85
714.438	36567.47
714.782	36673
715.125	36409.51
715.469	36660.58
715.812	36366.12
716.156	36181.49
716.499	36183.98
716.843	36298.55
717.186	36047.48
717.53	36202.28
717.873	36085.22
718.216	36069.18
718.559	35952.57
718.902	35788.96
719.246	35853.82
719.589	35612.24
719.932	35701.28
720.275	35579.47
720.617	35518.46
720.96	35412.7
721.303	35487.05
721.646	35515.29
721.989	35066.04
722.331	35267.17
722.674	35100.16
723.016	35165.02
723.359	35000.51
723.701	34958.7
724.044	34833.05
724.386	34694.3
724.729	34798.7
725.071	34582.66
725.413	34675.54
725.755	34500.63
726.097	34470.12
726.439	34328.21
726.782	34410.01
727.124	34549.9
727.465	34328.89
727.807	34233.52
728.149	34236.46
728.491	34127.08
728.833	34086.41
729.175	33904.94
729.516	33927.99
729.858	33886.19
730.199	33935.9
730.541	33913.53
730.882	33766.19
731.224	33711.5
731.565	33500.21
731.906	33586.98
732.248	33613.88
732.589	33433.99
732.93	33402.58
733.271	33383.6
733.612	33415.01
733.953	33406.2
734.294	33232.19
734.635	33279.65
734.976	33338.4
735.317	32999.88
735.658	33134.11
735.999	33041.01
736.339	32874.69
736.68	32919.43
737.021	32851.18
737.361	32704.97
737.702	32865.65
738.042	32709.95
738.383	32748.59
738.723	32742.26
739.063	32513.11
739.404	32559.21
739.744	32342.95
740.084	32373
740.424	32309.05
740.764	32516.73
741.104	32526.45
741.444	32234.93
741.784	32145.89
742.124	32218.88
742.464	31949.29
742.804	31996.74
743.143	32004.88
743.483	32088.49
743.823	31829.06
744.162	31887.37
744.502	31915.39
744.841	31746.13
745.181	31914.94
745.52	31664.77
745.86	31780.93
746.199	31425.91
746.538	31508.39
746.877	31594.95
747.216	31446.02
747.556	31401.5
747.895	31492.58
748.234	31170.32
748.573	31105.24
748.911	31196.31
749.25	31076.77
749.589	31112.92
749.928	31090.1
750.267	31017.79
750.605	30908.64
750.944	30771.46
751.283	30710
751.621	30787.28
751.96	30549.1
752.298	30593.16
752.636	30601.98
752.975	30373.96
753.313	30343.91
753.651	30347.07
753.989	30126.51
754.327	30272.27
754.666	30147.98
755.004	30108.21
755.342	30091.03
755.679	30018.94
756.017	29693.75
756.355	29948.66
756.693	29715.22
757.031	29786.18
757.368	29556.58
757.706	29525.62
758.044	29468.45
758.381	29488.33
758.719	29279.98
759.056	29272.07
759.394	29308.45
759.731	28991.4
760.068	29005.18
760.405	28893.32
760.743	28801.57
761.08	28885.41
761.417	28664.63
761.754	28576.95
762.091	28524.52
762.428	28470.73
762.765	28190.74
763.102	28358.2
763.438	28142.83
763.775	28022.61
764.112	28101.7
764.449	28170.63
764.785	27893.57
765.122	27851.09
765.458	27702.17
765.795	27583.75
766.131	27583.98
766.467	27463.3
766.804	27438.67
767.14	27136.53
767.476	27158.23
767.812	27156.42
768.148	27199.58
768.485	26946.48
768.821	26806.82
769.157	26704.23
769.492	26787.16
769.828	26657.67
770.164	26478.92
770.5	26397.79
770.836	26347.85
771.171	26212.94
771.507	26148.08
771.842	26032.38
772.178	25872.84
772.513	25875.1
772.849	25737.25
773.184	25736.34
773.519	25591.04
773.855	25508.55
774.19	25336.58
774.525	25301.78
774.86	25344.26
775.195	25274.43
775.53	25113.08
775.865	24912.41
776.2	24671.51
776.535	24676.71
776.87	24683.72
777.205	24584.96
777.539	24443.27
777.874	24471.74
778.209	24248.47
778.543	24198.3
778.878	24115.14
779.212	24045.77
779.547	24026.11
779.881	23995.15
780.215	23777.75
780.55	23917.86
780.884	23773.46
781.218	23647.58
781.552	23701.59
781.886	23592.44
782.22	23342.73
782.554	23337.76
782.888	23171.44
783.222	23100.48
783.556	22892.35
783.889	23017.77
784.223	22742.3
784.557	22702.75
784.89	22751.56
785.224	22558.35
785.557	22402.65
785.891	22337.34
786.224	22293.04
786.558	22350.22
786.891	22160.62
787.224	22173.05
787.557	21915.65
787.891	21929.89
788.224	21914.97
788.557	21869.55
788.89	21735.54
789.223	21682.66
789.556	21578.26
789.888	21524.7
790.221	21354.54
790.554	21221.43
790.887	21243.81
791.219	21164.94
791.552	21117.26
791.884	20995.22
792.217	21009.01
792.549	20802.91
792.882	20771.73
793.214	20731.73
793.546	20704.84
793.879	20567.89
794.211	20440.44
794.543	20583.48
794.875	20498.06
795.207	20510.27
795.539	20239.76
795.871	20364.96
796.203	20105.08
796.535	20049.03
796.867	20054.68
797.198	19947.57
797.53	19906.67
797.862	19795.26
798.193	19788.02
798.525	19720.68
798.856	19708.48
799.188	19552.32
799.519	19433.46
799.85	19361.37
800.182	19436.4
800.513	19388.49
800.844	19216.06
801.175	19250.86
801.506	19186.46
801.837	19010.64
802.168	19077.99
802.499	19002.51
802.83	18862.4
803.161	18801.84
803.491	18751.67
803.822	18781.72
804.153	18703.76
804.483	18528.85
804.814	18531.33
805.145	18547.61
805.475	18420.15
805.805	18355.29
806.136	18437.33
806.466	18359.36
806.796	18302.87
807.126	18224.45
807.457	18111.68
807.787	18022.65
808.117	18070.1
808.447	17981.52
808.777	17985.81
809.107	17901.07
809.436	17959.37
809.766	17894.97
810.096	17764.8
810.426	17690.23
810.755	17678.48
811.085	17706.72
811.414	17661.75
811.744	17482.77
812.073	17367.98
812.403	17391.25
812.732	17361.87
813.061	17394.42
813.39	17207.53
813.719	17231.26
814.049	17310.58
814.378	17196.23
814.707	17207.98
815.036	17146.96
815.365	17083.92
815.693	16871.27
816.022	16911.72
816.351	16721.66
816.68	16787.65
817.008	16713.98
817.337	16597.6
817.665	16664.04
817.994	16534.1
818.322	16633.31
818.651	16543.14
818.979	16442.8
819.307	16560.54
819.636	16416.81
819.964	16288.46
820.292	16364.39
820.62	16420.43
820.948	16285.97
821.276	16343.6
821.604	16372.3
821.932	16304.27
822.259	16370.04
822.587	16318.29
822.915	16279.64
823.243	16346.31
823.57	16254.56
823.898	16278.74
824.225	16206.65
824.553	16181.34
824.88	16234.22
825.207	16316.7
825.535	16335.69
825.862	16208.91
826.189	16153.54
826.516	16271.06
826.843	16288
827.17	16306.08
827.497	16263.82
827.824	16209.14
828.151	16292.98
828.478	16166.2
828.805	16177.27
829.131	16189.93
829.458	16218.4
829.785	16151.06
830.111	16142.92
830.438	16285.74
830.764	16130.95
831.09	16115.58
831.417	16129.14
831.743	16158.97
832.069	16108.12
832.395	16006.88
832.722	16141.57
833.048	16114.68
833.374	16048.69
833.7	15871.52
834.026	16011.18
834.351	15973.89
834.677	15912.19
835.003	16007.33
835.329	15961.01
835.654	15852.54
835.98	15884.4
836.306	15811.86
836.631	15823.84
836.956	15845.76
837.282	15782.93
837.607	15745.42
837.932	15642.15
838.258	15771.86
838.583	15664.29
838.908	15602.15
839.233	15638.53
839.558	15564.41
839.883	15542.71
840.208	15512.88
840.533	15499.78
840.858	15435.6
841.182	15453.45
841.507	15504.3
841.832	15405.54
842.156	15320.8
842.481	15290.06
842.805	15260.91
843.13	15283.96
843.454	15227.01
843.778	15149.5
844.103	15220.46
844.427	15133.46
844.751	15182.04
845.075	14984.99
845.399	15043.29
845.723	14948.83
846.047	14935.72
846.371	14733.92
846.695	14813.92
847.019	14714.26
847.343	14594.26
847.666	14560.37
847.99	14512.91
848.313	14521.72
848.637	14372.35
848.96	14372.57
849.284	14309.75
849.607	14265.23
849.931	14217.32
850.254	14112.69
850.577	14056.65
850.9	13980.72
851.223	13955.86
851.546	13858.46
851.869	13774.4
852.192	13848.97
852.515	13714.06
852.838	13715.19
853.161	13638.36
853.483	13528.75
853.806	13509.77
854.129	13453.5
854.451	13404.24
854.774	13355.88
855.096	13287.4
855.419	13222.77
855.741	13327.4
856.063	13259.38
856.385	13173.28
856.708	13063
857.03	13047.41
857.352	13102.32
857.674	13106.62
857.996	13012.61
858.318	12885.83
858.64	12920.86
858.961	12905.04
859.283	12755.89
859.605	12722.45
859.926	12816.68
860.248	12751.6
860.57	12682
860.891	12701.21
861.212	12665.73
861.534	12674.09
861.855	12491.04
862.176	12578.27
862.498	12638.83
862.819	12503.47
863.14	12454.21
863.461	12455.34
863.782	12359.75
864.103	12363.36
864.424	12328.56
864.745	12389.35
865.065	12294.21
865.386	12190.26
865.707	12223.7
866.027	12236.36
866.348	12200.43
866.668	12207.43
866.989	12178.28
867.309	12100.09
867.63	12167.43
867.95	12138.51
868.27	12018.06
868.59	12040.88
868.91	12058.28
869.23	11944.62
869.55	12029.81
869.87	12113.65
870.19	11967.21
870.51	12052.41
870.83	12026.65
871.15	11916.37
871.469	11984.84
871.789	11901.23
872.109	11853.54
872.428	11798.4
872.748	11828.01
873.067	11788.91
873.386	11820.32
873.706	11709.37
874.025	11753.89
874.344	11642.93
874.663	11749.82
874.982	11668.24
875.301	11627.79
875.62	11592.76
875.939	11611.97
876.258	11645.87
876.577	11545.53
876.896	11544.17
877.214	11580.56
877.533	11549.82
877.852	11471.86
878.17	11537.39
878.489	11470.96
878.807	11457.4
879.125	11426.44
879.444	11439.77
879.762	11380.79
880.08	11366.33
880.398	11371.07
880.716	11307.8
881.034	11199.78
881.352	11277.97
881.67	11244.97
881.988	11262.15
882.306	11276.16
882.624	11222.37
882.941	11163.62
883.259	11182.38
883.577	11113.9
883.894	10953.68
884.212	11020.8
884.529	11000.46
884.846	10960.91
885.164	10981.48
885.481	10971.99
885.798	10951.87
886.115	10904.64
886.432	10880.91
886.75	10882.95
887.067	10859.22
887.383	10804.98
887.7	10724.31
888.017	10698.55
888.334	10744.42
888.651	10672.11
888.967	10689.73
889.284	10587.59
889.6	10576.29
889.917	10539.68
890.233	10489.29
890.55	10421.72
890.866	10468.04
891.182	10424.66
891.498	10417.65
891.815	10368.84
892.131	10353.02
892.447	10283.87
892.763	10299.23
893.079	10327.71
893.395	10205.45
893.71	10210.42
894.026	10174.27
894.342	10163.19
894.657	10053.37
894.973	10145.34
895.289	10026.7
895.604	10021.05
895.92	9897.21
896.235	9943.54
896.55	9918.23
896.865	9845.01
897.181	9878.68
897.496	9862.18
897.811	9745.8
898.126	9798.01
898.441	9818.34
898.756	9765.24
899.071	9681.62
899.386	9700.83
899.7	9563.89
900.015	9524.57
900.33	9501.74
900.644	9468.75
900.959	9452.93
901.273	9448.86
901.588	9393.27
901.902	9355.98
902.216	9318.02
902.531	9275.76
902.845	9270.11
903.159	9166.16
903.473	9199.38
903.787	9105.82
904.101	9066.5
904.415	9141.3
904.729	9082.32
905.042	9013.62
905.356	8925.71
905.67	8952.38
905.984	8939.5
906.297	8900.4
906.611	8840.06
906.924	8782.66
907.237	8756
907.551	8808.43
907.864	8742.89
908.177	8746.73
908.491	8647.3
908.804	8595.1
909.117	8541.31
909.43	8488.66
909.743	8447.53
910.056	8464.71
910.368	8405.5
910.681	8407.53
910.994	8328.44
911.307	8324.37
911.619	8306.97
911.932	8324.15
912.244	8235.11
912.557	8185.62
912.869	8142.46
913.181	8136.58
913.494	8098.84
913.806	8055.68
914.118	8022.46
914.43	7990.59
914.742	7976.13
915.054	7906.76
915.366	7939.75
915.678	7873.08
915.99	7862.46
916.302	7764.16
916.613	7738.17
916.925	7733.65
917.236	7754.67
917.548	7682.58
917.859	7638.29
918.171	7564.62
918.482	7579.53
918.794	7558.29
919.105	7565.07
919.416	7488.69
919.727	7477.16
920.038	7436.49
920.349	7361.46
920.66	7252.08
920.971	7331.86
921.282	7280.78
921.593	7244.4
921.903	7202.82
922.214	7164.63
922.525	7150.84
922.835	7099.32
923.146	7147.91
923.456	7071.52
923.767	7039.66
924.077	6995.82
924.387	7024.74
924.697	6969.6
925.008	6954.01
925.318	6918.98
925.628	6891.41
925.938	6858.42
926.248	6752.21
926.558	6741.14
926.867	6756.05
927.177	6692.32
927.487	6708.37
927.796	6638.54
928.106	6623.17
928.416	6647.35
928.725	6560.8
929.034	6471.54
929.344	6519.45
929.653	6464.76
929.962	6435.38
930.271	6400.81
930.581	6402.39
930.89	6327.14
931.199	6353.8
931.508	6350.86
931.817	6322.16
932.125	6318.32
932.434	6302.5
932.743	6252.56
933.051	6166.91
933.36	6121.04
933.669	6158.1
933.977	6095.28
934.286	6104.77
934.594	6059.35
934.902	6001.95
935.21	6026.35
935.519	5964.89
935.827	5910.88
936.135	5870.88
936.443	5814.16
936.751	5880.37
937.059	5834.04
937.367	5826.13
937.674	5805.12
937.982	5755.17
938.29	5702.29
938.597	5752.46
938.905	5705.23
939.213	5641.73
939.52	5606.93
939.827	5568.96
940.135	5587.72
940.442	5589.75
940.749	5551.11
941.056	5566.7
941.363	5492.81
941.67	5439.02
941.977	5389.31
942.284	5346.14
942.591	5381.17
942.898	5374.62
943.205	5343.21
943.511	5336.88
943.818	5301.63
944.125	5294.85
944.431	5233.38
944.738	5259.14
945.044	5225.47
945.35	5233.38
945.657	5159.71
945.963	5125.59
946.269	5138.69
946.575	5088.75
946.881	5037.68
947.187	5091.24
947.493	5017.79
947.799	5009.2
948.105	4992.48
948.41	4936.66
948.716	4922.88
949.022	4915.2
949.327	4907.74
949.633	4854.18
949.938	4832.49
950.244	4892.37
950.549	4835.2
950.854	4774.86
951.16	4812.83
951.465	4772.6
951.77	4756.1
952.075	4721.53
952.38	4672.26
952.685	4620.74
952.99	4641.76
953.294	4615.77
953.599	4612.38
953.904	4597.24
954.209	4539.39
954.513	4547.97
954.818	4551.36
955.122	4524.7
955.426	4484.7
955.731	4463.46
956.035	4480.18
956.339	4428.65
956.643	4452.61
956.948	4379.39
957.252	4350.01
957.556	4344.82
957.86	4295.32
958.163	4298.26
958.467	4298.26
958.771	4303.91
959.075	4280.86
959.378	4275.66
959.682	4215.1
959.985	4227.98
960.289	4181.66
960.592	4167.19
960.896	4160.19
961.199	4160.41
961.502	4140.07
961.805	4097.14
962.108	4104.6
962.411	4077.25
962.714	4021.21
963.017	4028.67
963.32	4052.17
963.623	3975.79
963.926	3959.06
964.228	3936.24
964.531	3957.25
964.833	3928.55
965.136	3912.96
965.438	3882.68
965.741	3850.82
966.043	3871.83
966.345	3803.81
966.648	3808.56
966.95	3786.41
967.252	3764.72
967.554	3759.29
967.856	3777.82
968.158	3757.49
968.46	3717.94
968.761	3693.08
969.063	3705.51
969.365	3646.75
969.666	3665.28
969.968	3624.83
970.269	3590.03
970.571	3590.71
970.872	3611.73
971.174	3549.58
971.475	3571.95
971.776	3546.19
972.077	3528.79
972.378	3506.19
972.679	3495.8
972.98	3527.66
973.281	3484.27
973.582	3474.56
973.883	3458.96
974.183	3390.04
974.484	3415.8
974.785	3401.79
975.085	3364.5
975.386	3366.76
975.686	3354.33
975.986	3346.42
976.287	3354.56
976.587	3274.11
976.887	3279.53
977.187	3262.13
977.487	3282.47
977.787	3250.15
978.087	3234.34
978.387	3236.82
978.687	3220.1
978.987	3214.45
979.286	3177.84
979.586	3187.78
979.885	3155.69
980.185	3141
980.484	3133.77
980.784	3106.43
981.083	3112.08
981.382	3064.85
981.682	3081.57
981.981	3031.86
982.28	3055.13
982.579	2999.99
982.878	3054.68
983.177	3008.81
983.475	2981.91
983.774	2947.79
984.073	2932.42
984.372	2939.43
984.67	2968.13
984.969	2948.47
985.267	2881.35
985.566	2896.49
985.864	2867.34
986.162	2854.23
986.461	2834.57
986.759	2854.23
987.057	2797.29
987.355	2814.23
987.653	2792.09
987.951	2820.79
988.249	2779.88
988.547	2779.66
988.844	2747.57
989.142	2771.52
989.44	2756.61
989.737	2694.69
990.035	2704.41
990.332	2658.08
990.63	2691.75
990.927	2683.62
991.224	2667.35
991.521	2646.33
991.819	2625.99
992.116	2582.6
992.413	2617.85
992.71	2583.28
993.006	2585.54
993.303	2562.49
993.6	2557.07
993.897	2518.2
994.193	2502.6
994.49	2503.73
994.787	2510.06
995.083	2480.91
995.379	2515.03
995.676	2480.91
995.972	2451.31
996.268	2451.76
996.565	2442.94
996.861	2439.55
997.157	2431.65
997.453	2369.05
997.749	2384.64
998.044	2350.74
998.34	2366.56
998.636	2343.96
998.932	2331.08
999.227	2322.72
999.523	2277.98
999.818	2271.2
1000.114	2303.96
1000.409	2235.27
1000.704	2271.65
1001	2239.33
1001.295	2204.53
1001.59	2208.6
1001.885	2209.96
1002.18	2214.25
1002.475	2181.71
1002.77	2192.33
1003.065	2155.27
1003.359	2147.58
1003.654	2122.95
1003.949	2139.22
1004.243	2136.96
1004.538	2087.47
1004.832	2090.86
1005.127	2118.21
1005.421	2097.64
1005.715	2049.96
1006.009	2056.29
1006.304	2074.59
1006.598	2035.27
1006.892	2012.22
1007.186	1992.56
1007.48	1985.33
1007.773	2002.05
1008.067	2002.73
1008.361	1941.49
1008.655	1912.34
1008.948	1922.73
1009.242	1936.06
1009.535	1884.77
1009.829	1890.19
1010.122	1909.62
1010.415	1887.03
1010.708	1860.36
1011.001	1876.63
1011.295	1847.03
1011.588	1832.79
1011.881	1815.62
1012.173	1824.2
1012.466	1820.36
1012.759	1790.53
1013.052	1800.25
1013.344	1771.78
1013.637	1795.28
1013.93	1731.1
1014.222	1731.55
1014.514	1740.14
1014.807	1736.75
1015.099	1717.09
1015.391	1690.2
1015.683	1689.29
1015.976	1674.38
1016.268	1676.64
1016.56	1659.69
1016.851	1622.4
1017.143	1631.89
1017.435	1623.3
1017.727	1583.76
1018.018	1617.88
1018.31	1602.06
1018.602	1623.53
1018.893	1596.86
1019.185	1596.41
1019.476	1541.05
1019.767	1551.22
1020.058	1563.87
1020.35	1527.94
1020.641	1546.02
1020.932	1496.3
1021.223	1457.21
1021.514	1470.09
1021.804	1478.9
1022.095	1437.09
1022.386	1461.28
1022.677	1439.35
1022.967	1401.62
1023.258	1439.81
1023.548	1400.94
1023.839	1396.19
1024.129	1388.06
1024.419	1390.09
1024.709	1382.86
1025	1376.08
1025.29	1355.52
1025.58	1330.66
1025.87	1350.54
1026.16	1319.58
1026.449	1326.36
1026.739	1313.26
1027.029	1325.69
1027.319	1313.03
1027.608	1299.47
1027.898	1284.33
1028.187	1283.65
1028.477	1276.87
1028.766	1271.45
1029.055	1247.95
1029.344	1251.11
1029.634	1241.62
1029.923	1208.4
1030.212	1225.58
1030.501	1219.93
1030.79	1195.75
1031.078	1188.74
1031.367	1199.59
1031.656	1179.25
1031.945	1159.36
1032.233	1167.95
1032.522	1140.38
1032.81	1153.03
1033.099	1127.27
1033.387	1116.43
1033.675	1132.7
1033.963	1118.69
1034.251	1089.31
1034.54	1094.05
1034.828	1104.45
1035.116	1056.77
1035.403	1083.21
1035.691	1057.44
1035.979	1066.48
1036.267	1062.64
1036.554	1062.64
1036.842	1048.86
1037.129	1027.16
1037.417	1016.99
1037.704	1036.2
1037.992	993.49
1038.279	1014.06
1038.566	976.09
1038.853	976.09
1039.14	976.09
