Data from white_poster_card_FLMS001491_00023.txt Node
Date: Wed Feb 08 11:51:17 GMT 2017
User: dcchb
Spectrometer: FLMS00149
Trigger mode: 0
Integration Time (sec): 2.000000E-2
Scans to average: 10
Electric dark correction enabled: true
Nonlinearity correction enabled: false
Boxcar width: 0
XAxis mode: Wavelengths
Number of Pixels in Spectrum: 2048
>>>>>Begin Spectral Data<<<<<
341.393	-29.62
341.776	-29.62
342.16	-29.62
342.543	-66
342.927	-77.53
343.31	-98.09
343.693	-76.4
344.077	-50.18
344.46	-47.92
344.843	-55.15
345.226	-34.82
345.61	-19.67
345.993	-19.45
346.376	-12.44
346.759	23.94
347.142	35.01
347.525	30.95
347.908	48.35
348.291	71.62
348.674	98.97
349.057	105.29
349.44	119.08
349.823	147.1
350.206	155.69
350.588	212.86
350.971	215.12
351.354	219.64
351.737	233.43
352.119	226.19
352.502	253.99
352.884	282.24
353.267	283.59
353.65	295.35
354.032	318.62
354.414	309.81
354.797	311.84
355.179	305.51
355.562	339.41
355.944	308.45
356.326	325.18
356.709	333.31
357.091	339.86
357.473	359.98
357.855	340.54
358.238	324.95
358.62	338.51
359.002	350.26
359.384	325.85
359.766	338.06
360.148	356.13
360.53	333.99
360.912	334.21
361.294	339.19
361.676	328.79
362.057	323.14
362.439	328.11
362.821	306.64
363.203	336.25
363.584	324.72
363.966	336.7
364.348	332.18
364.729	316.81
365.111	321.79
365.493	297.38
365.874	317.49
366.256	314.78
366.637	325.63
367.019	331.73
367.4	320.43
367.781	318.85
368.163	321.56
368.544	310.71
368.925	315.68
369.306	332.18
369.688	319.53
370.069	329.02
370.45	308.23
370.831	325.85
371.212	315.68
371.593	322.01
371.974	310.49
372.355	312.29
372.736	298.96
373.117	302.8
373.498	323.37
373.879	311.62
374.26	319.07
374.641	308.23
375.021	292.41
375.402	313.65
375.783	310.03
376.163	323.37
376.544	345.29
376.925	331.28
377.305	319.75
377.686	313.2
378.066	318.17
378.447	338.06
378.827	329.69
379.208	333.31
379.588	325.4
379.968	324.95
380.349	323.82
380.729	330.82
381.109	350.03
381.489	363.59
381.87	345.74
382.25	325.63
382.63	352.29
383.01	351.62
383.39	331.28
383.77	345.06
384.15	334.67
384.53	343.93
384.91	359.98
385.29	349.58
385.67	377.6
386.049	364.95
386.429	350.03
386.809	334.44
387.189	371.05
387.568	377.38
387.948	355
388.328	342.12
388.707	361.78
389.087	364.5
389.466	371.95
389.846	346.87
390.225	388
390.605	384.83
390.984	364.04
391.363	390.26
391.743	369.24
392.122	408.34
392.501	381.9
392.881	402.01
393.26	364.95
393.639	395.68
394.018	390.94
394.397	406.53
394.776	406.98
395.155	386.42
395.534	416.25
395.913	411.73
396.292	408.11
396.671	428.22
397.05	412.18
397.429	415.12
397.808	411.05
398.186	407.43
398.565	432.29
398.944	415.34
399.323	418.73
399.701	423.7
400.08	423.48
400.458	450.82
400.837	450.14
401.215	438.39
401.594	426.87
401.972	434.32
402.351	451.95
402.729	447.21
403.107	450.37
403.486	468.9
403.864	459.63
404.242	486.75
404.62	472.97
404.999	454.66
405.377	486.07
405.755	478.62
406.133	466.64
406.511	475
406.889	512.29
407.267	483.14
407.645	500.09
408.023	555.23
408.401	518.62
408.779	515
409.156	555
409.534	555.23
409.912	566.07
410.29	569.24
410.667	575.11
411.045	568.78
411.422	573.53
411.8	609.24
412.178	613.3
412.555	648.1
412.933	643.81
413.31	646.52
413.687	659.4
414.065	696.01
414.442	681.55
414.819	726.29
415.197	726.75
415.574	743.47
415.951	713.64
416.328	747.76
416.705	780.98
417.082	792.51
417.46	778.27
417.837	819.17
418.214	800.64
418.591	844.26
418.967	850.81
419.344	854.88
419.721	863.69
420.098	889.91
420.475	903.01
420.852	893.75
421.228	966.74
421.605	939.62
421.982	939.4
422.358	962.67
422.735	977.14
423.111	970.13
423.488	1011.71
423.864	1022.56
424.241	1021.65
424.617	1061.65
424.994	1075.44
425.37	1084.7
425.746	1081.09
426.123	1100.97
426.499	1116.57
426.875	1128.77
427.251	1141.88
427.627	1173.51
428.003	1189.33
428.379	1180.52
428.756	1182.33
429.132	1220.29
429.507	1240.41
429.883	1281.08
430.259	1287.86
430.635	1283.34
431.011	1297.8
431.387	1349.78
431.763	1355.43
432.138	1359.5
432.514	1383.68
432.89	1391.14
433.265	1421.19
433.641	1464.81
434.016	1455.09
434.392	1476.56
434.767	1525.82
435.143	1525.82
435.518	1526.27
435.894	1543.22
436.269	1601.53
436.644	1608.98
437.02	1618.47
437.395	1637.91
437.77	1665.48
438.145	1666.83
438.52	1671.35
438.895	1690.11
439.271	1751.13
439.646	1737.57
440.021	1743.67
440.395	1768.98
440.77	1736.21
441.145	1771.46
441.52	1801.52
441.895	1791.13
442.27	1829.54
442.645	1825.02
443.019	1859.6
443.394	1864.8
443.769	1875.87
444.143	1842.2
444.518	1885.59
444.892	1895.76
445.267	1933.49
445.641	1949.31
446.016	1938.69
446.39	1929.2
446.764	1978.92
447.139	2004
447.513	2000.39
447.887	2014.85
448.262	2011.23
448.636	2016.66
449.01	2046.26
449.384	2042.42
449.758	2072.93
450.132	2119.7
450.506	2104.79
450.88	2096.88
451.254	2131.46
451.628	2178.23
452.002	2197.89
452.376	2184.34
452.75	2209.42
453.123	2216.2
453.497	2246.03
453.871	2263.2
454.244	2327.38
454.618	2340.72
454.992	2384.1
455.365	2355.63
455.739	2428.4
456.112	2445.57
456.486	2471.56
456.859	2458.45
457.232	2512.91
457.606	2524.89
457.979	2536.87
458.352	2608.73
458.725	2604.44
459.099	2634.72
459.472	2708.39
459.845	2734.83
460.218	2729.41
460.591	2754.94
460.964	2781.16
461.337	2832.91
461.71	2872.23
462.083	2885.56
462.456	2895.95
462.829	2906.12
463.201	2956.74
463.574	3007.36
463.947	3007.59
464.32	3090.3
464.692	3095.5
465.065	3131.2
465.438	3195.61
465.81	3207.81
466.183	3249.62
466.555	3314.02
466.928	3331.65
467.3	3311.09
467.672	3390.18
468.045	3496.84
468.417	3532.1
468.789	3495.71
469.161	3546.11
469.534	3548.59
469.906	3687.57
470.278	3720.34
470.65	3740.45
471.022	3813.9
471.394	3864.29
471.766	3857.96
472.138	3900
472.51	4021.58
472.882	4045.3
473.253	4139.54
473.625	4163.72
473.997	4245.75
474.369	4244.62
474.74	4315.58
475.112	4372.07
475.484	4448.91
475.855	4542.24
476.227	4576.59
476.598	4701.56
476.97	4705.4
477.341	4825.4
477.713	4902.91
478.084	4877.6
478.455	5015.9
478.827	5063.81
479.198	5212.5
479.569	5234.65
479.94	5360.52
480.311	5426.74
480.682	5552.16
481.053	5673.96
481.424	5731.13
481.795	5793.28
482.166	5863.33
482.537	6000.28
482.908	6093.61
483.279	6121.86
483.65	6207.51
484.021	6327.5
484.391	6440.95
484.762	6466.93
485.133	6555.97
485.503	6672.8
485.874	6782.63
486.244	6827.6
486.615	6912.35
486.985	7100.14
487.356	7110.53
487.726	7266.91
488.097	7381.49
488.467	7358.66
488.837	7597.98
489.207	7695.15
489.578	7757.97
489.948	7782.38
490.318	7970.17
490.688	8031.41
491.058	8098.3
491.428	8175.82
491.798	8302.14
492.168	8417.39
492.538	8437.96
492.908	8600.66
493.278	8656.93
493.648	8668.46
494.017	8876.59
494.387	8912.97
494.757	9014.21
495.126	9029.35
495.496	9086.07
495.866	9259.4
496.235	9303.7
496.605	9421.43
496.974	9477.25
497.344	9490.13
497.713	9603.8
498.082	9627.08
498.452	9786.4
498.821	9838.15
499.19	9911.82
499.559	9976.45
499.928	10107.97
500.298	10129.21
500.667	10203.79
501.036	10195.42
501.405	10336.66
501.774	10319.49
502.143	10500.95
502.512	10480.16
502.88	10629.08
503.249	10627.28
503.618	10700.5
503.987	10676.77
504.356	10852.36
504.724	10971.67
505.093	10985.69
505.462	11054.61
505.83	11062.29
506.199	11223.19
506.567	11392.23
506.936	11362.4
507.304	11530.3
507.672	11507.03
508.041	11510.42
508.409	11706.12
508.777	11813.23
509.145	11965.32
509.514	11962.84
509.882	11996.73
510.25	12125.09
510.618	12229.72
510.986	12183.85
511.354	12355.82
511.722	12457.96
512.09	12641.91
512.458	12624.51
512.826	12761.46
513.193	12806.88
513.561	12838.52
513.929	12951.96
514.297	13084.39
514.664	13239.64
515.032	13234.21
515.4	13411.16
515.767	13381.55
516.135	13564.37
516.502	13420.42
516.869	13629.91
517.237	13846.85
517.604	13763.92
517.972	13879.17
518.339	13968.88
518.706	14166.85
519.073	14116.45
519.44	14328.2
519.808	14396.22
520.175	14490.9
520.542	14715.08
520.909	14781.97
521.276	14786.72
521.643	14872.82
522.009	15068.06
522.376	15172.24
522.743	15227.16
523.11	15515.51
523.477	15622.4
523.843	15629.63
524.21	15871.66
524.577	16015.38
524.943	16103.07
525.31	16088.38
525.676	16277.75
526.043	16371.08
526.409	16469.38
526.776	16733.56
527.142	16707.57
527.508	16947.11
527.874	16994.34
528.241	17108.69
528.607	17144.62
528.973	17342.81
529.339	17320.21
529.705	17601.1
530.071	17581.22
530.437	17747.09
530.803	17811.27
531.169	17915.67
531.535	17976.24
531.901	17952.06
532.267	18241.99
532.632	18269.79
532.998	18336.23
533.364	18460.97
533.73	18499.84
534.095	18696.22
534.461	18769.44
534.826	18829.77
535.192	18962.2
535.557	19120.16
535.923	19008.07
536.288	19129.88
536.653	19281.51
537.019	19300.5
537.384	19256.65
537.749	19493.48
538.114	19480.15
538.479	19610.77
538.845	19634.5
539.21	19697.77
539.575	19817.09
539.94	19903.19
540.305	19963.98
540.67	20042.85
541.034	20132.11
541.399	20211.88
541.764	20278.55
542.129	20476.28
542.494	20470.41
542.858	20465.66
543.223	20535.04
543.587	20699.33
543.952	20662.04
544.316	20748.14
544.681	20790.63
545.045	20864.75
545.41	21054.8
545.774	21057.74
546.138	21179.99
546.503	21184.06
546.867	21196.94
547.231	21423.15
547.595	21500.44
547.959	21490.04
548.324	21541.34
548.688	21616.59
549.052	21702.47
549.416	21697.04
549.779	21830.37
550.143	21879.64
550.507	22128.9
550.871	22092.29
551.235	22087.31
551.599	22243.02
551.962	22380.41
552.326	22520.07
552.689	22504.93
553.053	22427.87
553.417	22463.58
553.78	22820.85
554.143	22861.31
554.507	22892.27
554.87	23059.49
555.234	23197.34
555.597	23076.67
555.96	23136.55
556.323	23338.58
556.686	23309.43
557.05	23630.78
557.413	23627.84
557.776	23750.55
558.139	23814.73
558.502	23981.28
558.865	24011.56
559.228	24290.87
559.59	24234.38
559.953	24393.47
560.316	24555.27
560.679	24665.1
561.041	24765.66
561.404	24777.87
561.767	25084.3
562.129	25040.01
562.492	25199.78
562.854	25269.15
563.217	25277.97
563.579	25416.94
563.941	25517.96
564.304	25596.15
564.666	25858.97
565.028	25828.91
565.39	25962.02
565.753	26179.86
566.115	26154.1
566.477	26260.76
566.839	26400.65
567.201	26474.32
567.563	26596.57
567.925	26778.72
568.287	26865.95
568.648	26869.56
569.01	27121.08
569.372	27248.08
569.734	27186.62
570.095	27453.95
570.457	27401.3
570.819	27523.56
571.18	27555.87
571.542	27714.06
571.903	27727.17
572.265	27813.27
572.626	27991.79
572.987	28119.7
573.349	28207.15
573.71	28219.58
574.071	28272.24
574.432	28390.43
574.794	28613.02
575.155	28641.49
575.516	28508.39
575.877	28562.4
576.238	28758.55
576.599	28830.19
576.96	28853.01
577.32	28838.1
577.681	28959.68
578.042	29101.14
578.403	29096.85
578.763	29146.79
579.124	29163.51
579.485	29242.38
579.845	29407.12
580.206	29239.44
580.566	29352.43
580.927	29351.53
581.287	29456.84
581.648	29305.2
582.008	29512.43
582.368	29408.03
582.728	29476.27
583.089	29551.98
583.449	29388.37
583.809	29549.72
584.169	29613.9
584.529	29485.99
584.889	29636.95
585.249	29663.61
585.609	29417.97
585.969	29590.39
586.329	29684.18
586.688	29645.53
587.048	29654.57
587.408	29594.91
587.768	29572.32
588.127	29639.66
588.487	29546.33
588.846	29847.56
589.206	29686.21
589.565	29521.92
589.925	29784.29
590.284	29700.22
590.643	29659.77
591.003	29816.6
591.362	29898.41
591.721	29757.85
592.08	29776.6
592.44	29922.59
592.799	29840.33
593.158	29896.37
593.517	29821.57
593.876	29960.1
594.235	29814.34
594.593	29866.77
594.952	30002.13
595.311	29863.61
595.67	29843.49
596.029	30130.49
596.387	30080.55
596.746	30084.84
597.104	29967.33
597.463	29965.53
597.822	30153.54
598.18	30010.27
598.538	29981.34
598.897	30179.98
599.255	29941.35
599.613	30335.69
599.972	30114
600.33	30204.39
600.688	30092.3
601.046	30201.45
601.404	30293.88
601.762	30283.26
602.12	30368
602.478	30397.15
602.836	30375.01
603.194	30242.58
603.552	30386.08
603.91	30316.25
604.268	30477.15
604.625	30427.89
604.983	30537.26
605.341	30325.97
605.698	30537.26
606.056	30568.9
606.413	30539.52
606.771	30724.15
607.128	30687.09
607.485	30521.44
607.843	30681.89
608.2	30821.55
608.557	30820.42
608.914	30657.26
609.272	30892.05
609.629	30987.65
609.986	31048.66
610.343	30852.96
610.7	31077.36
611.057	31072.16
611.414	31189.22
611.771	31168.66
612.127	31183.12
612.484	31172.05
612.841	31279.84
613.198	31177.92
613.554	31214.31
613.911	31464.24
614.267	31343.79
614.624	31247.98
614.98	31506.5
615.337	31480.97
615.693	31525.03
616.05	31515.99
616.406	31603.67
616.762	31544.47
617.118	31427.18
617.475	31549.66
617.831	31563.22
618.187	31525.48
618.543	31633.96
618.899	31814.52
619.255	31738.59
619.611	31706.04
619.967	31774.07
620.323	31902.2
620.678	31700.62
621.034	31692.26
621.39	31643
621.746	31707.4
622.101	32152.59
622.457	31757.34
622.812	31845.02
623.168	31906.04
623.523	31861.07
623.879	32014.29
624.234	31818.81
624.589	31835.31
624.945	31895.19
625.3	31923.67
625.655	31829.66
626.01	31867.17
626.365	31784.91
626.72	31890.9
627.075	31809.77
627.43	31798.47
627.785	31657.46
628.14	31690.68
628.495	31922.99
628.85	31791.47
629.205	31746.5
629.559	31901.29
629.914	31639.83
630.269	31688.87
630.623	31646.16
630.978	31581.08
631.332	31683.22
631.687	31798.92
632.041	31677.12
632.396	31537.01
632.75	31542.66
633.104	31464.24
633.459	31320.29
633.813	31433.06
634.167	31461.08
634.521	31242.1
634.875	31362.1
635.229	31235.55
635.583	31113.29
635.937	31075.33
636.291	31069.9
636.645	31097.02
636.999	31014.31
637.352	31074.2
637.706	30921.21
638.06	31025.16
638.413	30854.32
638.767	30826.97
639.121	30795.56
639.474	30701.78
639.828	30795.11
640.181	30844.37
640.534	30652.06
640.888	30536.81
641.241	30479.18
641.594	30535.23
641.947	30592.4
642.301	30528.67
642.654	30639.41
643.007	30374.1
643.36	30445.96
643.713	30372.97
644.066	30593.98
644.419	30288.23
644.771	30163.49
645.124	29730.28
645.477	29692.54
645.83	29540.23
646.182	29450.06
646.535	29449.61
646.888	29449.83
647.24	29241.7
647.593	29390.85
647.945	29307.92
648.298	29067.92
648.65	29117.86
649.002	28943.18
649.355	29032.44
649.707	29067.02
650.059	29174.36
650.411	29478.53
650.763	29438.53
651.115	29857.05
651.467	29771.41
651.819	29582.94
652.171	29523.05
652.523	29546.78
652.875	29525.31
653.227	29363.96
653.578	29538.42
653.93	29532.99
654.282	29386.78
654.633	29164.19
654.985	29402.38
655.337	29375.71
655.688	29453.45
656.039	29428.82
656.391	29181.82
656.742	29107.24
657.094	29288.71
657.445	29305.88
657.796	29270.18
658.147	29161.03
658.498	29096.85
658.849	29185.21
659.2	29044.42
659.551	29183.85
659.902	29151.54
660.253	29079.67
660.604	29064.98
660.955	28983.86
661.306	29075.38
661.656	28849.17
662.007	28989.96
662.358	29058.43
662.708	28987.92
663.059	29000.81
663.409	28756.97
663.76	28925.33
664.11	28937.3
664.461	28893.01
664.811	28936.85
665.161	28759.91
665.511	28758.1
665.862	28737.76
666.212	28811.43
666.562	28921.94
666.912	28789.96
667.262	28804.65
667.612	28744.09
667.962	28676.07
668.312	28626.8
668.662	28769.62
669.011	28812.79
669.361	28617.09
669.711	28564.66
670.06	28554.72
670.41	28554.94
670.76	28445.11
671.109	28655.73
671.459	28525.34
671.808	28632.91
672.157	28626.35
672.507	28376.64
672.856	28335.96
673.205	28444.44
673.554	28516.75
673.904	28510.65
674.253	28416.41
674.602	28344.1
674.951	28047.38
675.3	27935.97
675.649	28352.91
675.998	28310.65
676.346	28370.77
676.695	28359.47
677.044	28039.47
677.393	28282.63
677.741	28267.94
678.09	28222.97
678.438	28070.66
678.787	28163.31
679.135	28165.57
679.484	27922.42
679.832	28014.84
680.181	27834.51
680.529	27894.62
680.877	27863.66
681.225	27808.29
681.573	27979.82
681.922	27801.51
682.27	27585.02
682.618	27671.8
682.966	27576.44
683.314	27626.83
683.661	27564.46
684.009	27448.98
684.357	27379.6
684.705	27386.16
685.053	27512.26
685.4	27385.03
685.748	27106.84
686.095	27230.68
686.443	27003.12
686.79	26929.67
687.138	26971.25
687.485	27107.07
687.832	26875.21
688.18	26948.88
688.527	26839.96
688.874	26833.4
689.221	26745.5
689.568	26625.27
689.915	26481.78
690.262	26576.46
690.609	26363.36
690.956	26430.48
691.303	26413.75
691.65	26193.42
691.997	26181.67
692.344	26049.92
692.69	25993.65
693.037	26074.55
693.383	25703.04
693.73	25907.78
694.077	25659.65
694.423	25760.89
694.769	25635.24
695.116	25546.21
695.462	25531.52
695.808	25367.91
696.155	25449.03
696.501	25301.47
696.847	25214.46
697.193	25068.93
697.539	25135.82
697.885	25056.73
698.231	24858.09
698.577	24951.65
698.923	24977.18
699.269	24783.29
699.614	24631.65
699.96	24577.64
700.306	24634.59
700.651	24500.36
700.997	24504.2
701.342	24354.83
701.688	24332.68
702.033	24193.02
702.379	24240.93
702.724	24156.41
703.069	24186.47
703.415	23967.27
703.76	24012.69
704.105	24009.07
704.45	23844.33
704.795	23753.26
705.14	23674.39
705.485	23632.13
705.83	23635.07
706.175	23592.13
706.52	23503.32
706.865	23423.1
707.209	23247.96
707.554	23206.38
707.899	23306.27
708.243	23185.82
708.588	23187.62
708.932	22967.29
709.277	22960.51
709.621	23041.19
709.966	22824.02
710.31	22967.74
710.654	22724.36
710.998	22885.71
711.342	22705.6
711.687	22593.74
712.031	22526.17
712.375	22443.01
712.719	22600.97
713.063	22471.26
713.407	22558.94
713.75	22326.86
714.094	22309.68
714.438	22240.08
714.782	22331.6
715.125	22154.66
715.469	22238.95
715.812	22045.51
716.156	22017.03
716.499	21988.79
716.843	22036.02
717.186	21862.69
717.53	22003.7
717.873	21930.93
718.216	21855.46
718.559	21715.57
718.902	21566.2
719.246	21599.64
719.589	21542.92
719.932	21544.96
720.275	21428.35
720.617	21511.74
720.96	21396.49
721.303	21451.63
721.646	21374.79
721.989	21346.32
722.331	21379.31
722.674	21277.39
723.016	21297.96
723.359	21182.03
723.701	21151.97
724.044	21047.57
724.386	20992.65
724.729	21049.38
725.071	20985.42
725.413	21000.11
725.755	20926.22
726.097	20908.81
726.439	20636.96
726.782	20782.04
727.124	20820
727.465	20709.72
727.807	20708.82
728.149	20640.12
728.491	20502.5
728.833	20549.05
729.175	20486.9
729.516	20499.11
729.858	20368.94
730.199	20556.73
730.541	20443.52
730.882	20380.92
731.224	20441.93
731.565	20215.73
731.906	20303.41
732.248	20306.12
732.589	20150.42
732.93	20105.67
733.271	20101.6
733.612	20202.39
733.953	20184.31
734.294	20165.56
734.635	19994.94
734.976	20043.53
735.317	19940.93
735.658	19976.18
735.999	19962.4
736.339	19843.53
736.68	19954.49
737.021	19843.53
737.361	19852.12
737.702	19913.59
738.042	19795.85
738.383	19692.12
738.723	19778.67
739.063	19615.52
739.404	19758.11
739.744	19614.84
740.084	19574.61
740.424	19565.57
740.764	19468.4
741.104	19502.52
741.444	19419.36
741.784	19320.16
742.124	19422.07
742.464	19292.13
742.804	19251.68
743.143	19303.43
743.483	19284.45
743.823	19186.83
744.162	19149.09
744.502	19226.37
744.841	19148.63
745.181	19162.87
745.52	19011.46
745.86	19118.81
746.199	18983.89
746.538	19022.99
746.877	18893.73
747.216	18973.95
747.556	18818.02
747.895	18871.58
748.234	18727.86
748.573	18830.23
748.911	18729.89
749.25	18731.47
749.589	18586.39
749.928	18685.14
750.267	18645.37
750.605	18548.2
750.944	18542.55
751.283	18510.23
751.621	18485.83
751.96	18454.19
752.298	18315.89
752.636	18391.82
752.975	18241.77
753.313	18274.99
753.651	18283.57
753.989	18123.8
754.327	18172.84
754.666	18042.22
755.004	18116.12
755.342	17971.26
755.679	17968.78
756.017	17897.14
756.355	17900.53
756.693	17835.68
757.031	17898.27
757.368	17724.94
757.706	17744.15
758.044	17659.63
758.381	17625.29
758.719	17510.71
759.056	17545.06
759.394	17558.85
759.731	17390.94
760.068	17344.84
760.405	17362.92
760.743	17253.77
761.08	17217.16
761.417	17185.3
761.754	17139.2
762.091	17147.33
762.428	16999.99
762.765	16990.05
763.102	17018.75
763.438	16898.98
763.775	16832.09
764.112	16903.95
764.449	16784.63
764.785	16747.12
765.122	16566.33
765.458	16604.07
765.795	16481.81
766.131	16532.88
766.467	16430.74
766.804	16391.65
767.14	16310.29
767.476	16307.13
767.812	16172.22
768.148	16255.83
768.485	16119.34
768.821	16048.6
769.157	15993.69
769.492	16037.08
769.828	16018.77
770.164	15774.26
770.5	15765.9
770.836	15775.39
771.171	15648.84
771.507	15617.43
771.842	15539.24
772.178	15583.53
772.513	15399.58
772.849	15404.33
773.184	15319.13
773.519	15278.91
773.855	15201.39
774.19	15210.89
774.525	15126.82
774.86	15169.76
775.195	15131.34
775.53	14998.01
775.865	14901.29
776.2	14731.8
776.535	14763.21
776.87	14773.16
777.205	14657.45
777.539	14582.2
777.874	14602.77
778.209	14426.73
778.543	14424.47
778.878	14417.23
779.212	14376.11
779.547	14283.9
779.881	14261.98
780.215	14180.86
780.55	14242.55
780.884	14101.08
781.218	14091.14
781.552	14118.94
781.886	14011.37
782.22	13899.06
782.554	13922.11
782.888	13772.51
783.222	13763.47
783.556	13655.9
783.889	13628.1
784.223	13572.06
784.557	13549.91
784.89	13554.43
785.224	13523.47
785.557	13391.72
785.891	13361.22
786.224	13347.43
786.558	13255.91
786.891	13196.7
787.224	13132.75
787.557	13131.17
787.891	13074.9
788.224	13065.63
788.557	13020.66
788.89	12985.41
789.223	13010.27
789.556	12852.3
789.888	12875.58
790.221	12801.01
790.554	12761.01
790.887	12712.65
791.219	12637.85
791.552	12595.36
791.884	12570.05
792.217	12484.4
792.549	12474.69
792.882	12425.65
793.214	12359.43
793.546	12345.42
793.879	12280.34
794.211	12195.6
794.543	12265.2
794.875	12146.79
795.207	12252.77
795.539	12139.33
795.871	12113.57
796.203	12008.94
796.535	11987.02
796.867	11994.7
797.198	11844.42
797.53	11806.46
797.862	11791.54
798.193	11780.02
798.525	11751.77
798.856	11773.24
799.188	11602.84
799.519	11577.53
799.85	11482.4
800.182	11574.82
800.513	11534.6
800.844	11434.04
801.175	11503.86
801.506	11432
801.837	11390.42
802.168	11385.9
802.499	11315.85
802.83	11225.45
803.161	11178.45
803.491	11171.67
803.822	11164.66
804.153	11152.46
804.483	11056.19
804.814	11007.61
805.145	11053.71
805.475	11014.39
805.805	10959.02
806.136	10910.43
806.466	11014.16
806.796	10942.97
807.126	10859.36
807.457	10800.38
807.787	10846.03
808.117	10781.85
808.447	10722.19
808.777	10811.68
809.107	10757.67
809.436	10686.48
809.766	10699.59
810.096	10616.43
810.426	10513.83
810.755	10667.5
811.085	10513.61
811.414	10536.21
811.744	10437.23
812.073	10439.03
812.403	10388.87
812.732	10331.47
813.061	10374.85
813.39	10215.08
813.719	10257.8
814.049	10295.76
814.378	10260.28
814.707	10194.75
815.036	10188.19
815.365	10154.75
815.693	10100.74
816.022	10098.03
816.351	10087.86
816.68	9988.65
817.008	10027.52
817.337	9927.41
817.665	9909.1
817.994	9974.64
818.322	9950.91
818.651	9830.24
818.979	9865.04
819.307	9834.08
819.636	9840.41
819.964	9799.28
820.292	9805.15
820.62	9827.98
820.948	9718.83
821.276	9702.56
821.604	9733.29
821.932	9741.2
822.259	9759.05
822.587	9721.76
822.915	9781.65
823.243	9798.6
823.57	9683.57
823.898	9684.03
824.225	9681.31
824.553	9698.49
824.88	9739.62
825.207	9682.67
825.535	9659.17
825.862	9747.98
826.189	9670.69
826.516	9758.37
826.843	9702.78
827.17	9712.72
827.497	9726.96
827.824	9691.93
828.151	9709.79
828.478	9686.74
828.805	9731.71
829.131	9686.06
829.458	9712.95
829.785	9679.73
830.111	9660.75
830.438	9667.08
830.764	9663.91
831.09	9720.63
831.417	9681.99
831.743	9670.92
832.069	9664.59
832.395	9604.03
832.722	9629.79
833.048	9589.79
833.374	9671.14
833.7	9561.77
834.026	9654.2
834.351	9584.59
834.677	9641.31
835.003	9589.11
835.329	9579.4
835.654	9603.58
835.98	9521.77
836.306	9475.44
836.631	9497.82
836.956	9500.53
837.282	9507.76
837.607	9450.58
837.932	9452.62
838.258	9449.23
838.583	9432.73
838.908	9387.76
839.233	9408.33
839.558	9372.39
839.883	9345.05
840.208	9311.83
840.533	9335.33
840.858	9269.35
841.182	9248.56
841.507	9272.51
841.832	9170.14
842.156	9224.38
842.481	9255.34
842.805	9237.26
843.13	9123.59
843.454	9183.7
843.778	9106.87
844.103	9044.49
844.427	9023.93
844.751	9090.82
845.075	9078.84
845.399	8977.83
845.723	8929.02
846.047	8990.03
846.371	8964.72
846.695	8899.64
847.019	8835.46
847.343	8789.36
847.666	8748
847.99	8660.1
848.313	8726.31
848.637	8676.59
848.96	8680.44
849.284	8661.45
849.607	8560.89
849.931	8546.2
850.254	8476.83
850.577	8431.4
850.9	8369.48
851.223	8362.93
851.546	8340.56
851.869	8244.29
852.192	8307.79
852.515	8202.93
852.838	8258.98
853.161	8193.22
853.483	8161.81
853.806	8091.75
854.129	8123.84
854.451	8073.67
854.774	8051.3
855.096	8087.23
855.419	8013.79
855.741	8032.09
856.063	7951.64
856.385	7938.31
856.708	7907.35
857.03	7888.37
857.352	7829.38
857.674	7836.16
857.996	7790.29
858.318	7792.55
858.64	7692.21
858.961	7713.46
859.283	7689.95
859.605	7683.4
859.926	7677.07
860.248	7708.71
860.57	7647.02
860.891	7590.07
861.212	7582.16
861.534	7604.08
861.855	7578.54
862.176	7538.54
862.498	7527.02
862.819	7559.56
863.14	7519.11
863.461	7567.47
863.782	7487.92
864.103	7471.2
864.424	7415.16
864.745	7480.02
865.065	7393.46
865.386	7376.97
865.707	7395.05
866.027	7417.87
866.348	7390.75
866.668	7377.42
866.989	7319.57
867.309	7283.41
867.63	7361.15
867.95	7271.66
868.27	7260.59
868.59	7255.61
868.91	7216.97
869.23	7238.67
869.55	7215.16
869.87	7253.81
870.19	7180.59
870.51	7215.62
870.83	7196.18
871.15	7117.76
871.469	7206.35
871.789	7169.97
872.109	7209.06
872.428	7090.87
872.748	7124.54
873.067	7101.04
873.386	7133.36
873.706	7129.06
874.025	7105.79
874.344	7033.02
874.663	7115.5
874.982	7092
875.301	7087.26
875.62	7019.01
875.939	7023.76
876.258	6958.45
876.577	6962.51
876.896	7003.64
877.214	6927.71
877.533	6996.64
877.852	6929.97
878.17	6946.02
878.489	6976.07
878.807	6966.36
879.125	6896.75
879.444	6920.03
879.762	6882.97
880.08	6903.08
880.398	6821.28
880.716	6819.02
881.034	6787.6
881.352	6818.56
881.67	6781.05
881.988	6759.13
882.306	6791.9
882.624	6758.23
882.941	6719.58
883.259	6678.45
883.577	6704.22
883.894	6690.88
884.212	6607.95
884.529	6670.09
884.846	6622.86
885.164	6601.85
885.481	6635.74
885.798	6645.69
886.115	6523.43
886.432	6536.09
886.75	6535.86
887.067	6548.74
887.383	6502.41
887.7	6503.77
888.017	6496.99
888.334	6491.34
888.651	6475.52
888.967	6427.61
889.284	6393.26
889.6	6375.41
889.917	6309.42
890.233	6383.32
890.55	6309.42
890.866	6396.2
891.182	6329.08
891.498	6292.25
891.815	6256.54
892.131	6253.83
892.447	6230.56
892.763	6224.45
893.079	6168.86
893.395	6180.16
893.71	6183.1
894.026	6175.42
894.342	6125.02
894.657	6098.13
894.973	6081.63
895.289	6046.38
895.604	6056.32
895.92	6024.23
896.235	5961.64
896.55	5927.06
896.865	5937.91
897.181	5978.36
897.496	5941.75
897.811	5904.24
898.126	5873.5
898.441	5833.73
898.756	5868.08
899.071	5824.92
899.386	5828.99
899.7	5789.44
900.015	5758.25
900.33	5743.56
900.644	5734.07
900.959	5735.88
901.273	5664.24
901.588	5625.83
901.902	5646.39
902.216	5655.66
902.531	5609.33
902.845	5585.6
903.159	5571.36
903.473	5529.11
903.787	5550.35
904.101	5514.19
904.415	5487.3
904.729	5508.99
905.042	5471.25
905.356	5444.59
905.67	5455.89
905.984	5458.83
906.297	5384.25
906.611	5349.22
906.924	5395.55
907.237	5365.49
907.551	5331.37
907.864	5295.67
908.177	5285.27
908.491	5256.8
908.804	5241.2
909.117	5195.56
909.43	5193.07
909.743	5147.87
910.056	5130.25
910.368	5102.22
910.681	5083.47
910.994	5070.59
911.307	5067.42
911.619	5000.53
911.932	5028.78
912.244	4952.17
912.557	4988.78
912.869	4953.08
913.181	4923.25
913.494	4892.29
913.806	4901.33
914.118	4876.69
914.43	4823.36
914.742	4829.92
915.054	4807.54
915.366	4829.46
915.678	4767.77
915.99	4785.85
916.302	4745.4
916.613	4675.57
916.925	4700.43
917.236	4748.56
917.548	4633.99
917.859	4637.38
918.171	4631.95
918.482	4581.56
918.794	4575.68
919.105	4592.18
919.416	4545.63
919.727	4509.25
920.038	4450.72
920.349	4464.95
920.66	4497.04
920.971	4439.42
921.282	4454.56
921.593	4453.88
921.903	4393.32
922.214	4355.13
922.525	4390.38
922.835	4361.23
923.146	4346.31
923.456	4327.78
923.767	4307.44
924.077	4305.64
924.387	4301.12
924.697	4219.08
925.008	4236.94
925.318	4259.53
925.628	4257.95
925.938	4231.96
926.248	4198.75
926.558	4173.66
926.867	4111.74
927.177	4109.26
927.487	4149.71
927.796	4047.11
928.106	4054.79
928.416	4099.31
928.725	4031.29
929.034	4050.27
929.344	4039.65
929.653	4005.08
929.962	3931.63
930.271	3994.91
930.581	3921.92
930.89	3925.08
931.199	3884.4
931.508	3889.6
931.817	3889.83
932.125	3889.38
932.434	3836.04
932.743	3844.18
933.051	3832.65
933.36	3804.18
933.669	3762.37
933.977	3815.25
934.286	3780
934.594	3726.67
934.902	3697.06
935.21	3722.37
935.519	3709.49
935.827	3683.73
936.135	3729.38
936.443	3614.13
936.751	3614.81
937.059	3636.27
937.367	3592.89
937.674	3583.17
937.982	3564.19
938.29	3549.27
938.597	3537.29
938.905	3509.72
939.213	3524.86
939.52	3500.68
939.827	3488.71
940.135	3448.48
940.442	3451.42
940.749	3447.58
941.056	3465.66
941.363	3390.41
941.67	3365.77
941.977	3366.68
942.284	3333.46
942.591	3374.36
942.898	3361.25
943.205	3360.58
943.511	3306.57
943.818	3308.15
944.125	3292.78
944.431	3300.92
944.738	3241.93
945.044	3212.1
945.35	3231.99
945.657	3193.57
945.963	3222.27
946.269	3191.54
946.575	3184.08
946.881	3170.75
947.187	3160.81
947.493	3132.33
947.799	3143.18
948.105	3097.08
948.41	3113.35
948.716	3076.29
949.022	3046.91
949.327	3064.99
949.633	3023.86
949.938	3015.73
950.244	3021.15
950.549	3033.58
950.854	2996.74
951.16	2959.91
951.465	2961.72
951.77	2942.28
952.075	2920.59
952.38	2904.99
952.685	2927.82
952.99	2876.29
953.294	2882.4
953.599	2888.72
953.904	2868.84
954.209	2881.27
954.513	2827.71
954.818	2845.79
955.122	2822.28
955.426	2836.3
955.731	2801.04
956.035	2799.23
956.339	2757.65
956.643	2770.31
956.948	2768.05
957.252	2755.62
957.556	2744.09
957.86	2745.22
958.163	2699.35
958.467	2668.84
958.771	2701.16
959.075	2671.55
959.378	2660.03
959.682	2672.68
959.985	2683.08
960.289	2643.53
960.592	2620.48
960.896	2625
961.199	2613.93
961.502	2601.27
961.805	2577.09
962.108	2539.81
962.411	2561.05
962.714	2529.41
963.017	2517.21
963.32	2518.56
963.623	2511.33
963.926	2504.33
964.228	2517.66
964.531	2465.91
964.833	2496.64
965.136	2468.62
965.438	2448.74
965.741	2404.89
966.043	2455.97
966.345	2454.38
966.648	2422.97
966.95	2435.63
967.252	2385.46
967.554	2383.65
967.856	2367.38
968.158	2366.03
968.46	2367.16
968.761	2355.86
969.063	2366.25
969.365	2328.06
969.666	2298
969.968	2320.6
970.269	2307.5
970.571	2306.37
970.872	2297.55
971.174	2268.85
971.475	2241.96
971.776	2249.87
972.077	2239.25
972.378	2261.4
972.679	2234.73
972.98	2236.76
973.281	2206.71
973.582	2186.37
973.883	2196.99
974.183	2210.32
974.484	2170.55
974.785	2172.81
975.085	2194.28
975.386	2179.82
975.686	2139.59
975.986	2118.8
976.287	2138.46
976.587	2126.71
976.887	2094.85
977.187	2131.46
977.487	2098.24
977.787	2066.37
978.087	2098.46
978.387	2056.43
978.687	2065.92
978.987	2058.01
979.286	2049.2
979.586	2064.11
979.885	2039.03
980.185	2018.69
980.484	2025.02
980.784	2002.42
981.083	2037.22
981.382	2003.55
981.682	1979.14
981.981	1962.87
982.28	1952.48
982.579	1933.27
982.878	1931.23
983.177	1935.75
983.475	1936.43
983.774	1919.48
984.073	1920.16
984.372	1911.12
984.67	1880.39
984.969	1864.8
985.267	1888.98
985.566	1866.15
985.864	1845.14
986.162	1858.69
986.461	1817.57
986.759	1819.6
987.057	1813.27
987.355	1811.69
987.653	1842.88
987.951	1796.1
988.249	1785.7
988.547	1789.77
988.844	1791.8
989.142	1765.82
989.44	1763.33
989.737	1737.12
990.035	1745.25
990.332	1765.59
990.63	1720.17
990.927	1729.43
991.224	1722.88
991.521	1713.84
991.819	1706.83
992.116	1681.3
992.413	1677.68
992.71	1677.91
993.006	1672.71
993.303	1668.64
993.6	1662.77
993.897	1680.17
994.193	1641.52
994.49	1644.91
994.787	1615.76
995.083	1639.26
995.379	1607.63
995.676	1647.17
995.972	1617.57
996.268	1599.72
996.565	1590.9
996.861	1615.54
997.157	1598.14
997.453	1572.15
997.749	1539.83
998.044	1564.46
998.34	1540.51
998.636	1559.94
998.932	1503.9
999.227	1497.12
999.523	1522.43
999.818	1514.75
1000.114	1526.27
1000.409	1486.5
1000.704	1484.92
1001	1501.87
1001.295	1471.13
1001.59	1478.14
1001.885	1434.98
1002.18	1461.64
1002.475	1448.31
1002.77	1434.98
1003.065	1448.99
1003.359	1416.9
1003.654	1435.88
1003.949	1390.23
1004.243	1374.41
1004.538	1378.93
1004.832	1394.53
1005.127	1411.02
1005.421	1390.46
1005.715	1375.09
1006.009	1379.16
1006.304	1331.25
1006.598	1315.21
1006.892	1298.48
1007.186	1311.36
1007.48	1343.45
1007.773	1353.85
1008.067	1324.02
1008.361	1320.4
1008.655	1290.57
1008.948	1286.05
1009.242	1299.16
1009.535	1290.12
1009.829	1273.62
1010.122	1255.32
1010.415	1279.27
1010.708	1225.49
1011.001	1249.44
1011.295	1237.92
1011.588	1223.68
1011.881	1232.95
1012.173	1172.16
1012.466	1221.2
1012.759	1229.56
1013.052	1192.27
1013.344	1184.59
1013.637	1177.58
1013.93	1192.27
1014.222	1180.52
1014.514	1168.99
1014.807	1145.94
1015.099	1164.02
1015.391	1148.66
1015.683	1162.22
1015.976	1125.61
1016.268	1148.43
1016.56	1117.02
1016.851	1109.34
1017.143	1142.55
1017.435	1123.35
1017.727	1118.6
1018.018	1091.71
1018.31	1101.43
1018.602	1080.18
1018.893	1092.39
1019.185	1067.08
1019.476	1078.83
1019.767	1063.23
1020.058	1044.25
1020.35	1041.09
1020.641	1060.07
1020.932	1053.29
1021.223	1038.15
1021.514	1034.53
1021.804	1018.49
1022.095	1009
1022.386	1000.41
1022.677	1016
1022.967	990.02
1023.258	987.3
1023.548	975.1
1023.839	998.6
1024.129	973.97
1024.419	970.36
1024.709	949.57
1025	987.3
1025.29	959.06
1025.58	942.11
1025.87	915.44
1026.16	921.09
1026.449	920.19
1026.739	946.4
1027.029	925.39
1027.319	938.94
1027.608	925.16
1027.898	903.01
1028.187	888.78
1028.477	923.35
1028.766	889.45
1029.055	894.88
1029.344	880.19
1029.634	867.08
1029.923	888.1
1030.212	867.99
1030.501	859.17
1030.79	851.94
1031.078	863.69
1031.367	828.89
1031.656	827.76
1031.945	833.41
1032.233	816.46
1032.522	834.09
1032.81	813.98
1033.099	815.78
1033.387	805.39
1033.675	791.83
1033.963	775.78
1034.251	795.9
1034.54	757.71
1034.828	795.67
1035.116	754.54
1035.403	771.04
1035.691	785.5
1035.979	762
1036.267	785.28
1036.554	777.59
1036.842	743.92
1037.129	746.86
1037.417	754.77
1037.704	756.35
1037.992	759.74
1038.279	724.26
1038.566	740.31
1038.853	740.31
1039.14	740.31
