Data from white_poster_card_FLMS001491_00089.txt Node
Date: Wed Feb 08 11:52:08 GMT 2017
User: dcchb
Spectrometer: FLMS00149
Trigger mode: 0
Integration Time (sec): 2.000000E-2
Scans to average: 10
Electric dark correction enabled: true
Nonlinearity correction enabled: false
Boxcar width: 0
XAxis mode: Wavelengths
Number of Pixels in Spectrum: 2048
>>>>>Begin Spectral Data<<<<<
341.393	-10.93
341.776	-10.93
342.16	-10.93
342.543	-47.54
342.927	-64.26
343.31	-69.01
343.693	-72.63
344.077	-65.62
344.46	-57.71
344.843	-45.28
345.226	-27.88
345.61	-40.08
345.993	-16.58
346.376	-6.19
346.759	14.83
347.142	13.25
347.525	43.08
347.908	65.45
348.291	72.91
348.674	89.63
349.057	101.83
349.44	136.18
349.823	142.74
350.206	167.37
350.588	206.24
350.971	225.9
351.354	227.25
351.737	243.98
352.119	268.16
352.502	267.48
352.884	293.24
353.267	293.01
353.65	275.84
354.032	296.4
354.414	314.26
354.797	316.29
355.179	345.44
355.562	332.56
355.944	342.05
356.326	334.82
356.709	336.18
357.091	338.89
357.473	349.51
357.855	373.24
358.238	353.13
358.62	350.19
359.002	368.72
359.384	361.04
359.766	363.97
360.148	362.62
360.53	344.99
360.912	350.64
361.294	340.25
361.676	335.27
362.057	341.83
362.439	339.34
362.821	330.75
363.203	309.29
363.584	316.97
363.966	340.92
364.348	321.71
364.729	330.08
365.111	336.63
365.493	321.71
365.874	326.46
366.256	309.06
366.637	307.48
367.019	334.6
367.4	330.75
367.781	309.74
368.163	327.82
368.544	322.39
368.925	335.05
369.306	316.52
369.688	321.49
370.069	317.42
370.45	316.52
370.831	344.76
371.212	309.06
371.593	316.74
371.974	312
372.355	319.23
372.736	312
373.117	328.04
373.498	312
373.879	337.99
374.26	344.76
374.641	319.45
375.021	320.13
375.402	324.88
375.783	339.79
376.163	342.96
376.544	335.73
376.925	340.02
377.305	346.57
377.686	352.9
378.066	327.14
378.447	337.99
378.827	349.28
379.208	338.21
379.588	335.5
379.968	336.4
380.349	353.13
380.729	359
381.109	343.64
381.489	345.44
381.87	351.09
382.25	352.22
382.63	349.28
383.01	349.51
383.39	374.82
383.77	353.8
384.15	375.05
384.53	358.1
384.91	375.05
385.29	366.23
385.67	375.5
386.049	392.67
386.429	364.88
386.809	375.5
387.189	372.79
387.568	371.66
387.948	349.06
388.328	362.17
388.707	375.95
389.087	403.52
389.466	394.03
389.846	381.83
390.225	387.02
390.605	389.06
390.984	396.51
391.363	381.6
391.743	407.14
392.122	393.58
392.501	405.1
392.881	403.97
393.26	408.49
393.639	425.44
394.018	421.83
394.397	409.4
394.776	413.92
395.155	400.81
395.534	431.54
395.913	405.78
396.292	425.89
396.671	389.74
397.05	418.66
397.429	453.46
397.808	440.36
398.186	437.42
398.565	415.05
398.944	433.8
399.323	451.65
399.701	453.24
400.08	453.69
400.458	455.72
400.837	442.39
401.215	451.43
401.594	459.11
401.972	451.88
402.351	458.43
402.729	460.47
403.107	475.16
403.486	453.01
403.864	464.99
404.242	490.3
404.62	482.84
404.999	508.6
405.377	506.34
405.755	485.78
406.133	515.61
406.511	506.34
406.889	529.17
407.267	523.97
407.645	520.81
408.023	546.57
408.401	530.52
408.779	557.64
409.156	552.67
409.534	563.52
409.912	560.13
410.29	578.43
410.667	588.15
411.045	601.48
411.422	628.83
411.8	628.15
412.178	635.38
412.555	657.75
412.933	680.12
413.31	654.14
413.687	702.04
414.065	687.13
414.442	711.99
414.819	725.32
415.197	742.04
415.574	766.67
415.951	772.32
416.328	789.27
416.705	791.98
417.082	813.23
417.46	823.17
417.837	845.09
418.214	842.6
418.591	866.79
418.967	871.08
419.344	892.77
419.721	881.93
420.098	903.17
420.475	940
420.852	964.86
421.228	969.83
421.605	967.8
421.982	955.82
422.358	1008.48
422.735	1032.66
423.111	1036.5
423.488	1031.98
423.864	1046.22
424.241	1074.69
424.617	1106.55
424.994	1105.87
425.37	1080.34
425.746	1104.52
426.123	1125.08
426.499	1127.12
426.875	1116.04
427.251	1202.82
427.627	1194.46
428.003	1260.22
428.379	1216.15
428.756	1236.72
429.132	1291.41
429.507	1277.85
429.883	1307.23
430.259	1330.95
430.635	1328.47
431.011	1331.63
431.387	1365.08
431.763	1409.14
432.138	1420.89
432.514	1431.52
432.89	1452.53
433.265	1480.1
433.641	1510.16
434.016	1521.91
434.392	1528.24
434.767	1550.83
435.143	1567.56
435.518	1560.55
435.894	1605.3
436.269	1641.91
436.644	1648.01
437.02	1677.39
437.395	1688.46
437.77	1700.44
438.145	1725.52
438.52	1709.47
438.895	1758.06
439.271	1745.41
439.646	1821.56
440.021	1797.16
440.395	1803.94
440.77	1790.6
441.145	1801.45
441.52	1849.81
441.895	1837.61
442.27	1879.87
442.645	1867.21
443.019	1880.09
443.394	1884.61
443.769	1914.67
444.143	1938.17
444.518	1977.94
444.892	1949.47
445.267	1955.8
445.641	1996.25
446.016	1986.76
446.39	2010.03
446.764	2022.69
447.139	2014.55
447.513	2084.83
447.887	2045.96
448.262	2066.53
448.636	2099.52
449.01	2103.14
449.384	2111.27
449.758	2138.39
450.132	2181.1
450.506	2191.27
450.88	2200.31
451.254	2170.71
451.628	2214.77
452.002	2242.12
452.376	2259.52
452.75	2283.02
453.123	2295.9
453.497	2324.83
453.871	2328.22
454.244	2403.69
454.618	2377.25
454.992	2435.33
455.365	2439.4
455.739	2520.3
456.112	2533.86
456.486	2540.41
456.859	2545.61
457.232	2615.67
457.606	2624.48
457.979	2651.6
458.352	2654.08
458.725	2700.86
459.099	2724.82
459.472	2784.02
459.845	2793.51
460.218	2815.43
460.591	2834.42
460.964	2829.22
461.337	2916.9
461.71	2922.55
462.083	2994.19
462.456	3007.07
462.829	3039.38
463.201	3054.3
463.574	3067.86
463.947	3120.06
464.32	3184.01
464.692	3193.73
465.065	3246.84
465.438	3261.3
465.81	3324.12
466.183	3319.38
466.555	3410
466.928	3428.98
467.3	3420.39
467.672	3481.18
468.045	3594.4
468.417	3570.22
468.789	3615.87
469.161	3648.63
469.534	3727.05
469.906	3782.87
470.278	3809.53
470.65	3840.94
471.022	3905.12
471.394	3959.13
471.766	4044.33
472.138	4096.3
472.51	4114.16
472.882	4185.79
473.253	4218.79
473.625	4306.24
473.997	4368.84
474.369	4433.47
474.74	4440.02
475.112	4542.17
475.484	4610.19
475.855	4691.54
476.227	4713.92
476.598	4794.14
476.97	4894.25
477.341	4995.49
477.713	5054.7
478.084	5007.47
478.455	5193.9
478.827	5233.22
479.198	5416.04
479.569	5390.96
479.94	5601.12
480.311	5590.73
480.682	5691.07
481.053	5842.47
481.424	5912.53
481.795	6002.02
482.166	6129.02
482.537	6162.92
482.908	6300.31
483.279	6394.55
483.65	6443.14
484.021	6538.27
484.391	6610.36
484.762	6694.88
485.133	6769.23
485.503	6909.56
485.874	6998.83
486.244	7114.08
486.615	7223.68
486.985	7328.99
487.356	7420.29
487.726	7446.5
488.097	7606.04
488.467	7692.14
488.837	7870.89
489.207	7909.31
489.578	7988.86
489.948	8059.36
490.318	8281.73
490.688	8263.2
491.058	8405.12
491.428	8496.19
491.798	8591.78
492.168	8709.52
492.538	8721.72
492.908	8875.16
493.278	9056.85
493.648	9041.03
494.017	9107.25
494.387	9228.15
494.757	9319.9
495.126	9412.32
495.496	9418.2
495.866	9548.59
496.235	9691.86
496.605	9676.72
496.974	9767.34
497.344	9829.26
497.713	9962.37
498.082	9989.71
498.452	10185.41
498.821	10231.51
499.19	10250.49
499.559	10303.6
499.928	10382.47
500.298	10527.32
500.667	10630.14
501.036	10539.75
501.405	10732.51
501.774	10684.61
502.143	10751.95
502.512	10844.38
502.88	10989.46
503.249	10988.1
503.618	11093.63
503.987	11109.23
504.356	11272.16
504.724	11293.18
505.093	11459.95
505.462	11427.86
505.83	11509.67
506.199	11624.92
506.567	11741.53
506.936	11747.18
507.304	11896.1
507.672	11932.48
508.041	12082.31
508.409	12083.44
508.777	12262.87
509.145	12311
509.514	12350.32
509.882	12496.99
510.25	12521.85
510.618	12625.8
510.986	12609.98
511.354	12779.92
511.722	12869.41
512.09	12921.16
512.458	13005
512.826	13139.23
513.193	13275.05
513.561	13280.7
513.929	13453.12
514.297	13534.02
514.664	13664.64
515.032	13640.91
515.4	13841.36
515.767	13795.03
516.135	13966.33
516.502	13918.87
516.869	14177.62
517.237	14300.56
517.604	14155.25
517.972	14451.96
518.339	14571.51
518.706	14626.2
519.073	14645.86
519.44	14774.22
519.808	14959.52
520.175	14943.93
520.542	15119.97
520.909	15265.05
521.276	15320.19
521.643	15420.53
522.009	15563.57
522.376	15665.94
522.743	15723.57
523.11	15893.51
523.477	16128.3
523.843	16195.42
524.21	16290.11
524.577	16438.13
524.943	16546.15
525.31	16547.05
525.676	16838.34
526.043	16988.85
526.409	17039.69
526.776	17213.93
527.142	17258.22
527.508	17448.72
527.874	17556.74
528.241	17637.64
528.607	17667.7
528.973	17938.88
529.339	17902.5
529.705	17987.24
530.071	18264.07
530.437	18342.48
530.803	18475.59
531.169	18605.53
531.535	18474.01
531.901	18640.33
532.267	18741.8
532.632	18884.16
532.998	19015.46
533.364	19066.31
533.73	19173.42
534.095	19239.86
534.461	19270.82
534.826	19424.04
535.192	19557.82
535.557	19739.51
535.923	19625.84
536.288	19754.2
536.653	19851.82
537.019	19750.13
537.384	19994.42
537.749	19956.45
538.114	20109.89
538.479	20139.27
538.845	20268.08
539.21	20235.09
539.575	20468.08
539.94	20462.88
540.305	20614.29
540.67	20618.81
541.034	20802.08
541.399	20876.65
541.764	20799.37
542.129	20911.23
542.494	20931.12
542.858	21112.35
543.223	21109.64
543.587	21346.25
543.952	21237.1
544.316	21407.94
544.681	21451.78
545.045	21628.27
545.41	21641.61
545.774	21621.27
546.138	21810.42
546.503	21787.14
546.867	21818.78
547.231	22066.68
547.595	21965.67
547.959	22163.85
548.324	22162.95
548.688	22265.32
549.052	22408.14
549.416	22364.75
549.779	22507.12
550.143	22558.64
550.507	22784.63
550.871	22750.73
551.235	22613.56
551.599	23024.17
551.962	23004.51
552.326	23108.91
552.689	23212.19
553.053	23256.93
553.417	23156.82
553.78	23501.67
554.143	23460.09
554.507	23612.85
554.87	23804.49
555.234	23888.55
555.597	23795
555.96	23941.66
556.323	24156.57
556.686	24012.84
557.05	24364.25
557.413	24432.04
557.776	24437.24
558.139	24532.15
558.502	24563.34
558.865	24723.33
559.228	24914.74
559.59	24919.49
559.953	25027.73
560.316	25313.6
560.679	25272.02
561.041	25474.27
561.404	25567.6
561.767	25707.94
562.129	25683.53
562.492	25845.11
562.854	25995.16
563.217	26062.51
563.579	26123.97
563.941	26328.94
564.304	26374.81
564.666	26542.04
565.028	26672.21
565.39	26721.25
565.753	26944.29
566.115	26982.93
566.477	27141.57
566.839	27261.12
567.201	27305.64
567.563	27456.37
567.925	27575.91
568.287	27655.01
568.648	27597.83
569.01	27747.89
569.372	27997.82
569.734	28033.3
570.095	28158.27
570.457	28196.24
570.819	28312.62
571.18	28227.65
571.542	28466.51
571.903	28460.41
572.265	28635.55
572.626	28672.16
572.987	28827.41
573.349	28864.47
573.71	29013.84
574.071	29010.45
574.432	29096.1
574.794	29359.14
575.155	29289.54
575.516	29325.47
575.877	29438.46
576.238	29440.05
576.599	29607.27
576.96	29660.38
577.32	29706.93
577.681	29723.2
578.042	29808.4
578.403	29737.89
578.763	29814.72
579.124	30005.23
579.485	29911.45
579.845	30213.36
580.206	30038.22
580.566	30010.88
580.927	30190.76
581.287	30236.63
581.648	30200.7
582.008	30219.69
582.368	30248.39
582.728	30372.45
583.089	30301.27
583.449	30301.27
583.809	30342.85
584.169	30470.07
584.529	30357.31
584.889	30531.54
585.249	30418.78
585.609	30223.53
585.969	30551.2
586.329	30409.74
586.688	30380.36
587.048	30537.19
587.408	30429.85
587.768	30520.69
588.127	30465.55
588.487	30406.8
588.846	30529.28
589.206	30390.08
589.565	30460.58
589.925	30470.98
590.284	30452.9
590.643	30555.04
591.003	30532.67
591.362	30690.63
591.721	30487.48
592.08	30556.17
592.44	30693.35
592.799	30686.34
593.158	30592.33
593.517	30575.83
593.876	30653.35
594.235	30561.37
594.593	30637.3
594.952	30682.5
595.311	30546.68
595.67	30624.42
596.029	30837.75
596.387	30809.05
596.746	30987.12
597.104	30627.36
597.463	30820.35
597.822	30900.8
598.18	30837.97
598.538	30803.17
598.897	30921.36
599.255	30698.77
599.613	31178.98
599.972	30943.73
600.33	31063.96
600.688	30830.29
601.046	30966.33
601.404	31257.85
601.762	31059.44
602.12	31175.37
602.478	31196.38
602.836	31273.9
603.194	31053.79
603.552	31150.51
603.91	31056.05
604.268	31253.56
604.625	31035.26
604.983	31341.69
605.341	31225.31
605.698	31300.34
606.056	31431.86
606.413	31370.39
606.771	31514.79
607.128	31607.22
607.485	31338.98
607.843	31374.23
608.2	31571.97
608.557	31672.08
608.914	31627.11
609.272	31666.88
609.629	31685.86
609.986	31927.89
610.343	31719.76
610.7	32035.01
611.057	31856.7
611.414	31830.26
611.771	31951.17
612.127	32023.03
612.484	32069.58
612.841	32162.23
613.198	31961.79
613.554	32041.33
613.911	32251.5
614.267	32132.86
614.624	32190.03
614.98	32362.91
615.337	32506.86
615.693	32249.01
616.05	32236.36
616.406	32447.88
616.762	32180.54
617.118	32283.81
617.475	32251.95
617.831	32407.88
618.187	32516.57
618.543	32429.57
618.899	32510.02
619.255	32479.74
619.611	32532.62
619.967	32585.27
620.323	32664.59
620.678	32547.76
621.034	32430.93
621.39	32349.12
621.746	32413.75
622.101	32741.43
622.457	32488.55
622.812	32580.98
623.168	32641.54
623.523	32804.7
623.879	32785.49
624.234	32644.71
624.589	32690.81
624.945	32734.42
625.3	32791.6
625.655	32672.05
626.01	32730.35
626.365	32794.99
626.72	32672.5
627.075	32574.2
627.43	32594.31
627.785	32570.13
628.14	32535.56
628.495	32673.63
628.85	32643.35
629.205	32485.39
629.559	32613.52
629.914	32538.27
630.269	32392.96
630.623	32378.72
630.978	32322.23
631.332	32549.34
631.687	32402.45
632.041	32406.29
632.396	32425.28
632.75	32286.07
633.104	32400.87
633.459	32110.03
633.813	32110.71
634.167	32316.13
634.521	32219.18
634.875	32270.03
635.229	32033.42
635.583	31983.93
635.937	31882.24
636.291	31922.47
636.645	31946.65
636.999	31863.03
637.352	31990.03
637.706	31811.28
638.06	31814.45
638.413	31646.77
638.767	31718.86
639.121	31707.56
639.474	31423.04
639.828	31531.74
640.181	31517.05
640.534	31597.5
640.888	31453.55
641.241	31414
641.594	31378.98
641.947	31426.21
642.301	31290.17
642.654	31205.2
643.007	31367
643.36	31329.03
643.713	31109.15
644.066	31341.69
644.419	31032.55
644.771	30892.89
645.124	30707.58
645.477	30491.09
645.83	30219.01
646.182	30172
646.535	30040.93
646.888	30086.13
647.24	30025.79
647.593	30206.13
647.945	29884.1
648.298	29901.95
648.65	29798.45
649.002	29621.28
649.355	29927.49
649.707	29878.68
650.059	30036.64
650.411	30320.25
650.763	30338.1
651.115	30522.5
651.467	30453.58
651.819	30620.58
652.171	30291.55
652.523	30355.05
652.875	30287.03
653.227	30122.97
653.578	30267.59
653.93	30274.83
654.282	30093.59
654.633	30093.59
654.985	30040.48
655.337	30126.81
655.688	30133.81
656.039	30132.91
656.391	29927.72
656.742	29949.18
657.094	30046.81
657.445	29955.51
657.796	30005.91
658.147	29977.88
658.498	29819.92
658.849	29913.7
659.2	29881.16
659.551	29757.78
659.902	29734.27
660.253	29895.63
660.604	29835.97
660.955	29577.44
661.306	29757.1
661.656	29766.82
662.007	29660.15
662.358	29704.44
662.708	29607.05
663.059	29532.92
663.409	29416.09
663.76	29637.33
664.11	29592.13
664.461	29758.45
664.811	29642.75
665.161	29510.33
665.511	29443.89
665.862	29474.62
666.212	29545.35
666.562	29583.77
666.912	29498.8
667.262	29564.56
667.612	29398.46
667.962	29398.01
668.312	29266.49
668.662	29433.27
669.011	29257.68
669.361	29246.6
669.711	29328.86
670.06	29344.91
670.41	29250.45
670.76	29236.89
671.109	29339.26
671.459	29219.03
671.808	29136.32
672.157	29240.95
672.507	28940.17
672.856	29080.73
673.205	29112.82
673.554	29188.3
673.904	29035.76
674.253	29340.39
674.602	29102.2
674.951	28653.85
675.3	28595.32
675.649	28977.68
675.998	28991.02
676.346	28859.72
676.695	29068.3
677.044	28881.42
677.393	28804.13
677.741	28858.82
678.09	28652.95
678.438	28700.4
678.787	28756.9
679.135	28752.38
679.484	28504.7
679.832	28655.66
680.181	28593.97
680.529	28678.48
680.877	28617.24
681.225	28507.64
681.573	28652.95
681.922	28495.66
682.27	28252.96
682.618	28381.99
682.966	28256.12
683.314	28304.48
683.661	28243.24
684.009	28083.7
684.357	28081.21
684.705	28062.68
685.053	27982.91
685.4	27994.89
685.748	27937.94
686.095	27706.98
686.443	27608
686.79	27685.97
687.138	27664.72
687.485	27783.14
687.832	27563.26
688.18	27570.04
688.527	27314.9
688.874	27376.37
689.221	27378.86
689.568	27260.67
689.915	27103.16
690.262	27346.31
690.609	27175.7
690.956	26987.23
691.303	27049.6
691.65	26931.86
691.997	26923.95
692.344	26761.02
692.69	26798.31
693.037	26652.32
693.383	26454.81
693.73	26555.38
694.077	26377.07
694.423	26372.33
694.769	26258.43
695.116	26219.11
695.462	26155.84
695.808	26088.49
696.155	26089.62
696.501	25892.79
696.847	25880.82
697.193	25756.07
697.539	25871.55
697.885	25625.91
698.231	25565.34
698.577	25717.43
698.923	25535.74
699.269	25316.09
699.614	25322.64
699.96	25275.86
700.306	25216.65
700.651	25178.01
700.997	25100.5
701.342	25019.6
701.688	24944.8
702.033	24840.62
702.379	24794.74
702.724	24728.08
703.069	24747.74
703.415	24497.8
703.76	24576.22
704.105	24500.51
704.45	24478.59
704.795	24263.68
705.14	24241.99
705.485	24191.82
705.83	24071.6
706.175	24237.92
706.52	24073.18
706.865	24064.14
707.209	23954.31
707.554	23858.27
707.899	23872.73
708.243	23750.25
708.588	23762.45
708.932	23514.33
709.277	23568.11
709.621	23538.28
709.966	23392.97
710.31	23416.47
710.654	23372.63
710.998	23314.1
711.342	23252.19
711.687	23240.43
712.031	23126.76
712.375	23015.58
712.719	23104.39
713.063	23037.28
713.407	23024.39
713.75	22910.95
714.094	22893.1
714.438	22741.69
714.782	22725.87
715.125	22664.4
715.469	22783.27
715.812	22602.94
716.156	22493.79
716.499	22508.7
716.843	22551.19
717.186	22341.47
717.53	22376.05
717.873	22416.27
718.216	22384.19
718.559	22165.43
718.902	22128.82
719.246	22264.41
719.589	22111.2
719.932	22004.53
720.275	22036.4
720.617	22034.14
720.96	22022.61
721.303	21931.09
721.646	21931.54
721.989	21843.18
722.331	21981.48
722.674	21832.56
723.016	21797.76
723.359	21730.87
723.701	21799.79
724.044	21604.09
724.386	21544.43
724.729	21688.38
725.071	21516.86
725.413	21406.13
725.755	21492.01
726.097	21287.04
726.439	21226.93
726.782	21263.54
727.124	21339.47
727.465	21219.7
727.807	21200.94
728.149	21205.01
728.491	21066.93
728.833	21104.9
729.175	21028.06
729.516	20915.52
729.858	20964.11
730.199	20957.56
730.541	21016.09
730.882	20904.9
731.224	20982.19
731.565	20763.89
731.906	20850.21
732.248	20842.08
732.589	20732.03
732.93	20646.15
733.271	20619.71
733.612	20680.28
733.953	20681.18
734.294	20462.88
734.635	20492.48
734.976	20576.1
735.317	20372.94
735.658	20475.99
735.999	20481.64
736.339	20375.65
736.68	20447.97
737.021	20364.58
737.361	20202.1
737.702	20340.62
738.042	20197.58
738.383	20174.3
738.723	20194.86
739.063	20165.26
739.404	20113.28
739.744	20065.83
740.084	19979.73
740.424	20009.56
740.764	19899.05
741.104	20012.72
741.444	19877.58
741.784	19893.63
742.124	19854.08
742.464	19858.6
742.804	19766.18
743.143	19677.36
743.483	19700.64
743.823	19659.06
744.162	19633.75
744.502	19646.86
744.841	19502.23
745.181	19688.66
745.52	19478.95
745.86	19563.47
746.199	19512.85
746.538	19414.32
746.877	19517.59
747.216	19444.6
747.556	19353.3
747.895	19270.59
748.234	19237.38
748.573	19116.25
748.911	19203.48
749.25	19112.18
749.589	19015.01
749.928	19009.58
750.267	19100.43
750.605	18986.08
750.944	18972.75
751.283	18850.95
751.621	18843.04
751.96	18792.19
752.298	18789.03
752.636	18778.4
752.975	18633.78
753.313	18639.65
753.651	18673.77
753.989	18523.72
754.327	18488.69
754.666	18464.97
755.004	18500.67
755.342	18489.15
755.679	18407.79
756.017	18353.56
756.355	18437.62
756.693	18280.56
757.031	18317.17
757.368	18199.66
757.706	18165.77
758.044	18081.25
758.381	18103.62
758.719	18029.72
759.056	17983.85
759.394	17982.49
759.731	17899.56
760.068	17835.83
760.405	17805.77
760.743	17692.33
761.08	17662.05
761.417	17714.48
761.754	17554.26
762.091	17589.96
762.428	17487.37
762.765	17343.19
763.102	17452.34
763.438	17366.46
763.775	17282.62
764.112	17225.9
764.449	17221.84
764.785	17130.09
765.122	16925.57
765.458	16986.59
765.795	16954.72
766.131	16823.88
766.467	16810.09
766.804	16733.49
767.14	16723.09
767.476	16693.04
767.812	16601.96
768.148	16623.88
768.485	16495.07
768.821	16368.75
769.157	16360.39
769.492	16300.28
769.828	16363.1
770.164	16103.9
770.5	16209.43
770.836	16148.87
771.171	16007.63
771.507	16027.06
771.842	15896.45
772.178	15829.33
772.513	15886.28
772.849	15819.84
773.184	15819.61
773.519	15624.82
773.855	15683.8
774.19	15515.67
774.525	15456.23
774.86	15475.67
775.195	15429.57
775.53	15359.29
775.865	15347.76
776.2	15213.07
776.535	15060.76
776.87	15124.49
777.205	14965.17
777.539	14964.72
777.874	14991.16
778.209	14860.09
778.543	14785.06
778.878	14797.49
779.212	14710.26
779.547	14678.63
779.881	14685.86
780.215	14550.27
780.55	14674.11
780.884	14456.71
781.218	14482.25
781.552	14508.23
781.886	14293.78
782.22	14326.09
782.554	14205.42
782.888	14104.18
783.222	14085.87
783.556	13950.28
783.889	13962.71
784.223	13838.2
784.557	13762.04
784.89	13802.72
785.224	13781.25
785.557	13688.37
785.891	13601.59
786.224	13610.63
786.558	13588.94
786.891	13466.91
787.224	13416.96
787.557	13430.52
787.891	13416.51
788.224	13386.23
788.557	13347.13
788.89	13260.58
789.223	13256.74
789.556	13153.69
789.888	13156.63
790.221	13070.98
790.554	13001.38
790.887	13052.91
791.219	13009.74
791.552	12902.63
791.884	12824.66
792.217	12831.67
792.549	12699.69
792.882	12678.45
793.214	12604.78
793.546	12724.33
793.879	12530.21
794.211	12461.06
794.543	12607.72
794.875	12430.55
795.207	12531.79
795.539	12364.34
795.871	12379.93
796.203	12281.63
796.535	12200.95
796.867	12226.03
797.198	12180.84
797.53	12094.06
797.862	12130.22
798.193	12054.06
798.525	12011.12
798.856	12000.73
799.188	11882.09
799.519	11789.89
799.85	11798.02
800.182	11829.43
800.513	11784.01
800.844	11743.11
801.175	11745.14
801.506	11736.1
801.837	11757.35
802.168	11634.64
802.499	11627.86
802.83	11541.08
803.161	11515.09
803.491	11481.87
803.822	11407.3
804.153	11418.6
804.483	11283.23
804.814	11313.74
805.145	11293.18
805.475	11240.52
805.805	11235.55
806.136	11258.6
806.466	11188.55
806.796	11158.72
807.126	11154.2
807.457	11033.98
807.787	11124.14
808.117	10980.19
808.447	10991.94
808.777	11056.35
809.107	10977.93
809.436	10905.62
809.766	10864.49
810.096	10839.63
810.426	10840.08
810.755	10790.14
811.085	10745.4
811.414	10741.55
811.744	10689.13
812.073	10691.61
812.403	10619.52
812.732	10576.59
813.061	10584.5
813.39	10556.7
813.719	10495.91
814.049	10518.51
814.378	10449.36
814.707	10436.25
815.036	10446.42
815.365	10377.04
815.693	10301.11
816.022	10343.6
816.351	10270.83
816.68	10234.67
817.008	10242.13
817.337	10203.49
817.665	10148.35
817.994	10175.24
818.322	10127.78
818.651	10044.4
818.979	10005.3
819.307	10109.03
819.636	10034.91
819.964	9986.55
820.292	10118.07
820.62	10054.79
820.948	10000.33
821.276	10004.17
821.604	9957.39
821.932	10020.89
822.259	9970.95
822.587	9957.17
822.915	9980.67
823.243	10011.63
823.57	9966.21
823.898	9901.58
824.225	9971.4
824.553	9877.62
824.88	9931.41
825.207	9944.06
825.535	9909.94
825.862	9946.77
826.189	9932.31
826.516	9943.38
826.843	9963.04
827.17	9964.62
827.497	9897.51
827.824	9965.75
828.151	9950.16
828.478	9854.12
828.805	9893.67
829.131	9952.87
829.458	9948.81
829.785	9860.67
830.111	9859.09
830.438	9933.21
830.764	9868.13
831.09	9868.58
831.417	9863.61
831.743	9868.13
832.069	9921.91
832.395	9793.33
832.722	9860.67
833.048	9784.06
833.374	9809.83
833.7	9773.67
834.026	9726.67
834.351	9828.58
834.677	9721.02
835.003	9868.58
835.329	9820.67
835.654	9798.53
835.98	9677.63
836.306	9737.96
836.631	9680.79
836.956	9772.31
837.282	9675.37
837.607	9647.8
837.932	9560.12
838.258	9679.21
838.583	9582.94
838.908	9551.75
839.233	9568.93
839.558	9554.24
839.883	9528.93
840.208	9496.16
840.533	9516.73
840.858	9462.94
841.182	9512.43
841.507	9446.22
841.832	9397.41
842.156	9410.29
842.481	9400.12
842.805	9423.17
843.13	9366.22
843.454	9329.84
843.778	9279.9
844.103	9276.73
844.427	9245.55
844.751	9276.96
845.075	9271.31
845.399	9181.37
845.723	9158.77
846.047	9183.18
846.371	9100.24
846.695	9092.78
847.019	9025.89
847.343	9016.63
847.666	8941.6
847.99	8933.47
848.313	8925.33
848.637	8780.7
848.96	8825.9
849.284	8773.02
849.607	8745.9
849.931	8680.36
850.254	8675.17
850.577	8604.66
850.9	8577.77
851.223	8539.35
851.546	8471.33
851.869	8427.04
852.192	8528.96
852.515	8384.78
852.838	8327.15
853.161	8364.44
853.483	8352.01
853.806	8284.44
854.129	8256.42
854.451	8242.41
854.774	8214.16
855.096	8207.84
855.419	8142.53
855.741	8213.94
856.063	8107.72
856.385	8053.94
856.708	8025.92
857.03	7982.53
857.352	7983.66
857.674	7981.85
857.996	8001.51
858.318	7914.51
858.64	7875.87
858.961	7899.14
859.283	7873.15
859.605	7825.02
859.926	7839.26
860.248	7880.39
860.57	7840.39
860.891	7797
861.212	7738.02
861.534	7716.55
861.855	7746.83
862.176	7779.37
862.498	7717.23
862.819	7721.52
863.14	7655.99
863.461	7652.14
863.782	7596.55
864.103	7613.27
864.424	7593.61
864.745	7572.82
865.065	7576.67
865.386	7517.01
865.707	7585.48
866.027	7515.42
866.348	7573.73
866.668	7463.9
866.989	7486.05
867.309	7390.46
867.63	7482.66
867.95	7472.04
868.27	7455.54
868.59	7460.96
868.91	7366.5
869.23	7378.48
869.55	7349.55
869.87	7404.01
870.19	7346.16
870.51	7392.72
870.83	7348.2
871.15	7330.12
871.469	7312.49
871.789	7292.6
872.109	7296.45
872.428	7295.32
872.748	7322.66
873.067	7265.49
873.386	7349.55
873.706	7193.85
874.025	7253.96
874.344	7224.81
874.663	7252.83
874.982	7158.15
875.301	7177.58
875.62	7198.82
875.939	7147.98
876.258	7148.43
876.577	7111.82
876.896	7098.49
877.214	7076.11
877.533	7110.01
877.852	7027.3
878.17	7086.96
878.489	7075.66
878.807	7063.23
879.125	7072.95
879.444	7090.35
879.762	6994.76
880.08	6949.11
880.398	6964.7
880.716	6950.69
881.034	6947.3
881.352	6956.12
881.67	6878.6
881.988	6887.42
882.306	6935.55
882.624	6867.31
882.941	6852.39
883.259	6853.29
883.577	6832.05
883.894	6812.62
884.212	6778.04
884.529	6776.69
884.846	6772.39
885.164	6764.94
885.481	6689.91
885.798	6725.84
886.115	6695.78
886.432	6678.84
886.75	6641.32
887.067	6623.02
887.383	6625.73
887.7	6637.25
888.017	6617.59
888.334	6567.88
888.651	6576.24
888.967	6559.52
889.284	6515.22
889.6	6490.14
889.917	6448.79
890.233	6444.04
890.55	6444.49
890.866	6472.97
891.182	6371.95
891.498	6382.35
891.815	6367.66
892.131	6381.67
892.447	6348.22
892.763	6303.48
893.079	6317.94
893.395	6273.87
893.71	6268.23
894.026	6256.02
894.342	6193.88
894.657	6221.67
894.973	6166.08
895.289	6085.63
895.604	6142.13
895.92	6106.65
896.235	6075.01
896.55	6130.15
896.865	6096.48
897.181	6058.29
897.496	6098.29
897.811	6014.45
898.126	5969.7
898.441	6044.73
898.756	5942.81
899.071	5971.06
899.386	5920.44
899.7	5896.71
900.015	5859.65
900.33	5800.67
900.644	5841.12
900.959	5804.51
901.273	5750.72
901.588	5774.68
901.902	5727.22
902.216	5727
902.531	5736.71
902.845	5746.43
903.159	5653.78
903.473	5629.82
903.787	5620.33
904.101	5653.1
904.415	5582.82
904.729	5576.04
905.042	5503.5
905.356	5510.5
905.67	5481.13
905.984	5493.1
906.297	5480.45
906.611	5494.01
906.924	5443.61
907.237	5424.86
907.551	5387.8
907.864	5430.28
908.177	5350.51
908.491	5346.22
908.804	5315.93
909.117	5279.55
909.43	5263.51
909.743	5226.67
910.056	5256.73
910.368	5230.29
910.681	5214.24
910.994	5170.63
911.307	5181.7
911.619	5105.32
911.932	5138.31
912.244	5045.66
912.557	5067.8
912.869	5047.92
913.181	5033.23
913.494	5018.77
913.806	5063.06
914.118	4979.22
914.43	4931.31
914.742	4962.27
915.054	4919.79
915.366	4851.77
915.678	4870.3
915.99	4866.68
916.302	4810.18
916.613	4809.05
916.925	4787.36
917.236	4790.52
917.548	4795.04
917.859	4734.03
918.171	4709.17
918.482	4697.64
918.794	4640.92
919.105	4667.82
919.416	4637.08
919.727	4660.58
920.038	4637.76
920.349	4585.33
920.66	4581.26
920.971	4539.68
921.282	4555.5
921.593	4510.53
921.903	4511.21
922.214	4458.1
922.525	4436.18
922.835	4436.18
923.146	4396.18
923.456	4442.06
923.767	4413.58
924.077	4433.02
924.387	4367.71
924.697	4292.68
925.008	4373.13
925.318	4298.79
925.628	4311.67
925.938	4295.62
926.248	4263.31
926.558	4260.37
926.867	4208.39
927.177	4199.8
927.487	4212.91
927.796	4172.46
928.106	4177.43
928.416	4161.39
928.725	4147.15
929.034	4094.5
929.344	4136.53
929.653	4134.95
929.962	4137.66
930.271	4049.07
930.581	4033.71
930.89	3976.99
931.199	3972.47
931.508	3939.47
931.817	3976.53
932.125	3976.99
932.434	3939.7
932.743	3929.53
933.051	3889.3
933.36	3900.6
933.669	3896.76
933.977	3833.71
934.286	3835.29
934.594	3827.84
934.902	3829.19
935.21	3794.62
935.519	3798.69
935.827	3760.49
936.135	3747.61
936.443	3717.33
936.751	3685.47
937.059	3722.53
937.367	3647.73
937.674	3718.01
937.982	3673.26
938.29	3661.06
938.597	3613.38
938.905	3600.27
939.213	3558.92
939.52	3558.69
939.827	3564.57
940.135	3561.63
940.442	3533.61
940.749	3515.3
941.056	3516.43
941.363	3515.98
941.67	3488.19
941.977	3460.16
942.284	3422.42
942.591	3429.88
942.898	3419.49
943.205	3417.23
943.511	3383.78
943.818	3365.02
944.125	3352.14
944.431	3345.36
944.738	3348.98
945.044	3325.25
945.35	3308.53
945.657	3294.52
945.963	3288.87
946.269	3251.81
946.575	3260.85
946.881	3226.95
947.187	3244.35
947.493	3213.84
947.799	3179.04
948.105	3171.36
948.41	3154.18
948.716	3115.99
949.022	3096.78
949.327	3112.6
949.633	3075.99
949.938	3120.06
950.244	3069.67
950.549	3077.12
950.854	3071.47
951.16	3066.5
951.465	3014.3
951.77	3024.69
952.075	2998.48
952.38	2990.8
952.685	2965.04
952.99	2940.18
953.294	2939.27
953.599	2933.62
953.904	2932.49
954.209	2922.78
954.513	2953.96
954.818	2895.43
955.122	2873.51
955.426	2890.91
955.731	2844.13
956.035	2871.7
956.339	2840.74
956.643	2810.01
956.948	2844.59
957.252	2813.17
957.556	2801.88
957.86	2769.11
958.163	2768.66
958.467	2761.2
958.771	2752.16
959.075	2745.15
959.378	2734.76
959.682	2735.66
959.985	2665.61
960.289	2693.86
960.592	2679.17
960.896	2664.03
961.199	2650.69
961.502	2666.96
961.805	2623.58
962.108	2604.82
962.411	2589
962.714	2577.93
963.017	2610.92
963.32	2597.14
963.623	2609.11
963.926	2596.46
964.228	2581.54
964.531	2534.54
964.833	2556.46
965.136	2495.22
965.438	2523.92
965.741	2467.2
966.043	2479.62
966.345	2500.87
966.648	2455.44
966.95	2464.26
967.252	2433.3
967.554	2417.7
967.856	2430.36
968.158	2411.6
968.46	2411.83
968.761	2401.43
969.063	2383.81
969.365	2399.85
969.666	2395.11
969.968	2324.83
970.269	2362.79
970.571	2327.99
970.872	2310.14
971.174	2303.13
971.475	2319.63
971.776	2305.39
972.077	2293.41
972.378	2312.4
972.679	2288.44
972.98	2270.59
973.281	2274.66
973.582	2242.57
973.883	2272.62
974.183	2264.04
974.484	2204.15
974.785	2230.82
975.085	2239.4
975.386	2183.81
975.686	2189.46
975.986	2205.28
976.287	2160.31
976.587	2146.53
976.887	2164.83
977.187	2165.96
977.487	2150.14
977.787	2111.05
978.087	2117.15
978.387	2095
978.687	2103.14
978.987	2094.32
979.286	2083.7
979.586	2073.76
979.885	2082.35
980.185	2068.79
980.484	2036.7
980.784	2046.64
981.083	2055
981.382	2062.91
981.682	2029.01
981.981	1969.58
982.28	1993.31
982.579	2001.44
982.878	1960.99
983.177	1976.81
983.475	1925.51
983.774	1949.47
984.073	1935.23
984.372	1948.79
984.67	1923.93
984.969	1920.77
985.267	1923.71
985.566	1916.48
985.864	1923.03
986.162	1911.73
986.461	1888.91
986.759	1882.35
987.057	1843.48
987.355	1852.07
987.653	1839.64
987.951	1849.81
988.249	1824.05
988.547	1873.76
988.844	1824.05
989.142	1829.02
989.44	1826.31
989.737	1840.54
990.035	1815.46
990.332	1770.04
990.63	1799.64
990.927	1745.63
991.224	1789.92
991.521	1764.84
991.819	1732.98
992.116	1734.33
992.413	1706.99
992.71	1732.53
993.006	1724.16
993.303	1685.75
993.6	1697.95
993.897	1702.7
994.193	1689.59
994.49	1652.3
994.787	1654.56
995.083	1673.77
995.379	1666.31
995.676	1628.35
995.972	1656.37
996.268	1629.48
996.565	1632.41
996.861	1596.48
997.157	1587.44
997.453	1603.71
997.749	1579.08
998.044	1587.67
998.34	1584.96
998.636	1550.61
998.932	1571.85
999.227	1556.03
999.523	1551.29
999.818	1551.51
1000.114	1522.81
1000.409	1506.54
1000.704	1511.97
1001	1490.05
1001.295	1521.46
1001.59	1479.2
1001.885	1475.13
1002.18	1490.5
1002.475	1463.15
1002.77	1490.27
1003.065	1462.02
1003.359	1456.83
1003.654	1425.41
1003.949	1427
1004.243	1444.17
1004.538	1428.8
1004.832	1430.61
1005.127	1410.05
1005.421	1402.36
1005.715	1375.7
1006.009	1410.73
1006.304	1374.79
1006.598	1375.02
1006.892	1364.4
1007.186	1363.27
1007.48	1350.16
1007.773	1373.89
1008.067	1318.52
1008.361	1308.81
1008.655	1342.03
1008.948	1307.68
1009.242	1316.26
1009.535	1295.7
1009.829	1300.67
1010.122	1294.57
1010.415	1308.58
1010.708	1268.13
1011.001	1285.53
1011.295	1279.43
1011.588	1280.11
1011.881	1254.8
1012.173	1265.19
1012.466	1243.5
1012.759	1249.15
1013.052	1238.53
1013.344	1238.53
1013.637	1226.78
1013.93	1193.1
1014.222	1181.35
1014.514	1184.52
1014.807	1184.74
1015.099	1147.68
1015.391	1209.37
1015.683	1196.04
1015.976	1166.66
1016.268	1177.51
1016.56	1155.14
1016.851	1140
1017.143	1128.47
1017.435	1135.7
1017.727	1121.47
1018.018	1125.54
1018.31	1109.04
1018.602	1112.43
1018.893	1104.52
1019.185	1121.02
1019.476	1104.97
1019.767	1082.82
1020.058	1078.98
1020.35	1073.56
1020.641	1050.96
1020.932	1061.36
1021.223	1042.83
1021.514	1050.51
1021.804	1058.42
1022.095	1058.42
1022.386	1029.94
1022.677	1005.31
1022.967	1027.01
1023.258	975.71
1023.548	1026.55
1023.839	1011.41
1024.129	986.1
1024.419	981.36
1024.709	1001.92
1025	968.48
1025.29	967.35
1025.58	983.62
1025.87	952.88
1026.16	935.94
1026.449	944.07
1026.739	955.14
1027.029	953.34
1027.319	949.95
1027.608	926.9
1027.898	920.57
1028.187	909.95
1028.477	941.13
1028.766	918.08
1029.055	886.9
1029.344	913.11
1029.634	897.97
1029.923	878.99
1030.212	874.24
1030.501	875.82
1030.79	876.28
1031.078	876.73
1031.367	864.07
1031.656	852.32
1031.945	852.55
1032.233	852.1
1032.522	864.3
1032.81	840.35
1033.099	828.37
1033.387	824.53
1033.675	820.23
1033.963	801.93
1034.251	810.06
1034.54	789.72
1034.828	800.12
1035.116	825.88
1035.403	789.5
1035.691	795.83
1035.979	808.71
1036.267	771.65
1036.554	778.65
1036.842	754.7
1037.129	772.32
1037.417	754.02
1037.704	766
1037.992	747.47
1038.279	764.87
1038.566	762.61
1038.853	762.61
1039.14	762.61
