Data from white_wall_FLMS001491_011.txt Node
Date: Tue Feb 07 11:03:41 GMT 2017
User: dcchb
Spectrometer: FLMS00149
Trigger mode: 0
Integration Time (sec): 2.000000E-2
Scans to average: 10
Electric dark correction enabled: true
Nonlinearity correction enabled: false
Boxcar width: 0
XAxis mode: Wavelengths
Number of Pixels in Spectrum: 2048
>>>>>Begin Spectral Data<<<<<
341.393	-1.88
341.776	-1.88
342.16	-1.88
342.543	-68.32
342.927	-62.89
343.31	-72.84
343.693	-65.15
344.077	-45.27
344.46	-64.48
344.843	-34.65
345.226	-51.14
345.61	-39.84
345.993	-30.35
346.376	-0.3
346.759	9.65
347.142	30.21
347.525	35.86
347.908	49.65
348.291	79.7
348.674	95.07
349.057	103.88
349.44	131.45
349.823	140.94
350.206	168.51
350.588	213.94
350.971	234.27
351.354	224.33
351.737	250.54
352.119	274.5
352.502	296.64
352.884	294.16
353.267	294.61
353.65	302.52
354.032	327.6
354.414	313.59
354.797	342.97
355.179	323.54
355.562	338.23
355.944	373.03
356.326	348.39
356.709	341.62
357.091	337.32
357.473	344.55
357.855	359.69
358.238	362.41
358.62	378
359.002	352.46
359.384	352.91
359.766	342.97
360.148	373.48
360.53	373.93
360.912	356.76
361.294	376.87
361.676	345.23
362.057	357.66
362.439	338.23
362.821	352.24
363.203	339.36
363.584	348.62
363.966	342.52
364.348	362.86
364.729	349.52
365.111	348.85
365.493	350.88
365.874	372.8
366.256	352.24
366.637	337.55
367.019	358.11
367.4	353.59
367.781	346.36
368.163	350.65
368.544	350.65
368.925	335.74
369.306	330.32
369.688	333.93
370.069	346.59
370.45	358.11
370.831	361.05
371.212	370.54
371.593	349.75
371.974	349.07
372.355	356.53
372.736	348.62
373.117	335.51
373.498	330.99
373.879	364.21
374.26	360.6
374.641	358.34
375.021	345.68
375.402	352.91
375.783	364.89
376.163	364.21
376.544	378.68
376.925	345.68
377.305	372.35
377.686	369.41
378.066	373.48
378.447	358.11
378.827	380.94
379.208	385.68
379.588	389.75
379.968	363.76
380.349	397.21
380.729	400.6
381.109	366.47
381.489	378
381.87	373.25
382.25	393.59
382.63	385
383.01	399.92
383.39	405.12
383.77	392.01
384.15	390.88
384.53	397.43
384.91	414.61
385.29	404.89
385.67	397.89
386.049	422.52
386.429	433.36
386.809	431.1
387.189	432.01
387.568	420.94
387.948	433.59
388.328	434.04
388.707	432.46
389.087	459.8
389.466	466.13
389.846	474.49
390.225	489.41
390.605	476.08
390.984	480.82
391.363	474.72
391.743	494.83
392.122	497.54
392.501	513.59
392.881	519.92
393.26	513.14
393.639	505.9
394.018	532.12
394.397	527.37
394.776	528.96
395.155	546.81
395.534	546.13
395.913	554.49
396.292	574.83
396.671	587.03
397.05	573.02
397.429	589.07
397.808	610.31
398.186	607.6
398.565	604.21
398.944	638.33
399.323	640.14
399.701	672.45
400.08	667.93
400.458	669.06
400.837	686.24
401.215	701.83
401.594	682.85
401.972	706.58
402.351	730.08
402.729	747.48
403.107	748.16
403.486	788.16
403.864	799.46
404.242	805.78
404.62	822.28
404.999	841.49
405.377	843.97
405.755	846.91
406.133	850.53
406.511	889.4
406.889	900.24
407.267	919
407.645	910.87
408.023	933.92
408.401	957.19
408.779	955.61
409.156	1006.46
409.534	1004.87
409.912	1020.02
410.29	1050.07
410.667	1056.17
411.045	1063.18
411.422	1094.36
411.8	1122.16
412.178	1128.71
412.555	1136.17
412.933	1180.46
413.31	1184.76
413.687	1181.82
414.065	1211.65
414.442	1220.46
414.819	1259.56
415.197	1257.07
415.574	1297.52
415.951	1298.43
416.328	1326.9
416.705	1367.58
417.082	1345.66
417.46	1382.94
417.837	1393.79
418.214	1396.5
418.591	1407.8
418.967	1411.42
419.344	1457.07
419.721	1478.53
420.098	1467.24
420.475	1509.72
420.852	1501.36
421.228	1511.08
421.605	1549.04
421.982	1537.74
422.358	1573.9
422.735	1603.73
423.111	1607.8
423.488	1622.03
423.864	1651.41
424.241	1657.06
424.617	1684.86
424.994	1690.05
425.37	1710.17
425.746	1735.25
426.123	1739.32
426.499	1778.41
426.875	1826.1
427.251	1830.16
427.627	1884.4
428.003	1891.41
428.379	1892.76
428.756	1912.65
429.132	1962.36
429.507	1982.02
429.883	1980.22
430.259	2050.04
430.635	2047.11
431.011	2075.58
431.387	2154.22
431.763	2156.26
432.138	2189.7
432.514	2212.07
432.89	2228.35
433.265	2298.17
433.641	2317.16
434.016	2311.73
434.392	2353.54
434.767	2439.41
435.143	2396.48
435.518	2467.89
435.894	2464.95
436.269	2491.62
436.644	2528.68
437.02	2573.87
437.395	2560.54
437.77	2609.58
438.145	2634.89
438.52	2649.58
438.895	2720.54
439.271	2751.27
439.646	2790.36
440.021	2806.18
440.395	2811.61
440.77	2799.63
441.145	2823.36
441.52	2881.44
441.895	2940.42
442.27	2946.29
442.645	2910.59
443.019	3005.05
443.394	2994.65
443.769	3012.51
444.143	3023.58
444.518	3057.93
444.892	3055.67
445.267	3113.29
445.641	3137.93
446.016	3138.15
446.39	3181.09
446.764	3218.15
447.139	3215.21
447.513	3267.19
447.887	3257.7
448.262	3289.79
448.636	3311.03
449.01	3358.94
449.384	3405.26
449.758	3390.12
450.132	3486.84
450.506	3475.32
450.88	3525.71
451.254	3534.98
451.628	3570.68
452.002	3672.6
452.376	3669.21
452.75	3693.17
453.123	3702.88
453.497	3805.93
453.871	3817.91
454.244	3909.88
454.618	3886.15
454.992	3983.1
455.365	3975.42
455.739	4121.4
456.112	4169.31
456.486	4172.25
456.859	4233.72
457.232	4301.96
457.606	4296.31
457.979	4308.29
458.352	4487.72
458.725	4506.25
459.099	4534.27
459.472	4637.55
459.845	4680.26
460.218	4707.38
460.591	4790.09
460.964	4790.54
461.337	4924.77
461.71	5000.02
462.083	5092.45
462.456	5120.92
462.829	5063.75
463.201	5211.09
463.574	5230.75
463.947	5303.29
464.32	5435.49
464.692	5520.69
465.065	5499.9
465.438	5600.69
465.81	5690.63
466.183	5760
466.555	5839.1
466.928	5917.51
467.3	5944.41
467.672	6047.23
468.045	6186.66
468.417	6197.96
468.789	6232.53
469.161	6356.6
469.534	6493.09
469.906	6606.76
470.278	6670.71
470.65	6762.92
471.022	6878.62
471.394	7068.22
471.766	7042.23
472.138	7166.52
472.51	7300.98
472.882	7390.02
473.253	7539.39
473.625	7664.36
473.997	7855.32
474.369	7826.62
474.74	7992.49
475.112	8156.33
475.484	8274.29
475.855	8361.74
476.227	8500.5
476.598	8818.91
476.97	8888.51
477.341	9085.57
477.713	9209.4
478.084	9260.02
478.455	9518.1
478.827	9656.4
479.198	9887.13
479.569	9922.83
479.94	10171.19
480.311	10268.81
480.682	10523.27
481.053	10687.56
481.424	10846.88
481.795	11047.55
482.166	11245.28
482.537	11394.88
482.908	11578.61
483.279	11661.32
483.65	11906.06
484.021	12220.85
484.391	12248.19
484.762	12493.39
485.133	12628.3
485.503	12803.21
485.874	13136.99
486.244	13189.87
486.615	13499.46
486.985	13606.58
487.356	13983.74
487.726	14082.27
488.097	14319.78
488.467	14381.92
488.837	14713.21
489.207	14850.16
489.578	15014
489.948	15192.98
490.318	15478.17
490.688	15553.87
491.058	15790.47
491.428	16076.79
491.798	16155.21
492.168	16460.74
492.538	16533.28
492.908	16769.66
493.278	17017.34
493.648	17092.14
494.017	17384.56
494.387	17457.1
494.757	17627.49
495.126	17910.19
495.496	17960.14
495.866	18087.14
496.235	18378.43
496.605	18412.33
496.974	18569.61
497.344	18822.49
497.713	18911.52
498.082	19084.17
498.452	19252.3
498.821	19304.73
499.19	19517.83
499.559	19645.97
499.928	19806.87
500.298	20004.6
500.667	20073.3
501.036	20224.03
501.405	20356.91
501.774	20457.24
502.143	20710.35
502.512	20736.33
502.88	20874.41
503.249	20993.95
503.618	21221.29
503.987	21294.51
504.356	21379.93
504.724	21644.56
505.093	21816.3
505.462	21823.99
505.83	22037.32
506.199	22229.85
506.567	22543.74
506.936	22530.64
507.304	22839.1
507.672	22925.2
508.041	23137.63
508.409	23254.23
508.777	23487.67
509.145	23624.39
509.514	23751.17
509.882	24012.41
510.25	24019.86
510.618	24197.26
510.986	24354.77
511.354	24638.38
511.722	24790.46
512.09	24944.81
512.458	25102.32
512.826	25415.76
513.193	25419.83
513.561	25649.42
513.929	25774.39
514.297	26062.75
514.664	26321.05
515.032	26427.26
515.4	26663.86
515.767	26719.45
516.135	26815.72
516.502	26896.4
516.869	27323.96
517.237	27392.88
517.604	27363.73
517.972	27781.57
518.339	27964.62
518.706	28079.87
519.073	28328.68
519.44	28492.74
519.808	28752.62
520.175	28620.65
520.542	29107.41
520.909	29356.45
521.276	29501.3
521.643	29740.62
522.009	30018.58
522.376	30185.35
522.743	30320.26
523.11	30520.71
523.477	30948.49
523.843	31053.58
524.21	31417.86
524.577	31659.21
524.943	31633.9
525.31	31874.12
525.676	32252.41
526.043	32442.47
526.409	32715.68
526.776	32956.8
527.142	33190.47
527.508	33255.1
527.874	33604.92
528.241	33786.39
528.607	33756.1
528.973	34229.31
529.339	34204.23
529.705	34650.09
530.071	34890.99
530.437	35062.96
530.803	35232.45
531.169	35309.06
531.535	35303.86
531.901	35680.8
532.267	35937.74
532.632	35979.55
532.998	36138.87
533.364	36346.54
533.73	36513.77
534.095	36714.22
534.461	36863.82
534.826	37063.81
535.192	37238.5
535.557	37432.17
535.923	37521.43
536.288	37605.27
536.653	37720.07
537.019	37841.19
537.384	37896.79
537.749	38127.51
538.114	38314.63
538.479	38369.77
538.845	38625.81
539.21	38624.68
539.575	38878.23
539.94	39053.14
540.305	39249.29
540.67	39104.21
541.034	39257.65
541.399	39711.88
541.764	39694.03
542.129	39969.27
542.494	39947.81
542.858	40067.35
543.223	40291.07
543.587	40442.71
543.952	40363.16
544.316	40667.79
544.681	40602.93
545.045	40885.63
545.41	41295.79
545.774	41331.72
546.138	41187.1
546.503	41604.71
546.867	41519.29
547.231	41855.33
547.595	42004.02
547.959	42218.03
548.324	42310.46
548.688	42239.5
549.052	42389.78
549.416	42581.86
549.779	42868.18
550.143	42763.1
550.507	43190.88
550.871	43236.53
551.235	43401.95
551.599	43609.4
551.962	43820.25
552.326	43811.66
552.689	44123.51
553.053	44098.88
553.417	44198.99
553.78	44702.03
554.143	44642.15
554.507	44878.3
554.87	45024.96
555.234	45446.42
555.597	45216.37
555.96	45552.86
556.323	45745.39
556.686	45677.15
557.05	46084.37
557.413	46229.67
557.776	46344.25
558.139	46654.75
558.502	46627.4
558.865	46930.9
559.228	47199.59
559.59	47291.57
559.953	47508.74
560.316	47807.03
560.679	47896.98
561.041	48089.06
561.404	48301.26
561.767	48534.92
562.129	48395.27
562.492	48909.6
562.854	48934.69
563.217	48930.62
563.579	49091.75
563.941	49414.45
564.304	49511.85
564.666	49731.96
565.028	49828.45
565.39	49905.96
565.753	50044.49
566.115	50265.95
566.477	50405.61
566.839	50483.35
567.201	50753.85
567.563	50725.38
567.925	50947.29
568.287	50934.86
568.648	51095.99
569.01	51323.1
569.372	51448.52
569.734	51541.17
570.095	51719.25
570.457	51737.55
570.819	51836.31
571.18	51774.84
571.542	51976.19
571.903	52160.37
572.265	52226.13
572.626	52369.63
572.987	52346.35
573.349	52481.04
573.71	52655.27
574.071	52648.71
574.432	52787.24
574.794	52922.61
575.155	53002.38
575.516	52909.72
575.877	53097.74
576.238	53138.42
576.599	53320.34
576.96	53229.26
577.32	53297.51
577.681	53416.15
578.042	53556.49
578.403	53437.17
578.763	53478.98
579.124	53517.39
579.485	53621.8
579.845	53686.88
580.206	53738.18
580.566	53707.9
580.927	53640.1
581.287	53837.38
581.648	53798.06
582.008	53938.62
582.368	53781.57
582.728	53923.03
583.089	53790.61
583.449	53858.63
583.809	53853.43
584.169	54002.35
584.529	53954.22
584.889	54143.36
585.249	53884.84
585.609	53829.7
585.969	54033.54
586.329	53949.47
586.688	53962.13
587.048	54006.64
587.408	53866.08
587.768	53989.24
588.127	53964.16
588.487	53918.96
588.846	54103.82
589.206	53877.38
589.565	53978.62
589.925	54174.32
590.284	54074.89
590.643	54127.32
591.003	54130.03
591.362	54309.01
591.721	54260.88
592.08	54162.57
592.44	54246.64
592.799	54286.41
593.158	54207.09
593.517	54241.22
593.876	54300.65
594.235	54128.45
594.593	54248.22
594.952	54304.94
595.311	54200.54
595.67	54329.12
596.029	54320.99
596.387	54370.7
596.746	54384.94
597.104	54306.98
597.463	54290.71
597.822	54400.08
598.18	54230.14
598.538	54319.18
598.897	54473.3
599.255	54196.24
599.613	54654.76
599.972	54430.81
600.33	54479.63
600.688	54431.04
601.046	54545.84
601.404	54699.73
601.762	54566.63
602.12	54718.26
602.478	54675.55
602.836	54756.46
603.194	54556.69
603.552	54653.63
603.91	54532.73
604.268	54755.1
604.625	54623.58
604.983	54788.77
605.341	54686.18
605.698	54854.08
606.056	54871.03
606.413	54758.49
606.771	54906.28
607.128	54895.89
607.485	54875.77
607.843	54823.12
608.2	54977.69
608.557	55131.81
608.914	55007.3
609.272	55119.16
609.629	55072.61
609.986	55291.13
610.343	55146.5
610.7	55303.11
611.057	55342.2
611.414	55256.33
611.771	55326.61
612.127	55386.72
612.484	55385.14
612.841	55451.58
613.198	55476.89
613.554	55405.25
613.911	55574.74
614.267	55485.7
614.624	55527.06
614.98	55595.53
615.337	55639.14
615.693	55648.86
616.05	55621.74
616.406	55818.12
616.762	55709.2
617.118	55639.37
617.475	55704
617.831	55778.12
618.187	55798.24
618.543	55834.62
618.899	55927.72
619.255	55960.72
619.611	55898.35
619.967	55986.71
620.323	55942.64
620.678	55965.46
621.034	55827.16
621.39	55939.25
621.746	55867.39
622.101	56210.88
622.457	55923.43
622.812	55946.25
623.168	56050.88
623.523	55979.47
623.879	56119.81
624.234	55907.84
624.589	56062.64
624.945	56083.65
625.3	56114.61
625.655	56097.44
626.01	56109.64
626.365	56120.26
626.72	56070.09
627.075	56034.61
627.43	56059.7
627.785	55967.72
628.14	56042.52
628.495	56120.04
628.85	56075.97
629.205	56004.33
629.559	56199.81
629.914	56111.67
630.269	56006.82
630.623	55925.69
630.978	55865.35
631.332	55918.69
631.687	55977.89
632.041	55848.4
632.396	55843.21
632.75	55830.1
633.104	55926.14
633.459	55774.96
633.813	55706.94
634.167	55750.78
634.521	55677.11
634.875	55798.46
635.229	55688.63
635.583	55588.98
635.937	55559.6
636.291	55524.8
636.645	55614.74
636.999	55482.31
637.352	55592.59
637.706	55437.79
638.06	55533.38
638.413	55467.4
638.767	55421.97
639.121	55460.84
639.474	55301.07
639.828	55306.5
640.181	55290
640.534	55290.9
640.888	55136.33
641.241	55052.27
641.594	55082.77
641.947	55158.03
642.301	55083.68
642.654	55015.43
643.007	54989.67
643.36	55030.12
643.713	54923.23
644.066	55110.8
644.419	54894.08
644.771	54700.19
645.124	54461.1
645.477	54407.99
645.83	54198.05
646.182	54096.81
646.535	54037.15
646.888	54108.79
647.24	53927.32
647.593	54049.13
647.945	53907.89
648.298	53835.8
648.65	53721.45
649.002	53752.41
649.355	53870.15
649.707	53764.62
650.059	53944.27
650.411	54247.77
650.763	54262.46
651.115	54529.57
651.467	54389.69
651.819	54444.37
652.171	54316.47
652.523	54294.55
652.875	54227.66
653.227	54203.25
653.578	54306.52
653.93	54283.47
654.282	54192.85
654.633	54025.18
654.985	54155.57
655.337	54069.47
655.688	54043.71
656.039	54222.68
656.391	53936.36
656.742	53968.45
657.094	54022.69
657.445	54078.96
657.796	53966.42
658.147	53876.93
658.498	53865.63
658.849	53980.2
659.2	53911.05
659.551	53780.66
659.902	53932.07
660.253	53884.16
660.604	53915.35
660.955	53633.32
661.306	53856.59
661.656	53723.26
662.007	53730.27
662.358	53750.38
662.708	53698.18
663.059	53624.96
663.409	53487.11
663.76	53701.12
664.11	53627.45
664.461	53682.13
664.811	53664.96
665.161	53679.42
665.511	53584.06
665.862	53545.64
666.212	53671.06
666.562	53639.2
666.912	53606.2
667.262	53577.5
667.612	53557.39
667.962	53524.4
668.312	53454.57
668.662	53652.98
669.011	53517.39
669.361	53476.26
669.711	53337.28
670.06	53447.34
670.41	53379.77
670.76	53351.97
671.109	53412.76
671.459	53358.07
671.808	53189.49
672.157	53255.03
672.507	53037.4
672.856	53156.72
673.205	53160.79
673.554	53172.54
673.904	53084.64
674.253	53166.22
674.602	53072.21
674.951	52623.4
675.3	52462.05
675.649	52962.83
675.998	52876.51
676.346	52972.1
676.695	52899.78
677.044	52806.9
677.393	52843.74
677.741	52791.54
678.09	52784.98
678.438	52633.12
678.787	52674.7
679.135	52735.94
679.484	52561.71
679.832	52687.13
680.181	52440.13
680.529	52515.16
680.877	52466.35
681.225	52411.43
681.573	52610.07
681.922	52237.43
682.27	52218.44
682.618	52281.04
682.966	52238.33
683.314	52254.6
683.661	52088.28
684.009	51996.3
684.357	51911.33
684.705	51772.81
685.053	51867.72
685.4	51760.38
685.748	51665.46
686.095	51705.46
686.443	51498.69
686.79	51414.62
687.138	51568.52
687.485	51533.04
687.832	51365.36
688.18	51386.37
688.527	51181.41
688.874	51213.5
689.221	51053.73
689.568	50851.02
689.915	50866.16
690.262	50887.86
690.609	50783
690.956	50610.35
691.303	50548.2
691.65	50414.87
691.997	50451.48
692.344	50325.61
692.69	50213.75
693.037	50215.78
693.383	49878.39
693.73	50101.44
694.077	49812.63
694.423	49782.35
694.769	49728.57
695.116	49608.34
695.462	49485.86
695.808	49372.42
696.155	49433.88
696.501	49130.61
696.847	49097.17
697.193	48849.49
697.539	49181.46
697.885	48800.23
698.231	48608.37
698.577	48638.42
698.923	48646.79
699.269	48474.14
699.614	48377.41
699.96	48159.57
700.306	48171.54
700.651	48003.64
700.997	47928.61
701.342	47796.64
701.688	47794.15
702.033	47689.07
702.379	47637.32
702.724	47550.54
703.069	47566.36
703.415	47198.46
703.76	47163.21
704.105	47127.5
704.45	47102.19
704.795	46911.01
705.14	46652.71
705.485	46642.54
705.83	46518.93
706.175	46577.24
706.52	46421.31
706.865	46312.61
707.209	46248.2
707.554	46101.99
707.899	46122.11
708.243	46038.27
708.588	45978.16
708.932	45709.46
709.277	45653.42
709.621	45693.42
709.966	45426.53
710.31	45537.04
710.654	45099.76
710.998	45244.16
711.342	45250.49
711.687	45050.27
712.031	44932.31
712.375	44849.15
712.719	44817.73
713.063	44809.37
713.407	44879.2
713.75	44610.96
714.094	44664.07
714.438	44242.83
714.782	44420.68
715.125	44274.02
715.469	44306.56
715.812	44016.4
716.156	43884.2
716.499	44017.53
716.843	44021.82
717.186	43705.67
717.53	43857.08
717.873	43813.92
718.216	43711.77
718.559	43612.34
718.902	43261.39
719.246	43239.02
719.589	43266.36
719.932	42946.37
720.275	43031.57
720.617	43037.67
720.96	43062.75
721.303	42933.04
721.646	43008.52
721.989	42579.83
722.331	42750.22
722.674	42595.65
723.016	42700.5
723.359	42554.74
723.701	42515.42
724.044	42285.37
724.386	42164.47
724.729	42302.32
725.071	42211.02
725.413	42157.69
725.755	41991.14
726.097	41691.94
726.439	41698.72
726.782	41679.96
727.124	41908.88
727.465	41549.8
727.807	41561.55
728.149	41455.79
728.491	41454.66
728.833	41502.34
729.175	41395.9
729.516	41264.38
729.858	41213.76
730.199	41298.28
730.541	41273.65
730.882	41166.3
731.224	41266.64
731.565	41090.37
731.906	40942.58
732.248	40981.45
732.589	40755.92
732.93	40782.81
733.271	40684.51
733.612	40655.58
733.953	40719.76
734.294	40469.37
734.635	40424.4
734.976	40529.94
735.317	40404.06
735.658	40265.09
735.999	40215.37
736.339	40267.12
736.68	40355.03
737.021	40078.65
737.361	39871.88
737.702	40138.76
738.042	39936.96
738.383	39788.94
738.723	39907.81
739.063	39639.57
739.404	39802.05
739.744	39618.55
740.084	39425.11
740.424	39515.73
740.764	39347.82
741.104	39550.75
741.444	39312.79
741.784	39216.75
742.124	39251.33
742.464	39179.24
742.804	39067.38
743.143	39030.32
743.483	39079.81
743.823	38782.41
744.162	38800.49
744.502	38861.73
744.841	38605.02
745.181	38780.38
745.52	38416.09
745.86	38732.47
746.199	38542.42
746.538	38475.53
746.877	38608.41
747.216	38476.88
747.556	38378.58
747.895	38397.56
748.234	38188.53
748.573	38058.82
748.911	38025.82
749.25	37959.84
749.589	37898.59
749.928	37974.52
750.267	37935.2
750.605	37722.55
750.944	37685.04
751.283	37546.96
751.621	37423.13
751.96	37303.36
752.298	37372.96
752.636	37273.53
752.975	37094.32
753.313	37030.59
753.651	37226.97
753.989	36946.75
754.327	36951.27
754.666	36808.68
755.004	36813.42
755.342	36809.36
755.679	36636.03
756.017	36537.73
756.355	36576.14
756.693	36266.32
757.031	36381.8
757.368	36085.76
757.706	36059.09
758.044	35971.86
758.381	36083.5
758.719	35892.54
759.056	35907.23
759.394	35748.14
759.731	35520.13
760.068	35561.25
760.405	35414.14
760.743	35152.45
761.08	35240.36
761.417	35030.42
761.754	35092.34
762.091	34915.62
762.428	34732.35
762.765	34588.17
763.102	34772.12
763.438	34507.72
763.775	34232.93
764.112	34419.59
764.449	34333.72
764.785	34220.27
765.122	33978.25
765.458	33858.25
765.795	33908.42
766.131	33765.82
766.467	33704.13
766.804	33484.92
767.14	33397.7
767.476	33235.67
767.812	33129.68
768.148	33152.05
768.485	33071.83
768.821	32882.45
769.157	32808.33
769.492	32681.1
769.828	32660.77
770.164	32258.52
770.5	32263.49
770.836	32274.11
771.171	32040.89
771.507	32101.46
771.842	31639.1
772.178	31807.23
772.513	31689.04
772.849	31545.99
773.184	31332.21
773.519	31338.99
773.855	31240.46
774.19	31144.65
774.525	31042.73
774.86	30987.14
775.195	30783.98
775.53	30763.87
775.865	30687.94
776.2	30371.79
776.535	30148.29
776.87	30119.36
777.205	30080.49
777.539	29937.67
777.874	30144.9
778.209	29694.97
778.543	29662.43
778.878	29529.55
779.212	29509.44
779.547	29238.71
779.881	29379.5
780.215	29064.7
780.55	29229.67
780.884	28968.66
781.218	28847.31
781.552	28843.24
781.886	28736.8
782.22	28567.31
782.554	28619.97
782.888	28229.92
783.222	28096.14
783.556	28176.59
783.889	28148.57
784.223	27733.66
784.557	27748.35
784.89	27815.47
785.224	27578.41
785.557	27429.04
785.891	27430.39
786.224	27280.12
786.558	27177.07
786.891	26956.51
787.224	26968.03
787.557	26890.75
787.891	26770.07
788.224	26736.63
788.557	26714.03
788.89	26598.78
789.223	26573.92
789.556	26423.19
789.888	26268.39
790.221	26259.58
790.554	25960.38
790.887	26073.14
791.219	25828.63
791.552	25755.86
791.884	25757.9
792.217	25682.19
792.549	25498.02
792.882	25415.76
793.214	25326.95
793.546	25384.8
793.879	25097.57
794.211	25080.4
794.543	25121.08
794.875	24912.27
795.207	25079.04
795.539	24869.56
795.871	24898.48
796.203	24615.1
796.535	24502.11
796.867	24397.03
797.198	24459.63
797.53	24336.92
797.862	24152.29
798.193	24396.8
798.525	24171.5
798.856	24176.47
799.188	23792.3
799.519	23801.56
799.85	23717.72
800.182	23662.81
800.513	23750.94
800.844	23424.4
801.175	23601.79
801.506	23447.9
801.837	23425.75
802.168	23307.57
802.499	23266.44
802.83	23169.94
803.161	23072.77
803.491	22976.5
803.822	23052.66
804.153	22802.95
804.483	22681.59
804.814	22627.58
805.145	22668.71
805.475	22670.75
805.805	22494.03
806.136	22456.29
806.466	22432.79
806.796	22473.91
807.126	22286.12
807.457	22200.48
807.787	22256.75
808.117	22052.91
808.447	21976.07
808.777	22079.35
809.107	21876.19
809.436	21815.63
809.766	21876.87
810.096	21668.29
810.426	21724.56
810.755	21571.34
811.085	21572.7
811.414	21539.48
811.744	21354.4
812.073	21409.54
812.403	21305.81
812.732	21258.35
813.061	21108.07
813.39	20993.95
813.719	21028.98
814.049	21115.31
814.378	20959.83
814.707	20906.72
815.036	20920.51
815.365	20710.57
815.693	20584.25
816.022	20679.16
816.351	20469.22
816.68	20430.8
817.008	20461.99
817.337	20352.16
817.665	20300.41
817.994	20325.95
818.322	20347.42
818.651	20206.86
818.979	20160.98
819.307	20297.47
819.636	20139.74
819.964	19959.63
820.292	20151.49
820.62	20038.5
820.948	19977.26
821.276	19970.7
821.604	19993.08
821.932	20041.44
822.259	20024.49
822.587	20026.97
822.915	19939.74
823.243	20018.61
823.57	19865.4
823.898	20012.96
824.225	19825.4
824.553	19910.14
824.88	19890.03
825.207	19867.66
825.535	19810.48
825.862	19906.98
826.189	19814.78
826.516	19955.11
826.843	19961.44
827.17	19936.13
827.497	19913.76
827.824	19824.72
828.151	19885.73
828.478	19864.49
828.805	19991.72
829.131	19915.56
829.458	19800.31
829.785	19629.47
830.111	19773.19
830.438	19813.87
830.764	19881.89
831.09	19781.33
831.417	19732.74
831.743	19877.6
832.069	19724.38
832.395	19661.79
832.722	19742.69
833.048	19691.62
833.374	19671.95
833.7	19618.62
834.026	19539.3
834.351	19655.46
834.677	19574.56
835.003	19604.39
835.329	19576.82
835.654	19498.85
835.98	19468.34
836.306	19538.17
836.631	19359.19
836.956	19467.89
837.282	19440.1
837.607	19341.12
837.932	19252.76
838.258	19203.27
838.583	19269.93
838.908	19165.08
839.233	19193.32
839.558	19141.8
839.883	19138.41
840.208	18991.52
840.533	19054.34
840.858	18957.62
841.182	19011.18
841.507	18967.57
841.832	18849.15
842.156	18781.13
842.481	18797.4
842.805	18735.26
843.13	18710.17
843.454	18696.84
843.778	18557.41
844.103	18561.02
844.427	18497.3
844.751	18405.1
845.075	18549.27
845.399	18435.38
845.723	18292.33
846.047	18341.37
846.371	18219.79
846.695	18195.61
847.019	17999.23
847.343	17932.57
847.666	17871.55
847.99	17744.77
848.313	17660.48
848.637	17703.19
848.96	17623.19
849.284	17592.46
849.607	17433.6
849.931	17378.23
850.254	17273.83
850.577	17219.82
850.9	17062.08
851.223	17184.79
851.546	17031.8
851.869	16862.08
852.192	16861.18
852.515	16785.7
852.838	16665.71
853.161	16666.84
853.483	16596.78
853.806	16500.51
854.129	16557.46
854.451	16477.24
854.774	16395.66
855.096	16411.93
855.419	16207.64
855.741	16195.66
856.063	16149.34
856.385	16105.27
856.708	16021.2
857.03	15947.76
857.352	15927.87
857.674	15951.83
857.996	15904.14
858.318	15856.91
858.64	15748.89
858.961	15651.95
859.283	15725.39
859.605	15636.58
859.926	15678.16
860.248	15599.75
860.57	15495.79
860.891	15471.16
861.212	15395
861.534	15336.48
861.855	15286.99
862.176	15411.73
862.498	15312.52
862.819	15317.04
863.14	15300.09
863.461	15184.61
863.782	15225.97
864.103	15226.42
864.424	15111.4
864.745	15087.89
865.065	14946.43
865.386	14952.08
865.707	14933.55
866.027	14997.28
866.348	14983.26
866.668	14972.19
866.989	14954.34
867.309	14788.47
867.63	14814
867.95	14868.01
868.27	14748.24
868.59	14790.5
868.91	14758.41
869.23	14699.88
869.55	14664.63
869.87	14756.6
870.19	14654.23
870.51	14645.65
870.83	14711.41
871.15	14552.99
871.469	14576.95
871.789	14608.36
872.109	14547.8
872.428	14408.59
872.748	14467.8
873.067	14428.02
873.386	14413.79
873.706	14326.78
874.025	14350.96
874.344	14355.94
874.663	14344.18
874.982	14257.41
875.301	14242.04
875.62	14244.3
875.939	14221.93
876.258	14206.79
876.577	14115.72
876.896	14143.06
877.214	14096.96
877.533	14171.99
877.852	14057.64
878.17	14088.37
878.489	14061.71
878.807	14054.93
879.125	13993.69
879.444	14020.35
879.762	13913.91
880.08	13966.34
880.398	13821.03
880.716	13884.99
881.034	13816.06
881.352	13808.61
881.67	13747.36
881.988	13785.1
882.306	13709.17
882.624	13676.63
882.941	13615.84
883.259	13551.44
883.577	13573.81
883.894	13504.66
884.212	13470.08
884.529	13502.4
884.846	13464.66
885.164	13452.91
885.481	13452.46
885.798	13430.31
886.115	13261.95
886.432	13295.85
886.75	13243.65
887.067	13211.33
887.383	13172.69
887.7	13154.61
888.017	13176.08
888.334	13191.45
888.651	13105.57
888.967	13098.34
889.284	12902.41
889.6	12943.32
889.917	12826.26
890.233	12854.05
890.55	12813.6
890.866	12767.73
891.182	12784
891.498	12683.66
891.815	12648.64
892.131	12577.9
892.447	12621.97
892.763	12517.34
893.079	12579.49
893.395	12477.79
893.71	12378.13
894.026	12417
894.342	12427.17
894.657	12338.36
894.973	12305.37
895.289	12266.73
895.604	12229.66
895.92	12164.36
896.235	12162.77
896.55	12113.28
896.865	11996.68
897.181	12073.06
897.496	12059.5
897.811	11977.92
898.126	11966.85
898.441	11857.7
898.756	11841.88
899.071	11732.28
899.386	11676.46
899.7	11639.85
900.015	11571.6
900.33	11558.72
900.644	11551.49
900.959	11533.19
901.273	11506.29
901.588	11371.61
901.902	11470.59
902.216	11357.6
902.531	11288.22
902.845	11199.41
903.159	11160.54
903.473	11197.83
903.787	11169.58
904.101	11020.66
904.415	11117.15
904.729	11052.75
905.042	10956.7
905.356	10946.99
905.67	10963.93
905.984	10894.78
906.297	10800.78
906.611	10749.25
906.924	10707.44
907.237	10667.67
907.551	10612.98
907.864	10580.67
908.177	10552.19
908.491	10568.47
908.804	10522.59
909.117	10481.69
909.43	10393.33
909.743	10286.44
910.056	10275.14
910.368	10219.1
910.681	10217.29
910.994	10202.15
911.307	10169.61
911.619	10034.92
911.932	10180.45
912.244	10001.47
912.557	9985.2
912.869	9937.52
913.181	9878.54
913.494	9890.06
913.806	9784.53
914.118	9762.84
914.43	9795.83
914.742	9709.96
915.054	9588.38
915.366	9646.23
915.678	9690.07
915.99	9517.65
916.302	9488.49
916.613	9385.9
916.925	9457.53
917.236	9414.37
917.548	9297.54
917.859	9316.29
918.171	9306.35
918.482	9193.36
918.794	9226.13
919.105	9117.2
919.416	9021.39
919.727	9051.44
920.038	9014.16
920.349	8983.2
920.66	8930.32
920.971	8930.09
921.282	8924.89
921.593	8867.27
921.903	8750.21
922.214	8805.35
922.525	8751.56
922.835	8706.14
923.146	8631.79
923.456	8571.23
923.767	8564.9
924.077	8575.75
924.387	8490.1
924.697	8454.4
925.008	8437
925.318	8335.08
925.628	8328.3
925.938	8330.11
926.248	8269.99
926.558	8256.89
926.867	8233.61
927.177	8215.31
927.487	8168.08
927.796	8062.77
928.106	8012.15
928.416	7988.42
928.725	7987.29
929.034	7997.46
929.344	7928.99
929.653	7937.8
929.962	7807.41
930.271	7796.11
930.581	7785.94
930.89	7747.75
931.199	7681.99
931.508	7649.9
931.817	7702.1
932.125	7625.72
932.434	7606.28
932.743	7494.87
933.051	7524.93
933.36	7416.46
933.669	7464.59
933.977	7388.44
934.286	7429.79
934.594	7340.08
934.902	7241.77
935.21	7340.3
935.519	7262.34
935.827	7237.25
936.135	7201.55
936.443	7162.68
936.751	7085.84
937.059	7080.65
937.367	7023.25
937.674	7057.6
937.982	7026.19
938.29	6934.21
938.597	6949.13
938.905	6877.94
939.213	6834.55
939.52	6783.93
939.827	6827.55
940.135	6760.66
940.442	6714.56
940.749	6711.39
941.056	6725.63
941.363	6564.28
941.67	6641.11
941.977	6542.81
942.284	6555.92
942.591	6561.79
942.898	6462.81
943.205	6520.44
943.511	6454.22
943.818	6454.45
944.125	6377.61
944.431	6395.69
944.738	6339.2
945.044	6315.02
945.35	6261.69
945.657	6198.41
945.963	6162.48
946.269	6151.63
946.575	6123.61
946.881	6107.34
947.187	6103.72
947.493	6079.54
947.799	6063.5
948.105	6026.44
948.41	5949.6
948.716	5956.38
949.022	5918.42
949.327	5860.11
949.633	5847.23
949.938	5885.88
950.244	5772.21
950.549	5805.88
950.854	5788.93
951.16	5695.15
951.465	5726.11
951.77	5654.92
952.075	5655.83
952.38	5642.27
952.685	5630.06
952.99	5592.1
953.294	5616.96
953.599	5537.18
953.904	5567.47
954.209	5506.23
954.513	5495.15
954.818	5469.84
955.122	5441.14
955.426	5415.15
955.731	5352.78
956.035	5383.97
956.339	5328.6
956.643	5347.81
956.948	5286.57
957.252	5272.56
957.556	5282.95
957.86	5234.59
958.163	5242.73
958.467	5160.92
958.771	5130.42
959.075	5130.19
959.378	5061.27
959.682	5121.38
959.985	5088.38
960.289	5019.46
960.592	5023.98
960.896	4960.48
961.199	4949.18
961.502	4969.52
961.805	4922.96
962.108	4922.51
962.411	4861.5
962.714	4855.85
963.017	4810.2
963.32	4861.5
963.623	4810.65
963.926	4821.27
964.228	4770.88
964.531	4718.68
964.833	4707.38
965.136	4724.1
965.438	4685.91
965.741	4671.22
966.043	4637.1
966.345	4570.43
966.648	4560.71
966.95	4610.43
967.252	4523.2
967.554	4540.15
967.856	4567.49
968.158	4461.28
968.46	4478.68
968.761	4455.18
969.063	4413.6
969.365	4421.96
969.666	4352.36
969.968	4355.3
970.269	4362.53
970.571	4369.08
970.872	4321.17
971.174	4292.25
971.475	4259.93
971.776	4234.85
972.077	4208.63
972.378	4212.47
972.679	4205.02
972.98	4188.29
973.281	4159.37
973.582	4126.6
973.883	4144
974.183	4115.98
974.484	4083.21
974.785	4045.7
975.085	4038.02
975.386	4034.17
975.686	4048.64
975.986	3991.69
976.287	3948.75
976.587	3952.14
976.887	3936.55
977.187	3933.16
977.487	3932.03
977.787	3894.06
978.087	3884.12
978.387	3850.9
978.687	3857.68
978.987	3834.63
979.286	3806.61
979.586	3761.86
979.885	3738.59
980.185	3761.64
980.484	3742.88
980.784	3718.02
981.083	3715.76
981.382	3670.79
981.682	3674.41
981.981	3656.33
982.28	3645.03
982.579	3580.85
982.878	3595.99
983.177	3576.78
983.475	3582.89
983.774	3539.72
984.073	3540.18
984.372	3478.93
984.67	3476.45
984.969	3475.09
985.267	3460.63
985.566	3456.11
985.864	3421.08
986.162	3380.86
986.461	3401.42
986.759	3373.85
987.057	3356.45
987.355	3361.65
987.653	3354.42
987.951	3368.43
988.249	3300.63
988.547	3283.91
988.844	3269.22
989.142	3247.98
989.44	3249.11
989.737	3246.17
990.035	3202.56
990.332	3179.05
990.63	3205.04
990.927	3167.98
991.224	3125.95
991.521	3131.37
991.819	3115.33
992.116	3117.81
992.413	3110.36
992.71	3072.84
993.006	3052.28
993.303	3042.11
993.6	3038.27
993.897	3031.04
994.193	3003.01
994.49	2998.27
994.787	2955.11
995.083	2958.27
995.379	2927.76
995.676	2910.59
995.972	2917.59
996.268	2893.64
996.565	2879.4
996.861	2824.49
997.157	2874.66
997.453	2789.01
997.749	2870.81
998.044	2780.65
998.34	2796.69
998.636	2809.12
998.932	2764.6
999.227	2762.57
999.523	2766.64
999.818	2716.47
1000.114	2711.27
1000.409	2659.52
1000.704	2671.5
1001	2663.81
1001.295	2667.66
1001.59	2649.13
1001.885	2588.11
1002.18	2629.01
1002.475	2608.45
1002.77	2568.9
1003.065	2565.51
1003.359	2560.09
1003.654	2558.28
1003.949	2525.74
1004.243	2494.33
1004.538	2490.03
1004.832	2473.31
1005.127	2469.02
1005.421	2432.86
1005.715	2445.97
1006.009	2416.81
1006.304	2417.94
1006.598	2380.43
1006.892	2402.8
1007.186	2361.45
1007.48	2386.08
1007.773	2338.17
1008.067	2327.55
1008.361	2332.07
1008.655	2317.16
1008.948	2294.33
1009.242	2286.87
1009.535	2277.84
1009.829	2253.66
1010.122	2196.93
1010.415	2195.35
1010.708	2190.15
1011.001	2190.83
1011.295	2142.47
1011.588	2186.76
1011.881	2139.99
1012.173	2119.65
1012.466	2155.8
1012.759	2117.16
1013.052	2124.39
1013.344	2101.34
1013.637	2077.39
1013.93	2074.45
1014.222	2066.99
1014.514	2041.68
1014.807	2033.32
1015.099	2011.63
1015.391	1985.87
1015.683	1968.01
1015.976	1959.88
1016.268	1960.78
1016.56	1936.38
1016.851	1928.47
1017.143	1942.93
1017.435	1913.55
1017.727	1895.7
1018.018	1886.43
1018.31	1881.91
1018.602	1868.81
1018.893	1858.41
1019.185	1841.69
1019.476	1828.13
1019.767	1823.16
1020.058	1788.58
1020.35	1787.9
1020.641	1758.3
1020.932	1751.07
1021.223	1783.61
1021.514	1753.1
1021.804	1717.4
1022.095	1704.29
1022.386	1674.46
1022.677	1681.24
1022.967	1657.96
1023.258	1668.13
1023.548	1632.88
1023.839	1655.03
1024.129	1628.36
1024.419	1615.03
1024.709	1596.95
1025	1619.32
1025.29	1593.33
1025.58	1582.49
1025.87	1556.27
1026.16	1526.89
1026.449	1553.79
1026.739	1537.29
1027.029	1531.64
1027.319	1486.22
1027.608	1501.81
1027.898	1492.77
1028.187	1507.23
1028.477	1488.7
1028.766	1478.53
1029.055	1441.47
1029.344	1432.21
1029.634	1432.89
1029.923	1381.81
1030.212	1412.32
1030.501	1426.11
1030.79	1368.93
1031.078	1373.45
1031.367	1375.49
1031.656	1369.16
1031.945	1357.41
1032.233	1338.2
1032.522	1328.48
1032.81	1301.14
1033.099	1324.41
1033.387	1307.01
1033.675	1281.7
1033.963	1283.51
1034.251	1287.81
1034.54	1263.62
1034.828	1256.62
1035.116	1240.12
1035.403	1246.9
1035.691	1240.35
1035.979	1238.54
1036.267	1203.29
1036.554	1206
1036.842	1182.5
1037.129	1205.32
1037.417	1177.07
1037.704	1175.27
1037.992	1179.11
1038.279	1150.63
1038.566	1172.33
1038.853	1172.33
1039.14	1172.33
