Data from whiteboard_FLMS001491_00011.txt Node
Date: Wed Feb 08 11:25:27 GMT 2017
User: dcchb
Spectrometer: FLMS00149
Trigger mode: 0
Integration Time (sec): 2.000000E-2
Scans to average: 10
Electric dark correction enabled: true
Nonlinearity correction enabled: false
Boxcar width: 0
XAxis mode: Wavelengths
Number of Pixels in Spectrum: 2048
>>>>>Begin Spectral Data<<<<<
341.393	-8.54
341.776	-8.54
342.16	-8.54
342.543	-63.46
342.927	-69.56
343.31	-48.77
343.693	-64.59
344.077	-65.94
344.46	-55.55
344.843	-46.96
345.226	-52.84
345.61	-13.06
345.993	-17.13
346.376	-14.87
346.759	-13.29
347.142	21.06
347.525	39.14
347.908	63.77
348.291	83.66
348.674	75.52
349.057	109.87
349.44	115.29
349.823	133.82
350.206	149.19
350.588	220.15
350.971	243.43
351.354	259.92
351.737	275.74
352.119	270.54
352.502	284.78
352.884	301.05
353.267	301.5
353.65	324.1
354.032	323.2
354.414	329.53
354.797	343.54
355.179	370.43
355.562	342.86
355.944	350.09
356.326	369.07
356.709	379.47
357.091	350.09
357.473	392.8
357.855	376.53
358.238	381.5
358.62	380.6
359.002	380.15
359.384	365
359.766	373.37
360.148	369.3
360.53	367.04
360.912	351.22
361.294	388.28
361.676	374.95
362.057	371.56
362.439	373.37
362.821	370.2
363.203	392.35
363.584	369.98
363.966	369.98
364.348	380.82
364.729	366.59
365.111	354.84
365.493	386.47
365.874	372.24
366.256	369.52
366.637	381.28
367.019	369.75
367.4	383.76
367.781	355.51
368.163	376.98
368.544	364.33
368.925	357.77
369.306	370.2
369.688	369.3
370.069	366.36
370.45	379.24
370.831	382.41
371.212	367.26
371.593	369.75
371.974	377.66
372.355	377.66
372.736	392.57
373.117	404.78
373.498	390.31
373.879	394.83
374.26	377.66
374.641	388.05
375.021	387.6
375.402	388.96
375.783	390.31
376.163	414.95
376.544	427.6
376.925	411.78
377.305	408.17
377.686	409.98
378.066	413.14
378.447	423.08
378.827	409.52
379.208	418.56
379.588	441.16
379.968	437.09
380.349	432.8
380.729	440.26
381.109	453.14
381.489	451.56
381.87	450.2
382.25	452.91
382.63	466.47
383.01	441.61
383.39	451.1
383.77	466.92
384.15	485
384.53	478.9
384.91	478.45
385.29	454.49
385.67	482.74
386.049	489.07
386.429	486.81
386.809	499.46
387.189	507.6
387.568	489.07
387.948	513.02
388.328	506.24
388.707	511.44
389.087	522.06
389.466	533.59
389.846	525.45
390.225	557.32
390.605	539.92
390.984	541.95
391.363	565.45
391.743	579.01
392.122	588.95
392.501	577.65
392.881	582.85
393.26	602.29
393.639	614.94
394.018	603.64
394.397	625.34
394.776	609.07
395.155	642.74
395.534	638.22
395.913	639.12
396.292	676.18
396.671	668.95
397.05	680.02
397.429	684.32
397.808	684.09
398.186	700.14
398.565	708.27
398.944	716.41
399.323	721.61
399.701	725.45
400.08	728.38
400.458	769.29
400.837	769.29
401.215	774.49
401.594	805.22
401.972	787.14
402.351	827.59
402.729	840.25
403.107	842.51
403.486	855.84
403.864	882.05
404.242	880.25
404.62	895.84
404.999	917.53
405.377	909.17
405.755	944.65
406.133	957.98
406.511	963.86
406.889	978.55
407.267	1000.92
407.645	1005.44
408.023	1023.74
408.401	1075.95
408.779	1047.92
409.156	1087.92
409.534	1108.71
409.912	1132.44
410.29	1162.72
410.667	1180.35
411.045	1186.68
411.422	1203.4
411.8	1204.3
412.178	1240.91
412.555	1259.9
412.933	1268.94
413.31	1325.43
413.687	1367.69
414.065	1369.05
414.442	1380.57
414.819	1399.33
415.197	1410.63
415.574	1444.52
415.951	1475.71
416.328	1472.09
416.705	1503.28
417.082	1516.84
417.46	1550.74
417.837	1583.5
418.214	1546.67
418.591	1592.09
418.967	1608.36
419.344	1638.42
419.721	1655.59
420.098	1647.91
420.475	1697.62
420.852	1715.25
421.228	1703.05
421.605	1746.44
421.982	1771.07
422.358	1783.27
422.735	1806.1
423.111	1818.3
423.488	1849.49
423.864	1894.91
424.241	1939.88
424.617	1897.39
424.994	1947.11
425.37	1958.41
425.746	1980.1
426.123	2012.42
426.499	2016.71
426.875	2039.54
427.251	2106.65
427.627	2164.05
428.003	2171.96
428.379	2185.97
428.756	2226.88
429.132	2249.47
429.507	2277.5
429.883	2337.61
430.259	2379.87
430.635	2381.22
431.011	2383.71
431.387	2484.27
431.763	2514.55
432.138	2510.03
432.514	2538.73
432.89	2576.25
433.265	2623.02
433.641	2664.38
434.016	2680.65
434.392	2767.65
434.767	2826.63
435.143	2797.03
435.518	2818.27
435.894	2890.36
436.269	2938.72
436.644	2979.17
437.02	3044.93
437.395	3004.48
437.77	3070.92
438.145	3103.24
438.52	3096.23
438.895	3187.08
439.271	3207.19
439.646	3290.8
440.021	3265.49
440.395	3291.03
440.77	3272.05
441.145	3334.42
441.52	3393.4
441.895	3386.62
442.27	3439.05
442.645	3411.03
443.019	3488.31
443.394	3493.06
443.769	3566.05
444.143	3519.95
444.518	3624.13
444.892	3586.39
445.267	3621.64
445.641	3693.73
446.016	3726.05
446.39	3749.1
446.764	3780.28
447.139	3765.82
447.513	3851.24
447.887	3809.89
448.262	3868.64
448.636	3916.55
449.01	3969.88
449.384	4034.96
449.758	4019.15
450.132	4081.97
450.506	4123.55
450.88	4176.66
451.254	4124.68
451.628	4240.16
452.002	4234.51
452.376	4296.88
452.75	4349.76
453.123	4336.65
453.497	4448.74
453.871	4506.14
454.244	4543.65
454.618	4593.82
454.992	4663.2
455.365	4697.77
455.739	4824.32
456.112	4888.73
456.486	4935.28
456.859	4977.76
457.232	5063.86
457.606	5063.41
457.979	5123.98
458.352	5208.94
458.725	5319.68
459.099	5337.53
459.472	5439.67
459.845	5542.5
460.218	5561.03
460.591	5612.55
460.964	5701.81
461.337	5850.74
461.71	5854.8
462.083	5956.95
462.456	5984.52
462.829	6017.06
463.201	6142.93
463.574	6186.09
463.947	6243.49
464.32	6431.51
464.692	6470.61
465.065	6480.55
465.438	6613.88
465.81	6736.81
466.183	6779.3
466.555	6908.34
466.928	6991.5
467.3	6923.48
467.672	7127.76
468.045	7328.66
468.417	7308.55
468.789	7329.34
469.161	7398.04
469.534	7622.44
469.906	7786.05
470.278	7813.85
470.65	7962.32
471.022	8168.42
471.394	8265.81
471.766	8343.33
472.138	8431.91
472.51	8686.59
472.882	8746.25
473.253	8872.8
473.625	9028.73
473.997	9193.47
474.369	9202.51
474.74	9334.26
475.112	9504.2
475.484	9711.43
475.855	9931.31
476.227	10004.75
476.598	10268.25
476.97	10377.17
477.341	10587.11
477.713	10789.14
478.084	10843.37
478.455	11123.37
478.827	11165.85
479.198	11455.56
479.569	11514.32
479.94	11871.37
480.311	11995.21
480.682	12171.02
481.053	12540.05
481.424	12749.76
481.795	12914.96
482.166	13125.8
482.537	13290.31
482.908	13484.43
483.279	13637.88
483.65	13889.39
484.021	14206.22
484.391	14473.56
484.762	14618.87
485.133	14702.25
485.503	14960.78
485.874	15273.99
486.244	15480.09
486.615	15722.79
486.985	15890.02
487.356	16183.8
487.726	16387.86
488.097	16720.05
488.467	16782.43
488.837	17071.68
489.207	17341.28
489.578	17630.09
489.948	17769.52
490.318	17897.88
490.688	18105.78
491.058	18320.01
491.428	18545.09
491.798	18730.62
492.168	19144.4
492.538	19120.44
492.908	19284.96
493.278	19652.18
493.648	19732.4
494.017	20124.03
494.387	20243.13
494.757	20364.7
495.126	20568.99
495.496	20721.76
495.866	20925.82
496.235	21276.09
496.605	21389.08
496.974	21494.17
497.344	21709.98
497.713	21814.38
498.082	22005.79
498.452	22277.65
498.821	22396.97
499.19	22480.36
499.559	22717.19
499.928	22928.03
500.298	23018.19
500.667	23303.38
501.036	23353.33
501.405	23472.19
501.774	23526.66
502.143	23795.35
502.512	23944.95
502.88	24104.27
503.249	24135.23
503.618	24324.37
503.987	24448.89
504.356	24669
504.724	24689.79
505.093	24921.65
505.462	25090.46
505.83	25218.81
506.199	25244.12
506.567	25789.65
506.936	25682.08
507.304	26052.24
507.672	26194.83
508.041	26262.85
508.409	26395.73
508.777	26802.5
509.145	26985.1
509.514	26946.9
509.882	27249.95
510.25	27393.67
510.618	27634.57
510.986	27734.91
511.354	27976.71
511.722	28178.06
512.09	28595.67
512.458	28467.99
512.826	28730.81
513.193	28938.49
513.561	29140.29
513.929	29356.33
514.297	29599.94
514.664	29823.89
515.032	29910.67
515.4	30259.59
515.767	30323.99
516.135	30610.76
516.502	30421.39
516.869	31026.35
517.237	31191.09
517.604	31090.98
517.972	31474.92
518.339	31698.64
518.706	31730.06
519.073	31960.78
519.44	32194.45
519.808	32561.67
520.175	32563.03
520.542	32946.97
520.909	33350.58
521.276	33306.96
521.643	33558.71
522.009	33836.44
522.376	34033.72
522.743	34259.25
523.11	34586.93
523.477	34860.82
523.843	35068.27
524.21	35445.89
524.577	35644.3
524.943	35916.84
525.31	36120.67
525.676	36485.18
526.043	36736.03
526.409	36893.99
526.776	37377.14
527.142	37438.15
527.508	37610.8
527.874	37982.77
528.241	38168.76
528.607	38160.39
528.973	38726.93
529.339	38750.21
529.705	39143.19
530.071	39373.47
530.437	39533.92
530.803	39714.7
531.169	39997.86
531.535	39993.57
531.901	40155.37
532.267	40321.47
532.632	40617.96
532.998	40723.27
533.364	41155.57
533.73	41171.62
534.095	41472.17
534.461	41509.46
534.826	41769.57
535.192	42004.59
535.557	42228.99
535.923	42253.39
536.288	42518.47
536.653	42585.14
537.019	42443.45
537.384	42815.87
537.749	43094.28
538.114	43028.29
538.479	43096.31
538.845	43540.37
539.21	43506.02
539.575	43729.51
539.94	43808.16
540.305	44017.87
540.67	43977.42
541.034	44185.77
541.399	44320.91
541.764	44437.29
542.129	44580.57
542.494	44698.53
542.858	44868.92
543.223	44986.88
543.587	45286.08
543.952	45187.78
544.316	45397.27
544.681	45358.4
545.045	45682.68
545.41	45780.53
545.774	45887.42
546.138	45941.43
546.503	46155.89
546.867	46154.76
547.231	46575.99
547.595	46511.36
547.959	46800.85
548.324	46795.87
548.688	46843.78
549.052	46956.77
549.416	47189.54
549.779	47436.76
550.143	47504.1
550.507	47715.62
550.871	47786.36
551.235	47905.68
551.599	48163.75
551.962	48186.12
552.326	48354.03
552.689	48520.8
553.053	48479.22
553.417	48605.77
553.78	49171.4
554.143	48874.01
554.507	49196.71
554.87	49359.87
555.234	49644.84
555.597	49478.29
555.96	49670.37
556.323	49914.44
556.686	49845.74
557.05	50094.54
557.413	50188.1
557.776	50309.23
558.139	50447.98
558.502	50633.29
558.865	50706.73
559.228	50989.21
559.59	50882.09
559.953	50944.47
560.316	51321.63
560.679	51355.53
561.041	51504.9
561.404	51703.09
561.767	51897.66
562.129	51758.46
562.492	52214.49
562.854	52134.26
563.217	52136.75
563.579	52303.75
563.941	52599.34
564.304	52689.96
564.666	52956.84
565.028	53017.63
565.39	53061.02
565.753	53159.55
566.115	53291.3
566.477	53406.1
566.839	53446.55
567.201	53594.34
567.563	53716.82
567.925	53966.53
568.287	53945.52
568.648	54081.56
569.01	54248.56
569.372	54381.44
569.734	54307.54
570.095	54577.59
570.457	54674.09
570.819	54728.77
571.18	54779.17
571.542	54987.3
571.903	55006.96
572.265	55090.12
572.626	55282.66
572.987	55340.28
573.349	55461.18
573.71	55535.08
574.071	55606.49
574.432	55712.25
574.794	55825.47
575.155	55854.62
575.516	55827.5
575.877	55907.5
576.238	55981.4
576.599	56037.44
576.96	56078.57
577.32	56128.51
577.681	56256.19
578.042	56349.75
578.403	56311.56
578.763	56286.47
579.124	56340.26
579.485	56386.81
579.845	56473.81
580.206	56477.2
580.566	56450.76
580.927	56406.47
581.287	56504.77
581.648	56423.64
582.008	56629.51
582.368	56432.23
582.728	56523.98
583.089	56476.3
583.449	56438.33
583.809	56499.57
584.169	56516.75
584.529	56454.83
584.889	56644.2
585.249	56468.39
585.609	56488.95
585.969	56642.17
586.329	56566.24
586.688	56629.97
587.048	56577.09
587.408	56584.09
587.768	56621.15
588.127	56601.49
588.487	56588.61
588.846	56736.18
589.206	56625.9
589.565	56743.41
589.925	56754.93
590.284	56749.51
590.643	56766.91
591.003	56920.58
591.362	57034.25
591.721	56956.28
592.08	57044.64
592.44	57081.25
592.799	57065.66
593.158	57087.35
593.517	57020.69
593.876	57150.4
594.235	57100.69
594.593	57184.08
594.952	57203.06
595.311	57135.94
595.67	57219.1
596.029	57358.99
596.387	57412.77
596.746	57443.28
597.104	57264.98
597.463	57255.26
597.822	57340.68
598.18	57242.61
598.538	57256.39
598.897	57436.95
599.255	57170.06
599.613	57500.45
599.972	57318.99
600.33	57298.42
600.688	57258.65
601.046	57417.52
601.404	57345.43
601.762	57298.65
602.12	57394.47
602.478	57382.71
602.836	57326.67
603.194	57173.23
603.552	57252.55
603.91	57152.89
604.268	57255.26
604.625	57133.91
604.983	57353.56
605.341	57129.61
605.698	57286.22
606.056	57307.24
606.413	57300.91
606.771	57391.53
607.128	57366.44
607.485	57278.99
607.843	57302.04
608.2	57454.35
608.557	57530.73
608.914	57507.68
609.272	57559.66
609.629	57591.52
609.986	57713.33
610.343	57602.82
610.7	57913.1
611.057	57786.32
611.414	57835.81
611.771	57853.21
612.127	58008.23
612.484	58000.1
612.841	58072.19
613.198	58042.36
613.554	58045.07
613.911	58209.36
614.267	58252.52
614.624	58248
614.98	58316.7
615.337	58414.1
615.693	58391.73
616.05	58360.77
616.406	58610.93
616.762	58460.88
617.118	58480.76
617.475	58536.13
617.831	58543.59
618.187	58626.52
618.543	58603.02
618.899	58749.01
619.255	58744.49
619.611	58680.76
619.967	58756.92
620.323	58812.73
620.678	58692.06
621.034	58683.47
621.39	58618.84
621.746	58621.55
622.101	58854.54
622.457	58690.02
622.812	58638.27
623.168	58719.63
623.523	58619.07
623.879	58786.07
624.234	58591.72
624.589	58670.59
624.945	58640.53
625.3	58620.2
625.655	58586.98
626.01	58530.25
626.365	58563.93
626.72	58544.72
627.075	58408.45
627.43	58412.07
627.785	58314.22
628.14	58350.6
628.495	58372.29
628.85	58421.33
629.205	58237.16
629.559	58400.31
629.914	58269.92
630.269	58261.79
630.623	58212.3
630.978	58193.99
631.332	58208.23
631.687	58319.86
632.041	58120.55
632.396	58233.54
632.75	58146.31
633.104	58121.45
633.459	58088.01
633.813	58066.76
634.167	58009.59
634.521	58038.06
634.875	58085.97
635.229	58071.28
635.583	57903.15
635.937	57958.74
636.291	57901.8
636.645	57965.52
636.999	57952.87
637.352	58068.57
637.706	57830.39
638.06	57968.01
638.413	57894.57
638.767	57867.45
639.121	57905.64
639.474	57797.39
639.828	57829.26
640.181	57839.43
640.534	57820.44
640.888	57791.07
641.241	57589.94
641.594	57745.42
641.947	57749.71
642.301	57655.25
642.654	57705.42
643.007	57684.63
643.36	57621.8
643.713	57579.77
644.066	57623.84
644.419	57515.82
644.771	57355.82
645.124	57104.53
645.477	56954.93
645.83	56867.93
646.182	56827.47
646.535	56657.99
646.888	56701.83
647.24	56597.42
647.593	56718.33
647.945	56523.53
648.298	56441.95
648.65	56396.53
649.002	56310.88
649.355	56353.36
649.707	56383.42
650.059	56486.01
650.411	56754.93
650.763	56758.32
651.115	56978.43
651.467	56833.8
651.819	56876.06
652.171	56696.18
652.523	56656.86
652.875	56672
653.227	56538.22
653.578	56700.25
653.93	56686.01
654.282	56624.09
654.633	56558.33
654.985	56581.15
655.337	56543.41
655.688	56565.11
656.039	56575.73
656.391	56319.01
656.742	56423.64
657.094	56394.94
657.445	56503.42
657.796	56373.93
658.147	56368.05
658.498	56333.25
658.849	56387.49
659.2	56374.83
659.551	56281.73
659.902	56340.93
660.253	56332.8
660.604	56328.73
660.955	56239.24
661.306	56322.63
661.656	56230.88
662.007	56283.76
662.358	56210.09
662.708	56256.64
663.059	56299.8
663.409	56079.92
663.76	56215.51
664.11	56217.55
664.461	56234.04
664.811	56292.35
665.161	56246.25
665.511	56135.97
665.862	56195.4
666.212	56316.08
666.562	56321.27
666.912	56246.7
667.262	56222.29
667.612	56175.29
667.962	56188.4
668.312	56121.96
668.662	56288.73
669.011	56194.95
669.361	56188.17
669.711	56207.15
670.06	56096.65
670.41	56008.06
670.76	55987.5
671.109	56069.53
671.459	56030.66
671.808	56002.64
672.157	56025.69
672.507	55853.49
672.856	55774.62
673.205	55881.96
673.554	55963.99
673.904	55850.1
674.253	55989.08
674.602	55888.52
674.951	55426.16
675.3	55252.83
675.649	55660.95
675.998	55668.64
676.346	55594.06
676.695	55691.01
677.044	55398.59
677.393	55587.96
677.741	55557.68
678.09	55508.87
678.438	55338.25
678.787	55415.53
679.135	55376.67
679.484	55135.09
679.832	55265.93
680.181	54983.46
680.529	55139.61
680.877	55055.32
681.225	54993.62
681.573	55024.13
681.922	54867.75
682.27	54801.77
682.618	54799.96
682.966	54746.17
683.314	54788.43
683.661	54670.47
684.009	54515.22
684.357	54460.31
684.705	54425.5
685.053	54499.63
685.4	54396.8
685.748	54238.62
686.095	54257.82
686.443	54123.59
686.79	54101.44
687.138	54134.89
687.485	54051.05
687.832	53950.26
688.18	53928.12
688.527	53759.08
688.874	53802.24
689.221	53762.02
689.568	53622.14
689.915	53534.23
690.262	53545.75
690.609	53436.83
690.956	53365.64
691.303	53329.94
691.65	53218.08
691.997	53256.5
692.344	53056.73
692.69	53032.09
693.037	53141.47
693.383	52826
693.73	52900.35
694.077	52758.2
694.423	52677.75
694.769	52742.16
695.116	52702.16
695.462	52649.73
695.808	52570.19
696.155	52628.26
696.501	52341.04
696.847	52297.2
697.193	52183.53
697.539	52298.33
697.885	52010.2
698.231	51948.51
698.577	51966.59
698.923	51784.22
699.269	51786.7
699.614	51648.18
699.96	51551.46
700.306	51518.46
700.651	51481.4
700.997	51389.2
701.342	51381.06
701.688	51382.65
702.033	51115.08
702.379	51151.24
702.724	51026.5
703.069	51114.18
703.415	50632.16
703.76	50731.14
704.105	50607.53
704.45	50636.9
704.795	50301.09
705.14	50342.45
705.485	50220.19
705.83	49949.01
706.175	50162.34
706.52	50030.37
706.865	49827.43
707.209	49835.79
707.554	49676.93
707.899	49773.42
708.243	49490.27
708.588	49324.4
708.932	49251.63
709.277	49245.08
709.621	49173.66
709.966	48959.88
710.31	49084.85
710.654	48677.63
710.998	48782.26
711.342	48669.27
711.687	48535.26
712.031	48532.33
712.375	48223.18
712.719	48264.76
713.063	48283.07
713.407	48281.71
713.75	47932.57
714.094	47907.03
714.438	47904.77
714.782	47710.2
715.125	47482.64
715.469	47636.53
715.812	47394.73
716.156	47203.77
716.499	47162.87
716.843	47147.96
717.186	46943.67
717.53	47170.1
717.873	47097.34
718.216	46806.27
718.559	46726.05
718.902	46307.75
719.246	46542.1
719.589	46436.34
719.932	46274.98
720.275	46154.99
720.617	46229.11
720.96	46046.06
721.303	46088.77
721.646	46110.92
721.989	45875.45
722.331	45879.51
722.674	45612.4
723.016	45794.77
723.359	45629.13
723.701	45651.27
724.044	45366.08
724.386	45229.14
724.729	45421.45
725.071	45328.12
725.413	45428
725.755	45243.15
726.097	45039.08
726.439	44875.25
726.782	44885.42
727.124	45038.41
727.465	44751.63
727.807	44824.4
728.149	44502.6
728.491	44393.23
728.833	44593.45
729.175	44421.7
729.516	44207.47
729.858	44402.94
730.199	44282.72
730.541	44120.24
730.882	44058.09
731.224	44166.11
731.565	43929.96
731.906	43771.55
732.248	43977.42
732.589	43836.63
732.93	43635.96
733.271	43762.73
733.612	43793.47
733.953	43645.45
734.294	43624.88
734.635	43309.86
734.976	43569.74
735.317	43296.08
735.658	43271.9
735.999	43278.45
736.339	43202.52
736.68	43285.68
737.021	43018.57
737.361	42888.18
737.702	43147.61
738.042	42832.81
738.383	42776.77
738.723	42939.93
739.063	42704
739.404	42837.79
739.744	42578.58
740.084	42572.71
740.424	42598.7
740.764	42394.86
741.104	42423.56
741.444	42261.08
741.784	42191.48
742.124	42170.23
742.464	42218.82
742.804	42033.97
743.143	41974.53
743.483	42201.19
743.823	41866.51
744.162	41773.18
744.502	41808.21
744.841	41622.22
745.181	41782.67
745.52	41461.1
745.86	41568.89
746.199	41356.92
746.538	41252.74
746.877	41321.89
747.216	41364.6
747.556	41175.23
747.895	41199.41
748.234	41075.8
748.573	40803.04
748.911	40801.68
749.25	41004.16
749.589	40612.53
749.928	40564.17
750.267	40702.47
750.605	40589.26
750.944	40447.34
751.283	40372.54
751.621	40387.91
751.96	40199.89
752.298	40161.47
752.636	40060.01
752.975	39853.46
753.313	39840.35
753.651	39925.77
753.989	39847.13
754.327	39661.15
754.666	39546.57
755.004	39594.71
755.342	39707.02
755.679	39456.63
756.017	39158.56
756.355	39244.21
756.693	39082.18
757.031	39285.56
757.368	38991.33
757.706	38861.17
758.044	38809.19
758.381	38853.03
758.719	38743.43
759.056	38748.18
759.394	38469.77
759.731	38198.36
760.068	38255.99
760.405	38046.27
760.743	37946.84
761.08	38075.88
761.417	37774.87
761.754	37762.89
762.091	37525.38
762.428	37536
762.765	37386.86
763.102	37422.34
763.438	37166.97
763.775	36882.24
764.112	36872.52
764.449	36946.87
764.785	36744.61
765.122	36325.41
765.458	36461.91
765.795	36423.04
766.131	36299.43
766.467	36180.33
766.804	36179.43
767.14	35890.62
767.476	35806.11
767.812	35623.06
768.148	35737.18
768.485	35321.37
768.821	35338.1
769.157	35269.17
769.492	35051.32
769.828	34950.76
770.164	34796.87
770.5	34570.43
770.836	34691.79
771.171	34553.03
771.507	34316.2
771.842	34014.97
772.178	34112.37
772.513	33947.85
772.849	33734.3
773.184	33579.5
773.519	33533.85
773.855	33401.65
774.19	33171.6
774.525	33052.96
774.86	32989.46
775.195	32984.03
775.53	32798.5
775.865	32655.23
776.2	32384.95
776.535	32143.15
776.87	32107.45
777.205	31989.26
777.539	31680.11
777.874	31883.95
778.209	31520.12
778.543	31519.44
778.878	31319.67
779.212	31299.33
779.547	31085.33
779.881	31108.83
780.215	30755.84
780.55	30940.25
780.884	30630.2
781.218	30554.72
781.552	30511.56
781.886	30203.99
782.22	30059.82
782.554	30009.65
782.888	29700.05
783.222	29702.54
783.556	29589.09
783.889	29485.37
784.223	29281.08
784.557	29313.85
784.89	29279.95
785.224	29158.82
785.557	28862.56
785.891	28986.17
786.224	28912.05
786.558	28778.72
786.891	28684.26
787.224	28487.65
787.557	28437.49
787.891	28397.49
788.224	28364.49
788.557	28408.33
788.89	28266.19
789.223	28232.52
789.556	27889.03
789.888	28007.67
790.221	27866.43
790.554	27677.28
790.887	27636.15
791.219	27477.29
791.552	27464.4
791.884	27447
792.217	27388.93
792.549	27225.32
792.882	27173.79
793.214	27033.46
793.546	27099.44
793.879	26841.14
794.211	26718.44
794.543	26895.15
794.875	26791.65
795.207	26820.81
795.539	26666.23
795.871	26626.91
796.203	26418.56
796.535	26350.08
796.867	26319.8
797.198	26341.5
797.53	26205.91
797.862	26069.19
798.193	26164.78
798.525	25939.25
798.856	25942.41
799.188	25715.75
799.519	25637.11
799.85	25575.87
800.182	25498.81
800.513	25478.47
800.844	25279.6
801.175	25578.58
801.506	25395.53
801.837	25303.78
802.168	25155.31
802.499	25113.73
802.83	24978.59
803.161	24867.86
803.491	24920.07
803.822	24943.79
804.153	24801.42
804.483	24604.82
804.814	24717.58
805.145	24568.21
805.475	24564.37
805.805	24346.52
806.136	24363.47
806.466	24352.62
806.796	24230.14
807.126	24021.56
807.457	24049.13
807.787	23992.63
808.117	23911.96
808.447	23694.11
808.777	23859.08
809.107	23645.3
809.436	23677.84
809.766	23673.77
810.096	23541.8
810.426	23500.44
810.755	23453.66
811.085	23381.12
811.414	23280.33
811.744	23081.24
812.073	23000.79
812.403	23075.59
812.732	22810.52
813.061	22768.71
813.39	22747.47
813.719	22696.62
814.049	22796.05
814.378	22549.28
814.707	22551.54
815.036	22401.49
815.365	22377.53
815.693	22096.86
816.022	22035.4
816.351	22050.54
816.68	21836.76
817.008	21884.66
817.337	21801.95
817.665	21587.95
817.994	21686.7
818.322	21709.08
818.651	21510.89
818.979	21437.67
819.307	21582.98
819.636	21429.99
819.964	21138.92
820.292	21309.09
820.62	21237.45
820.948	21194.97
821.276	21254.85
821.604	21132.37
821.932	21220.28
822.259	21227.51
822.587	21144.35
822.915	21187.28
823.243	21173.72
823.57	20967.4
823.898	21118.36
824.225	21015.31
824.553	20973.05
824.88	21083.56
825.207	21114.06
825.535	21036.55
825.862	21044.69
826.189	20947.29
826.516	21129.43
826.843	21143.89
827.17	21005.59
827.497	21039.94
827.824	21044.46
828.151	21014.63
828.478	21118.13
828.805	21137.34
829.131	20936.44
829.458	21068.19
829.785	20927.63
830.111	21045.36
830.438	21256.88
830.764	21002.2
831.09	21035.2
831.417	20926.27
831.743	21131.92
832.069	21044.91
832.395	21022.54
832.722	21018.47
833.048	21039.94
833.374	21053.5
833.7	20838.59
834.026	21076.32
834.351	21091.92
834.677	21080.17
835.003	21095.08
835.329	20998.81
835.654	20986.16
835.98	20969.21
836.306	20984.8
836.631	20813.73
836.956	20987.06
837.282	20974.86
837.607	20903.22
837.932	20796.78
838.258	20787.07
838.583	20752.72
838.908	20712.72
839.233	20671.82
839.558	20655.32
839.883	20636.79
840.208	20717.24
840.533	20605.83
840.858	20647.18
841.182	20510.92
841.507	20590.69
841.832	20396.12
842.156	20442.67
842.481	20427.53
842.805	20357.02
843.13	20305.27
843.454	20327.64
843.778	20201.32
844.103	20190.02
844.427	20223.69
844.751	20164.48
845.075	19976.01
845.399	20011.49
845.723	19848.11
846.047	19848.11
846.371	19746.87
846.695	19684.72
847.019	19472.07
847.343	19539.19
847.666	19319.99
847.99	19198.18
848.313	19223.27
848.637	19171.29
848.96	19047
849.284	19083.83
849.607	18923.39
849.931	18858.53
850.254	18677.97
850.577	18591.64
850.9	18414.25
851.223	18441.59
851.546	18368.37
851.869	18170.64
852.192	18345.55
852.515	18103.3
852.838	17988.72
853.161	17917.31
853.483	17840.25
853.806	17797.77
854.129	17858.1
854.451	17660.82
854.774	17560.26
855.096	17576.98
855.419	17490.2
855.741	17345.12
856.063	17218.8
856.385	17296.54
856.708	17139.25
857.03	17111
857.352	17051.8
857.674	17029.2
857.996	16924.8
858.318	16823.1
858.64	16824.01
858.961	16837.57
859.283	16738.81
859.605	16525.94
859.926	16660.62
860.248	16536.78
860.57	16466.95
860.891	16529.55
861.212	16401.42
861.534	16338.6
861.855	16230.8
862.176	16348.99
862.498	16272.83
862.819	16204.36
863.14	16211.82
863.461	16050.92
863.782	15981.77
864.103	16041.43
864.424	15960.07
864.745	16111.94
865.065	15986.97
865.386	15912.39
865.707	15853.18
866.027	15890.25
866.348	15809.12
866.668	15876.01
866.989	15810.47
867.309	15730.25
867.63	15676.69
867.95	15755.56
868.27	15627.88
868.59	15692.29
868.91	15623.59
869.23	15555.34
869.55	15575
869.87	15667.2
870.19	15595.79
870.51	15596.02
870.83	15633.76
871.15	15522.8
871.469	15521.89
871.789	15488.45
872.109	15485.51
872.428	15481.9
872.748	15445.29
873.067	15406.64
873.386	15418.17
873.706	15358.51
874.025	15333.2
874.344	15351.28
874.663	15279.64
874.982	15320.54
875.301	15365.74
875.62	15278.06
875.939	15218.17
876.258	15244.16
876.577	15123.03
876.896	15259.98
877.214	15292.52
877.533	15251.84
877.852	15149.47
878.17	15128.91
878.489	15281
878.807	15144.28
879.125	15209.36
879.444	15166.88
879.762	15118.51
880.08	15126.2
880.398	14988.57
880.716	15067.22
881.034	15034.45
881.352	15007.11
881.67	14948.12
881.988	14940.67
882.306	14876.94
882.624	14954.9
882.941	14916.03
883.259	14861.57
883.577	14897.73
883.894	14767.79
884.212	14867.9
884.529	14773.44
884.846	14774.12
885.164	14681.69
885.481	14596.04
885.798	14778.64
886.115	14554.69
886.432	14630.39
886.75	14523.5
887.067	14524.41
887.383	14477.63
887.7	14540.45
888.017	14393.79
888.334	14521.24
888.651	14484.86
888.967	14403.51
889.284	14361.25
889.6	14317.86
889.917	14196.51
890.233	14161.93
890.55	14190.18
890.866	14182.27
891.182	14140.24
891.498	14082.38
891.815	13981.14
892.131	13969.84
892.447	13982.73
892.763	13829.74
893.079	13919.68
893.395	13830.64
893.71	13759.91
894.026	13746.57
894.342	13682.85
894.657	13575.96
894.973	13627.71
895.289	13624.77
895.604	13542.74
895.92	13462.51
896.235	13338.9
896.55	13396.53
896.865	13288.28
897.181	13227.27
897.496	13190.43
897.811	13150.21
898.126	13149.08
898.441	13047.61
898.756	12966.48
899.071	12895.97
899.386	12949.08
899.7	12864.79
900.015	12711.12
900.33	12621.86
900.644	12589.77
900.959	12592.71
901.273	12491.01
901.588	12417.79
901.902	12375.31
902.216	12371.02
902.531	12254.86
902.845	12222.77
903.159	12144.58
903.473	12210.12
903.787	12043.79
904.101	11996.11
904.415	12010.57
904.729	11966.51
905.042	11783.24
905.356	11792.27
905.67	11707.08
905.984	11710.02
906.297	11639.51
906.611	11615.1
906.924	11523.36
907.237	11502.56
907.551	11401.1
907.864	11310.93
908.177	11289.92
908.491	11304.83
908.804	11189.8
909.117	11170.14
909.43	11004.27
909.743	10959.08
910.056	10951.17
910.368	10929.47
910.681	10871.62
910.994	10818.51
911.307	10778.74
911.619	10679.08
911.932	10669.14
912.244	10615.36
912.557	10599.09
912.869	10579.2
913.181	10453.55
913.494	10473.67
913.806	10409.71
914.118	10325.65
914.43	10248.59
914.742	10258.3
915.054	10197.51
915.366	10180.11
915.678	10168.81
915.99	10130.4
916.302	10052.21
916.613	9945.32
916.925	9978.31
917.236	9976.05
917.548	9940.8
917.859	9908.26
918.171	9767.24
918.482	9810.86
918.794	9698.09
919.105	9690.86
919.416	9593.01
919.727	9559.11
920.038	9615.16
920.349	9503.75
920.66	9442.96
920.971	9481.37
921.282	9385.56
921.593	9433.92
921.903	9313.92
922.214	9318.44
922.525	9273.47
922.835	9169.74
923.146	9152.8
923.456	9170.65
923.767	9126.36
924.077	9131.78
924.387	9078.22
924.697	9015.4
925.008	9027.6
925.318	8960.03
925.628	8928.17
925.938	8880.71
926.248	8795.74
926.558	8728.17
926.867	8770.66
927.177	8696.54
927.487	8642.53
927.796	8665.58
928.106	8625.58
928.416	8652.02
928.725	8588.97
929.034	8492.7
929.344	8503.32
929.653	8509.65
929.962	8352.14
930.271	8400.05
930.581	8335.64
930.89	8315.98
931.199	8264.46
931.508	8291.12
931.817	8222.88
932.125	8183.56
932.434	8181.07
932.743	8090.68
933.051	8094.07
933.36	8073.73
933.669	8029.89
933.977	7963.9
934.286	7949.44
934.594	7961.64
934.902	7866.05
935.21	7801.42
935.519	7918.25
935.827	7832.15
936.135	7747.64
936.443	7716.68
936.751	7696.11
937.059	7731.59
937.367	7636
937.674	7654.98
937.982	7616.11
938.29	7560.75
938.597	7572.72
938.905	7494.53
939.213	7495.21
939.52	7432.84
939.827	7494.53
940.135	7387.19
940.442	7331.6
940.749	7317.36
941.056	7321.88
941.363	7275.78
941.67	7285.95
941.977	7276.01
942.284	7139.29
942.591	7184.49
942.898	7120.31
943.205	7130.7
943.511	7063.36
943.818	7082.57
944.125	6986.75
944.431	6917.83
944.738	6923.48
945.044	6918.05
945.35	6832.41
945.657	6860.88
945.963	6855.91
946.269	6764.84
946.575	6794.89
946.881	6751.96
947.187	6724.39
947.493	6702.24
947.799	6669.02
948.105	6605.29
948.41	6678.51
948.716	6662.24
949.022	6558.06
949.327	6573.2
949.633	6456.6
949.938	6463.15
950.244	6507.89
950.549	6422.7
950.854	6407.33
951.16	6289.14
951.465	6350.61
951.77	6310.84
952.075	6304.96
952.38	6191.74
952.685	6246.88
952.99	6165.53
953.294	6159.43
953.599	6149.94
953.904	6101.8
954.209	6027
954.513	6087.34
954.818	6011.86
955.122	5961.69
955.426	5986.33
955.731	5908.36
956.035	5901.36
956.339	5833.56
956.643	5821.81
956.948	5852.77
957.252	5771.19
957.556	5707.24
957.86	5724.19
958.163	5742.94
958.467	5671.53
958.771	5733.22
959.075	5677.86
959.378	5604.64
959.682	5626.79
959.985	5603.74
960.289	5617.75
960.592	5510.41
960.896	5543.85
961.199	5477.19
961.502	5468.83
961.805	5483.97
962.108	5384.99
962.411	5352.22
962.714	5352.44
963.017	5349.96
963.32	5304.99
963.623	5317.64
963.926	5286.68
964.228	5252.11
964.531	5212.79
964.833	5176.63
965.136	5167.36
965.438	5114.48
965.741	5081.04
966.043	5085.56
966.345	5108.38
966.648	5050.31
966.95	5035.84
967.252	5014.37
967.554	5017.09
967.856	4952.68
968.158	4933.7
968.46	4893.7
968.761	4926.47
969.063	4850.54
969.365	4857.77
969.666	4810.54
969.968	4810.54
970.269	4785
970.571	4767.37
970.872	4780.03
971.174	4688.28
971.475	4711.1
971.776	4661.84
972.077	4597.21
972.378	4637.89
972.679	4631.33
972.98	4560.6
973.281	4579.36
973.582	4531.9
973.883	4500.26
974.183	4451.68
974.484	4477.21
974.785	4452.58
975.085	4393.15
975.386	4379.14
975.686	4421.17
975.986	4377.1
976.287	4312.92
976.587	4285.81
976.887	4301.85
977.187	4251.46
977.487	4260.95
977.787	4203.77
978.087	4218.46
978.387	4254.62
978.687	4190.44
978.987	4121.52
979.286	4126.26
979.586	4059.14
979.885	4060.27
980.185	4036.55
980.484	4038.13
980.784	4027.73
981.083	3979.15
981.382	3987.96
981.682	3945.48
981.981	3894.63
982.28	3878.13
982.579	3841.07
982.878	3912.93
983.177	3897.12
983.475	3841.07
983.774	3769.89
984.073	3743.67
984.372	3717.01
984.67	3746.84
984.969	3731.92
985.267	3693.73
985.566	3697.8
985.864	3644.69
986.162	3654.86
986.461	3614.64
986.759	3600.17
987.057	3632.26
987.355	3549.33
987.653	3551.59
987.951	3531.7
988.249	3557.01
988.547	3487.41
988.844	3520.4
989.142	3513.17
989.44	3483.11
989.737	3475.21
990.035	3425.94
990.332	3421.65
990.63	3383.23
990.927	3381.42
991.224	3404.25
991.521	3326.06
991.819	3361.08
992.116	3371.93
992.413	3335.1
992.71	3265.49
993.006	3309.79
993.303	3263.91
993.6	3219.84
993.897	3257.13
994.193	3221.43
994.49	3196.12
994.787	3183.69
995.083	3128.1
995.379	3153.41
995.676	3178.72
995.972	3149.56
996.268	3149.79
996.565	3086.06
996.861	3114.54
997.157	3058.72
997.453	3076.35
997.749	3034.31
998.044	2970.13
998.34	2977.14
998.636	2986.4
998.932	2982.11
999.227	2955.67
999.523	2919.06
999.818	2976.91
1000.114	2891.27
1000.409	2906.41
1000.704	2869.12
1001	2882
1001.295	2857.14
1001.59	2828.22
1001.885	2845.84
1002.18	2807.65
1002.475	2802
1002.77	2804.94
1003.065	2751.61
1003.359	2740.54
1003.654	2753.64
1003.949	2724.26
1004.243	2719.29
1004.538	2669.35
1004.832	2698.5
1005.127	2678.84
1005.421	2628
1005.715	2647.43
1006.009	2624.61
1006.304	2612.63
1006.598	2566.98
1006.892	2561.33
1007.186	2539.86
1007.48	2566.08
1007.773	2514.78
1008.067	2500.54
1008.361	2493.99
1008.655	2483.82
1008.948	2472.29
1009.242	2477.94
1009.535	2405.4
1009.829	2402.24
1010.122	2389.81
1010.415	2420.54
1010.708	2377.38
1011.001	2355.01
1011.295	2330.38
1011.588	2366.31
1011.881	2328.34
1012.173	2315.46
1012.466	2362.01
1012.759	2296.48
1013.052	2299.64
1013.344	2272.07
1013.637	2293.32
1013.93	2217.39
1014.222	2197.05
1014.514	2169.93
1014.807	2196.82
1015.099	2196.82
1015.391	2169.7
1015.683	2172.41
1015.976	2166.54
1016.268	2153.66
1016.56	2133.77
1016.851	2077.95
1017.143	2077.28
1017.435	2106.65
1017.727	2084.28
1018.018	2063.04
1018.31	2039.76
1018.602	2040.67
1018.893	2021.91
1019.185	2000.22
1019.476	2011.74
1019.767	1988.24
1020.058	1952.53
1020.35	1972.42
1020.641	1910.95
1020.932	1910.5
1021.223	1899.43
1021.514	1909.37
1021.804	1879.99
1022.095	1874.34
1022.386	1853.1
1022.677	1861.01
1022.967	1833.44
1023.258	1833.21
1023.548	1822.82
1023.839	1782.14
1024.129	1819.66
1024.419	1757.06
1024.709	1766.32
1025	1767.91
1025.29	1741.01
1025.58	1732.65
1025.87	1715.7
1026.16	1698.3
1026.449	1675.7
1026.739	1683.61
1027.029	1662.37
1027.319	1652.88
1027.608	1638.64
1027.898	1607.46
1028.187	1588.02
1028.477	1615.14
1028.766	1594.8
1029.055	1590.96
1029.344	1572.2
1029.634	1543.96
1029.923	1561.36
1030.212	1556.84
1030.501	1507.35
1030.79	1521.58
1031.078	1498.76
1031.367	1483.17
1031.656	1504.41
1031.945	1445.65
1032.233	1455.6
1032.522	1434.81
1032.81	1438.65
1033.099	1433.23
1033.387	1418.08
1033.675	1429.38
1033.963	1381.47
1034.251	1393.23
1034.54	1391.42
1034.828	1373.11
1035.116	1386.22
1035.403	1356.62
1035.691	1313.45
1035.979	1334.02
1036.267	1315.94
1036.554	1313.91
1036.842	1321.14
1037.129	1269.61
1037.417	1279.33
1037.704	1244.08
1037.992	1272.78
1038.279	1248.6
1038.566	1233
1038.853	1233
1039.14	1233
