Data from white_poster_card_FLMS001491_00053.txt Node
Date: Wed Feb 08 11:51:42 GMT 2017
User: dcchb
Spectrometer: FLMS00149
Trigger mode: 0
Integration Time (sec): 2.000000E-2
Scans to average: 10
Electric dark correction enabled: true
Nonlinearity correction enabled: false
Boxcar width: 0
XAxis mode: Wavelengths
Number of Pixels in Spectrum: 2048
>>>>>Begin Spectral Data<<<<<
341.393	-18.12
341.776	-18.12
342.16	-18.12
342.543	-65.35
342.927	-76.2
343.31	-57.22
343.693	-76.42
344.077	-56.99
344.46	-62.64
344.843	-47.05
345.226	-43.66
345.61	-32.58
345.993	-8.86
346.376	-29.42
346.759	16
347.142	28.43
347.525	44.7
347.908	66.4
348.291	63.01
348.674	85.38
349.057	110.92
349.44	116.11
349.823	137.58
350.206	180.29
350.588	174.87
350.971	196.34
351.354	234.75
351.737	249.44
352.119	255.54
352.502	247.86
352.884	253.96
353.267	296.45
353.65	295.32
354.032	303.9
354.414	319.72
354.797	305.71
355.179	313.4
355.562	317.01
355.944	325.37
356.326	341.87
356.709	329.21
357.091	333.51
357.473	365.37
357.855	317.01
358.238	335.09
358.62	328.76
359.002	343
359.384	366.05
359.766	334.19
360.148	340.29
360.53	337.58
360.912	347.07
361.294	329.89
361.676	339.61
362.057	332.15
362.439	333.73
362.821	318.37
363.203	323.11
363.584	310.91
363.966	325.82
364.348	317.46
364.729	314.53
365.111	308.2
365.493	329.44
365.874	307.29
366.256	335.77
366.637	312.49
367.019	321.76
367.4	281.76
367.781	296.67
368.163	328.99
368.544	341.64
368.925	318.59
369.306	323.34
369.688	316.33
370.069	301.64
370.45	328.99
370.831	314.75
371.212	318.59
371.593	305.03
371.974	318.37
372.355	340.51
372.736	324.69
373.117	297.35
373.498	325.82
373.879	331.02
374.26	319.05
374.641	320.4
375.021	305.26
375.402	314.07
375.783	341.42
376.163	339.38
376.544	325.37
376.925	324.24
377.305	331.02
377.686	335.09
378.066	315.43
378.447	319.72
378.827	333.73
379.208	345.03
379.588	331.02
379.968	348.42
380.349	319.05
380.729	329.67
381.109	332.83
381.489	346.39
381.87	355.88
382.25	339.84
382.63	343.45
383.01	322.21
383.39	352.49
383.77	335.32
384.15	336.9
384.53	354.52
384.91	338.03
385.29	362.89
385.67	383.45
386.049	362.66
386.429	366.73
386.809	366.5
387.189	372.83
387.568	379.83
387.948	336.22
388.328	373.51
388.707	386.16
389.087	385.03
389.466	382.55
389.846	362.66
390.225	375.54
390.605	380.74
390.984	386.61
391.363	382.55
391.743	383.22
392.122	385.48
392.501	369.89
392.881	400.17
393.26	417.12
393.639	407.86
394.018	404.92
394.397	407.4
394.776	411.92
395.155	422.77
395.534	404.69
395.913	417.57
396.292	429.32
396.671	421.42
397.05	423.9
397.429	413.05
397.808	417.57
398.186	432.49
398.565	455.99
398.944	434.3
399.323	423
399.701	454.86
400.08	453.05
400.458	466.16
400.837	454.63
401.215	430.91
401.594	449.21
401.972	443.34
402.351	453.96
402.729	442.66
403.107	461.41
403.486	477.01
403.864	481.3
404.242	492.37
404.62	478.82
404.999	506.61
405.377	486.72
405.755	494.41
406.133	498.25
406.511	522.88
406.889	521.07
407.267	501.19
407.645	540.51
408.023	536.67
408.401	548.42
408.779	542.09
409.156	552.94
409.534	563.56
409.912	587.74
410.29	598.36
410.667	613.27
411.045	591.35
411.422	611.02
411.8	601.52
412.178	657.79
412.555	667.74
412.933	665.7
413.31	674.29
413.687	688.98
414.065	683.56
414.442	730.56
414.819	732.14
415.197	764.68
415.574	755.42
415.951	785.47
416.328	802.87
416.705	786.15
417.082	840.39
417.46	809.43
417.837	850.33
418.214	841.07
418.591	850.33
418.967	876.77
419.344	891.23
419.721	914.74
420.098	928.29
420.475	937.79
420.852	940.27
421.228	960.38
421.605	983.21
421.982	964.45
422.358	1022.53
422.735	1027.95
423.111	1012.13
423.488	1072.25
423.864	1055.3
424.241	1088.29
424.617	1108.86
424.994	1084.22
425.37	1128.74
425.746	1118.35
426.123	1120.83
426.499	1147.27
426.875	1171.23
427.251	1194.28
427.627	1220.72
428.003	1212.36
428.379	1211.68
428.756	1224.33
429.132	1308.62
429.507	1272.24
429.883	1314.05
430.259	1347.04
430.635	1359.24
431.011	1394.27
431.387	1410.32
431.763	1414.61
432.138	1431.56
432.514	1462.74
432.89	1445.8
433.265	1500.94
433.641	1540.93
434.016	1539.8
434.392	1554.72
434.767	1588.16
435.143	1592.23
435.518	1597.43
435.894	1634.49
436.269	1653.25
436.644	1659.8
437.02	1685.34
437.395	1670.87
437.77	1712.45
438.145	1716.75
438.52	1737.77
438.895	1781.83
439.271	1784.54
439.646	1814.15
440.021	1844.65
440.395	1846.91
440.77	1839.46
441.145	1837.65
441.52	1900.7
441.895	1910.42
442.27	1893.24
442.645	1912.68
443.019	1944.09
443.394	1922.62
443.769	1960.81
444.143	1958.55
444.518	1965.56
444.892	1962.84
445.267	1982.96
445.641	2039.68
446.016	2047.14
446.39	2039.9
446.764	2074.48
447.139	2041.26
447.513	2082.16
447.887	2095.27
448.262	2113.35
448.636	2125.1
449.01	2118.77
449.384	2139.34
449.758	2156.74
450.132	2193.35
450.506	2243.97
450.88	2208.04
451.254	2212.1
451.628	2284.19
452.002	2261.82
452.376	2321.25
452.75	2294.13
453.123	2302.95
453.497	2382.72
453.871	2390.4
454.244	2455.71
454.618	2457.29
454.992	2484.86
455.365	2495.26
455.739	2536.16
456.112	2548.14
456.486	2565.09
456.859	2567.12
457.232	2639.89
457.606	2645.54
457.979	2675.14
458.352	2714.46
458.725	2742.71
459.099	2769.83
459.472	2838.98
459.845	2849.15
460.218	2874.91
460.591	2902.25
460.964	2890.28
461.337	2966.66
461.71	3029.48
462.083	3042.14
462.456	3051.63
462.829	3059.31
463.201	3116.71
463.574	3131.4
463.947	3166.65
464.32	3235.13
464.692	3243.49
465.065	3315.8
465.438	3329.14
465.81	3380.21
466.183	3457.95
466.555	3472.86
466.928	3491.39
467.3	3480.32
467.672	3567.1
468.045	3657.94
468.417	3655.68
468.789	3697.49
469.161	3713.76
469.534	3809.12
469.906	3837.82
470.278	3899.97
470.65	3953.75
471.022	4019.29
471.394	4080.75
471.766	4093.18
472.138	4165.05
472.51	4205.5
472.882	4307.64
473.253	4311.71
473.625	4380.41
473.997	4457.47
474.369	4552.83
474.74	4577.46
475.112	4642.55
475.484	4692.94
475.855	4770.68
476.227	4834.86
476.598	4962.54
476.97	5001.18
477.341	5128.64
477.713	5211.35
478.084	5214.51
478.455	5356.2
478.827	5397.78
479.198	5579.7
479.569	5523.88
479.94	5705.34
480.311	5760.94
480.682	5847.04
481.053	5951.21
481.424	6082.28
481.795	6143.98
482.166	6225.56
482.537	6302.84
482.908	6411.09
483.279	6496.74
483.65	6628.03
484.021	6737.63
484.391	6802.26
484.762	6909.83
485.133	6987.8
485.503	7052.88
485.874	7218.98
486.244	7270.73
486.615	7386.2
486.985	7486.99
487.356	7618.29
487.726	7696.93
488.097	7813.76
488.467	7874.55
488.837	8026.41
489.207	8081.55
489.578	8253.3
489.948	8290.36
490.318	8438.15
490.688	8430.02
491.058	8608.09
491.428	8719.73
491.798	8833.4
492.168	8985.71
492.538	8981.42
492.908	9108.64
493.278	9253.27
493.648	9269.09
494.017	9401.74
494.387	9413.95
494.757	9551.57
495.126	9665.24
495.496	9646.26
495.866	9759.93
496.235	9907.49
496.605	9968.96
496.974	10057.09
497.344	10121.95
497.713	10221.61
498.082	10265.9
498.452	10418.21
498.821	10439.01
499.19	10498.21
499.559	10636.97
499.928	10684.65
500.298	10749.73
500.667	10805.1
501.036	10839.45
501.405	10954.25
501.774	11020.91
502.143	11143.39
502.512	11165.54
502.88	11338.42
503.249	11295.93
503.618	11420.22
503.987	11435.14
504.356	11529.15
504.724	11628.13
505.093	11698.86
505.462	11823.6
505.83	11815.24
506.199	11991.05
506.567	12089.81
506.936	12061.11
507.304	12265.4
507.672	12313.76
508.041	12401.67
508.409	12464.49
508.777	12561.44
509.145	12660.19
509.514	12684.6
509.882	12782.67
510.25	12831.94
510.618	12991.48
510.986	13021.76
511.354	13104.47
511.722	13190.35
512.09	13429.66
512.458	13332.04
512.826	13600.5
513.193	13548.75
513.561	13612.48
513.929	13727.05
514.297	13934.28
514.664	13982.41
515.032	14088.63
515.4	14151
515.767	14207.72
516.135	14403.42
516.502	14314.84
516.869	14544.66
517.237	14668.95
517.604	14591.21
517.972	14810.64
518.339	14994.37
518.706	14976.29
519.073	15063.52
519.44	15191.87
519.808	15365.88
520.175	15376.05
520.542	15561.81
520.909	15668.02
521.276	15735.36
521.643	15831.18
522.009	16026.2
522.376	16180.32
522.743	16284.05
523.11	16392.29
523.477	16609.92
523.843	16630.25
524.21	16839.51
524.577	16956.12
524.943	17062.33
525.31	17100.75
525.676	17244.48
526.043	17325.38
526.409	17534.41
526.776	17682.66
527.142	17798.13
527.508	17932.59
527.874	18002.65
528.241	18215.75
528.607	18133.04
528.973	18334.16
529.339	18378.68
529.705	18622.29
530.071	18670.88
530.437	18808.73
530.803	18898.9
531.169	19063.41
531.535	19025.22
531.901	19199.9
532.267	19261.6
532.632	19419.56
532.998	19494.59
533.364	19609.84
533.73	19568.26
534.095	19926.21
534.461	19869.94
534.826	20011.41
535.192	20097.51
535.557	20239.88
535.923	20235.36
536.288	20373.66
536.653	20422.25
537.019	20346.32
537.384	20572.75
537.749	20665.4
538.114	20725.74
538.479	20839.86
538.845	20907.88
539.21	20890.48
539.575	21029.01
539.94	21142
540.305	21330.24
540.67	21282.79
541.034	21303.8
541.399	21482.1
541.764	21614.3
542.129	21546.96
542.494	21704.92
542.858	21709.44
543.223	21764.36
543.587	21970.68
543.952	21850.46
544.316	22125.93
544.681	21943.56
545.045	22206.15
545.41	22347.17
545.774	22302.65
546.138	22419.03
546.503	22519.14
546.867	22334.06
547.231	22665.8
547.595	22758.91
547.959	22761.39
548.324	22936.76
548.688	22871.45
549.052	23001.39
549.416	23069.63
549.779	23057.66
550.143	23242.28
550.507	23417.2
550.871	23430.98
551.235	23455.61
551.599	23659.9
551.962	23671.65
552.326	23632.33
552.689	23841.59
553.053	23819.44
553.417	23979.21
553.78	24182.6
554.143	24093.79
554.507	24304.63
554.87	24305.99
555.234	24563.38
555.597	24525.64
555.96	24569.48
556.323	24637.28
556.686	24770.38
557.05	25052.86
557.413	24976.93
557.776	25060.54
558.139	25281.55
558.502	25227.77
558.865	25453.3
559.228	25548.21
559.59	25695.1
559.953	25775.33
560.316	26092.83
560.679	26057.13
561.041	26163.79
561.404	26381.86
561.767	26516.55
562.129	26431.35
562.492	26677.67
562.854	26719.26
563.217	26812.36
563.579	26871.57
563.941	27058.23
564.304	27230.2
564.666	27301.16
565.028	27458.9
565.39	27516.3
565.753	27702.28
566.115	27839.23
566.477	27797.64
566.839	27842.84
567.201	28213.91
567.563	28172.32
567.925	28373.67
568.287	28467.91
568.648	28411.41
569.01	28567.12
569.372	28731.18
569.734	28631.3
570.095	28874.23
570.457	29018.63
570.819	29216.14
571.18	29156.71
571.542	29313.54
571.903	29363.25
572.265	29475.57
572.626	29544.27
572.987	29662.23
573.349	29707.2
573.71	29767.54
574.071	29876.46
574.432	29947.42
574.794	30146.06
575.155	30117.58
575.516	30096.34
575.877	30196.45
576.238	30201.2
576.599	30484.58
576.96	30521.19
577.32	30514.18
577.681	30589.21
578.042	30690.9
578.403	30741.75
578.763	30765.7
579.124	30908.07
579.485	30934.51
579.845	30938.58
580.206	30863.55
580.566	31006.37
580.927	31053.38
581.287	31221.06
581.648	31151.68
582.008	31199.14
582.368	31099.03
582.728	31097.67
583.089	31155.97
583.449	31131.57
583.809	31225.58
584.169	31248.4
584.529	31209.53
584.889	31341.28
585.249	31091.34
585.609	31130.66
585.969	31309.19
586.329	31308.74
586.688	31389.19
587.048	31264.45
587.408	31359.81
587.768	31228.74
588.127	31227.39
588.487	31170.21
588.846	31459.02
589.206	31352.81
589.565	31329.98
589.925	31569.97
590.284	31326.59
590.643	31476.87
591.003	31523.87
591.362	31646.13
591.721	31533.59
592.08	31462.86
592.44	31539.24
592.799	31622.63
593.158	31640.93
593.517	31541.95
593.876	31584.66
594.235	31631.67
594.593	31602.29
594.952	31560.26
595.311	31485.23
595.67	31602.74
596.029	31876.18
596.387	31830.31
596.746	31831.66
597.104	31710.54
597.463	31744.43
597.822	31780.59
598.18	31754.15
598.538	31627.15
598.897	31944.43
599.255	31545.79
599.613	32108.27
599.972	31962.06
600.33	32020.58
600.688	31853.13
601.046	31889.74
601.404	32113.92
601.762	32131.99
602.12	32099.68
602.478	32049.96
602.836	32277.53
603.194	32228.26
603.552	32188.04
603.91	31987.37
604.268	32237.53
604.625	32081.6
604.983	32226.68
605.341	32164.08
605.698	32211.54
606.056	32415.15
606.413	32331.54
606.771	32304.42
607.128	32454.7
607.485	32302.16
607.843	32369.28
608.2	32386.68
608.557	32627.57
608.914	32571.76
609.272	32722.49
609.629	32697.85
609.986	32909.15
610.343	32613.56
610.7	32947.34
611.057	32770.85
611.414	32764.07
611.771	32868.25
612.127	32903.27
612.484	33033.89
612.841	33059.2
613.198	33001.8
613.554	32857.17
613.911	33247.45
614.267	33079.54
614.624	33074.57
614.98	33143.72
615.337	33342.36
615.693	33322.25
616.05	33221.46
616.406	33402.47
616.762	33293.55
617.118	33317.05
617.475	33325.41
617.831	33487.66
618.187	33409.25
618.543	33520.43
618.899	33766.75
619.255	33502.81
619.611	33538.96
619.967	33597.72
620.323	33757.71
620.678	33635.01
621.034	33459.42
621.39	33577.38
621.746	33451.06
622.101	34045.16
622.457	33573.76
622.812	33654.44
623.168	33762.91
623.523	33717.04
623.879	33727.43
624.234	33632.07
624.589	33781.89
624.945	33736.7
625.3	33727.66
625.655	33766.53
626.01	33765.85
626.365	33733.99
626.72	33702.35
627.075	33617.15
627.43	33683.14
627.785	33459.42
628.14	33624.38
628.495	33557.72
628.85	33537.15
629.205	33412.86
629.559	33671.84
629.914	33505.07
630.269	33428.23
630.623	33366.76
630.978	33252.64
631.332	33511.39
631.687	33468.68
632.041	33409.47
632.396	33400.89
632.75	33275.24
633.104	33332.19
633.459	33188.24
633.813	33151.4
634.167	33082.48
634.521	33081.12
634.875	33228.01
635.229	33031.63
635.583	32960.67
635.937	32932.88
636.291	32926.32
636.645	32871.86
636.999	32873.67
637.352	32781.69
637.706	32748.48
638.06	32888.58
638.413	32654.92
638.767	32704.86
639.121	32641.81
639.474	32581.02
639.828	32526.56
640.181	32596.39
640.534	32496.73
640.888	32370.18
641.241	32270.52
641.594	32312.78
641.947	32355.94
642.301	32287.47
642.654	32295.38
643.007	32192.78
643.36	32228.49
643.713	32055.16
644.066	32281.59
644.419	31995.73
644.771	31729.74
645.124	31624.89
645.477	31633.48
645.83	31321.62
646.182	31148.29
646.535	30998.69
646.888	31119.59
647.24	30995.98
647.593	31101.29
647.945	30985.58
648.298	30827.85
648.65	30745.82
649.002	30652.71
649.355	30742.2
649.707	30846.38
650.059	30868.07
650.411	31264.45
650.763	31295.41
651.115	31588.51
651.467	31456.98
651.819	31473.71
652.171	31229.42
652.523	31271
652.875	31200.95
653.227	31091.34
653.578	31286.37
653.93	31227.39
654.282	31095.86
654.633	31017.45
654.985	31167.05
655.337	31090.67
655.688	31188.97
656.039	31198.23
656.391	30837.79
656.742	30835.53
657.094	30986.04
657.445	31055.64
657.796	31027.62
658.147	30859.49
658.498	30950.78
658.849	30929.31
659.2	30860.62
659.551	30703.11
659.902	30749.66
660.253	30779.04
660.604	30853.16
660.955	30696.33
661.306	30747.62
661.656	30633.95
662.007	30643.67
662.358	30620.17
662.708	30596.44
663.059	30658.81
663.409	30435.09
663.76	30681.64
664.11	30513.73
664.461	30461.98
664.811	30511.92
665.161	30500.4
665.511	30287.52
665.862	30374.3
666.212	30407.29
666.562	30585.59
666.912	30470.34
667.262	30502.66
667.612	30432.38
667.962	30424.69
668.312	30469.66
668.662	30538.82
669.011	30421.08
669.361	30363.91
669.711	30404.81
670.06	30480.96
670.41	30292.95
670.76	30197.81
671.109	30212.27
671.459	30229.45
671.808	30141.54
672.157	30224.93
672.507	29958.27
672.856	29940.64
673.205	30186.73
673.554	30179.73
673.904	29939.51
674.253	30064.03
674.602	29843.92
674.951	29582.46
675.3	29409.35
675.649	29846.4
675.998	29834.65
676.346	29781.55
676.695	29760.08
677.044	29727.99
677.393	29786.52
677.741	29820.42
678.09	29772.28
678.438	29622.68
678.787	29791.04
679.135	29570.93
679.484	29619.29
679.832	29681.89
680.181	29652.96
680.529	29603.47
680.877	29585.85
681.225	29409.35
681.573	29666.75
681.922	29278.96
682.27	29238.51
682.618	29400.77
682.966	29226.99
683.314	29252.75
683.661	29196.93
684.009	28980.66
684.357	28946.54
684.705	28994.45
685.053	28882.81
685.4	28917.84
685.748	28712.87
686.095	28835.13
686.443	28578.64
686.79	28501.13
687.138	28620.9
687.485	28515.14
687.832	28380
688.18	28511.75
688.527	28372.77
688.874	28382.49
689.221	28397.4
689.568	28245.54
689.915	28003.74
690.262	28115.15
690.609	28006.9
690.956	27937.08
691.303	27832.45
691.65	27791.77
691.997	27646.91
692.344	27729.85
692.69	27614.37
693.037	27515.39
693.383	27317.66
693.73	27437.2
694.077	27255.51
694.423	27313.82
694.769	27209.19
695.116	27078.79
695.462	27015.74
695.808	26945.01
696.155	27028.85
696.501	26896.65
696.847	26889.65
697.193	26625.92
697.539	26726.03
697.885	26427.96
698.231	26444.01
698.577	26427.06
698.923	26362.43
699.269	26188.65
699.614	26119.5
699.96	26155.2
700.306	26104.36
700.651	25973.51
700.997	25904.36
701.342	25780.07
701.688	25893.51
702.033	25707.98
702.379	25709.79
702.724	25719.96
703.069	25709.34
703.415	25356.35
703.76	25458.95
704.105	25301.67
704.45	25284.94
704.795	25279.07
705.14	25081.56
705.485	25083.37
705.83	24914.33
706.175	24968.57
706.52	24889.7
706.865	24864.39
707.209	24691.96
707.554	24664.39
707.899	24608.35
708.243	24523.61
708.588	24573.32
708.932	24421.24
709.277	24479.31
709.621	24374.23
709.966	24221.02
710.31	24159.32
710.654	24040.91
710.998	24170.17
711.342	24083.62
711.687	24047.69
712.031	23947.35
712.375	23810.86
712.719	23822.61
713.063	23892.21
713.407	23927.01
713.75	23726.34
714.094	23777.64
714.438	23582.84
714.782	23691.09
715.125	23570.19
715.469	23638.43
715.812	23496.51
716.156	23472.11
716.499	23350.3
716.843	23271.21
717.186	23270.53
717.53	23314.6
717.873	23372.9
718.216	23187.82
718.559	23113.7
718.902	22949.18
719.246	22900.15
719.589	22962.97
719.932	22821.28
720.275	22822.86
720.617	22718
720.96	22720.72
721.303	22758.68
721.646	22772.92
721.989	22488.18
722.331	22661.06
722.674	22506.94
723.016	22433.27
723.359	22531.57
723.701	22452.25
724.044	22355.75
724.386	22252.25
724.729	22427.39
725.071	22351.01
725.413	22212.25
725.755	22204.57
726.097	22137.91
726.439	22045.25
726.782	22088.19
727.124	22203.44
727.465	22011.13
727.807	22000.28
728.149	21950.57
728.491	21876.67
728.833	21923.9
729.175	21790.35
729.516	21660.63
729.858	21782.44
730.199	21687.3
730.541	21670.57
730.882	21619.95
731.224	21611.59
731.565	21572.05
731.906	21521.65
732.248	21439.39
732.589	21362.33
732.93	21305.84
733.271	21425.83
733.612	21237.59
733.953	21381.32
734.294	21195.11
734.635	21129.8
734.976	21252.96
735.317	21111.49
735.658	21174.77
735.999	21065.84
736.339	20991.5
736.68	21028.78
737.021	21031.72
737.361	20865.85
737.702	20979.74
738.042	20908.33
738.383	20759.86
738.723	20833.08
739.063	20791.73
739.404	20826.3
739.744	20786.76
740.084	20670.15
740.424	20744.04
740.764	20675.12
741.104	20712.63
741.444	20626.76
741.784	20514.45
742.124	20508.57
742.464	20518.29
742.804	20541.79
743.143	20401
743.483	20514.67
743.823	20314.23
744.162	20305.86
744.502	20435.8
744.841	20185.64
745.181	20297.5
745.52	20116.49
745.86	20109.94
746.199	20099.54
746.538	20033.78
746.877	20168.01
747.216	20096.83
747.556	20014.35
747.895	20045.53
748.234	19908.13
748.573	19920.34
748.911	19831.53
749.25	19940.45
749.589	19821.58
749.928	19736.84
750.267	19815.71
750.605	19668.14
750.944	19668.14
751.283	19584.75
751.621	19591.08
751.96	19557.64
752.298	19445.55
752.636	19491.65
752.975	19322.16
753.313	19333.46
753.651	19413.23
753.989	19242.39
754.327	19319
754.666	19144.31
755.004	19202.62
755.342	19112.22
755.679	19117.42
756.017	18965.33
756.355	18982.74
756.693	18871.55
757.031	18923.08
757.368	18833.13
757.706	18763.76
758.044	18737.32
758.381	18748.84
758.719	18639.92
759.056	18704.32
759.394	18622.97
759.731	18454.16
760.068	18424.78
760.405	18436.99
760.743	18303.21
761.08	18327.84
761.417	18266.37
761.754	18188.41
762.091	18185.69
762.428	18087.62
762.765	18048.52
763.102	18023.21
763.438	17970.11
763.775	17928.75
764.112	17848.98
764.449	17814.4
764.785	17792.94
765.122	17597.01
765.458	17573.73
765.795	17462.78
766.131	17488.31
766.467	17433.17
766.804	17361.54
767.14	17246.51
767.476	17197.47
767.812	17090.36
768.148	17226.62
768.485	17060.53
768.821	16994.09
769.157	16977.14
769.492	16839.06
769.828	16874.32
770.164	16681.33
770.5	16683.59
770.836	16732.17
771.171	16598.39
771.507	16697.6
771.842	16479.3
772.178	16527.66
772.513	16414.67
772.849	16327.89
773.184	16240.66
773.519	16225.75
773.855	16219.64
774.19	16098.52
774.525	16114.79
774.86	16068.01
775.195	16009.03
775.53	15936.71
775.865	15823.27
776.2	15741.92
776.535	15694.01
776.87	15606.33
777.205	15526.78
777.539	15535.59
777.874	15490.62
778.209	15433.45
778.543	15440.23
778.878	15300.8
779.212	15285.66
779.547	15179.45
779.881	15217.18
780.215	15082.5
780.55	15127.24
780.884	14980.81
781.218	14923.18
781.552	15013.57
781.886	14864.88
782.22	14759.57
782.554	14750.76
782.888	14692
783.222	14527.71
783.556	14482.29
783.889	14502.63
784.223	14400.93
784.557	14392.35
784.89	14317.1
785.224	14301.05
785.557	14164.78
785.891	14163.2
786.224	14177.66
786.558	14128.85
786.891	13973.38
787.224	13901.51
787.557	13969.53
787.891	13903.09
788.224	13858.12
788.557	13861.06
788.89	13819.03
789.223	13749.88
789.556	13623.1
789.888	13596.66
790.221	13537
790.554	13464.46
790.887	13389.89
791.219	13388.08
791.552	13408.64
791.884	13337.46
792.217	13230.57
792.549	13187.41
792.882	13090.01
793.214	13069.67
793.546	13043.23
793.879	13028.54
794.211	12949.67
794.543	13063.12
794.875	12937.24
795.207	12917.36
795.539	12950.58
795.871	12849.34
796.203	12723.69
796.535	12746.52
796.867	12751.03
797.198	12598.5
797.53	12663.58
797.862	12596.24
798.193	12546.29
798.525	12496.13
798.856	12436.92
799.188	12287.09
799.519	12313.53
799.85	12241.67
800.182	12239.86
800.513	12193.99
800.844	12121.67
801.175	12125.74
801.506	12122.8
801.837	12078.74
802.168	12078.74
802.499	12041.9
802.83	11961.23
803.161	11923.49
803.491	11910.38
803.822	11926.65
804.153	11795.58
804.483	11671.97
804.814	11706.99
805.145	11651.85
805.475	11724.62
805.805	11631.06
806.136	11611.63
806.466	11526.21
806.796	11581.12
807.126	11434.23
807.457	11493.67
807.787	11487.34
808.117	11439.88
808.447	11399.21
808.777	11354.46
809.107	11298.19
809.436	11325.76
809.766	11267.46
810.096	11237.63
810.426	11192.66
810.755	11196.5
811.085	11180.91
811.414	11147.24
811.744	11086.45
812.073	10973.23
812.403	11034.24
812.732	10936.85
813.061	10943.4
813.39	10957.86
813.719	10955.6
814.049	10925.09
814.378	10831.54
814.707	10840.35
815.036	10804.42
815.365	10735.72
815.693	10653.24
816.022	10704.31
816.351	10627.7
816.68	10649.4
817.008	10670.64
817.337	10505.44
817.665	10517.87
817.994	10509.06
818.322	10542.28
818.651	10485.33
818.979	10426.12
819.307	10483.52
819.636	10445.78
819.964	10366.69
820.292	10413.24
820.62	10356.3
820.948	10332.57
821.276	10366.46
821.604	10326.69
821.932	10349.52
822.259	10372.11
822.587	10339.57
822.915	10287.6
823.243	10403.07
823.57	10246.92
823.898	10296.41
824.225	10292.34
824.553	10335.28
824.88	10308.39
825.207	10251.67
825.535	10253.47
825.862	10260.93
826.189	10223.19
826.516	10274.04
826.843	10305
827.17	10360.59
827.497	10324.88
827.824	10289.4
828.151	10286.92
828.478	10295.51
828.805	10299.12
829.131	10256.64
829.458	10245.79
829.785	10224.55
830.111	10264.55
830.438	10298.22
830.764	10299.8
831.09	10225.9
831.417	10133.93
831.743	10279.24
832.069	10272.46
832.395	10219.35
832.722	10224.77
833.048	10190.42
833.374	10203.98
833.7	10140.48
834.026	10152.23
834.351	10126.25
834.677	10168.5
835.003	10104.78
835.329	10128.96
835.654	10160.14
835.98	10055.06
836.306	10111.78
836.631	10078.79
836.956	10086.02
837.282	9995.4
837.607	9938.23
837.932	10056.87
838.258	9970.54
838.583	9923.54
838.908	9908.62
839.233	9974.38
839.558	9916.08
839.883	9859.36
840.208	9820.04
840.533	9830.21
840.858	9825.01
841.182	9782.07
841.507	9881.28
841.832	9809.87
842.156	9756.09
842.481	9756.09
842.805	9737.78
843.13	9724.9
843.454	9667.5
843.778	9621.4
844.103	9624.79
844.427	9617.56
844.751	9600.16
845.075	9563.32
845.399	9497.11
845.723	9537.56
846.047	9520.61
846.371	9364.91
846.695	9432.25
847.019	9283.78
847.343	9320.16
847.666	9282.43
847.99	9185.25
848.313	9195.2
848.637	9175.31
848.96	9174.18
849.284	9122.66
849.607	9061.41
849.931	9048.99
850.254	8994.07
850.577	8895.54
850.9	8849.22
851.223	8906.16
851.546	8829.78
851.869	8745.94
852.192	8788.88
852.515	8658.49
852.838	8673.4
853.161	8701.88
853.483	8644.93
853.806	8611.71
854.129	8643.8
854.451	8564.7
854.774	8493.52
855.096	8549.79
855.419	8510.69
855.741	8456.23
856.063	8404.93
856.385	8352.96
856.708	8413.3
857.03	8394.31
857.352	8390.02
857.674	8401.09
857.996	8276.35
858.318	8200.19
858.64	8283.36
858.961	8231.38
859.283	8206.07
859.605	8165.62
859.926	8157.26
860.248	8132.4
860.57	8112.29
860.891	8137.37
861.212	8124.72
861.534	8020.76
861.855	7986.87
862.176	7992.52
862.498	8046.53
862.819	7937.6
863.14	7976.92
863.461	7914.78
863.782	7965.4
864.103	7898.73
864.424	7889.47
864.745	7878.17
865.065	7884.95
865.386	7857.38
865.707	7807.44
866.027	7855.8
866.348	7814.44
866.668	7852.63
866.989	7812.63
867.309	7741.22
867.63	7735.35
867.95	7757.95
868.27	7693.77
868.59	7726.08
868.91	7719.53
869.23	7726.08
869.55	7662.13
869.87	7691.96
870.19	7636.14
870.51	7681.79
870.83	7690.83
871.15	7674.78
871.469	7628.68
871.789	7577.16
872.109	7513.21
872.428	7565.86
872.748	7565.63
873.067	7576.03
873.386	7510.72
873.706	7471.85
874.025	7516.37
874.344	7461.46
874.663	7506.43
874.982	7456.94
875.301	7444.28
875.62	7433.21
875.939	7402.25
876.258	7415.58
876.577	7364.96
876.896	7373.32
877.214	7353.44
877.533	7302.59
877.852	7312.08
878.17	7411.06
878.489	7342.82
878.807	7311.63
879.125	7264.17
879.444	7278.86
879.762	7275.92
880.08	7240.9
880.398	7255.36
880.716	7265.08
881.034	7138.75
881.352	7176.27
881.67	7158.41
881.988	7199.54
882.306	7141.46
882.624	7087.68
882.941	7062.82
883.259	7103.27
883.577	7063.27
883.894	7089.94
884.212	7080.68
884.529	7030.28
884.846	6986.67
885.164	7006.55
885.481	7019.43
885.798	7007.68
886.115	6920
886.432	6945.99
886.75	6947.12
887.067	6959.1
887.383	6913.67
887.7	6909.15
888.017	6832.77
888.334	6861.25
888.651	6855.37
888.967	6814.02
889.284	6780.8
889.6	6748.48
889.917	6725.43
890.233	6693.79
890.55	6687.24
890.866	6671.42
891.182	6689.5
891.498	6692.66
891.815	6649.5
892.131	6617.18
892.447	6578.32
892.763	6602.95
893.079	6606.56
893.395	6527.02
893.71	6503.74
894.026	6504.87
894.342	6494.93
894.657	6484.76
894.973	6421.71
895.289	6448.6
895.604	6424.65
895.92	6331.77
896.235	6322.05
896.55	6381.94
896.865	6332.45
897.181	6288.38
897.496	6319.57
897.811	6260.36
898.126	6207.93
898.441	6198.21
898.756	6143.75
899.071	6175.61
899.386	6197.31
899.7	6145.33
900.015	6118.44
900.33	6082.28
900.644	6092.68
900.959	6057.2
901.273	6045.9
901.588	5981.27
901.902	5935.62
902.216	5971.55
902.531	5898.11
902.845	5890.88
903.159	5896.75
903.473	5929.97
903.787	5820.14
904.101	5848.17
904.415	5863.76
904.729	5818.79
905.042	5776.98
905.356	5746.47
905.67	5793.25
905.984	5717.1
906.297	5709.64
906.611	5675.06
906.924	5630.32
907.237	5635.74
907.551	5628.51
907.864	5593.26
908.177	5589.64
908.491	5551.68
908.804	5523.43
909.117	5483.43
909.43	5422.64
909.743	5424.9
910.056	5472.58
910.368	5415.63
910.681	5372.7
910.994	5335.18
911.307	5340.16
911.619	5297.45
911.932	5300.38
912.244	5241.18
912.557	5289.08
912.869	5232.59
913.181	5213.15
913.494	5209.09
913.806	5152.36
914.118	5137.22
914.43	5114.4
914.742	5137.45
915.054	5115.3
915.366	5046.6
915.678	5075.3
915.99	5022.65
916.302	5003.89
916.613	4945.82
916.925	5006.83
917.236	4933.84
917.548	4946.04
917.859	4948.98
918.171	4924.12
918.482	4880.96
918.794	4859.94
919.105	4862.2
919.416	4827.18
919.727	4812.03
920.038	4795.76
920.349	4735.2
920.66	4763.9
920.971	4744.24
921.282	4750.79
921.593	4685.48
921.903	4640.51
922.214	4664.69
922.525	4614.75
922.835	4598.71
923.146	4597.58
923.456	4574.53
923.767	4570.23
924.077	4572.04
924.387	4507.64
924.697	4488.88
925.008	4521.19
925.318	4439.16
925.628	4511.93
925.938	4423.8
926.248	4426.51
926.558	4423.8
926.867	4341.54
927.177	4395.1
927.487	4324.14
927.796	4309
928.106	4331.82
928.416	4317.36
928.725	4301.54
929.034	4261.77
929.344	4227.87
929.653	4218.83
929.962	4190.81
930.271	4187.87
930.581	4159.85
930.89	4128.89
931.199	4106.06
931.508	4101.09
931.817	4095.9
932.125	4078.27
932.434	4078.04
932.743	4038.04
933.051	4084.82
933.36	3982.23
933.669	3980.42
933.977	3957.59
934.286	4015.9
934.594	3930.7
934.902	3948.78
935.21	3885.51
935.519	3930.93
935.827	3923.47
936.135	3882.34
936.443	3867.88
936.751	3860.65
937.059	3816.13
937.367	3802.12
937.674	3788.33
937.982	3793.3
938.29	3747.66
938.597	3726.87
938.905	3675.12
939.213	3683.02
939.52	3659.97
939.827	3681.44
940.135	3618.39
940.442	3638.96
940.749	3658.39
941.056	3645.74
941.363	3607.55
941.67	3602.35
941.977	3560.77
942.284	3575.23
942.591	3565.06
942.898	3539.3
943.205	3544.5
943.511	3504.05
943.818	3480.77
944.125	3480.32
944.431	3466.08
944.738	3490.26
945.044	3465.4
945.35	3441.22
945.657	3421.11
945.963	3390.6
946.269	3410.94
946.575	3391.51
946.881	3349.47
947.187	3355.12
947.493	3339.08
947.799	3292.3
948.105	3313.99
948.41	3283.49
948.716	3299.76
949.022	3233.54
949.327	3217.73
949.633	3216.37
949.938	3209.82
950.244	3223.38
950.549	3185.18
950.854	3144.28
951.16	3142.47
951.465	3148.8
951.77	3108.58
952.075	3151.51
952.38	3094.57
952.685	3073.1
952.99	3095.92
953.294	3109.71
953.599	3014.57
953.904	3033.78
954.209	3059.31
954.513	2991.74
954.818	3032.65
955.122	3021.8
955.426	3033.32
955.731	2964.4
956.035	2997.17
956.339	2969.15
956.643	2942.93
956.948	2922.14
957.252	2880.33
957.556	2882.59
957.86	2909.26
958.163	2861.58
958.467	2890.28
958.771	2871.29
959.075	2811.18
959.378	2820.45
959.682	2806.21
959.985	2789.71
960.289	2790.62
960.592	2744.52
960.896	2750.39
961.199	2746.78
961.502	2750.39
961.805	2732.99
962.108	2723.95
962.411	2698.19
962.714	2706.55
963.017	2673.33
963.32	2662.71
963.623	2676.5
963.926	2661.81
964.228	2668.14
964.531	2629.72
964.833	2626.1
965.136	2586.56
965.438	2583.39
965.741	2589.95
966.043	2556.05
966.345	2544.52
966.648	2562.38
966.95	2566.67
967.252	2567.8
967.554	2535.94
967.856	2522.38
968.158	2494.81
968.46	2483.28
968.761	2490.51
969.063	2480.12
969.365	2462.04
969.666	2476.73
969.968	2433.57
970.269	2425.43
970.571	2426.79
970.872	2394.47
971.174	2396.5
971.475	2371.42
971.776	2395.15
972.077	2351.31
972.378	2360.57
972.679	2347.24
972.98	2349.73
973.281	2325.77
973.582	2307.02
973.883	2297.52
974.183	2293.46
974.484	2310.41
974.785	2295.26
975.085	2268.6
975.386	2282.16
975.686	2278.54
975.986	2252.55
976.287	2283.97
976.587	2248.03
976.887	2213.23
977.187	2236.96
977.487	2185.44
977.787	2217.75
978.087	2193.57
978.387	2182.27
978.687	2182.05
978.987	2143.63
979.286	2156.29
979.586	2204.87
979.885	2121.94
980.185	2153.57
980.484	2123.97
980.784	2120.81
981.083	2093.69
981.382	2086.68
981.682	2064.08
981.981	2089.62
982.28	2057.3
982.579	2062.5
982.878	2031.09
983.177	2034.93
983.475	2026.12
983.774	2005.78
984.073	2009.62
984.372	2017.98
984.67	1994.03
984.969	1993.13
985.267	2005.33
985.566	1976.63
985.864	1975.27
986.162	1972.56
986.461	1933.92
986.759	1931.66
987.057	1930.75
987.355	1914.26
987.653	1917.87
987.951	1903.86
988.249	1891.66
988.547	1869.29
988.844	1871.55
989.142	1903.86
989.44	1870.42
989.737	1850.08
990.035	1868.61
990.332	1835.84
990.63	1826.35
990.927	1850.3
991.224	1809.18
991.521	1849.63
991.819	1796.52
992.116	1783.64
992.413	1789.06
992.71	1789.97
993.006	1796.29
993.303	1747.93
993.6	1750.65
993.897	1743.87
994.193	1748.84
994.49	1725.34
994.787	1730.53
995.083	1728.95
995.379	1725.79
995.676	1706.13
995.972	1697.31
996.268	1676.98
996.565	1693.02
996.861	1667.94
997.157	1641.27
997.453	1628.62
997.749	1646.92
998.044	1629.07
998.34	1642.4
998.636	1640.37
998.932	1611.21
999.227	1646.69
999.523	1615.73
999.818	1590.88
1000.114	1584.1
1000.409	1568.28
1000.704	1586.36
1001	1558.79
1001.295	1538.67
1001.59	1564.21
1001.885	1550.2
1002.18	1499.58
1002.475	1517.66
1002.77	1510.43
1003.065	1484.66
1003.359	1527.15
1003.654	1460.26
1003.949	1506.13
1004.243	1439.24
1004.538	1457.55
1004.832	1466.81
1005.127	1493.48
1005.421	1450.54
1005.715	1423.42
1006.009	1438.79
1006.304	1428.17
1006.598	1399.92
1006.892	1408.73
1007.186	1404.21
1007.48	1381.62
1007.773	1376.42
1008.067	1389.75
1008.361	1374.84
1008.655	1352.01
1008.948	1354.95
1009.242	1329.19
1009.535	1340.94
1009.829	1336.42
1010.122	1366.25
1010.415	1300.04
1010.708	1291
1011.001	1269.08
1011.295	1296.65
1011.588	1301.62
1011.881	1282.86
1012.173	1279.92
1012.466	1283.54
1012.759	1258
1013.052	1279.47
1013.344	1254.39
1013.637	1246.93
1013.93	1241.28
1014.222	1245.35
1014.514	1242.86
1014.807	1227.95
1015.099	1206.25
1015.391	1207.16
1015.683	1217.55
1015.976	1201.51
1016.268	1171
1016.56	1211.23
1016.851	1180.27
1017.143	1167.16
1017.435	1159.7
1017.727	1166.25
1018.018	1165.35
1018.31	1155.86
1018.602	1133.04
1018.893	1150.21
1019.185	1126.26
1019.476	1104.11
1019.767	1106.14
1020.058	1132.81
1020.35	1101.62
1020.641	1100.04
1020.932	1123.09
1021.223	1072.25
1021.514	1078.12
1021.804	1035.86
1022.095	1064.34
1022.386	1033.38
1022.677	1029.54
1022.967	1064.34
1023.258	1028.63
1023.548	1042.42
1023.839	1003.77
1024.129	1011
1024.419	1003.77
1024.709	1003.1
1025	995.41
1025.29	997.67
1025.58	947.96
1025.87	978.46
1026.16	977.33
1026.449	975.98
1026.739	957.9
1027.029	937.56
1027.319	943.44
1027.608	951.8
1027.898	960.16
1028.187	924.23
1028.477	952.93
1028.766	915.19
1029.055	916.09
1029.344	912.93
1029.634	883.78
1029.923	905.47
1030.212	904.79
1030.501	897.11
1030.79	888.75
1031.078	890.56
1031.367	887.39
1031.656	891.91
1031.945	881.74
1032.233	864.79
1032.522	861.86
1032.81	860.5
1033.099	868.86
1033.387	862.31
1033.675	858.24
1033.963	853.49
1034.251	812.14
1034.54	821.86
1034.828	815.08
1035.116	797
1035.403	818.02
1035.691	816.43
1035.979	820.95
1036.267	798.35
1036.554	787.28
1036.842	784.34
1037.129	801.74
1037.417	791.12
1037.704	775.3
1037.992	785.47
1038.279	760.84
1038.566	760.62
1038.853	760.62
1039.14	760.62
