Data from white_steel_sheet_FLMS001491_028.txt Node
Date: Tue Feb 07 10:57:37 GMT 2017
User: dcchb
Spectrometer: FLMS00149
Trigger mode: 0
Integration Time (sec): 2.000000E-2
Scans to average: 10
Electric dark correction enabled: true
Nonlinearity correction enabled: false
Boxcar width: 0
XAxis mode: Wavelengths
Number of Pixels in Spectrum: 2048
>>>>>Begin Spectral Data<<<<<
341.393	-19
341.776	-19
342.16	-19
342.543	-57.87
342.927	-70.97
343.31	-85.21
343.693	-66
344.077	-52.22
344.46	-57.87
344.843	-47.7
345.226	-47.24
345.61	-25.1
345.993	-25.1
346.376	-17.64
346.759	17.61
347.142	42.24
347.525	38.63
347.908	61
348.291	61.23
348.674	86.99
349.057	116.37
349.44	127.21
349.823	133.99
350.206	168.57
350.588	179.87
350.971	210.83
351.354	229.58
351.737	251.96
352.119	254.67
352.502	283.37
352.884	272.97
353.267	277.94
353.65	301.67
354.032	305.51
354.414	319.75
354.797	320.43
355.179	319.98
355.562	324.27
355.944	337.15
356.326	332.86
356.709	331.5
357.091	345.97
357.473	338.51
357.855	355
358.238	355.91
358.62	353.87
359.002	346.64
359.384	358.62
359.766	364.04
360.148	366.53
360.53	364.95
360.912	341.9
361.294	340.32
361.676	333.99
362.057	333.08
362.439	349.13
362.821	347.55
363.203	331.28
363.584	340.09
363.966	328.79
364.348	336.47
364.729	336.7
365.111	339.19
365.493	319.53
365.874	310.03
366.256	322.46
366.637	326.53
367.019	331.5
367.4	317.27
367.781	330.15
368.163	321.33
368.544	322.46
368.925	341.9
369.306	349.13
369.688	336.02
370.069	302.8
370.45	317.27
370.831	329.02
371.212	310.71
371.593	335.57
371.974	328.79
372.355	300.09
372.736	310.49
373.117	327.66
373.498	336.02
373.879	328.56
374.26	326.08
374.641	321.11
375.021	352.52
375.402	345.29
375.783	341.67
376.163	343.71
376.544	348.45
376.925	355.23
377.305	325.63
377.686	358.39
378.066	340.99
378.447	336.25
378.827	349.36
379.208	357.49
379.588	355.23
379.968	366.98
380.349	350.26
380.729	376.47
381.109	352.52
381.489	368.34
381.87	360.2
382.25	369.02
382.63	360.65
383.01	376.7
383.39	379.86
383.77	376.47
384.15	378.73
384.53	389.58
384.91	372.63
385.29	395.68
385.67	384.38
386.049	368.11
386.429	390.94
386.809	397.26
387.189	402.46
387.568	400.88
387.948	411.5
388.328	395.23
388.707	414.66
389.087	424.61
389.466	400.2
389.846	405.62
390.225	415.12
390.605	418.51
390.984	429.58
391.363	440.65
391.743	416.47
392.122	436.81
392.501	415.79
392.881	448.34
393.26	437.04
393.639	451.95
394.018	442.91
394.397	481.56
394.776	497.15
395.155	456.02
395.534	475.23
395.913	482.46
396.292	503.93
396.671	487.43
397.05	494.44
397.429	490.59
397.808	510.93
398.186	496.47
398.565	519.97
398.944	523.36
399.323	531.27
399.701	559.52
400.08	550.03
400.458	538.05
400.837	555.68
401.215	555.45
401.594	600.2
401.972	580.54
402.351	598.16
402.729	587.54
403.107	601.33
403.486	587.77
403.864	603.59
404.242	605.17
404.62	619.86
404.999	644.71
405.377	657.14
405.755	674.32
406.133	663.7
406.511	654.88
406.889	714.32
407.267	706.41
407.645	704.83
408.023	718.16
408.401	749.57
408.779	736.46
409.156	760.19
409.534	771.27
409.912	762.45
410.29	783.92
410.667	791.38
411.045	820.08
411.422	829.12
411.8	842.68
412.178	826.18
412.555	849.68
412.933	885.61
413.31	875.22
413.687	910.02
414.065	901.21
414.442	903.69
414.819	903.69
415.197	914.76
415.574	960.41
415.951	980.3
416.328	959.96
416.705	971.71
417.082	980.98
417.46	1006.29
417.837	1013.07
418.214	1020.52
418.591	1048.55
418.967	1051.26
419.344	1048.55
419.721	1059.62
420.098	1048.55
420.475	1091.48
420.852	1101.88
421.228	1117.02
421.605	1118.6
421.982	1133.06
422.358	1127.19
422.735	1152.27
423.111	1155.44
423.488	1171.25
423.864	1187.75
424.241	1213.97
424.617	1215.55
424.994	1197.92
425.37	1215.77
425.746	1247.86
426.123	1243.34
426.499	1266.85
426.875	1306.17
427.251	1290.35
427.627	1338.48
428.003	1347.75
428.379	1360.18
428.756	1371.02
429.132	1406.05
429.507	1431.36
429.883	1442.89
430.259	1427.52
430.635	1480.17
431.011	1466.61
431.387	1488.76
431.763	1514.52
432.138	1529.89
432.514	1543.45
432.89	1570.34
433.265	1578.7
433.641	1615.08
434.016	1618.93
434.392	1662.32
434.767	1675.65
435.143	1684.24
435.518	1727.62
435.894	1717.45
436.269	1762.43
436.644	1765.36
437.02	1802.2
437.395	1785.02
437.77	1837.23
438.145	1856.43
438.52	1886.04
438.895	1896.66
439.271	1897.34
439.646	1949.31
440.021	1927.84
440.395	1965.36
440.77	1978.46
441.145	1991.8
441.52	2014.17
441.895	2021.18
442.27	2047.84
442.645	2055.3
443.019	2064.79
443.394	2108.86
443.769	2101.63
444.143	2098.91
444.518	2182.3
444.892	2131.46
445.267	2182.08
445.641	2175.52
446.016	2191.34
446.39	2207.61
446.764	2246.25
447.139	2257.1
447.513	2242.64
447.887	2307.04
448.262	2279.47
448.636	2319.92
449.01	2321.28
449.384	2350.66
449.758	2376.65
450.132	2397.66
450.506	2443.09
450.88	2417.32
451.254	2447.83
451.628	2486.93
452.002	2516.08
452.376	2536.42
452.75	2535.51
453.123	2574.16
453.497	2626.13
453.871	2655.06
454.244	2693.7
454.618	2694.15
454.992	2726.69
455.365	2756.52
455.739	2767.37
456.112	2847.37
456.486	2848.72
456.859	2881.49
457.232	2943.64
457.606	2931.89
457.979	2981.15
458.352	3028.38
458.725	3050.75
459.099	3060.02
459.472	3109.28
459.845	3207.36
460.218	3222.05
460.591	3238.54
460.964	3301.14
461.337	3319.22
461.71	3377.98
462.083	3435.83
462.456	3427.24
462.829	3431.76
463.201	3509.95
463.574	3525.54
463.947	3560.8
464.32	3665.65
464.692	3671.08
465.065	3702.94
465.438	3747.91
465.81	3826.55
466.183	3908.13
466.555	3895.93
466.928	3943.16
467.3	3977.73
467.672	3992.42
468.045	4116.04
468.417	4124.17
468.789	4115.81
469.161	4235.35
469.534	4296.6
469.906	4388.57
470.278	4435.8
470.65	4450.72
471.022	4533.43
471.394	4611.16
471.766	4642.12
472.138	4717.6
472.51	4828.79
472.882	4874.21
473.253	4895.68
473.625	5026.52
473.997	5068.55
474.369	5142.22
474.74	5219.74
475.112	5277.81
475.484	5371.82
475.855	5457.92
476.227	5528.88
476.598	5624.47
476.97	5709.89
477.341	5848.19
477.713	5880.51
478.084	5964.57
478.455	6101.97
478.827	6155.08
479.198	6328.86
479.569	6325.92
479.94	6540.38
480.311	6595.07
480.682	6740.15
481.053	6849.52
481.424	6987.15
481.795	7024.43
482.166	7187.82
482.537	7249.51
482.908	7410.86
483.279	7480.69
483.65	7649.28
484.021	7752.32
484.391	7929.27
484.762	7926.33
485.133	7994.35
485.503	8134.91
485.874	8371.74
486.244	8393.44
486.615	8516.82
486.985	8687.22
487.356	8845.63
487.726	8907.77
488.097	9083.14
488.467	9096.47
488.837	9267.09
489.207	9451.71
489.578	9603.8
489.948	9591.37
490.318	9822.1
490.688	9768.77
491.058	9920.85
491.428	10147.74
491.798	10200.85
492.168	10379.37
492.538	10393.38
492.908	10591.57
493.278	10717.44
493.648	10708.18
494.017	10920.83
494.387	10946.82
494.757	11054.38
495.126	11285.34
495.496	11275.17
495.866	11354.49
496.235	11515.84
496.605	11549.29
496.974	11651.43
497.344	11821.14
497.713	11863.18
498.082	11970.29
498.452	12095.49
498.821	12168.48
499.19	12196.5
499.559	12295.71
499.928	12445.53
500.298	12492.31
500.667	12662.7
501.036	12613.44
501.405	12721.23
501.774	12764.85
502.143	12969.59
502.512	12980.44
502.88	13120.77
503.249	13197.83
503.618	13228.56
503.987	13312.4
504.356	13444.38
504.724	13516.47
505.093	13646.41
505.462	13672.85
505.83	13732.51
506.199	13877.59
506.567	14054.98
506.936	14015.44
507.304	14249.55
507.672	14373.17
508.041	14413.84
508.409	14479.61
508.777	14656.55
509.145	14732.71
509.514	14743.1
509.882	14920.5
510.25	14979.25
510.618	15069.42
510.986	15217.66
511.354	15383.31
511.722	15414.04
512.09	15506.24
512.458	15612.68
512.826	15746.24
513.193	15815.39
513.561	15884.77
513.929	16115.04
514.297	16211.54
514.664	16361.59
515.032	16402.49
515.4	16576.95
515.767	16587.35
516.135	16790.05
516.502	16724.74
516.869	17085.86
517.237	17063.49
517.604	17088.58
517.972	17397.72
518.339	17486.08
518.706	17514.33
519.073	17617.15
519.44	17760.2
519.808	18101.2
520.175	18087.19
520.542	18191.6
520.909	18350.92
521.276	18392.04
521.643	18633.85
522.009	18775.31
522.376	18882.65
522.743	19025.7
523.11	19186.15
523.477	19420.49
523.843	19506.82
524.21	19810.09
524.577	19863.19
524.943	19930.99
525.31	20080.14
525.676	20273.58
526.043	20462.95
526.409	20580.46
526.776	20766.22
527.142	20874.47
527.508	20904.75
527.874	21225.64
528.241	21313.55
528.607	21321.46
528.973	21481.45
529.339	21564.16
529.705	21801.9
530.071	21991.05
530.437	22044.15
530.803	22244.6
531.169	22331.83
531.535	22325.05
531.901	22443.69
532.267	22608.66
532.632	22731.59
532.998	22849.55
533.364	23016.33
533.73	23163.9
534.095	23230.34
534.461	23238.92
534.826	23449.99
535.192	23524.34
535.557	23686.59
535.923	23753.94
536.288	23783.32
536.653	24010.88
537.019	23880.26
537.384	24063.53
537.749	24131.1
538.114	24336.52
538.479	24367.48
538.845	24427.82
539.21	24507.59
539.575	24689.96
539.94	24737.87
540.305	24817.86
540.67	24848.6
541.034	25052.21
541.399	25136.27
541.764	25270.28
542.129	25311.41
542.494	25295.59
542.858	25423.27
543.223	25400
543.587	25644.96
543.952	25680.21
544.316	25763.15
544.681	25807.67
545.045	25961.34
545.41	26107.1
545.774	26103.93
546.138	26281.78
546.503	26260.09
546.867	26331.95
547.231	26480.65
547.595	26633.41
547.959	26702.79
548.324	26717.02
548.688	26888.54
549.052	26953.4
549.416	26939.84
549.779	27050.35
550.143	27224.13
550.507	27360.17
550.871	27483.56
551.235	27373.96
551.599	27633.38
551.962	27690.11
552.326	27724.91
552.689	27995.86
553.053	27844.45
553.417	27844.9
553.78	28363.99
554.143	28027.05
554.507	28262.75
554.87	28434.94
555.234	28740.25
555.597	28604.66
555.96	28693.92
556.323	28844.2
556.686	28893.24
557.05	29111.08
557.413	29273.57
557.776	29305.66
558.139	29456.61
558.502	29538.42
558.865	29612.77
559.228	29873.1
559.59	29922.81
559.953	30111.51
560.316	30368.45
560.679	30316.7
561.041	30505.4
561.404	30644.15
561.767	30795.56
562.129	30802.11
562.492	31216.79
562.854	31034.88
563.217	31283.01
563.579	31360.97
563.941	31558.25
564.304	31506.28
564.666	31779.04
565.028	31872.37
565.39	31873.27
565.753	32160.04
566.115	32214.28
566.477	32286.37
566.839	32427.61
567.201	32623.76
567.563	32619.24
567.925	32984.43
568.287	32802.06
568.648	33042.28
569.01	33237.98
569.372	33412.21
569.734	33198.66
570.095	33532.66
570.457	33662.15
570.819	33781.24
571.18	33724.97
571.542	33973.56
571.903	34099.65
572.265	34111.41
572.626	34236.15
572.987	34214
573.349	34297.62
573.71	34531.28
574.071	34453.77
574.432	34715.23
574.794	34881.55
575.155	34769.92
575.516	34649.02
575.877	34930.82
576.238	34913.42
576.599	35085.39
576.96	35051.49
577.32	35244.93
577.681	35410.35
578.042	35253.52
578.403	35478.15
578.763	35360.19
579.124	35378.49
579.485	35567.19
579.845	35821.42
580.206	35482.67
580.566	35554.53
580.927	35580.75
581.287	35696.45
581.648	35660.74
582.008	35904.58
582.368	35755.66
582.728	35843.79
583.089	35783
583.449	35723.34
583.809	35851.02
584.169	35922.21
584.529	35754.53
584.889	36052.15
585.249	35766.73
585.609	35714.53
585.969	35980.28
586.329	35820.74
586.688	35879.49
587.048	35936.67
587.408	35820.29
587.768	35820.06
588.127	35894.18
588.487	35727.18
588.846	36101.18
589.206	35745.26
589.565	35876.78
589.925	35997.68
590.284	35966.27
590.643	35847.4
591.003	36048.98
591.362	36014.41
591.721	35980.73
592.08	35950.9
592.44	36035.87
592.799	36131.69
593.158	36039.04
593.517	35988.19
593.876	36034.97
594.235	35923.56
594.593	35971.7
594.952	35943.9
595.311	35856.44
595.67	35978.25
596.029	36241.97
596.387	36110
596.746	36272.25
597.104	36104.35
597.463	36154.29
597.822	36208.07
598.18	36091.47
598.538	36148.87
598.897	36233.16
599.255	36056.44
599.613	36448.97
599.972	36294.4
600.33	36247.62
600.688	36144.35
601.046	36359.93
601.404	36400.84
601.762	36374.85
602.12	36567.16
602.478	36331.69
602.836	36578.01
603.194	36178.02
603.552	36253.04
603.91	36119.71
604.268	36432.7
604.625	36300.05
604.983	36392.7
605.341	36195.42
605.698	36486.94
606.056	36484.45
606.413	36427.73
606.771	36695.97
607.128	36596.54
607.485	36550.66
607.843	36547.27
608.2	36668.63
608.557	36679.02
608.914	36616.65
609.272	36776.65
609.629	36888.28
609.986	37065.68
610.343	36848.06
610.7	37079.69
611.057	37002.63
611.414	36911.33
611.771	37018.45
612.127	37106.81
612.484	36992.69
612.841	37206.01
613.198	37164.43
613.554	37172.79
613.911	37309.97
614.267	37324.88
614.624	37455.72
614.98	37410.75
615.337	37603.74
615.693	37504.31
616.05	37483.75
616.406	37688.26
616.762	37643.74
617.118	37560.81
617.475	37601.94
617.831	37618.88
618.187	37665.21
618.543	37798.77
618.899	37960.12
619.255	37835.6
619.611	37871.98
619.967	37990.4
620.323	37952.21
620.678	37917.41
621.034	37836.28
621.39	38009.38
621.746	37785.43
622.101	38134.8
622.457	38014.13
622.812	37999.66
623.168	38001.47
623.523	37994.47
623.879	38136.38
624.234	37920.57
624.589	38116.05
624.945	38030.62
625.3	38202.6
625.655	38026.78
626.01	38156.5
626.365	38118.76
626.72	38081.92
627.075	38034.47
627.43	37943.62
627.785	37886.22
628.14	38098.65
628.495	38020.23
628.85	37892.1
629.205	37836.28
629.559	37885.77
629.914	37800.12
630.269	37805.55
630.623	37701.37
630.978	37638.09
631.332	37891.42
631.687	38051.41
632.041	37603.29
632.396	37768.71
632.75	37606
633.104	37630.41
633.459	37457.98
633.813	37418.66
634.167	37523.07
634.521	37385.44
634.875	37546.34
635.229	37342.73
635.583	37317.2
635.937	37349.74
636.291	37152
636.645	37200.14
636.999	37035.85
637.352	37231.1
637.706	36895.29
638.06	37161.27
638.413	37070.88
638.767	36836.53
639.121	36996.75
639.474	36733.48
639.828	36791.56
640.181	36766.48
640.534	36675.18
640.888	36499.14
641.241	36541.85
641.594	36587.05
641.947	36615.97
642.301	36410.78
642.654	36503.43
643.007	36492.81
643.36	36439.03
643.713	36323.32
644.066	36419.59
644.419	36317.9
644.771	36035.2
645.124	35669.78
645.477	35434.08
645.83	35242.9
646.182	35151.6
646.535	35101.21
646.888	35105.73
647.24	35049.46
647.593	35086.07
647.945	35084.71
648.298	34760.43
648.65	34939.41
649.002	34829.13
649.355	34941.67
649.707	34832.52
650.059	34897.37
650.411	35368.32
650.763	35287.65
651.115	35832.72
651.467	35618.48
651.819	35619.61
652.171	35589.33
652.523	35378.04
652.875	35446.96
653.227	35423.24
653.578	35546.85
653.93	35646.96
654.282	35305.27
654.633	35264.14
654.985	35211.49
655.337	35270.47
655.688	35060.76
656.039	35368.1
656.391	34957.71
656.742	34974.43
657.094	35053.3
657.445	35163.81
657.796	35050.59
658.147	35128.78
658.498	34968.78
658.849	35122.23
659.2	34943.25
659.551	34782.35
659.902	34875.91
660.253	34783.48
660.604	34805.62
660.955	34625.97
661.306	34768.34
661.656	34645.85
662.007	34595.01
662.358	34584.84
662.708	34395.92
663.059	34524.05
663.409	34250.16
663.76	34437.05
664.11	34408.35
664.461	34537.16
664.811	34370.61
665.161	34244.74
665.511	34238.63
665.862	34096.94
666.212	34152.31
666.562	34068.24
666.912	34033.89
667.262	33927.23
667.612	33745.77
667.962	33785.31
668.312	33558.88
668.662	33801.36
669.011	33589.61
669.361	33538.09
669.711	33499.22
670.06	33383.29
670.41	33195.27
670.76	32986.01
671.109	33146.23
671.459	33113.01
671.808	33089.06
672.157	33030.76
672.507	32739.69
672.856	32789.86
673.205	32671.22
673.554	32823.08
673.904	32699.69
674.253	32675.96
674.602	32618.34
674.951	32134.96
675.3	31983.78
675.649	32327.5
675.998	32478.45
676.346	32439.58
676.695	32478.45
677.044	32190.55
677.393	32357.55
677.741	32228.29
678.09	32126.15
678.438	32037.11
678.787	32188.07
679.135	32239.36
679.484	32024.23
679.832	32219.25
680.181	32022.42
680.529	32061.74
680.877	31887.06
681.225	31932.71
681.573	32195.75
681.922	31980.16
682.27	31878.24
682.618	32089.99
682.966	31948.52
683.314	32096.32
683.661	32029.2
684.009	31934.51
684.357	31803.22
684.705	31744.01
685.053	31860.84
685.4	31831.47
685.748	31670.11
686.095	31706.5
686.443	31718.25
686.79	31671.92
687.138	31741.07
687.485	31761.18
687.832	31859.71
688.18	31739.94
688.527	31795.53
688.874	31772.26
689.221	31671.02
689.568	31701.07
689.915	31561.19
690.262	31631.47
690.609	31507.18
690.956	31497.01
691.303	31455.43
691.65	31430.35
691.997	31329.78
692.344	31266.73
692.69	31272.61
693.037	31368.2
693.383	31066.74
693.73	31185.15
694.077	31028.77
694.423	31091.37
694.769	31065.38
695.116	30957.14
695.462	30921.21
695.808	30820.87
696.155	31108.55
696.501	30736.35
696.847	30826.29
697.193	30516.92
697.539	30806.18
697.885	30545.17
698.231	30477.15
698.577	30488
698.923	30360.32
699.269	30304.95
699.614	30025.64
699.96	30036.71
700.306	30122.81
700.651	29929.82
700.997	29802.14
701.342	29705.42
701.688	29800.56
702.033	29672.43
702.379	29661.8
702.724	29472.21
703.069	29606.89
703.415	29258.2
703.76	29330.97
704.105	29371.64
704.45	29196.28
704.795	29104.53
705.14	28976.4
705.485	29077.41
705.83	28944.54
706.175	28941.37
706.52	28799.91
706.865	28725.78
707.209	28858.21
707.554	28615.5
707.899	28654.83
708.243	28455.96
708.588	28376.87
708.932	28177.32
709.277	28290.09
709.621	28229.07
709.966	28042.19
710.31	28188.17
710.654	27824.11
710.998	28065.91
711.342	27981.62
711.687	27935.52
712.031	27766.71
712.375	27745.02
712.719	27578.02
713.063	27622.54
713.407	27861.17
713.75	27541.86
714.094	27498.25
714.438	27379.38
714.782	27432.26
715.125	27299.38
715.469	27412.37
715.812	27202.66
716.156	27079.27
716.499	27039.27
716.843	27161.53
717.186	26827.98
717.53	27067.07
717.873	26992.27
718.216	26963.12
718.559	26854.42
718.902	26667.53
719.246	26745.5
719.589	26563.58
719.932	26678.61
720.275	26595.22
720.617	26545.05
720.96	26468.22
721.303	26517.93
721.646	26468.22
721.989	26227.77
722.331	26339.63
722.674	26244.04
723.016	26288.33
723.359	26159.52
723.701	26238.17
724.044	26018.74
724.386	25967.89
724.729	25985.07
725.071	25905.29
725.413	25898.06
725.755	25843.15
726.097	25797.73
726.439	25714.56
726.782	25752.53
727.124	25737.61
727.465	25625.07
727.807	25684.73
728.149	25535.36
728.491	25475.93
728.833	25482.48
729.175	25364.52
729.516	25280
729.858	25339.43
730.199	25354.12
730.541	25280.9
730.882	25281.58
731.224	25377.62
731.565	25122.49
731.906	25196.39
732.248	25099.21
732.589	24910.74
732.93	24909.16
733.271	24968.59
733.612	24877.75
733.953	24931.08
734.294	24887.47
734.635	24847.92
734.976	24865.55
735.317	24614.25
735.658	24623.97
735.999	24572.22
736.339	24640.24
736.68	24588.94
737.021	24534.48
737.361	24387.14
737.702	24577.19
738.042	24422.62
738.383	24377.88
738.723	24457.87
739.063	24396.63
739.404	24282.29
739.744	24263.98
740.084	24254.72
740.424	24225.34
740.764	24176.3
741.104	24286.13
741.444	24113.25
741.784	23994.38
742.124	24115.74
742.464	24009.07
742.804	24007.94
743.143	23805.01
743.483	23873.93
743.823	23827.61
744.162	23832.13
744.502	23822.64
744.841	23603.66
745.181	23738.8
745.52	23574.96
745.86	23660.83
746.199	23584.22
746.538	23504.9
746.877	23423.55
747.216	23373.61
747.556	23524.57
747.895	23371.35
748.234	23391.24
748.573	23344
748.911	23322.54
749.25	23217
749.589	23078.93
749.928	23145.59
750.267	23189.21
750.605	23122.54
750.944	23024.69
751.283	22974.52
751.621	22935.2
751.96	22878.48
752.298	22768.2
752.636	22841.87
752.975	22621.54
753.313	22545.38
753.651	22733.17
753.989	22560.07
754.327	22401.88
754.666	22386.06
755.004	22429.68
755.342	22400.3
755.679	22331.83
756.017	22308.1
756.355	22207.09
756.693	22068.11
757.031	22101.1
757.368	22007.54
757.706	22005.73
758.044	21921.22
758.381	21908.11
758.719	21726.65
759.056	21841.22
759.394	21708.34
759.731	21680.32
760.068	21644.61
760.405	21534.79
760.743	21366.43
761.08	21437.61
761.417	21307.67
761.754	21291.63
762.091	21237.62
762.428	21132.09
762.765	21009.6
763.102	21067.23
763.438	20925.76
763.775	20898.42
764.112	20758.76
764.449	20820.91
764.785	20604.64
765.122	20523.06
765.458	20492.78
765.795	20563.74
766.131	20490.75
766.467	20376.63
766.804	20266.8
767.14	20203.75
767.476	20136.63
767.812	20148.38
768.148	20004.88
768.485	19973.02
768.821	19861.61
769.157	19847.6
769.492	19803.76
769.828	19742.74
770.164	19486.25
770.5	19523.31
770.836	19497.78
771.171	19388.18
771.507	19401.51
771.842	19233.6
772.178	19247.62
772.513	19269.08
772.849	19142.76
773.184	19050.78
773.519	18967.17
773.855	18925.36
774.19	18929.88
774.525	18755.42
774.86	18732.37
775.195	18695.77
775.53	18510.01
775.865	18567.41
776.2	18414.42
776.535	18194.54
776.87	18320.86
777.205	18117.25
777.539	18169
777.874	18084.48
778.209	17936.46
778.543	18017.37
778.878	17841.32
779.212	17822.79
779.547	17688.33
779.881	17679.3
780.215	17538.28
780.55	17635.68
780.884	17466.87
781.218	17478.62
781.552	17403.37
781.886	17342.35
782.22	17297.84
782.554	17200.21
782.888	17157.73
783.222	17028.46
783.556	17009.26
783.889	16910.95
784.223	16869.6
784.557	16809.49
784.89	16738.53
785.224	16698.08
785.557	16602.26
785.891	16541.02
786.224	16558.87
786.558	16419.89
786.891	16353.68
787.224	16195.72
787.557	16266.22
787.891	16230.97
788.224	16139
788.557	16198.2
788.89	16106.46
789.223	16067.36
789.556	16026.46
789.888	16025.78
790.221	15844.54
790.554	15699.23
790.887	15775.39
791.219	15659.91
791.552	15543.08
791.884	15506.7
792.217	15542.18
792.549	15453.59
792.882	15299.47
793.214	15243.65
793.546	15234.16
793.879	15178.34
794.211	15078.01
794.543	15171.11
794.875	15080.49
795.207	15101.96
795.539	15027.39
795.871	14937.9
796.203	14847.96
796.535	14833.04
796.867	14769.99
797.198	14685.25
797.53	14735.64
797.862	14570.22
798.193	14604.57
798.525	14461.53
798.856	14470.11
799.188	14395.54
799.519	14308.76
799.85	14207.3
800.182	14230.12
800.513	14325.03
800.844	14085.04
801.175	14210.46
801.506	14098.15
801.837	14036.68
802.168	14041.2
802.499	14016.57
802.83	13874.65
803.161	13918.26
803.491	13895.44
803.822	13858.83
804.153	13699.51
804.483	13679.4
804.814	13655.67
805.145	13567.31
805.475	13538.61
805.805	13567.09
806.136	13451.84
806.466	13529.57
806.796	13475.56
807.126	13424.27
807.457	13428.11
807.787	13324.16
808.117	13256.13
808.447	13234.89
808.777	13208
809.107	13182.69
809.436	13141.34
809.766	13143.14
810.096	13059.08
810.426	13080.09
810.755	13088.23
811.085	12973.88
811.414	12911.96
811.744	12862.25
812.073	12875.13
812.403	12760.78
812.732	12758.52
813.061	12743.38
813.39	12713.78
813.719	12693.66
814.049	12669.94
814.378	12641.69
814.707	12593.1
815.036	12646.66
815.365	12436.04
815.693	12452.09
816.022	12379.55
816.351	12325.54
816.68	12320.34
817.008	12308.81
817.337	12237.4
817.665	12249.61
817.994	12280.34
818.322	12284.41
818.651	12125.54
818.979	12188.82
819.307	12217.52
819.636	12131.19
819.964	12019.56
820.292	12034.92
820.62	12049.16
820.948	12032.66
821.276	12111.76
821.604	11978.43
821.932	12083.74
822.259	12026.34
822.587	11946.56
822.915	11945.21
823.243	11984.08
823.57	11946.79
823.898	11967.58
824.225	11954.02
824.553	11906.79
824.88	11975.72
825.207	11963.29
825.535	11960.12
825.862	11946.34
826.189	11963.06
826.516	11998.09
826.843	12005.09
827.17	11959.9
827.497	11984.98
827.824	11964.87
828.151	11973.68
828.478	11928.94
828.805	11949.5
829.131	11913.12
829.458	11926.23
829.785	11840.58
830.111	11830.18
830.438	11998.77
830.764	11896.17
831.09	11846.45
831.417	11812.1
831.743	11816.62
832.069	11840.35
832.395	11774.59
832.722	11840.35
833.048	11741.82
833.374	11815.72
833.7	11754.03
834.026	11735.95
834.351	11774.37
834.677	11716.51
835.003	11770.3
835.329	11776.85
835.654	11721.49
835.98	11683.07
836.306	11720.58
836.631	11687.14
836.956	11624.76
837.282	11661.6
837.607	11604.65
837.932	11564.65
838.258	11568.72
838.583	11517.2
838.908	11486.46
839.233	11610.98
839.558	11431.78
839.883	11421.15
840.208	11444.88
840.533	11437.2
840.858	11343.64
841.182	11419.12
841.507	11485.79
841.832	11321.95
842.156	11307.03
842.481	11328.05
842.805	11307.94
843.13	11164.66
843.454	11195.17
843.778	11204.44
844.103	11164.21
844.427	11127.38
844.751	11141.84
845.075	11035.85
845.399	11007.61
845.723	10961.05
846.047	10986.14
846.371	10914.95
846.695	10852.81
847.019	10754.51
847.343	10792.02
847.666	10695.98
847.99	10671.8
848.313	10649.42
848.637	10543.44
848.96	10593.38
849.284	10560.84
849.607	10474.96
849.931	10473.16
850.254	10389.09
850.577	10330.79
850.9	10328.08
851.223	10314.97
851.546	10232.71
851.869	10166.95
852.192	10161.75
852.515	10093.51
852.838	10110.23
853.161	10112.49
853.483	10002.21
853.806	9999.72
854.129	9965.37
854.451	9968.31
854.774	9842.21
855.096	9842.21
855.419	9819.84
855.741	9836.11
856.063	9755.21
856.385	9748.66
856.708	9642.67
857.03	9689.9
857.352	9683.12
857.674	9632.5
857.996	9552.5
858.318	9559.28
858.64	9538.94
858.961	9514.31
859.283	9437.25
859.605	9420.53
859.926	9423.01
860.248	9422.34
860.57	9345.5
860.891	9383.69
861.212	9304.6
861.534	9263.7
861.855	9286.97
862.176	9272.96
862.498	9253.98
862.819	9256.69
863.14	9225.05
863.461	9199.29
863.782	9112.29
864.103	9177.6
864.424	9216.69
864.745	9128.79
865.065	9173.3
865.386	9067.54
865.707	9057.15
866.027	9156.36
866.348	9060.76
866.668	9010.6
866.989	8973.99
867.309	8879.53
867.63	9025.06
867.95	8971.73
868.27	8922.24
868.59	8911.62
868.91	8910.71
869.23	8870.94
869.55	8845.4
869.87	8902.12
870.19	8870.49
870.51	8829.36
870.83	8897.38
871.15	8819.87
871.469	8821.45
871.789	8764.05
872.109	8776.7
872.428	8771.96
872.748	8754.11
873.067	8734.67
873.386	8677.5
873.706	8681.57
874.025	8640.21
874.344	8632.3
874.663	8623.26
874.982	8643.6
875.301	8642.02
875.62	8639.08
875.939	8548.69
876.258	8582.81
876.577	8544.85
876.896	8520.67
877.214	8470.5
877.533	8498.75
877.852	8465.3
878.17	8484.06
878.489	8495.58
878.807	8423.49
879.125	8454.45
879.444	8471.63
879.762	8398.18
880.08	8351.63
880.398	8464.62
880.716	8404.74
881.034	8332.65
881.352	8351.18
881.67	8282.93
881.988	8297.17
882.306	8275.93
882.624	8199.77
882.941	8267.57
883.259	8188.47
883.577	8158.42
883.894	8080
884.212	8201.8
884.529	8135.59
884.846	8106.44
885.164	8155.48
885.481	8067.34
885.798	8065.76
886.115	8006.1
886.432	8042.94
886.75	7964.3
887.067	8013.79
887.383	7961.81
887.7	7993.9
888.017	7939.44
888.334	7946.67
888.651	7858.76
888.967	7843.85
889.284	7827.12
889.6	7809.27
889.917	7793.23
890.233	7724.53
890.55	7773.79
890.866	7730.63
891.182	7756.17
891.498	7711.42
891.815	7686.56
892.131	7604.31
892.447	7554.82
892.763	7494.7
893.079	7541.93
893.395	7494.25
893.71	7506.68
894.026	7495.16
894.342	7503.52
894.657	7396.85
894.973	7376.06
895.289	7365.22
895.604	7368.61
895.92	7333.58
896.235	7295.61
896.55	7343.97
896.865	7263.3
897.181	7230.3
897.496	7244.54
897.811	7261.72
898.126	7173.81
898.441	7150.76
898.756	7146.92
899.071	7089.29
899.386	7113.92
899.7	7030.31
900.015	6983.08
900.33	6938.33
900.644	6990.99
900.959	6981.5
901.273	6965.68
901.588	6918
901.902	6954.38
902.216	6868.73
902.531	6883.42
902.845	6844.33
903.159	6767.04
903.473	6773.59
903.787	6717.55
904.101	6662.86
904.415	6670.77
904.729	6648.4
905.042	6610.21
905.356	6592.81
905.67	6623.77
905.984	6530.21
906.297	6510.55
906.611	6489.53
906.924	6509.42
907.237	6438.23
907.551	6438.91
907.864	6372.25
908.177	6360.04
908.491	6365.02
908.804	6332.7
909.117	6281.85
909.43	6271.01
909.743	6231.23
910.056	6229.2
910.368	6194.4
910.681	6181.52
910.994	6140.84
911.307	6158.92
911.619	6088.64
911.932	6096.55
912.244	6049.09
912.557	6049.54
912.869	5976.55
913.181	6036.21
913.494	6014.97
913.806	5932.71
914.118	5929.55
914.43	5898.36
914.742	5900.85
915.054	5796.67
915.366	5889.55
915.678	5863.33
915.99	5774.07
916.302	5734.3
916.613	5766.16
916.925	5691.14
917.236	5706.95
917.548	5685.49
917.859	5642.32
918.171	5643.68
918.482	5598.03
918.794	5551.25
919.105	5595.09
919.416	5504.02
919.727	5486.85
920.038	5482.33
920.349	5470.58
920.66	5465.38
920.971	5414.76
921.282	5435.1
921.593	5326.4
921.903	5318.94
922.214	5316
922.525	5313.97
922.835	5240.3
923.146	5212.05
923.456	5196.46
923.767	5250.02
924.077	5179.51
924.387	5202.56
924.697	5171.15
925.008	5167.08
925.318	5052.96
925.628	5114.88
925.938	5090.93
926.248	5010.25
926.558	5036.24
926.867	5019.06
927.177	4963.7
927.487	4933.19
927.796	4897.94
928.106	4932.74
928.416	4884.38
928.725	4895.9
929.034	4838.73
929.344	4835.11
929.653	4833.53
929.962	4809.58
930.271	4773.42
930.581	4727.09
930.89	4728.22
931.199	4695.46
931.508	4646.19
931.817	4671.05
932.125	4694.78
932.434	4642.12
932.743	4592.41
933.051	4577.04
933.36	4520.77
933.669	4492.75
933.977	4476.03
934.286	4523.93
934.594	4493.65
934.902	4496.59
935.21	4453.88
935.519	4455.91
935.827	4445.74
936.135	4353.54
936.443	4357.16
936.751	4370.49
937.059	4306.31
937.367	4356.48
937.674	4328.23
937.982	4348.35
938.29	4292.98
938.597	4298.18
938.905	4179.31
939.213	4233.77
939.52	4212.53
939.827	4222.25
940.135	4189.25
940.442	4166.66
940.749	4148.58
941.056	4149.71
941.363	4114.45
941.67	4064.96
941.977	4035.81
942.284	4070.84
942.591	4063.16
942.898	4025.42
943.205	4012.99
943.511	3951.97
943.818	3952.42
944.125	3917.17
944.431	3919.43
944.738	3880.34
945.044	3927.11
945.35	3922.14
945.657	3869.94
945.963	3828.81
946.269	3823.61
946.575	3808.47
946.881	3768.93
947.187	3769.38
947.493	3741.58
947.799	3757.18
948.105	3708.81
948.41	3705.88
948.716	3685.09
949.022	3683.96
949.327	3656.16
949.633	3587.91
949.938	3629.49
950.244	3592.43
950.549	3590.4
950.854	3575.71
951.16	3557.63
951.465	3530.29
951.77	3544.07
952.075	3501.59
952.38	3534.13
952.685	3506.33
952.99	3489.84
953.294	3473.11
953.599	3437.18
953.904	3450.06
954.209	3425.66
954.513	3429.27
954.818	3393.12
955.122	3362.38
955.426	3389.73
955.731	3354.7
956.035	3313.12
956.339	3323.51
956.643	3289.84
956.948	3267.02
957.252	3266.79
957.556	3263.4
957.86	3199.22
958.163	3217.75
958.467	3223.63
958.771	3212.33
959.075	3168.72
959.378	3138.89
959.682	3147.7
959.985	3153.58
960.289	3135.5
960.592	3139.56
960.896	3107.47
961.199	3079.23
961.502	3103.86
961.805	3068.61
962.108	3058.89
962.411	3055.05
962.714	3025.22
963.017	2989.74
963.32	2984.31
963.623	2997.2
963.926	2970.3
964.228	2939.12
964.531	2942.51
964.833	2939.12
965.136	2910.87
965.438	2924.43
965.741	2885.79
966.043	2889.85
966.345	2846.69
966.648	2859.12
966.95	2885.79
967.252	2827.26
967.554	2795.62
967.856	2818.44
968.158	2803.75
968.46	2803.3
968.761	2796.97
969.063	2754.04
969.365	2788.39
969.666	2765.79
969.968	2714.94
970.269	2702.51
970.571	2704.77
970.872	2682.63
971.174	2636.98
971.475	2703.42
971.776	2699.12
972.077	2646.92
972.378	2658.22
972.679	2632.69
972.98	2608.05
973.281	2594.95
973.582	2587.71
973.883	2582.74
974.183	2609.63
974.484	2596.3
974.785	2556.08
975.085	2555.17
975.386	2531.44
975.686	2513.14
975.986	2489.19
976.287	2491.45
976.587	2489.41
976.887	2483.31
977.187	2444.89
977.487	2483.08
977.787	2446.25
978.087	2442.18
978.387	2413.93
978.687	2406.48
978.987	2409.64
979.286	2382.07
979.586	2395.63
979.885	2355.86
980.185	2344.78
980.484	2357.21
980.784	2338.46
981.083	2328.29
981.382	2331.9
981.682	2304.11
981.981	2297.33
982.28	2288.06
982.579	2274.5
982.878	2269.3
983.177	2243.54
983.475	2270.89
983.774	2206.71
984.073	2213.94
984.372	2199.93
984.67	2237.89
984.969	2218.01
985.267	2188.63
985.566	2205.8
985.864	2140.95
986.162	2157.44
986.461	2140.27
986.759	2158.57
987.057	2143.88
987.355	2112.02
987.653	2123.32
987.951	2116.77
988.249	2078.8
988.547	2067.73
988.844	2055.75
989.142	2067.28
989.44	2048.07
989.737	2046.03
990.035	2043.55
990.332	2033.83
990.63	2029.31
990.927	1992.93
991.224	2006.94
991.521	1986.15
991.819	1973.95
992.116	1969.43
992.413	1994.96
992.71	1939.6
993.006	1953.61
993.303	1965.36
993.6	1943.66
993.897	1899.6
994.193	1932.82
994.49	1916.09
994.787	1909.54
995.083	1866.83
995.379	1873.16
995.676	1859.37
995.972	1877.45
996.268	1861.18
996.565	1829.54
996.861	1855.3
997.157	1827.06
997.453	1792.71
997.749	1796.1
998.044	1805.14
998.34	1798.13
998.636	1805.81
998.932	1759.04
999.227	1768.75
999.523	1757.91
999.818	1735.08
1000.114	1739.83
1000.409	1743.22
1000.704	1709.09
1001	1726.27
1001.295	1723.1
1001.59	1719.94
1001.885	1681.52
1002.18	1662.99
1002.475	1660.96
1002.77	1677.23
1003.065	1665.25
1003.359	1640.39
1003.654	1635.65
1003.949	1622.99
1004.243	1630
1004.538	1606.27
1004.832	1613.73
1005.127	1598.59
1005.421	1575.76
1005.715	1576.67
1006.009	1576.22
1006.304	1549.55
1006.598	1544.13
1006.892	1543.9
1007.186	1547.52
1007.48	1519.72
1007.773	1534.86
1008.067	1513.84
1008.361	1504.35
1008.655	1485.82
1008.948	1469.78
1009.242	1446.73
1009.535	1475.88
1009.829	1451.7
1010.122	1459.61
1010.415	1441.76
1010.708	1459.16
1011.001	1430.68
1011.295	1431.81
1011.588	1389.33
1011.881	1379.38
1012.173	1382.77
1012.466	1396.56
1012.759	1405.82
1013.052	1371.48
1013.344	1354.07
1013.637	1339.61
1013.93	1335.77
1014.222	1356.11
1014.514	1333.74
1014.807	1355.66
1015.099	1346.84
1015.391	1308.43
1015.683	1275.88
1015.976	1315.88
1016.268	1289.67
1016.56	1296.67
1016.851	1303.91
1017.143	1265.94
1017.435	1280.63
1017.727	1258.94
1018.018	1236.56
1018.31	1220.29
1018.602	1229.33
1018.893	1238.6
1019.185	1207.64
1019.476	1192.95
1019.767	1179.84
1020.058	1203.12
1020.35	1183.91
1020.641	1195.89
1020.932	1191.59
1021.223	1168.54
1021.514	1143.01
1021.804	1169.9
1022.095	1159.28
1022.386	1143.91
1022.677	1109.56
1022.967	1121.54
1023.258	1115.44
1023.548	1116.34
1023.839	1131.26
1024.129	1112.27
1024.419	1092.61
1024.709	1096.45
1025	1074.31
1025.29	1068.88
1025.58	1031.6
1025.87	1068.43
1026.16	1015.78
1026.449	1051.48
1026.739	1055.55
1027.029	1035.89
1027.319	1007.87
1027.608	1028.43
1027.898	1029.79
1028.187	1004.03
1028.477	977.14
1028.766	973.29
1029.055	989.79
1029.344	967.19
1029.634	976.91
1029.923	981.43
1030.212	983.46
1030.501	955.21
1030.79	947.31
1031.078	932.62
1031.367	925.84
1031.656	943.69
1031.945	919.74
1032.233	919.06
1032.522	913.41
1032.81	909.11
1033.099	890.81
1033.387	904.82
1033.675	920.64
1033.963	879.74
1034.251	879.06
1034.54	874.09
1034.828	885.84
1035.116	871.6
1035.403	865.95
1035.691	857.59
1035.979	848.1
1036.267	852.39
1036.554	836.8
1036.842	830.92
1037.129	823.92
1037.417	846.52
1037.704	850.81
1037.992	820.53
1038.279	810.81
1038.566	825.95
1038.853	825.95
1039.14	825.95
