Data from whiteboard_FLMS001491_00046.txt Node
Date: Wed Feb 08 11:26:40 GMT 2017
User: dcchb
Spectrometer: FLMS00149
Trigger mode: 0
Integration Time (sec): 2.000000E-2
Scans to average: 10
Electric dark correction enabled: true
Nonlinearity correction enabled: false
Boxcar width: 0
XAxis mode: Wavelengths
Number of Pixels in Spectrum: 2048
>>>>>Begin Spectral Data<<<<<
341.393	-22.23
341.776	-22.23
342.16	-22.23
342.543	-74.66
342.927	-67.88
343.31	-58.39
343.693	-75.56
344.077	-62.91
344.46	-58.39
344.843	-57.94
345.226	-51.61
345.61	-17.94
345.993	-14.55
346.376	3.3
346.759	2.63
347.142	39.01
347.525	41.04
347.908	63.42
348.291	59.8
348.674	86.24
349.057	101.83
349.44	125.11
349.823	151.78
350.206	173.47
350.588	216.63
350.971	245.56
351.354	249.4
351.737	256.41
352.119	270.42
352.502	274.94
352.884	306.57
353.267	306.57
353.65	322.39
354.032	318.1
354.414	353.13
354.797	348.38
355.179	358.78
355.562	392.22
355.944	369.62
356.326	364.2
356.709	354.93
357.091	376.18
357.473	387.02
357.855	380.92
358.238	363.07
358.62	378.21
359.002	391.32
359.384	382.73
359.766	373.92
360.148	359.45
360.53	366.69
360.912	379.57
361.294	381.6
361.676	359.91
362.057	366.69
362.439	360.58
362.821	379.79
363.203	387.25
363.584	375.27
363.966	350.19
364.348	371.66
364.729	381.6
365.111	358.32
365.493	381.37
365.874	386.35
366.256	372.79
366.637	365.33
367.019	370.08
367.4	370.75
367.781	375.95
368.163	377.31
368.544	384.09
368.925	372.79
369.306	369.62
369.688	397.87
370.069	385.67
370.45	379.57
370.831	355.61
371.212	391.54
371.593	370.53
371.974	384.99
372.355	389.06
372.736	390.41
373.117	371.2
373.498	403.29
373.879	380.47
374.26	382.73
374.641	391.09
375.021	382.73
375.402	381.6
375.783	403.97
376.163	438.77
376.544	406.91
376.925	417.53
377.305	417.31
377.686	394.71
378.066	399.9
378.447	403.07
378.827	398.32
379.208	408.94
379.588	416.85
379.968	404.2
380.349	438.1
380.729	437.87
381.109	424.99
381.489	431.54
381.87	442.39
382.25	447.59
382.63	445.1
383.01	457.08
383.39	442.62
383.77	448.27
384.15	444.65
384.53	459.79
384.91	475.16
385.29	489.62
385.67	480.81
386.049	477.42
386.429	480.58
386.809	523.74
387.189	499.11
387.568	494.14
387.948	501.15
388.328	485.1
388.707	537.75
389.087	551.31
389.466	541.6
389.846	546.34
390.225	553.35
390.605	558.32
390.984	556.96
391.363	560.35
391.743	577.75
392.122	589.5
392.501	598.77
392.881	607.13
393.26	599.22
393.639	622.27
394.018	611.88
394.397	614.81
394.776	656.4
395.155	642.38
395.534	660.01
395.913	627.92
396.292	684.87
396.671	686.68
397.05	690.97
397.429	659.56
397.808	710.18
398.186	704.3
398.565	736.17
398.944	723.29
399.323	740.23
399.701	717.64
400.08	763.51
400.458	789.27
400.837	773
401.215	792.44
401.594	816.62
401.972	829.05
402.351	848.71
402.729	858.2
403.107	873.11
403.486	882.15
403.864	901.36
404.242	905.43
404.62	909.5
404.999	965.09
405.377	949.49
405.755	980.91
406.133	994.47
406.511	957.63
406.889	994.69
407.267	1029.72
407.645	1049.38
408.023	1084.41
408.401	1092.09
408.779	1133.9
409.156	1161.92
409.534	1170.73
409.912	1205.31
410.29	1234.91
410.667	1240.56
411.045	1283.27
411.422	1283.95
411.8	1290.05
412.178	1322.82
412.555	1390.61
412.933	1400.56
413.31	1421.12
413.687	1439.88
414.065	1471.29
414.442	1458.18
414.819	1521.01
415.197	1546.09
415.574	1555.81
415.951	1560.78
416.328	1609.36
416.705	1617.73
417.082	1604.62
417.46	1644.62
417.837	1648.91
418.214	1677.39
418.591	1699.31
418.967	1731.85
419.344	1767.1
419.721	1793.31
420.098	1761.22
420.475	1811.39
420.852	1843.71
421.228	1874.67
421.605	1907.21
421.982	1915.12
422.358	1918.51
422.735	2008.22
423.111	1974.1
423.488	1997.6
423.864	2038.05
424.241	2066.98
424.617	2065.62
424.994	2132.97
425.37	2136.13
425.746	2164.6
426.123	2205.73
426.499	2232.85
426.875	2217.03
427.251	2307.2
427.627	2340.64
428.003	2362.56
428.379	2370.7
428.756	2411.83
429.132	2491.15
429.507	2498.61
429.883	2518.04
430.259	2594.88
430.635	2574.08
431.011	2659.73
431.387	2717.13
431.763	2700.18
432.138	2741.31
432.514	2776.34
432.89	2808.43
433.265	2865.15
433.641	2880.97
434.016	2923
434.392	2997.58
434.767	3034.19
435.143	3062.66
435.518	3085.94
435.894	3132.94
436.269	3182.43
436.644	3235.08
437.02	3253.62
437.395	3270.34
437.77	3313.5
438.145	3379.49
438.52	3464.68
438.895	3466.72
439.271	3491.35
439.646	3555.98
440.021	3582.42
440.395	3632.36
440.77	3608.63
441.145	3690.21
441.52	3739.7
441.895	3746.71
442.27	3776.99
442.645	3798.01
443.019	3865.8
443.394	3858.12
443.769	3871
444.143	3880.49
444.518	3992.8
444.892	3938.12
445.267	3992.8
445.641	4033.26
446.016	4059.92
446.39	4088.85
446.764	4120.71
447.139	4101.28
447.513	4158.45
447.887	4202.97
448.262	4187.6
448.636	4192.57
449.01	4299.46
449.384	4307.6
449.758	4394.38
450.132	4406.58
450.506	4426.24
450.88	4500.36
451.254	4524.09
451.628	4607.7
452.002	4670.53
452.376	4682.28
452.75	4797.3
453.123	4831.88
453.497	4905.1
453.871	4895.15
454.244	5075.49
454.618	5070.06
454.992	5166.33
455.365	5200.23
455.739	5333.33
456.112	5340.11
456.486	5408.81
456.859	5430.28
457.232	5581.24
457.606	5579.88
457.979	5609.71
458.352	5801.57
458.725	5858.29
459.099	5884.96
459.472	6042.02
459.845	6070.72
460.218	6176.93
460.591	6253.08
460.964	6265.97
461.337	6360.65
461.71	6406.3
462.083	6562.91
462.456	6535.56
462.829	6630.93
463.201	6767.87
463.574	6701.43
463.947	6800.19
464.32	6987.3
464.692	7083.12
465.065	7132.38
465.438	7184.36
465.81	7320.4
466.183	7394.3
466.555	7622.31
466.928	7659.6
467.3	7687.17
467.672	7781.63
468.045	7986.82
468.417	8026.14
468.789	8103.88
469.161	8254.39
469.534	8425.46
469.906	8700.93
470.278	8738.89
470.65	8784.99
471.022	8990.64
471.394	9147.25
471.766	9193.12
472.138	9399.89
472.51	9536.84
472.882	9745.2
473.253	9862.03
473.625	9985.87
473.997	10215.47
474.369	10291.17
474.74	10389.02
475.112	10611.16
475.484	10803.92
475.855	11015.67
476.227	10998.72
476.598	11441.65
476.97	11483.23
477.341	11718.25
477.713	11887.51
478.084	11924.8
478.455	12270.55
478.827	12391
479.198	12738.79
479.569	12721.84
479.94	13133.36
480.311	13219
480.682	13474.14
481.053	13838.2
481.424	14001.36
481.795	14134.68
482.166	14333.55
482.537	14588.46
482.908	14820.99
483.279	15062.12
483.65	15305.73
484.021	15566.51
484.391	15745.49
484.762	15971.7
485.133	16121.07
485.503	16359.94
485.874	16761.06
486.244	16982.75
486.615	17278.33
486.985	17452.79
487.356	17882.61
487.726	18018.42
488.097	18476.27
488.467	18527.79
488.837	18911.51
489.207	19074.22
489.578	19469.46
489.948	19562.79
490.318	20015.89
490.688	20000.52
491.058	20381.75
491.428	20709.65
491.798	20939.7
492.168	21334.04
492.538	21429.18
492.908	21706.92
493.278	21934.93
493.648	22005.66
494.017	22358.65
494.387	22528.14
494.757	22702.37
495.126	22917.28
495.496	22941.46
495.866	23168.12
496.235	23326.76
496.605	23464.16
496.974	23712.51
497.344	23839.51
497.713	24015.1
498.082	24210.13
498.452	24281.31
498.821	24540.51
499.19	24568.53
499.559	24812.6
499.928	24891.24
500.298	25154.73
500.667	25371.68
501.036	25289.65
501.405	25709.52
501.774	25623.65
502.143	26027.93
502.512	26197.19
502.88	26374.36
503.249	26289.62
503.618	26655.49
503.987	26644.19
504.356	27040.33
504.724	27169.37
505.093	27348.35
505.462	27521.45
505.83	27709.24
506.199	27959.18
506.567	28432.16
506.936	28363.46
507.304	28790.8
507.672	28913.51
508.041	29199.83
508.409	29371.57
508.777	29734.05
509.145	29900.6
509.514	30075.51
509.882	30257.65
510.25	30385.56
510.618	30661.03
510.986	30835.94
511.354	31168.59
511.722	31392.31
512.09	31672.98
512.458	31612.42
512.826	31975.8
513.193	32101.9
513.561	32312.29
513.929	32465.95
514.297	32765.61
514.664	33046.05
515.032	33130.34
515.4	33325.37
515.767	33377.79
516.135	33594.06
516.502	33515.19
516.869	34165.34
517.237	34104.33
517.604	34083.99
517.972	34456.41
518.339	34739.57
518.706	34828.83
519.073	34919.68
519.44	35142.95
519.808	35658.41
520.175	35543.61
520.542	36056.14
520.909	36073.32
521.276	36132.07
521.643	36494.32
522.009	36766.86
522.376	37039.85
522.743	37436.22
523.11	37731.13
523.477	38107.39
523.843	38350.77
524.21	38734.04
524.577	38972.22
524.943	39241.37
525.31	39495.6
525.676	39941.46
526.043	40040.67
526.409	40337.39
526.776	40876.35
527.142	40795.45
527.508	41110.7
527.874	41446.51
528.241	41805.37
528.607	41843.33
528.973	42395.86
529.339	42536.42
529.705	42842.18
530.071	43084.88
530.437	43413.01
530.803	43657.75
531.169	43883.96
531.535	43867.01
531.901	43999.21
532.267	44379.54
532.632	44607.1
532.998	44732.75
533.364	45121.67
533.73	45239.86
534.095	45532.73
534.461	45612.28
534.826	45838.71
535.192	46029.67
535.557	46210.45
535.923	46303.78
536.288	46400.96
536.653	46614.96
537.019	46496.77
537.384	46717.78
537.749	46941.73
538.114	46918
538.479	46966.82
538.845	47147.6
539.21	46987.83
539.575	47347.37
539.94	47219.01
540.305	47604.99
540.67	47528.16
541.034	47615.61
541.399	47789.17
541.764	47809.96
542.129	47904.87
542.494	48083.62
542.858	48212.21
543.223	48263.5
543.587	48419.43
543.952	48458.08
544.316	48748.92
544.681	48668.24
545.045	48858.07
545.41	49026.2
545.774	49173.99
546.138	49268
546.503	49442.01
546.867	49320.2
547.231	49700.76
547.595	49797.7
547.959	49977.58
548.324	50032.05
548.688	50149.78
549.052	50329.89
549.416	50347.52
549.779	50469.55
550.143	50676.32
550.507	50923.77
550.871	51139.14
551.235	51026.37
551.599	51373.25
551.962	51448.28
552.326	51611.89
552.689	51738.22
553.053	51701.83
553.417	51809.17
553.78	52281.25
554.143	52066.12
554.507	52420.91
554.87	52502.49
555.234	52882.59
555.597	52701.13
555.96	52835.14
556.323	52852.08
556.686	52948.35
557.05	53179.08
557.413	53389.92
557.776	53480.09
558.139	53495.01
558.502	53535.91
558.865	53607.55
559.228	53847.54
559.59	54029.68
559.953	53972.06
560.316	54272.84
560.679	54185.61
561.041	54368.88
561.404	54471.7
561.767	54596.9
562.129	54583.11
562.492	54794.41
562.854	54772.71
563.217	54708.53
563.579	54932.03
563.941	55131.8
564.304	55144.68
564.666	55204.57
565.028	55285.92
565.39	55393.49
565.753	55437.55
566.115	55565.69
566.477	55643.88
566.839	55668.28
567.201	55798.45
567.563	55941.5
567.925	56081.6
568.287	56065.11
568.648	56137.42
569.01	56258.1
569.372	56407.7
569.734	56354.37
570.095	56504.87
570.457	56631.87
570.819	56663.51
571.18	56684.53
571.542	56961.13
571.903	56925.42
572.265	57014.69
572.626	57113.22
572.987	57193.67
573.349	57284.74
573.71	57422.13
574.071	57407.9
574.432	57516.82
574.794	57733.09
575.155	57735.57
575.516	57701.9
575.877	57863.7
576.238	57896.47
576.599	58051.72
576.96	58014.21
577.32	58007.66
577.681	58156.8
578.042	58272.96
578.403	58307.76
578.763	58367.42
579.124	58402.45
579.485	58495.1
579.845	58582.33
580.206	58585.04
580.566	58572.84
580.927	58672.72
581.287	58779.39
581.648	58608.54
582.008	58813.51
582.368	58690.35
582.728	58814.87
583.089	58763.79
583.449	58816.9
583.809	58808.09
584.169	58869.55
584.529	58809.89
584.889	58943.22
585.249	58787.75
585.609	58751.82
585.969	58902.77
586.329	58822.55
586.688	58824.81
587.048	58751.36
587.408	58773.06
587.768	58732.38
588.127	58687.86
588.487	58665.72
588.846	58783.68
589.206	58619.62
589.565	58623.23
589.925	58676.34
590.284	58575.32
590.643	58619.39
591.003	58688.32
591.362	58707.75
591.721	58691.03
592.08	58541.88
592.44	58618.49
592.799	58671.14
593.158	58604.25
593.517	58613.52
593.876	58589.56
594.235	58539.17
594.593	58535.78
594.952	58625.94
595.311	58485.16
595.67	58529.45
596.029	58670.01
596.387	58694.87
596.746	58670.01
597.104	58608.77
597.463	58609.67
597.822	58739.61
598.18	58627.75
598.538	58585.95
598.897	58761.76
599.255	58630.01
599.613	59000.85
599.972	58848.31
600.33	58923.56
600.688	58777.8
601.046	58933.73
601.404	59017.8
601.762	58974.64
602.12	59081.07
602.478	59080.17
602.836	59166.27
603.194	59051.02
603.552	59150.22
603.91	59114.29
604.268	59282.65
604.625	59160.62
604.983	59291.01
605.341	59225.02
605.698	59403.33
606.056	59375.3
606.413	59381.4
606.771	59474.74
607.128	59522.19
607.485	59472.93
607.843	59510.21
608.2	59717.22
608.557	59744.79
608.914	59676.76
609.272	59822.07
609.629	59881.73
609.986	59879.24
610.343	59707.5
610.7	59930.32
611.057	59860.49
611.414	59876.08
611.771	59918.11
612.127	59942.75
612.484	59997.66
612.841	60027.04
613.198	60025.91
613.554	59961.95
613.911	60049.86
614.267	60027.04
614.624	59989.52
614.98	60075.4
615.337	60152.46
615.693	60032.69
616.05	60029.07
616.406	60133.02
616.762	60069.3
617.118	60059.13
617.475	59928.06
617.831	59991.78
618.187	60026.81
618.543	60094.61
618.899	60221.61
619.255	60038.79
619.611	60070.43
619.967	60128.28
620.323	60069.52
620.678	60011.67
621.034	59919.47
621.39	59949.75
621.746	59895.29
622.101	60162.85
622.457	59939.81
622.812	59903.42
623.168	59947.72
623.523	59940.49
623.879	60009.64
624.234	59859.36
624.589	59939.36
624.945	59842.41
625.3	59914.72
625.655	59856.87
626.01	59880.83
626.365	59876.31
626.72	59838.79
627.075	59912.01
627.43	59796.31
627.785	59741.62
628.14	59740.94
628.495	59731.45
628.85	59788.4
629.205	59675.41
629.559	59796.31
629.914	59710.44
630.269	59727.84
630.623	59645.13
630.978	59611.23
631.332	59818.91
631.687	59825.01
632.041	59691.45
632.396	59777.78
632.75	59633.38
633.104	59712.24
633.459	59654.84
633.813	59591.79
634.167	59620.27
634.521	59631.57
634.875	59748.17
635.229	59705.24
635.583	59614.39
635.937	59643.54
636.291	59600.16
636.645	59658.91
636.999	59607.16
637.352	59675.18
637.706	59574.85
638.06	59695.75
638.413	59632.7
638.767	59551.8
639.121	59559.48
639.474	59364.91
639.828	59479.03
640.181	59525.36
640.534	59490.1
640.888	59455.75
641.241	59374.4
641.594	59406.04
641.947	59487.16
642.301	59390.44
642.654	59369.88
643.007	59343.67
643.36	59341.86
643.713	59291.01
644.066	59323.1
644.419	59181.18
644.771	59045.14
645.124	58779.16
645.477	58744.36
645.83	58563.57
646.182	58415.33
646.535	58282.9
646.888	58293.07
647.24	58113.64
647.593	58220.08
647.945	58163.81
648.298	58038.39
648.65	57985.28
649.002	57840.88
649.355	57965.17
649.707	57964.04
650.059	58031.84
650.411	58312.28
650.763	58249.23
651.115	58442.22
651.467	58268.67
651.819	58299.4
652.171	58181.44
652.523	58071.38
652.875	58125.84
653.227	58011.95
653.578	58124.49
653.93	58074.09
654.282	57925.85
654.633	57837.04
654.985	57900.31
655.337	57872.97
655.688	57784.38
656.039	57883.14
656.391	57704.61
656.742	57666.2
657.094	57674.1
657.445	57742.35
657.796	57686.53
658.147	57647.89
658.498	57598.17
658.849	57592.3
659.2	57572.19
659.551	57462.13
659.902	57613.09
660.253	57530.61
660.604	57561.57
660.955	57496.48
661.306	57564.05
661.656	57491.28
662.007	57481.34
662.358	57509.14
662.708	57520.66
663.059	57423.72
663.409	57302.36
663.76	57519.53
664.11	57500.32
664.461	57533.32
664.811	57480.44
665.161	57526.99
665.511	57424.17
665.862	57477.5
666.212	57555.69
666.562	57538.74
666.912	57462.36
667.262	57414.68
667.612	57449.03
667.962	57487.44
668.312	57432.3
668.662	57552.07
669.011	57537.61
669.361	57468.23
669.711	57504.39
670.06	57390.04
670.41	57400.21
670.76	57406.32
671.109	57473.66
671.459	57367.9
671.808	57349.37
672.157	57359.99
672.507	57220.56
672.856	57241.12
673.205	57318.18
673.554	57335.36
673.904	57220.56
674.253	57399.08
674.602	57288.8
674.951	56973.11
675.3	56717.07
675.649	57282.93
675.998	57127.68
676.346	57246.55
676.695	57269.14
677.044	57101.24
677.393	57182.14
677.741	57236.83
678.09	57119.77
678.438	57033.22
678.787	57105.98
679.135	57076.83
679.484	56828.03
679.832	56901.02
680.181	56741.25
680.529	56867.57
680.877	56765.43
681.225	56731.76
681.573	56855.37
681.922	56589.39
682.27	56594.36
682.618	56599.11
682.966	56480.01
683.314	56591.65
683.661	56320.92
684.009	56120.02
684.357	56112.79
684.705	56125.9
685.053	56184.2
685.4	56104.65
685.748	55946.24
686.095	55868.28
686.443	55722.29
686.79	55717.55
687.138	55795.28
687.485	55757.55
687.832	55570.43
688.18	55647.27
688.527	55361.85
688.874	55483.88
689.221	55305.35
689.568	55245.47
689.915	55094.74
690.262	55138.58
690.609	54968.19
690.956	54848.87
691.303	54837.34
691.65	54659.72
691.997	54656.11
692.344	54439.16
692.69	54392.38
693.037	54396.45
693.383	54141.32
693.73	54252.27
694.077	54111.71
694.423	54078.27
694.769	53886.86
695.116	53808.44
695.462	53813.64
695.808	53630.6
696.155	53652.74
696.501	53377.04
696.847	53396.93
697.193	53094.56
697.539	53334.78
697.885	53027.9
698.231	52954
698.577	52952.87
698.923	52904.74
699.269	52724.86
699.614	52661.13
699.96	52528.03
700.306	52555.37
700.651	52447.35
700.997	52375.71
701.342	52295.26
701.688	52147.02
702.033	52148.15
702.379	52214.14
702.724	52095.49
703.069	52109.28
703.415	51767.82
703.76	51793.81
704.105	51810.3
704.45	51709.97
704.795	51560.82
705.14	51464.32
705.485	51461.16
705.83	51317.21
706.175	51416.64
706.52	51430.43
706.865	51298.23
707.209	51225.69
707.554	51203.54
707.899	51297.78
708.243	51121.51
708.588	51008.52
708.932	50941.4
709.277	50957.22
709.621	50898.92
709.966	50668.87
710.31	50721.52
710.654	50474.29
710.998	50502.99
711.342	50478.14
711.687	50400.4
712.031	50237.01
712.375	50233.17
712.719	50187.07
713.063	50101.65
713.407	50256.9
713.75	49990.01
714.094	50023.68
714.438	49668.89
714.782	49780.3
715.125	49683.35
715.469	49796.35
715.812	49531.27
716.156	49452.63
716.499	49395.23
716.843	49416.47
717.186	49295.34
717.53	49424.38
717.873	49228.9
718.216	49147.55
718.559	49070.04
718.902	48709.59
719.246	48863.72
719.589	48699.2
719.932	48533.1
720.275	48505.53
720.617	48425.76
720.96	48322.71
721.303	48394.35
721.646	48418.08
721.989	48074.81
722.331	48097.41
722.674	47921.59
723.016	47847.02
723.359	47857.41
723.701	47741.94
724.044	47464.88
724.386	47356.18
724.729	47418.56
725.071	47258.79
725.413	47191.22
725.755	47157.77
726.097	46964.33
726.439	46788.97
726.782	46678.24
727.124	46813.15
727.465	46604.79
727.807	46670.33
728.149	46431.46
728.491	46351.24
728.833	46184.69
729.175	46148.98
729.516	45970.23
729.858	45686.62
730.199	45765.49
730.541	45650.01
730.882	45585.84
731.224	45650.24
731.565	45410.7
731.906	45419.06
732.248	45407.99
732.589	45045.74
732.93	45076.47
733.271	45020.43
733.612	45022.46
733.953	45114.44
734.294	44813.88
734.635	44584.05
734.976	44732.3
735.317	44516.26
735.658	44588.12
735.999	44394
736.339	44231.97
736.68	44363.27
737.021	44137.74
737.361	44039.21
737.702	44316.04
738.042	44006.89
738.383	43905.43
738.723	44031.98
739.063	43777.3
739.404	43904.98
739.744	43537.98
740.084	43470.41
740.424	43589.05
740.764	43362.84
741.104	43582.5
741.444	43319.23
741.784	43198.55
742.124	43274.03
742.464	43310.87
742.804	43226.35
743.143	43064.32
743.483	43035.17
743.823	42687.38
744.162	43000.82
744.502	43016.86
744.841	42840.82
745.181	42873.36
745.52	42806.47
745.86	42717.21
746.199	42732.8
746.538	42606.93
746.877	42546.37
747.216	42666.14
747.556	42395.86
747.895	42471.34
748.234	42329.65
748.573	42373.72
748.911	42347.05
749.25	42329.65
749.589	42156.55
749.928	42257.34
750.267	42074.74
750.605	42000.84
750.944	41943.45
751.283	41765.14
751.621	41964.46
751.96	41757.01
752.298	41907.97
752.636	41833.62
752.975	41513.85
753.313	41444.7
753.651	41551.14
753.989	41372.39
754.327	41185.05
754.666	40974.21
755.004	41131.26
755.342	41207.19
755.679	40984.6
756.017	40921.1
756.355	40841.1
756.693	40677.04
757.031	40862.12
757.368	40597.72
757.706	40665.74
758.044	40505.97
758.381	40534.44
758.719	40263.49
759.056	40376.25
759.394	40185.53
759.731	40016.72
760.068	39761.13
760.405	39806.1
760.743	39614.47
761.08	39645.2
761.417	39414.7
761.754	39323.63
762.091	39230.97
762.428	39005.44
762.765	38787.82
763.102	38967.7
763.438	38707.82
763.775	38575.85
764.112	38436.87
764.449	38387.15
764.785	38214.5
765.122	38036.66
765.458	37810.67
765.795	37744.23
766.131	37690.45
766.467	37525.93
766.804	37272.83
767.14	37102.44
767.476	37185.6
767.812	36870.36
768.148	36876.01
768.485	36717.14
768.821	36407.77
769.157	36412.52
769.492	36149.47
769.828	36150.38
770.164	35766.21
770.5	35678.53
770.836	35678.53
771.171	35468.14
771.507	35281.25
771.842	35119.44
772.178	35002.38
772.513	35072.44
772.849	34743.41
773.184	34479.46
773.519	34424.55
773.855	34305.68
774.19	34058.45
774.525	33921.06
774.86	33991.11
775.195	33831.34
775.53	33726.26
775.865	33491.01
776.2	33371.24
776.535	33041.76
776.87	32997.69
777.205	32807.64
777.539	32735.55
777.874	32728.32
778.209	32418.27
778.543	32315.45
778.878	32234.32
779.212	31989.81
779.547	31911.84
779.881	31927.44
780.215	31741.23
780.55	31724.5
780.884	31643.38
781.218	31443.16
781.552	31398.41
781.886	31198.87
782.22	31084.52
782.554	30975.82
782.888	30690.86
783.222	30712.33
783.556	30533.12
783.889	30418.55
784.223	30170.42
784.557	30194.6
784.89	30217.43
785.224	29974.04
785.557	29844.55
785.891	29720.72
786.224	29564.56
786.558	29575.41
786.891	29229.66
787.224	29160.05
787.557	29281.63
787.891	29209.99
788.224	29091.58
788.557	29157.11
788.89	28919.83
789.223	28866.05
789.556	28647.3
789.888	28546.74
790.221	28490.69
790.554	28135.67
790.887	28319.17
791.219	28157.82
791.552	28185.16
791.884	28108.33
792.217	27981.78
792.549	27928.22
792.882	27735.23
793.214	27609.36
793.546	27614.33
793.879	27582.01
794.211	27416.6
794.543	27548.34
794.875	27449.81
795.207	27492.53
795.539	27362.81
795.871	27316.71
796.203	27201.23
796.535	27029.94
796.867	26937.29
797.198	26810.06
797.53	26923.05
797.862	26808.93
798.193	26805.99
798.525	26505.43
798.856	26552.44
799.188	26291.2
799.519	26241.94
799.85	26108.61
800.182	26203.97
800.513	26155.84
800.844	26017.76
801.175	26047.37
801.506	26038.1
801.837	25987.71
802.168	25812.12
802.499	25724.21
802.83	25612.8
803.161	25526.93
803.491	25536.42
803.822	25497.1
804.153	25418.46
804.483	25161.74
804.814	25174.39
805.145	25245.13
805.475	25175.52
805.805	24996.55
806.136	24975.08
806.466	25048.07
806.796	25025.47
807.126	24761.07
807.457	24751.58
807.787	24615.31
808.117	24456.45
808.447	24431.36
808.777	24605.37
809.107	24291.25
809.436	24256
809.766	24199.96
810.096	24241.99
810.426	23994.54
810.755	24102.78
811.085	24018.49
811.414	23952.05
811.744	23850.36
812.073	23713.87
812.403	23696.02
812.732	23529.24
813.061	23396.81
813.39	23314.56
813.719	23271.85
814.049	23447.21
814.378	23390.94
814.707	23044.51
815.036	23061
815.365	22980.33
815.693	22862.14
816.022	22844.29
816.351	22694.91
816.68	22583.5
817.008	22713.67
817.337	22408.14
817.665	22304.41
817.994	22494.47
818.322	22399.33
818.651	22310.52
818.979	22310.29
819.307	22244.98
819.636	22103.29
819.964	21961.37
820.292	21962.28
820.62	21990.07
820.948	21829.4
821.276	21953.24
821.604	21855.84
821.932	21873.46
822.259	21884.54
822.587	21726.35
822.915	21773.81
823.243	21762.51
823.57	21691.55
823.898	21638.22
824.225	21564.77
824.553	21645
824.88	21567.26
825.207	21599.12
825.535	21592.12
825.862	21553.7
826.189	21523.42
826.516	21666.69
826.843	21719.57
827.17	21689.97
827.497	21607.03
827.824	21538.78
828.151	21513.7
828.478	21431.89
828.805	21460.82
829.131	21397.77
829.458	21321.16
829.785	21268.51
830.111	21293.82
830.438	21387.6
830.764	21330.65
831.09	21261.5
831.417	21226.02
831.743	21295.4
832.069	21245.68
832.395	21142.18
832.722	21166.59
833.048	21051.79
833.374	21142.41
833.7	21016.54
834.026	21066.25
834.351	21057.89
834.677	21073.94
835.003	21016.09
835.329	21076.65
835.654	20919.59
835.98	20822.42
836.306	20866.71
836.631	20890.44
836.956	20896.99
837.282	20852.47
837.607	20667.17
837.932	20657.9
838.258	20654.74
838.583	20672.37
838.908	20540.62
839.233	20618.36
839.558	20500.17
839.883	20450.68
840.208	20410
840.533	20509.21
840.858	20420.85
841.182	20411.36
841.507	20418.59
841.832	20302.43
842.156	20295.65
842.481	20157.13
842.805	20144.92
843.13	20022.44
843.454	20101.99
843.778	20031.03
844.103	19937.7
844.427	19974.08
844.751	19971.14
845.075	20002.33
845.399	19807.76
845.723	19707.87
846.047	19900.86
846.371	19636.01
846.695	19660.64
847.019	19511.94
847.343	19375.45
847.666	19215.46
847.99	19294.55
848.313	19210.03
848.637	19105.85
848.96	19050.04
849.284	19097.04
849.607	18921.9
849.931	18876.71
850.254	18758.29
850.577	18729.14
850.9	18661.8
851.223	18601.01
851.546	18358.98
851.869	18344.29
852.192	18467
852.515	18297.06
852.838	18202.83
853.161	18310.85
853.483	18111.76
853.806	17928.94
854.129	17998.54
854.451	18018.42
854.774	17878.99
855.096	17874.93
855.419	17778.2
855.741	17881.03
856.063	17764.19
856.385	17737.98
856.708	17641.26
857.03	17637.42
857.352	17634.71
857.674	17629.73
857.996	17655.5
858.318	17425.67
858.64	17367.37
858.961	17386.58
859.283	17370.76
859.605	17248.5
859.926	17423.86
860.248	17297.54
860.57	17194.27
860.891	17179.35
861.212	17090.31
861.534	17037.21
861.855	17020.03
862.176	17074.27
862.498	17009.19
862.819	17031.33
863.14	17008.51
863.461	16947.49
863.782	16764.22
864.103	16827.95
864.424	16785.91
864.745	16794.5
865.065	16739.14
865.386	16735.75
865.707	16692.36
866.027	16686.71
866.348	16623.21
866.668	16658.23
866.989	16573.49
867.309	16390.22
867.63	16405.59
867.95	16385.25
868.27	16238.58
868.59	16306.38
868.91	16227.74
869.23	16239.04
869.55	16230.67
869.87	16319.26
870.19	16165.82
870.51	16215.99
870.83	16110.45
871.15	16064.13
871.469	16015.77
871.789	16057.12
872.109	16055.09
872.428	15960.4
872.748	15963.11
873.067	15910.23
873.386	15935.09
873.706	15848.54
874.025	15804.25
874.344	15743.23
874.663	15774.64
874.982	15677.7
875.301	15703.01
875.62	15621.2
875.939	15632.95
876.258	15545.5
876.577	15494.65
876.896	15463.92
877.214	15344.82
877.533	15473.86
877.852	15301.89
878.17	15377.82
878.489	15274.77
878.807	15226.86
879.125	15186.63
879.444	15167.88
879.762	15069.58
880.08	15158.84
880.398	14937.15
880.716	14958.62
881.034	14896.25
881.352	14954.55
881.67	14818.06
881.988	14810.15
882.306	14716.59
882.624	14758.4
882.941	14613.09
883.259	14566.76
883.577	14567.89
883.894	14568.35
884.212	14454.45
884.529	14498.29
884.846	14481.79
885.164	14323.38
885.481	14279.31
885.798	14320.22
886.115	14152.99
886.432	14136.49
886.75	14096.95
887.067	14141.92
887.383	14032.09
887.7	14023.95
888.017	14046.33
888.334	13894.69
888.651	13901.7
888.967	13876.16
889.284	13727.92
889.6	13673
889.917	13618.77
890.233	13694.47
890.55	13603.17
890.866	13571.31
891.182	13435.95
891.498	13433.01
891.815	13362.28
892.131	13311.88
892.447	13346.46
892.763	13204.54
893.079	13157.31
893.395	13249.96
893.71	13224.65
894.026	13106.92
894.342	13112.11
894.657	13052.68
894.973	12973.13
895.289	12981.95
895.604	12922.51
895.92	12913.02
896.235	12877.09
896.55	12764.55
896.865	12772.91
897.181	12675.51
897.496	12597.55
897.811	12651.11
898.126	12571.11
898.441	12458.8
898.756	12489.53
899.071	12394.62
899.386	12450.21
899.7	12281.85
900.015	12281.85
900.33	12154.62
900.644	12160.95
900.959	12196.66
901.273	12072.14
901.588	12002.31
901.902	11958.7
902.216	11903.56
902.531	11932.93
902.845	11864.24
903.159	11839.38
903.473	11781.75
903.787	11702.43
904.101	11692.49
904.415	11718.93
904.729	11708.53
905.042	11633.73
905.356	11684.81
905.67	11592.83
905.984	11507.41
906.297	11450.24
906.611	11400.29
906.924	11428.77
907.237	11434.42
907.551	11304.93
907.864	11224.03
908.177	11230.81
908.491	11269
908.804	11247.08
909.117	11147.42
909.43	11108.32
909.743	11084.14
910.056	11042.11
910.368	11056.8
910.681	10980.19
910.994	10923.24
911.307	10914.66
911.619	10796.92
911.932	10804.38
912.244	10754.89
912.557	10737.49
912.869	10698.39
913.181	10703.59
913.494	10673.31
913.806	10603.25
914.118	10634.89
914.43	10520.99
914.742	10456.82
915.054	10419.53
915.366	10463.37
915.678	10383.15
915.99	10412.3
916.302	10294.33
916.613	10275.35
916.925	10336.59
917.236	10257.95
917.548	10176.14
917.859	10252.08
918.171	10090.95
918.482	10103.15
918.794	10083.94
919.105	10053.44
919.416	9974.79
919.727	9917.39
920.038	9973.44
920.349	9870.62
920.66	9808.02
920.971	9858.87
921.282	9836.27
921.593	9822.26
921.903	9710.85
922.214	9750.62
922.525	9650.06
922.835	9542.04
923.146	9561.92
923.456	9491.19
923.767	9555.37
924.077	9424.75
924.387	9344.75
924.697	9413.68
925.008	9314.47
925.318	9319.9
925.628	9230.63
925.938	9212.55
926.248	9156.51
926.558	9105.66
926.867	9039
927.177	9077.64
927.487	9039
927.796	8883.75
928.106	8946.8
928.416	8890.98
928.725	8840.81
929.034	8782.06
929.344	8804.43
929.653	8777.99
929.962	8631.55
930.271	8679.46
930.581	8483.76
930.89	8529.41
931.199	8420.71
931.508	8429.52
931.817	8448.73
932.125	8434.27
932.434	8435.17
932.743	8289.41
933.051	8263.2
933.36	8198.57
933.669	8140.94
933.977	8139.81
934.286	8129.87
934.594	8081.06
934.902	8015.07
935.21	8028.18
935.519	8032.47
935.827	7958.58
936.135	7940.95
936.443	7850.78
936.751	7871.12
937.059	7771.91
937.367	7744.57
937.674	7746.38
937.982	7758.81
938.29	7688.98
938.597	7645.82
938.905	7566.04
939.213	7493.5
939.52	7465.03
939.827	7526.5
940.135	7477.68
940.442	7389.55
940.749	7379.38
941.056	7411.02
941.363	7245.83
941.67	7318.82
941.977	7207.18
942.284	7177.13
942.591	7181.42
942.898	7127.19
943.205	7125.83
943.511	7004.48
943.818	7011.48
944.125	6945.95
944.431	6971.71
944.738	6888.55
945.044	6948.66
945.35	6799.74
945.657	6804.71
945.963	6806.06
946.269	6730.36
946.575	6691.26
946.881	6645.84
947.187	6644.94
947.493	6564.71
947.799	6559.74
948.105	6524.26
948.41	6469.12
948.716	6459.63
949.022	6370.6
949.327	6422.12
949.633	6331.73
949.938	6305.74
950.244	6300.77
950.549	6233.65
950.854	6185.74
951.16	6129.02
951.465	6105.29
951.77	6091.73
952.075	6061.22
952.38	6050.83
952.685	5982.58
952.99	5985.29
953.294	5915.47
953.599	5914.79
953.904	5863.94
954.209	5820.1
954.513	5773.32
954.818	5733.78
955.122	5692.87
955.426	5722.25
955.731	5665.98
956.035	5661.46
956.339	5625.3
956.643	5627.79
956.948	5583.05
957.252	5590.5
957.556	5510.73
957.86	5476.61
958.163	5475.25
958.467	5420.56
958.771	5384.86
959.075	5345.31
959.378	5298.76
959.682	5322.94
959.985	5338.08
960.289	5282.71
960.592	5191.64
960.896	5251.98
961.199	5168.82
961.502	5156.62
961.805	5111.19
962.108	5093.79
962.411	5102.83
962.714	5070.52
963.017	5053.79
963.32	5055.6
963.623	4946.23
963.926	5018.31
964.228	4961.82
964.531	4905.1
964.833	4939.67
965.136	4883.4
965.438	4812.22
965.741	4808.38
966.043	4817.42
966.345	4802.27
966.648	4793.69
966.95	4805.66
967.252	4714.82
967.554	4670.07
967.856	4686.12
968.158	4641.15
968.46	4638.89
968.761	4640.02
969.063	4621.04
969.365	4566.35
969.666	4522.28
969.968	4505.56
970.269	4464.66
970.571	4473.47
970.872	4510.98
971.174	4421.72
971.475	4402.29
971.776	4420.59
972.077	4378.56
972.378	4387.14
972.679	4429.86
972.98	4351.67
973.281	4289.97
973.582	4315.06
973.883	4294.04
974.183	4257.88
974.484	4257.88
974.785	4231.44
975.085	4223.31
975.386	4182.63
975.686	4180.14
975.986	4160.26
976.287	4171.56
976.587	4138.56
976.887	4138.79
977.187	4108.06
977.487	4085.91
977.787	4084.55
978.087	4026.02
978.387	4017.66
978.687	4045.91
978.987	4013.82
979.286	3994.39
979.586	3955.07
979.885	3963.43
980.185	3937.66
980.484	3897.21
980.784	3945.8
981.083	3905.8
981.382	3886.82
981.682	3890.89
981.981	3905.8
982.28	3855.18
982.579	3817.22
982.878	3818.12
983.177	3824.22
983.475	3811.79
983.774	3814.96
984.073	3814.5
984.372	3723.43
984.67	3753.94
984.969	3755.97
985.267	3717.78
985.566	3709.87
985.864	3712.36
986.162	3694.51
986.461	3670.78
986.759	3645.47
987.057	3643.89
987.355	3599.59
987.653	3626.94
987.951	3593.27
988.249	3593.49
988.547	3577
988.844	3519.6
989.142	3571.12
989.44	3553.04
989.737	3519.82
990.035	3479.82
990.332	3492.03
990.63	3459.71
990.927	3466.94
991.224	3459.49
991.521	3465.13
991.819	3410.45
992.116	3439.37
992.413	3393.27
992.71	3381.52
993.006	3384.23
993.303	3329.32
993.6	3333.39
993.897	3321.86
994.193	3342.43
994.49	3271.02
994.787	3250
995.083	3247.29
995.379	3240.73
995.676	3225.59
995.972	3198.7
996.268	3191.7
996.565	3145.82
996.861	3183.33
997.157	3164.8
997.453	3175.42
997.749	3113.73
998.044	3113.73
998.34	3064.02
998.636	3071.92
998.932	3044.13
999.227	3035.54
999.523	3048.2
999.818	3028.08
1000.114	2992.38
1000.409	2964.13
1000.704	2928.88
1001	2888.65
1001.295	2898.6
1001.59	2888.43
1001.885	2905.38
1002.18	2864.7
1002.475	2868.09
1002.77	2836.9
1003.065	2819.73
1003.359	2829.45
1003.654	2824.25
1003.949	2814.76
1004.243	2780.18
1004.538	2753.97
1004.832	2759.62
1005.127	2686.4
1005.421	2707.41
1005.715	2661.31
1006.009	2694.08
1006.304	2641.2
1006.598	2648.43
1006.892	2636.91
1007.186	2588.32
1007.48	2585.16
1007.773	2567.31
1008.067	2567.08
1008.361	2561.88
1008.655	2508.1
1008.948	2498.15
1009.242	2509.23
1009.535	2516.91
1009.829	2496.12
1010.122	2485.05
1010.415	2480.98
1010.708	2454.31
1011.001	2404.37
1011.295	2405.5
1011.588	2386.29
1011.881	2367.54
1012.173	2390.81
1012.466	2405.05
1012.759	2363.69
1013.052	2368.67
1013.344	2311.72
1013.637	2308.78
1013.93	2316.92
1014.222	2254.55
1014.514	2269.46
1014.807	2218.16
1015.099	2193.08
1015.391	2229.46
1015.683	2169.35
1015.976	2201.44
1016.268	2149.92
1016.56	2125.51
1016.851	2148.11
1017.143	2090.26
1017.435	2081.67
1017.727	2083.7
1018.018	2065.4
1018.31	2080.31
1018.602	2013.42
1018.893	2022.01
1019.185	2042.8
1019.476	1987.43
1019.767	2004.83
1020.058	1948.79
1020.35	1944.72
1020.641	1912.63
1020.932	1897.49
1021.223	1912.18
1021.514	1894.78
1021.804	1871.05
1022.095	1869.92
1022.386	1830.38
1022.677	1798.96
1022.967	1834.67
1023.258	1814.33
1023.548	1789.92
1023.839	1788.12
1024.129	1788.79
1024.419	1730.72
1024.709	1706.76
1025	1734.56
1025.29	1728.91
1025.58	1667.44
1025.87	1678.06
1026.16	1653.43
1026.449	1664.73
1026.739	1662.24
1027.029	1626.77
1027.319	1587.67
1027.608	1606.43
1027.898	1575.47
1028.187	1586.77
1028.477	1576.82
1028.766	1547.45
1029.055	1529.37
1029.344	1494.79
1029.634	1504.51
1029.923	1497.95
1030.212	1474.45
1030.501	1476.94
1030.79	1462.7
1031.078	1462.25
1031.367	1432.42
1031.656	1436.49
1031.945	1431.52
1032.233	1387.68
1032.522	1399.43
1032.81	1427
1033.099	1380.44
1033.387	1370.95
1033.675	1369.82
1033.963	1372.08
1034.251	1352.2
1034.54	1307.68
1034.828	1288.47
1035.116	1273.33
1035.403	1277.4
1035.691	1263.16
1035.979	1283.27
1036.267	1260.9
1036.554	1253.44
1036.842	1221.8
1037.129	1252.99
1037.417	1215.02
1037.704	1219.32
1037.992	1202.82
1038.279	1186.1
1038.566	1207.34
1038.853	1207.34
1039.14	1207.34
