Data from white_poster_card_FLMS001491_00076.txt Node
Date: Wed Feb 08 11:51:59 GMT 2017
User: dcchb
Spectrometer: FLMS00149
Trigger mode: 0
Integration Time (sec): 2.000000E-2
Scans to average: 10
Electric dark correction enabled: true
Nonlinearity correction enabled: false
Boxcar width: 0
XAxis mode: Wavelengths
Number of Pixels in Spectrum: 2048
>>>>>Begin Spectral Data<<<<<
341.393	-6.48
341.776	-6.48
342.16	-6.48
342.543	-76.54
342.927	-52.81
343.31	-56.2
343.693	-73.37
344.077	-73.6
344.46	-58.68
344.843	-51.91
345.226	-45.35
345.61	-29.99
345.993	-13.04
346.376	-22.3
346.759	24.25
347.142	29.9
347.525	45.04
347.908	40.97
348.291	65.83
348.674	108.09
349.057	110.35
349.44	126.85
349.823	136.11
350.206	165.72
350.588	203.91
350.971	222.21
351.354	225.38
351.737	258.37
352.119	252.95
352.502	276
352.884	286.16
353.267	298.82
353.65	300.18
354.032	304.24
354.414	320.74
354.797	298.14
355.179	320.74
355.562	329.33
355.944	336.11
356.326	326.62
356.709	299.72
357.091	336.78
357.473	331.81
357.855	338.82
358.238	341.53
358.62	351.25
359.002	358.93
359.384	340.85
359.766	343.34
360.148	325.49
360.53	354.19
360.912	346.05
361.294	335.88
361.676	338.59
362.057	328.65
362.439	336.11
362.821	350.34
363.203	345.82
363.584	338.59
363.966	318.48
364.348	343.34
364.729	319.38
365.111	302.89
365.493	349.44
365.874	331.81
366.256	311.93
366.637	329.55
367.019	335.66
367.4	329.55
367.781	325.49
368.163	325.94
368.544	326.16
368.925	330.46
369.306	334.75
369.688	308.54
370.069	322.77
370.45	315.99
370.831	320.06
371.212	319.84
371.593	346.95
371.974	320.06
372.355	330.91
372.736	336.33
373.117	310.12
373.498	318.25
373.879	324.58
374.26	318.25
374.641	342.43
375.021	322.1
375.402	333.62
375.783	328.88
376.163	355.09
376.544	314.64
376.925	342.21
377.305	353.73
377.686	317.35
378.066	349.67
378.447	344.69
378.827	357.12
379.208	347.63
379.588	344.47
379.968	364.81
380.349	348.76
380.729	355.77
381.109	372.94
381.489	366.39
381.87	363.68
382.25	354.64
382.63	360.51
383.01	362.09
383.39	366.61
383.77	366.84
384.15	349.21
384.53	364.13
384.91	356.45
385.29	358.93
385.67	375.88
386.049	364.58
386.429	387.86
386.809	363.22
387.189	388.99
387.568	375.2
387.948	384.24
388.328	380.4
388.707	392.38
389.087	385.37
389.466	393.51
389.846	392.15
390.225	396.9
390.605	379.72
390.984	382.66
391.363	399.16
391.743	395.99
392.122	399.83
392.501	425.37
392.881	408.2
393.26	413.85
393.639	400.06
394.018	421.53
394.397	407.07
394.776	424.69
395.155	435.99
395.534	425.6
395.913	426.95
396.292	433.96
396.671	430.57
397.05	439.16
397.429	445.26
397.808	444.58
398.186	454.75
398.565	446.16
398.944	455.65
399.323	460.85
399.701	475.31
400.08	453.17
400.458	459.04
400.837	478.48
401.215	441.41
401.594	480.28
401.972	487.97
402.351	484.13
402.729	470.79
403.107	502.2
403.486	515.54
403.864	492.94
404.242	494.29
404.62	511.7
404.999	513.73
405.377	516.44
405.755	510.11
406.133	522.32
406.511	522.54
406.889	552.15
407.267	535.2
407.645	557.8
408.023	553.73
408.401	576.78
408.779	589.21
409.156	590.56
409.534	587.85
409.912	617.68
410.29	628.53
410.667	604.8
411.045	639.38
411.422	668.98
411.8	641.86
412.178	674.18
412.555	697.91
412.933	718.7
413.31	714.85
413.687	740.16
414.065	756.21
414.442	746.94
414.819	788.75
415.197	812.48
415.574	795.98
415.951	833.72
416.328	825.36
416.705	851.8
417.082	875.98
417.46	901.74
417.837	928.41
418.214	904.68
418.591	923.21
418.967	915.3
419.344	978.8
419.721	991.68
420.098	959.37
420.475	1001.4
420.852	1015.86
421.228	1038.91
421.605	1054.28
421.982	1070.78
422.358	1081.85
422.735	1098.57
423.111	1102.87
423.488	1142.19
423.864	1116.88
424.241	1148.97
424.617	1140.83
424.994	1149.42
425.37	1209.53
425.746	1201.62
426.123	1215.41
426.499	1238.46
426.875	1266.93
427.251	1296.99
427.627	1288.85
428.003	1308.51
428.379	1345.12
428.756	1350.77
429.132	1377.66
429.507	1397.32
429.883	1427.15
430.259	1464.44
430.635	1434.38
431.011	1475.51
431.387	1527.04
431.763	1542.18
432.138	1539.47
432.514	1546.92
432.89	1578.11
433.265	1612.01
433.641	1603.87
434.016	1634.38
434.392	1691.1
434.767	1725
435.143	1685.45
435.518	1724.32
435.894	1737.43
436.269	1761.61
436.644	1816.97
437.02	1848.38
437.395	1805.45
437.77	1868.5
438.145	1873.69
438.52	1863.3
438.895	1899.91
439.271	1917.08
439.646	1948.95
440.021	1967.48
440.395	1993.69
440.77	1974.48
441.145	1990.07
441.52	2037.53
441.895	2044.08
442.27	2065.1
442.645	2047.7
443.019	2084.76
443.394	2105.1
443.769	2106.23
444.143	2115.27
444.518	2158.66
444.892	2140.35
445.267	2135.61
445.641	2195.95
446.016	2156.17
446.39	2169.73
446.764	2185.55
447.139	2221.93
447.513	2251.54
447.887	2246.34
448.262	2292.44
448.636	2304.64
449.01	2312.78
449.384	2331.08
449.758	2376.73
450.132	2326.56
450.506	2402.49
450.88	2417.18
451.254	2419.22
451.628	2404.53
452.002	2458.31
452.376	2447.46
452.75	2467.35
453.123	2537.86
453.497	2557.07
453.871	2594.35
454.244	2626.22
454.618	2674.35
454.992	2661.02
455.365	2699.66
455.739	2714.35
456.112	2756.61
456.486	2793.44
456.859	2806.32
457.232	2837.28
457.606	2898.98
457.979	2887.68
458.352	2970.39
458.725	2980.11
459.099	2986.21
459.472	3063.72
459.845	3104.17
460.218	3102.14
460.591	3126.77
460.964	3137.84
461.337	3245.86
461.71	3272.75
462.083	3320.89
462.456	3313.43
462.829	3308.01
463.201	3397.5
463.574	3386.65
463.947	3503.26
464.32	3519.07
464.692	3558.85
465.065	3585.06
465.438	3650.6
465.81	3663.25
466.183	3725.4
466.555	3802.91
466.928	3817.37
467.3	3811.72
467.672	3812.4
468.045	3976.01
468.417	3981.43
468.789	4008.55
469.161	4064.6
469.534	4154.31
469.906	4207.64
470.278	4242.9
470.65	4299.62
471.022	4365.83
471.394	4451.48
471.766	4482.44
472.138	4518.14
472.51	4561.53
472.882	4665.03
473.253	4728.31
473.625	4792.49
473.997	4906.83
474.369	4916.55
474.74	5002.2
475.112	5075.87
475.484	5170.78
475.855	5243.1
476.227	5252.14
476.598	5371.23
476.97	5438.35
477.341	5559.47
477.713	5638.34
478.084	5636.98
478.455	5858
478.827	5881.95
479.198	6043.98
479.569	6046.47
479.94	6228.16
480.311	6284.88
480.682	6413.46
481.053	6549.73
481.424	6650.52
481.795	6735.49
482.166	6805.99
482.537	6903.84
482.908	7048.7
483.279	7113.78
483.65	7215.25
484.021	7422.02
484.391	7408.92
484.762	7549.7
485.133	7567.1
485.503	7709.02
485.874	7874.44
486.244	7957.38
486.615	8087.54
486.985	8207.99
487.356	8332.51
487.726	8424.93
488.097	8645.04
488.467	8530.69
488.837	8810.91
489.207	8864.02
489.578	8984.47
489.948	9118.47
490.318	9265.14
490.688	9308.75
491.058	9393.95
491.428	9593.72
491.798	9627.61
492.168	9859.92
492.538	9875.29
492.908	10019.47
493.278	10026.25
493.648	10152.35
494.017	10203.64
494.387	10368.16
494.757	10502.39
495.126	10615.61
495.496	10628.72
495.866	10733.35
496.235	10857.41
496.605	10968.82
496.974	11012.44
497.344	11132.43
497.713	11170.62
498.082	11212.43
498.452	11412.65
498.821	11473.67
499.19	11469.15
499.559	11638.86
499.928	11659.43
500.298	11771.74
500.667	11901.9
501.036	11915.92
501.405	12053.76
501.774	12023.94
502.143	12136.7
502.512	12167.89
502.88	12398.84
503.249	12325.62
503.618	12490.14
503.987	12550.48
504.356	12597.93
504.724	12729.23
505.093	12738.27
505.462	12830.02
505.83	12897.81
506.199	13050.12
506.567	13244.24
506.936	13211.93
507.304	13339.15
507.672	13384.13
508.041	13551.58
508.409	13626.38
508.777	13802.87
509.145	13861.85
509.514	13919.03
509.882	14093.94
510.25	14127.61
510.618	14214.39
510.986	14248.74
511.354	14478.11
511.722	14507.03
512.09	14649.18
512.458	14667.26
512.826	14732.56
513.193	14976.4
513.561	15042.84
513.929	15109.96
514.297	15241.93
514.664	15373.23
515.032	15415.94
515.4	15621.81
515.767	15614.12
516.135	15702.71
516.502	15639.89
516.869	15957.62
517.237	16109.03
517.604	16058.41
517.972	16213.66
518.339	16293.2
518.706	16453.88
519.073	16543.82
519.44	16629.24
519.808	16831.27
520.175	16888.44
520.542	17155.33
520.909	17214.76
521.276	17187.19
521.643	17425.38
522.009	17664.92
522.376	17637.12
522.743	17767.97
523.11	17958.24
523.477	18064.68
523.843	18258.35
524.21	18476.42
524.577	18567.49
524.943	18686.36
525.31	18747.83
525.676	18967.03
526.043	19056.29
526.409	19221.71
526.776	19421.71
527.142	19460.8
527.508	19623.51
527.874	19717.74
528.241	19900.56
528.607	19963.61
528.973	20141.01
529.339	20157.51
529.705	20368.35
530.071	20628.91
530.437	20590.72
530.803	20703.93
531.169	20957.94
531.535	20729.24
531.901	20976.02
532.267	21123.58
532.632	21279.96
532.998	21347.08
533.364	21439.96
533.73	21577.13
534.095	21658.26
534.461	21712.95
534.826	21945.93
535.192	22019.6
535.557	22239.26
535.923	22185.02
536.288	22340.95
536.653	22391.35
537.019	22314.96
537.384	22465.92
537.749	22695.07
538.114	22751.56
538.479	22802.63
538.845	22892.58
539.21	22918.11
539.575	23070.2
539.94	23128.28
540.305	23223.41
540.67	23283.98
541.034	23485.33
541.399	23441.04
541.764	23511.32
542.129	23631.99
542.494	23605.55
542.858	23711.76
543.223	23965.99
543.587	23906.33
543.952	24044.86
544.316	24159.66
544.681	24137.29
545.045	24303.16
545.41	24383.16
545.774	24366.21
546.138	24531.63
546.503	24545.64
546.867	24648.24
547.231	24898.85
547.595	24893.2
547.959	24971.17
548.324	24981.11
548.688	25175.23
549.052	25178.39
549.416	25206.19
549.779	25335.68
550.143	25367.54
550.507	25609.57
550.871	25630.13
551.235	25719.85
551.599	25890.92
551.962	25979.27
552.326	26026.05
552.689	26192.6
553.053	26052.27
553.417	26212.71
553.78	26560.73
554.143	26413.84
554.507	26652.03
554.87	26639.14
555.234	27023.99
555.597	26864.22
555.96	26941.28
556.323	27062.18
556.686	27172.01
557.05	27351.22
557.413	27449.97
557.776	27452.23
558.139	27700.59
558.502	27729.96
558.865	27908.04
559.228	28098.31
559.59	28287.24
559.953	28294.92
560.316	28561.13
560.679	28507.34
561.041	28803.83
561.404	28887.67
561.767	28998.18
562.129	28902.59
562.492	29224.84
562.854	29221.45
563.217	29237.95
563.579	29510.26
563.941	29608.78
564.304	29738.95
564.666	29949.79
565.028	29906.85
565.39	30139.62
565.753	30354.3
566.115	30535.99
566.477	30475.2
566.839	30600.4
567.201	30824.8
567.563	30807.17
567.925	31005.13
568.287	30939.14
568.648	31090.55
569.01	31311.56
569.372	31522.41
569.734	31471.56
570.095	31612.8
570.457	31815.05
570.819	31892.79
571.18	31804.66
571.542	32215.27
571.903	32060.02
572.265	32322.84
572.626	32395.15
572.987	32449.84
573.349	32488.71
573.71	32623.17
574.071	32578.88
574.432	32802.82
574.794	33131.85
575.155	32957.62
575.516	32868.81
575.877	33059.54
576.238	33146.09
576.599	33302.02
576.96	33343.6
577.32	33404.84
577.681	33548.79
578.042	33648
578.403	33666.08
578.763	33707.43
579.124	33822.91
579.485	33780.43
579.845	33888.22
580.206	33851.38
580.566	33853.87
580.927	33863.14
581.287	34039.18
581.648	33919.18
582.008	34039.4
582.368	33998.5
582.728	34172.73
583.089	33975.45
583.449	34060.87
583.809	34149
584.169	34131.38
584.529	34127.99
584.889	34479.16
585.249	34123.02
585.609	33985.39
585.969	34357.13
586.329	34243.46
586.688	34300.86
587.048	34159.85
587.408	34177.03
587.768	34222.22
588.127	34183.35
588.487	34112.62
588.846	34359.85
589.206	34191.71
589.565	34175.9
589.925	34432.39
590.284	34273.29
590.643	34383.57
591.003	34380.64
591.362	34498.37
591.721	34438.49
592.08	34300.41
592.44	34453.4
592.799	34478.26
593.158	34408.66
593.517	34409.56
593.876	34602.78
594.235	34413.18
594.593	34479.84
594.952	34560.52
595.311	34631.7
595.67	34615.43
596.029	34736.56
596.387	34708.31
596.746	34773.39
597.104	34754.86
597.463	34647.07
597.822	34850.23
598.18	34719.16
598.538	34784.69
598.897	34961.41
599.255	34707.18
599.613	35047.28
599.972	34922.54
600.33	34953.28
600.688	34731.59
601.046	35013.84
601.404	35101.75
601.762	35011.58
602.12	35098.58
602.478	35162.99
602.836	35075.76
603.194	34941.52
603.552	34977.46
603.91	35032.37
604.268	35181.97
604.625	35182.87
604.983	35221.74
605.341	35120.96
605.698	35304.23
606.056	35344.45
606.413	35238.47
606.771	35443.88
607.128	35560.72
607.485	35284.79
607.843	35377.45
608.2	35661.51
608.557	35715.74
608.914	35518.91
609.272	35731.11
609.629	35729.75
609.986	35835.96
610.343	35852.69
610.7	36027.82
611.057	35935.85
611.414	35930.88
611.771	35899.92
612.127	36131.32
612.484	36080.03
612.841	36162.06
613.198	35901.27
613.554	36002.29
613.911	36133.36
614.267	36175.16
614.624	36254.26
614.98	36262.17
615.337	36403.63
615.693	36406.12
616.05	36292.22
616.406	36480.47
616.762	36307.59
617.118	36462.16
617.475	36424.2
617.831	36503.52
618.187	36669.16
618.543	36567.7
618.899	36746.9
619.255	36729.27
619.611	36648.37
619.967	36774.24
620.323	36782.61
620.678	36705.32
621.034	36572.44
621.39	36670.07
621.746	36570.41
622.101	36948.93
622.457	36732.21
622.812	36763.17
623.168	36732.21
623.523	36756.84
623.879	37030.96
624.234	36705.32
624.589	36753.23
624.945	36799.78
625.3	36914.81
625.655	36864.64
626.01	36872.1
626.365	36865.99
626.72	36720.01
627.075	36664.19
627.43	36714.59
627.785	36676.17
628.14	36604.08
628.495	36731.99
628.85	36597.07
629.205	36477.98
629.559	36738.99
629.914	36562.5
630.269	36665.77
630.623	36562.27
630.978	36477.3
631.332	36682.95
631.687	36561.37
632.041	36523.86
632.396	36477.53
632.75	36244.54
633.104	36524.76
633.459	36289.29
633.813	36128.61
634.167	36162.96
634.521	36222.62
634.875	36172.45
635.229	36110.99
635.583	35911.67
635.937	36094.71
636.291	35921.84
636.645	35830.77
636.999	35931.56
637.352	35921.84
637.706	35732.01
638.06	35951.67
638.413	35805
638.767	35657.44
639.121	35757.55
639.474	35540.61
639.828	35537.44
640.181	35459.48
640.534	35484.56
640.888	35476.88
641.241	35272.36
641.594	35341.51
641.947	35397.56
642.301	35300.39
642.654	35372.93
643.007	35236.43
643.36	35166.38
643.713	35174.51
644.066	35207.73
644.419	35082.76
644.771	34699.5
645.124	34420.18
645.477	34324.59
645.83	34220.64
646.182	34024.49
646.535	33971.38
646.888	33971.15
647.24	33793.76
647.593	34059.29
647.945	33836.02
648.298	33711.05
648.65	33720.09
649.002	33690.71
649.355	33759.63
649.707	33802.57
650.059	33747.21
650.411	34156.46
650.763	34283.46
651.115	34540.18
651.467	34360.07
651.819	34271.71
652.171	34184.71
652.523	34158.49
652.875	34163.69
653.227	33997.37
653.578	34045.28
653.93	34130.7
654.282	33953.98
654.633	33978.16
654.985	33885.73
655.337	34114.43
655.688	33972.74
656.039	34058.16
656.391	33814.32
656.742	33777.71
657.094	33832.85
657.445	33895.68
657.796	33795.11
658.147	33788.33
658.498	33832.18
658.849	33751.05
659.2	33858.62
659.551	33556.02
659.902	33803.02
660.253	33698.85
660.604	33800.99
660.955	33490.72
661.306	33577.49
661.656	33568.23
662.007	33638.73
662.358	33451.85
662.708	33497.72
663.059	33449.36
663.409	33320.1
663.76	33425.63
664.11	33468.34
664.461	33474.44
664.811	33499.75
665.161	33449.81
665.511	33351.06
665.862	33461.79
666.212	33592.41
666.562	33472.64
666.912	33348.8
667.262	33291.17
667.612	33294.79
667.962	33294.11
668.312	33147.45
668.662	33504.95
669.011	33265.64
669.361	33269.93
669.711	33242.13
670.06	33088.24
670.41	33058.41
670.76	33014.57
671.109	33186.09
671.459	33102.93
671.808	33001.46
672.157	33114.23
672.507	32867.23
672.856	32781.36
673.205	32935.93
673.554	32963.05
673.904	32851.64
674.253	33051.63
674.602	32869.94
674.951	32316.51
675.3	32252.78
675.649	32781.81
675.998	32718.98
676.346	32789.04
676.695	32763.73
677.044	32608.25
677.393	32708.82
677.741	32625.2
678.09	32693.22
678.438	32553.34
678.787	32517.18
679.135	32608.48
679.484	32264.31
679.832	32576.62
680.181	32332.78
680.529	32495.26
680.877	32382.95
681.225	32311.31
681.573	32498.65
681.922	32305.89
682.27	32021.15
682.618	32107.93
682.966	31886.69
683.314	32037.42
683.661	31879.01
684.009	31803.98
684.357	31733.7
684.705	31630.2
685.053	31794.94
685.4	31768.73
685.748	31478.79
686.095	31469.75
686.443	31314.28
686.79	31253.94
687.138	31395.86
687.485	31230.44
687.832	31202.19
688.18	31261.85
688.527	31098.46
688.874	30979.6
689.221	30979.14
689.568	30824.12
689.915	30824.34
690.262	30848.98
690.609	30632.49
690.956	30575.31
691.303	30464.81
691.65	30497.57
691.997	30460.06
692.344	30114.53
692.69	30144.14
693.037	30111.82
693.383	29910.92
693.73	29983.46
694.077	29749.34
694.423	29884.48
694.769	29715.45
695.116	29680.19
695.462	29564.94
695.808	29557.71
696.155	29581.89
696.501	29234.56
696.847	29340.77
697.193	29111.4
697.539	29297.38
697.885	28960.44
698.231	28976.26
698.577	28949.14
698.923	28829.37
699.269	28613.1
699.614	28612.88
699.96	28463.73
700.306	28534.24
700.651	28339.21
700.997	28286.78
701.342	28258.31
701.688	28245.88
702.033	28102.38
702.379	28128.37
702.724	27969.28
703.069	28088.6
703.415	27817.42
703.76	27839.79
704.105	27735.61
704.45	27718.89
704.795	27485.22
705.14	27469.4
705.485	27449.74
705.83	27253.82
706.175	27453.36
706.52	27224.44
706.865	27193.03
707.209	27134.5
707.554	27057.21
707.899	27084.56
708.243	26840.49
708.588	26934.5
708.932	26758.69
709.277	26701.29
709.621	26723.21
709.966	26443.67
710.31	26571.8
710.654	26463.56
710.998	26486.38
711.342	26435.53
711.687	26284.8
712.031	26185.37
712.375	26187.4
712.719	26135.2
713.063	26121.42
713.407	26194.41
713.75	26072.15
714.094	26058.59
714.438	25826.28
714.782	25983.12
715.125	25728.89
715.469	25808.43
715.812	25670.81
716.156	25612.05
716.499	25564.37
716.843	25589.23
717.186	25485.95
717.53	25574.31
717.873	25595.78
718.216	25388.78
718.559	25387.43
718.902	25128.45
719.246	25308.33
719.589	25134.55
719.932	25035.57
720.275	24989.02
720.617	24988.79
720.96	24917.83
721.303	24931.84
721.646	24884.16
721.989	24723.04
722.331	24828.57
722.674	24839.64
723.016	24684.17
723.359	24633.32
723.701	24695.92
724.044	24429.94
724.386	24367.34
724.729	24479.65
725.071	24364.4
725.413	24324.4
725.755	24367.57
726.097	24205.54
726.439	24078.76
726.782	24051.64
727.124	24220
727.465	24093
727.807	24038.76
728.149	24012.55
728.491	23895.04
728.833	23888.71
729.175	23923.51
729.516	23823.4
729.858	23715.61
730.199	23726
730.541	23820.24
730.882	23752.44
731.224	23714.48
731.565	23565.1
731.906	23588.6
732.248	23548.83
732.589	23449.17
732.93	23365.11
733.271	23411.21
733.612	23449.4
733.953	23407.82
734.294	23295.96
734.635	23290.98
734.976	23325.11
735.317	23152.91
735.658	23108.39
735.999	23121.5
736.339	23005.79
736.68	23115.17
737.021	23043.98
737.361	22978.22
737.702	23083.08
738.042	22896.42
738.383	22859.58
738.723	22900.26
739.063	22823.88
739.404	22876.31
739.744	22748.4
740.084	22565.35
740.424	22770.55
740.764	22644.9
741.104	22665.24
741.444	22515.18
741.784	22480.16
742.124	22511.57
742.464	22385.24
742.804	22366.04
743.143	22346.38
743.483	22331.23
743.823	22342.53
744.162	22213.5
744.502	22297.79
744.841	22139.38
745.181	22214.85
745.52	22156.32
745.86	22139.6
746.199	22137.34
746.538	22089.89
746.877	22058.02
747.216	22100.96
747.556	21920.17
747.895	21925.6
748.234	21868.65
748.573	21837.01
748.911	21662.55
749.25	21709.33
749.589	21622.78
749.928	21605.83
750.267	21650.57
750.605	21538.04
750.944	21525.83
751.283	21517.47
751.621	21583.46
751.96	21368.77
752.298	21415.55
752.636	21244.94
752.975	21242.22
753.313	21227.99
753.651	21339.62
753.989	21103.47
754.327	21077.48
754.666	21018.28
755.004	20974.89
755.342	21008.56
755.679	20986.41
756.017	20818.28
756.355	20856.25
756.693	20832.52
757.031	20789.35
757.368	20621.9
757.706	20629.36
758.044	20522.02
758.381	20529.02
758.719	20394.56
759.056	20445.18
759.394	20405.41
759.731	20359.31
760.068	20223.04
760.405	20203.61
760.743	20091.07
761.08	20164.96
761.417	19955.93
761.754	19983.5
762.091	19882.71
762.428	19859.44
762.765	19722.94
763.102	19798.87
763.438	19582.38
763.775	19549.61
764.112	19696.73
764.449	19522.5
764.785	19526.34
765.122	19360.01
765.458	19236.63
765.795	19242.05
766.131	19155.27
766.467	19125.22
766.804	19043.64
767.14	18919.12
767.476	18906.69
767.812	18868.28
768.148	18862.4
768.485	18758.45
768.821	18693.59
769.157	18589.19
769.492	18540.15
769.828	18537.89
770.164	18384.67
770.5	18332.7
770.836	18313.49
771.171	18182.64
771.507	18115.98
771.842	18113.49
772.178	18005.47
772.513	17985.81
772.849	17838.7
773.184	17775.65
773.519	17791.92
773.855	17710.34
774.19	17656.33
774.525	17628.08
774.86	17633.05
775.195	17562.32
775.53	17424.7
775.865	17348.09
776.2	17285.94
776.535	17149.45
776.87	17148.32
777.205	17120.07
777.539	17013.86
777.874	17062.45
778.209	16866.97
778.543	16914.2
778.878	16623.81
779.212	16699.74
779.547	16647.54
779.881	16617.26
780.215	16489.81
780.55	16658.62
780.884	16410.71
781.218	16476.25
781.552	16408.9
781.886	16331.84
782.22	16190.61
782.554	16119.65
782.888	15950.61
783.222	15968.92
783.556	15904.29
783.889	15846.66
784.223	15742.26
784.557	15773.44
784.89	15698.87
785.224	15694.35
785.557	15559.21
785.891	15532.77
786.224	15466.33
786.558	15465.2
786.891	15250.07
787.224	15262.04
787.557	15236.28
787.891	15185.66
788.224	15162.84
788.557	15165.55
788.89	15000.35
789.223	15096.17
789.556	14974.82
789.888	14821.6
790.221	14864.76
790.554	14727.37
790.887	14751.77
791.219	14640.36
791.552	14671.32
791.884	14631.1
792.217	14528.28
792.549	14512.91
792.882	14345.68
793.214	14357.21
793.546	14307.94
793.879	14337.09
794.211	14174.61
794.543	14167.61
794.875	14100.94
795.207	14162.86
795.539	14041.28
795.871	14061.62
796.203	13935.75
796.535	13883.55
796.867	13818.69
797.198	13934.62
797.53	13751.35
797.862	13717.68
798.193	13790.44
798.525	13578.47
798.856	13589.09
799.188	13437.68
799.519	13470.68
799.85	13411.24
800.182	13400.85
800.513	13400.4
800.844	13283.34
801.175	13348.19
801.506	13320.62
801.837	13137.8
802.168	13180.29
802.499	13161.08
802.83	13055.09
803.161	13046.28
803.491	13117.01
803.822	12988.88
804.153	12997.24
804.483	12849.45
804.814	12776.68
805.145	12763.58
805.475	12790.92
805.805	12751.37
806.136	12739.62
806.466	12653.3
806.796	12733.75
807.126	12584.15
807.457	12629.34
807.787	12589.57
808.117	12528.78
808.447	12514.54
808.777	12399.74
809.107	12414.89
809.436	12332.4
809.766	12427.09
810.096	12316.81
810.426	12254.21
810.755	12225.29
811.085	12269.13
811.414	12148.45
811.744	12084.5
812.073	12044.5
812.403	12001.34
812.732	12037.27
813.061	12035.69
813.39	11901.9
813.719	11875.92
814.049	11903.26
814.378	11845.41
814.707	11838.63
815.036	11817.39
815.365	11744.39
815.693	11629.37
816.022	11682.25
816.351	11645.64
816.68	11562.93
817.008	11682.48
817.337	11528.13
817.665	11505.53
817.994	11570.39
818.322	11547.34
818.651	11458.98
818.979	11371.07
819.307	11430.96
819.636	11397.74
819.964	11271.64
820.292	11360.22
820.62	11315.71
820.948	11353.67
821.276	11345.08
821.604	11276.84
821.932	11268.93
822.259	11304.41
822.587	11265.31
822.915	11273.22
823.243	11265.99
823.57	11274.35
823.898	11294.46
824.225	11170.85
824.553	11240.23
824.88	11202.71
825.207	11170.17
825.535	11202.49
825.862	11259.66
826.189	11191.87
826.516	11262.15
826.843	11259.44
827.17	11304.86
827.497	11200.23
827.824	11239.55
828.151	11260.34
828.478	11272.99
828.805	11279.1
829.131	11205.65
829.458	11261.47
829.785	11180.34
830.111	11199.32
830.438	11303.05
830.764	11205.88
831.09	11229.38
831.417	11177.63
831.743	11208.36
832.069	11214.92
832.395	11138.76
832.722	11169.95
833.048	11077.07
833.374	11161.59
833.7	11063.96
834.026	11055.15
834.351	11094.69
834.677	11130.85
835.003	11120
835.329	11104.86
835.654	11065.32
835.98	10978.31
836.306	11002.04
836.631	10933.12
836.956	11000.91
837.282	10984.87
837.607	10960.01
837.932	10913.68
838.258	10916.39
838.583	10887.47
838.908	10773.12
839.233	10871.88
839.558	10797.75
839.883	10860.58
840.208	10740.35
840.533	10717.98
840.858	10796.62
841.182	10750.97
841.507	10751.2
841.832	10607.93
842.156	10642.95
842.481	10641.15
842.805	10599.79
843.13	10584.2
843.454	10618.1
843.778	10548.49
844.103	10568.61
844.427	10533.35
844.751	10601.37
845.075	10493.13
845.399	10414.71
845.723	10411.1
846.047	10407.71
846.371	10269.63
846.695	10151.22
847.019	10234.38
847.343	10264.43
847.666	10155.74
847.99	10091.56
848.313	10137.21
848.637	9988.06
848.96	10007.94
849.284	9985.57
849.607	9871.9
849.931	9864.44
850.254	9796.2
850.577	9806.59
850.9	9658.57
851.223	9725.46
851.546	9668.97
851.869	9595.52
852.192	9671.91
852.515	9589.87
852.838	9472.14
853.161	9509.65
853.483	9489.31
853.806	9408.41
854.129	9406.83
854.451	9349.43
854.774	9308.98
855.096	9328.86
855.419	9270.34
855.741	9319.83
856.063	9234.4
856.385	9169.1
856.708	9139.04
857.03	9116.22
857.352	9130
857.674	9140.17
857.996	9092.71
858.318	8980.63
858.64	9031.25
858.961	8995.54
859.283	8944.47
859.605	8880.97
859.926	8899.05
860.248	8902.21
860.57	8784.92
860.891	8836.22
861.212	8784.02
861.534	8799.39
861.855	8734.53
862.176	8806.62
862.498	8801.42
862.819	8731.82
863.14	8720.97
863.461	8681.2
863.782	8666.28
864.103	8673.29
864.424	8637.13
864.745	8584.25
865.065	8610.69
865.386	8562.56
865.707	8573.63
866.027	8598.04
866.348	8509.9
866.668	8481.66
866.989	8517.81
867.309	8443.69
867.63	8537.25
867.95	8500.86
868.27	8382.22
868.59	8433.97
868.91	8436.68
869.23	8439.85
869.55	8368.21
869.87	8394.65
870.19	8363.24
870.51	8366.18
870.83	8347.2
871.15	8335.22
871.469	8309
871.789	8332.96
872.109	8337.03
872.428	8278.5
872.748	8285.05
873.067	8236.01
873.386	8275.56
873.706	8234.43
874.025	8228.1
874.344	8120.99
874.663	8227.42
874.982	8130.93
875.301	8152.4
875.62	8110.14
875.939	8128.44
876.258	8138.61
876.577	8112.4
876.896	8126.18
877.214	8059.97
877.533	7973.19
877.852	8023.59
878.17	8035.34
878.489	8036.02
878.807	8001.22
879.125	7945.85
879.444	8007.09
879.762	7950.82
880.08	7938.39
880.398	7909.47
880.716	7907.43
881.034	7856.59
881.352	7878.06
881.67	7854.33
881.988	7912.4
882.306	7878.28
882.624	7843.03
882.941	7767.1
883.259	7764.84
883.577	7759.64
883.894	7716.25
884.212	7699.53
884.529	7734.33
884.846	7682.81
885.164	7675.35
885.481	7643.03
885.798	7647.78
886.115	7558.52
886.432	7558.52
886.75	7570.49
887.067	7602.58
887.383	7474.45
887.7	7450.04
888.017	7443.26
888.334	7523.94
888.651	7459.76
888.967	7463.38
889.284	7368.46
889.6	7429.25
889.917	7332.31
890.233	7309.03
890.55	7286.66
890.866	7380.22
891.182	7265.87
891.498	7328.47
891.815	7181.12
892.131	7184.51
892.447	7235.81
892.763	7182.25
893.079	7156.94
893.395	7127.34
893.71	7130.05
894.026	7093.67
894.342	7101.13
894.657	7031.3
894.973	7034.46
895.289	7036.27
895.604	7024.52
895.92	6973.45
896.235	6899.1
896.55	6919.21
896.865	6947.01
897.181	6915.14
897.496	6902.04
897.811	6858.42
898.126	6786.33
898.441	6805.77
898.756	6765.54
899.071	6766.67
899.386	6765.77
899.7	6715.83
900.015	6649.61
900.33	6613.46
900.644	6568.94
900.959	6609.84
901.273	6572.33
901.588	6606.45
901.902	6514.93
902.216	6502.95
902.531	6467.02
902.845	6440.35
903.159	6433.35
903.473	6416.85
903.787	6387.7
904.101	6345.21
904.415	6382.05
904.729	6327.81
905.042	6307.93
905.356	6286.23
905.67	6290.98
905.984	6236.74
906.297	6209.17
906.611	6232.9
906.924	6121.72
907.237	6189.96
907.551	6186.8
907.864	6054.37
908.177	6076.52
908.491	6055.73
908.804	6035.39
909.117	6021.61
909.43	5985
909.743	5933.25
910.056	5946.81
910.368	5917.43
910.681	5869.75
910.994	5870.88
911.307	5831.1
911.619	5812.35
911.932	5801.05
912.244	5744.33
912.557	5706.14
912.869	5718.79
913.181	5645.12
913.494	5645.12
913.806	5689.86
914.118	5618.45
914.43	5587.95
914.742	5594.27
915.054	5568.51
915.366	5537.78
915.678	5500.26
915.99	5492.81
916.302	5446.71
916.613	5455.97
916.925	5401.51
917.236	5431.34
917.548	5363.55
917.859	5418.91
918.171	5315.41
918.482	5280.61
918.794	5226.15
919.105	5215.53
919.416	5236.77
919.727	5263.89
920.038	5176.88
920.349	5182.53
920.66	5146.38
920.971	5149.54
921.282	5085.59
921.593	5099.15
921.903	5101.86
922.214	5115.64
922.525	5041.07
922.835	4990.22
923.146	5008.75
923.456	4964.23
923.767	4996.32
924.077	4959.71
924.387	4927.85
924.697	4918.36
925.008	4885.37
925.318	4906.61
925.628	4862.32
925.938	4820.51
926.248	4823.67
926.558	4844.24
926.867	4774.63
927.177	4735.54
927.487	4740.96
927.796	4700.96
928.106	4711.36
928.416	4653.96
928.725	4656.22
929.034	4695.54
929.344	4677.01
929.653	4628.88
929.962	4578.93
930.271	4529.9
930.581	4499.39
930.89	4509.78
931.199	4517.01
931.508	4465.04
931.817	4478.6
932.125	4458.94
932.434	4441.76
932.743	4407.64
933.051	4393.63
933.36	4405.15
933.669	4304.14
933.977	4302.1
934.286	4312.27
934.594	4316.57
934.902	4289.68
935.21	4273.86
935.519	4288.55
935.827	4228.43
936.135	4204.93
936.443	4206.97
936.751	4152.96
937.059	4167.64
937.367	4122
937.674	4104.14
937.982	4084.93
938.29	4063.92
938.597	4099.62
938.905	4013.07
939.213	4034.31
939.52	4049.46
939.827	3984.6
940.135	3988.44
940.442	3962.68
940.749	3957.93
941.056	3986.41
941.363	3953.86
941.67	3915.9
941.977	3893.08
942.284	3879.06
942.591	3891.95
942.898	3844.49
943.205	3851.27
943.511	3799.52
943.818	3816.47
944.125	3811.72
944.431	3736.24
944.738	3768.33
945.044	3735.57
945.35	3724.49
945.657	3719.52
945.963	3706.64
946.269	3667.54
946.575	3649.92
946.881	3653.31
947.187	3643.59
947.493	3583.93
947.799	3618.96
948.105	3595.91
948.41	3548.23
948.716	3529.92
949.022	3522.24
949.327	3512.07
949.633	3424.16
949.938	3465.74
950.244	3490.6
950.549	3443.37
950.854	3465.74
951.16	3394.56
951.465	3390.26
951.77	3346.42
952.075	3369.7
952.38	3351.17
952.685	3371.96
952.99	3302.81
953.294	3363.37
953.599	3286.09
953.904	3293.32
954.209	3291.06
954.513	3288.35
954.818	3264.62
955.122	3211.51
955.426	3239.53
955.731	3227.78
956.035	3178.07
956.339	3199.76
956.643	3167.67
956.948	3176.03
957.252	3150.72
957.556	3137.84
957.86	3128.12
958.163	3106.43
958.467	3131.06
958.771	3120.67
959.075	3044.06
959.378	3057.62
959.682	3052.87
959.985	3031.18
960.289	3026.66
960.592	3048.35
960.896	3010.39
961.199	3017.62
961.502	2978.98
961.805	2979.2
962.108	2945.3
962.411	2934.23
962.714	2936.72
963.017	2916.83
963.32	2872.09
963.623	2878.19
963.926	2907.56
964.228	2879.32
964.531	2852.2
964.833	2828.24
965.136	2804.74
965.438	2791.86
965.741	2778.08
966.043	2784.63
966.345	2769.04
966.648	2785.53
966.95	2762.03
967.252	2718.87
967.554	2717.97
967.856	2718.42
968.158	2701.47
968.46	2720.23
968.761	2698.53
969.063	2689.94
969.365	2673.67
969.666	2649.27
969.968	2629.61
970.269	2607.46
970.571	2631.87
970.872	2600
971.174	2582.6
971.475	2577.63
971.776	2553
972.077	2565.43
972.378	2540.34
972.679	2550.06
972.98	2552.32
973.281	2498.54
973.582	2526.33
973.883	2505.54
974.183	2459.21
974.484	2459.67
974.785	2469.61
975.085	2464.41
975.386	2457.18
975.686	2462.83
975.986	2429.61
976.287	2460.34
976.587	2416.28
976.887	2404.98
977.187	2393.23
977.487	2403.62
977.787	2367.24
978.087	2360.46
978.387	2369.95
978.687	2362.72
978.987	2325.89
979.286	2319.56
979.586	2334.7
979.885	2288.37
980.185	2338.54
980.484	2268.49
980.784	2275.49
981.083	2298.32
981.382	2269.39
981.682	2230.52
981.981	2249.05
982.28	2209.96
982.579	2235.72
982.878	2217.64
983.177	2218.09
983.475	2188.94
983.774	2174.02
984.073	2166.57
984.372	2184.87
984.67	2179.9
984.969	2143.29
985.267	2159.79
985.566	2136.06
985.864	2076.4
986.162	2123.18
986.461	2096.96
986.759	2077.08
987.057	2074.14
987.355	2078.66
987.653	2063.07
987.951	2069.85
988.249	2037.53
988.547	2055.38
988.844	2041.6
989.142	2038.89
989.44	2012.67
989.737	2027.36
990.035	1962.5
990.332	1974.71
990.63	1962.28
990.927	1958.66
991.224	1946.46
991.521	1933.13
991.819	1940.81
992.116	1938.32
992.413	1915.73
992.71	1917.99
993.006	1902.85
993.303	1904.2
993.6	1892.45
993.897	1860.81
994.193	1874.6
994.49	1865.33
994.787	1828.95
995.083	1838.44
995.379	1830.53
995.676	1822.17
995.972	1794.37
996.268	1792.57
996.565	1790.98
996.861	1805.45
997.157	1786.01
997.453	1774.94
997.749	1784.88
998.044	1772.23
998.34	1754.6
998.636	1765.22
998.932	1747.82
999.227	1709.4
999.523	1749.18
999.818	1723.42
1000.114	1699.91
1000.409	1682.51
1000.704	1693.59
1001	1681.16
1001.295	1677.31
1001.59	1652.23
1001.885	1656.3
1002.18	1659.91
1002.475	1621.27
1002.77	1635.51
1003.065	1606.58
1003.359	1599.12
1003.654	1609.97
1003.949	1609.97
1004.243	1617.66
1004.538	1567.49
1004.832	1572.68
1005.127	1565.68
1005.421	1562.29
1005.715	1550.99
1006.009	1532.69
1006.304	1528.84
1006.598	1512.12
1006.892	1497.43
1007.186	1494.04
1007.48	1480.26
1007.773	1497.88
1008.067	1467.6
1008.361	1455.63
1008.655	1461.73
1008.948	1443.2
1009.242	1451.11
1009.535	1457.89
1009.829	1423.08
1010.122	1416.98
1010.415	1416.53
1010.708	1394.16
1011.001	1382.86
1011.295	1377.21
1011.588	1402.75
1011.881	1349.19
1012.173	1372.92
1012.466	1366.59
1012.759	1349.87
1013.052	1382.86
1013.344	1330.88
1013.637	1353.48
1013.93	1324.78
1014.222	1351.67
1014.514	1306.7
1014.807	1313.48
1015.099	1300.6
1015.391	1321.84
1015.683	1296.53
1015.976	1253.82
1016.268	1242.98
1016.56	1270.55
1016.851	1252.02
1017.143	1254.95
1017.435	1245.24
1017.727	1237.33
1018.018	1242.3
1018.31	1207.27
1018.602	1223.54
1018.893	1186.25
1019.185	1218.12
1019.476	1208.85
1019.767	1204.78
1020.058	1179.02
1020.35	1148.97
1020.641	1131.11
1020.932	1181.96
1021.223	1162.3
1021.514	1124.33
1021.804	1151.68
1022.095	1143.09
1022.386	1111.45
1022.677	1125.92
1022.967	1097.44
1023.258	1101.74
1023.548	1110.55
1023.839	1100.83
1024.129	1087.5
1024.419	1090.44
1024.709	1055.64
1025	1053.15
1025.29	1057.44
1025.58	1030.33
1025.87	1019.25
1026.16	1021.74
1026.449	1028.29
1026.739	1016.99
1027.029	1035.75
1027.319	1002.98
1027.608	996.2
1027.898	986.03
1028.187	996.43
1028.477	953.72
1028.766	971.34
1029.055	986.03
1029.344	959.37
1029.634	982.19
1029.923	931.8
1030.212	946.03
1030.501	949.65
1030.79	919.37
1031.078	959.37
1031.367	922.76
1031.656	918.24
1031.945	938.58
1032.233	931.35
1032.522	895.64
1032.81	871.46
1033.099	897
1033.387	890.67
1033.675	901.06
1033.963	882.99
1034.251	870.78
1034.54	871.01
1034.828	871.69
1035.116	859.71
1035.403	837.79
1035.691	838.47
1035.979	833.72
1036.267	835.53
1036.554	828.07
1036.842	819.71
1037.129	840.73
1037.417	829.43
1037.704	809.54
1037.992	828.52
1038.279	813.38
1038.566	795.76
1038.853	795.76
1039.14	795.76
