Data from White_paper_FLMS001491_025.txt Node
Date: Tue Feb 07 10:34:52 GMT 2017
User: dcchb
Spectrometer: FLMS00149
Trigger mode: 0
Integration Time (sec): 2.000000E-2
Scans to average: 10
Electric dark correction enabled: true
Nonlinearity correction enabled: false
Boxcar width: 0
XAxis mode: Wavelengths
Number of Pixels in Spectrum: 2048
>>>>>Begin Spectral Data<<<<<
341.393	-23.19
341.776	-23.19
342.16	-23.19
342.543	-75.62
342.927	-65.9
343.31	-78.56
343.693	-76.52
344.077	-56.41
344.46	-58.9
344.843	-58.44
345.226	-49.41
345.61	-20.03
345.993	-20.93
346.376	-6.47
346.759	5.28
347.142	35.34
347.525	33.53
347.908	57.48
348.291	72.63
348.674	101.33
349.057	120.08
349.44	111.27
349.823	144.94
350.206	159.18
350.588	221.1
350.971	238.04
351.354	247.76
351.737	266.74
352.119	264.71
352.502	276.46
352.884	334.54
353.267	307.2
353.65	311.94
354.032	313.97
354.414	323.47
354.797	339.28
355.179	346.06
355.562	342.67
355.944	358.49
356.326	367.08
356.709	379.28
357.091	369.11
357.473	354.43
357.855	381.09
358.238	368.44
358.62	353.07
359.002	337.03
359.384	351.94
359.766	362.34
360.148	373.18
360.53	367.76
360.912	352.17
361.294	377.25
361.676	349.23
362.057	360.75
362.439	374.76
362.821	373.63
363.203	360.3
363.584	377.7
363.966	368.89
364.348	351.71
364.729	341.77
365.111	357.36
365.493	375.22
365.874	349.23
366.256	347.87
366.637	343.13
367.019	351.94
367.4	334.54
367.781	352.62
368.163	332.73
368.544	361.43
368.925	351.04
369.306	367.08
369.688	351.49
370.069	370.47
370.45	365.95
370.831	371.6
371.212	376.35
371.593	370.02
371.974	363.47
372.355	384.71
372.736	375.89
373.117	365.72
373.498	359.85
373.879	350.58
374.26	363.47
374.641	385.84
375.021	351.04
375.402	375.44
375.783	389.68
376.163	388.55
376.544	421.32
376.925	401.43
377.305	413.63
377.686	376.35
378.066	385.84
378.447	390.81
378.827	381.54
379.208	385.61
379.588	390.81
379.968	416.57
380.349	404.37
380.729	419.51
381.109	410.7
381.489	406.63
381.87	426.97
382.25	431.94
382.63	416.12
383.01	409.57
383.39	421.54
383.77	407.76
384.15	435.33
384.53	438.27
384.91	452.5
385.29	425.61
385.67	432.62
386.049	448.43
386.429	443.46
386.809	433.52
387.189	464.71
387.568	453.41
387.948	469.9
388.328	455.21
388.707	467.42
389.087	485.5
389.466	490.24
389.846	507.87
390.225	496.79
390.605	484.37
390.984	491.6
391.363	482.33
391.743	498.83
392.122	527.98
392.501	513.74
392.881	501.99
393.26	545.83
393.639	517.59
394.018	531.6
394.397	544.48
394.776	538.83
395.155	575.21
395.534	548.54
395.913	554.42
396.292	558.71
396.671	571.14
397.05	598.71
397.429	574.08
397.808	566.4
398.186	608.88
398.565	596
398.944	600.97
399.323	612.27
399.701	623.57
400.08	635.32
400.458	619.73
400.837	649.56
401.215	636.23
401.594	665.38
401.972	668.54
402.351	665.38
402.729	662.89
403.107	690.01
403.486	710.57
403.864	715.77
404.242	730.46
404.62	738.14
404.999	731.14
405.377	769.1
405.755	788.99
406.133	801.42
406.511	818.59
406.889	816.79
407.267	857.01
407.645	843.9
408.023	885.26
408.401	890.68
408.779	904.47
409.156	921.64
409.534	955.77
409.912	976.56
410.29	1013.17
410.667	1024.69
411.045	1057.23
411.422	1077.57
411.8	1083.22
412.178	1142.88
412.555	1188.3
412.933	1178.58
413.31	1203.44
413.687	1241.63
414.065	1272.37
414.442	1307.17
414.819	1318.92
415.197	1344.68
415.574	1391.01
415.951	1397.79
416.328	1436.88
416.705	1445.02
417.082	1479.59
417.46	1489.31
417.837	1536.54
418.214	1579.7
418.591	1583.77
418.967	1590.1
419.344	1661.51
419.721	1669.19
420.098	1680.04
420.475	1701.28
420.852	1729.53
421.228	1787.83
421.605	1806.36
421.982	1819.02
422.358	1855.86
422.735	1856.76
423.111	1879.58
423.488	1907.61
423.864	1931.79
424.241	1935.4
424.617	1997.09
424.994	1999.13
425.37	2005.68
425.746	2032.35
426.123	2112.57
426.499	2107.15
426.875	2115.06
427.251	2189.86
427.627	2220.82
428.003	2208.16
428.379	2299.46
428.756	2304.43
429.132	2359.8
429.507	2347.14
429.883	2417.65
430.259	2493.35
430.635	2499
431.011	2529.28
431.387	2552.56
431.763	2639.56
432.138	2644.31
432.514	2675.72
432.89	2703.97
433.265	2785.32
433.641	2839.33
434.016	2840.91
434.392	2880.24
434.767	2940.57
435.143	2964.3
435.518	2983.74
435.894	3015.6
436.269	3039.33
436.644	3113.22
437.02	3102.6
437.395	3130.4
437.77	3209.94
438.145	3251.07
438.52	3287.23
438.895	3293.33
439.271	3353.89
439.646	3377.85
440.021	3418.53
440.395	3439.99
440.77	3470.73
441.145	3482.48
441.52	3535.59
441.895	3541.91
442.27	3566.32
442.645	3541.91
443.019	3618.29
443.394	3585.3
443.769	3686.99
444.143	3661.68
444.518	3711.85
444.892	3720.66
445.267	3750.95
445.641	3811.06
446.016	3789.59
446.39	3828.23
446.764	3864.16
447.139	3836.82
447.513	3922.69
447.887	3916.37
448.262	3939.64
448.636	3974.22
449.01	4026.65
449.384	4044.72
449.758	4039.75
450.132	4125.17
450.506	4121.56
450.88	4169.69
451.254	4148.45
451.628	4234.78
452.002	4239.75
452.376	4298.5
452.75	4326.52
453.123	4387.31
453.497	4418.5
453.871	4465.96
454.244	4553.19
454.618	4559.29
454.992	4670.24
455.365	4660.75
455.739	4772.61
456.112	4783.69
456.486	4880.41
456.859	4870.24
457.232	4998.15
457.606	4962.21
457.979	5084.47
458.352	5125.15
458.725	5241.3
459.099	5265.03
459.472	5326.95
459.845	5449.88
460.218	5454.63
460.591	5458.25
460.964	5513.84
461.337	5641.07
461.71	5758.58
462.083	5830.89
462.456	5808.07
462.829	5827.73
463.201	5987.5
463.574	5980.72
463.947	6073.82
464.32	6255.51
464.692	6285.8
465.065	6317.43
465.438	6379.58
465.81	6458.45
466.183	6589.06
466.555	6689.85
466.928	6703.19
467.3	6728.95
467.672	6831.09
468.045	7029.96
468.417	7020.92
468.789	7135.72
469.161	7175.49
469.534	7317.41
469.906	7480.57
470.278	7471.53
470.65	7646.89
471.022	7704.97
471.394	7910.84
471.766	8012.3
472.138	8040.1
472.51	8252.3
472.882	8398.73
473.253	8439.86
473.625	8553.08
473.997	8722.79
474.369	8826.75
474.74	8892.05
475.112	9081.88
475.484	9250.46
475.855	9442.1
476.227	9493.39
476.598	9702.2
476.97	9763.22
477.341	9984.68
477.713	10174.51
478.084	10179.03
478.455	10584.44
478.827	10635.51
479.198	10864.88
479.569	10901.72
479.94	11227.81
480.311	11373.35
480.682	11592.1
481.053	11769.04
481.424	12017.4
481.795	12077.96
482.166	12350.27
482.537	12424.39
482.908	12729.92
483.279	12799.75
483.65	13052.85
484.021	13395.66
484.391	13405.38
484.762	13542.33
485.133	13698.71
485.503	13876.1
485.874	14234.06
486.244	14322.19
486.615	14615.52
486.985	14707.27
487.356	14985.91
487.726	15142.51
488.097	15450.98
488.467	15461.6
488.837	15802.16
489.207	15968.48
489.578	16177.96
489.948	16291.86
490.318	16529.14
490.688	16590.83
491.058	16895.91
491.428	17118.73
491.798	17318.05
492.168	17528.89
492.538	17720.97
492.908	17854.3
493.278	18020.4
493.648	18061.08
494.017	18205.26
494.387	18482.31
494.757	18679.59
495.126	18734.28
495.496	18973.6
495.866	19010.88
496.235	19234.38
496.605	19414.72
496.974	19395.28
497.344	19737.19
497.713	19879.56
498.082	19908.71
498.452	20162.27
498.821	20218.76
499.19	20291.98
499.559	20427.12
499.928	20648.36
500.298	20741.23
500.667	20961.34
501.036	20959.08
501.405	21178.74
501.774	21267.32
502.143	21508.67
502.512	21492.63
502.88	21711.15
503.249	21765.39
503.618	21988.89
503.987	22046.28
504.356	22207.86
504.724	22327.86
505.093	22399.95
505.462	22475.43
505.83	22732.14
506.199	22774.4
506.567	23122.19
506.936	23078.35
507.304	23371.9
507.672	23552.69
508.041	23583.19
508.409	23742.96
508.777	23940.47
509.145	24083.97
509.514	24124.42
509.882	24321.03
510.25	24414.13
510.618	24661.58
510.986	24766.67
511.354	24898.64
511.722	25181.57
512.09	25353.54
512.458	25378.63
512.826	25540.88
513.193	25697.04
513.561	25814.32
513.929	26031.94
514.297	26332.95
514.664	26362.1
515.032	26529.33
515.4	26656.78
515.767	26807.06
516.135	26912.6
516.502	26918.47
516.869	27431.45
517.237	27504.22
517.604	27480.72
517.972	27795.74
518.339	27910.31
518.706	27945.11
519.073	28229.17
519.44	28270.75
519.808	28617.19
520.175	28587.36
520.542	29012.43
520.909	29205.42
521.276	29116.83
521.643	29496.48
522.009	29680.66
522.376	29902.35
522.743	30047.43
523.11	30373.98
523.477	30780.29
523.843	30758.6
524.21	31066.61
524.577	31256.44
524.943	31432.93
525.31	31679.93
525.676	31823.65
526.043	32012.12
526.409	32215.73
526.776	32481.04
527.142	32561.71
527.508	32817.3
527.874	33120.8
528.241	33251.64
528.607	33345.87
528.973	33748.8
529.339	33714.9
529.705	34048.68
530.071	34196.25
530.437	34514.66
530.803	34525.5
531.169	34869
531.535	34749.91
531.901	34937.47
532.267	35061.76
532.632	35320.29
532.998	35426.72
533.364	35703.33
533.73	35762.08
534.095	36108.97
534.461	36081.85
534.826	36377.43
535.192	36434.16
535.557	36746.01
535.923	36732.68
536.288	36855.16
536.653	37186.9
537.019	37098.32
537.384	37333.11
537.749	37476.84
538.114	37567.68
538.479	37576.05
538.845	37743.95
539.21	37842.71
539.575	37895.13
539.94	38043.38
540.305	38405.4
540.67	38309.81
541.034	38513.42
541.399	38747.09
541.764	38683.36
542.129	38857.37
542.494	39010.13
542.858	39269.56
543.223	39213.97
543.587	39548.42
543.952	39592.94
544.316	39777.57
544.681	39691.7
545.045	40011.46
545.41	40207.39
545.774	40187.5
546.138	40333.04
546.503	40365.13
546.867	40552.46
547.231	40912
547.595	40980.48
547.959	40973.02
548.324	41196.52
548.688	41252.79
549.052	41420.69
549.416	41454.59
549.779	41683.51
550.143	41663.85
550.507	42072.42
550.871	42047.57
551.235	42194.46
551.599	42462.02
551.962	42434.22
552.326	42618.4
552.689	42678.51
553.053	42670.38
553.417	42801.9
553.78	43314.88
554.143	43163.7
554.507	43341.09
554.87	43348.1
555.234	43822.89
555.597	43733.17
555.96	43751.25
556.323	44099.26
556.686	44062.2
557.05	44459.93
557.413	44441.63
557.776	44415.87
558.139	44880.94
558.502	44753.94
558.865	44816.53
559.228	45314.83
559.59	45487.02
559.953	45376.52
560.316	45950.74
560.679	45788.49
561.041	46078.87
561.404	46127.91
561.767	46523.83
562.129	46461.69
562.492	46754.34
562.854	46768.57
563.217	46695.35
563.579	46955.23
563.941	47359.07
564.304	47253.98
564.666	47667.31
565.028	47742.78
565.39	47908.43
565.753	48010.12
566.115	48344.58
566.477	48365.59
566.839	48372.6
567.201	48687.84
567.563	48784.56
567.925	49017.78
568.287	49051.68
568.648	49101.39
569.01	49251.45
569.372	49599.46
569.734	49387.49
570.095	49658.21
570.457	49896.85
570.819	50011.88
571.18	50037.41
571.542	50217.52
571.903	50253.68
572.265	50447.8
572.626	50398.31
572.987	50630.84
573.349	50728.02
573.71	50882.81
574.071	50930.72
574.432	51092.53
574.794	51376.14
575.155	51250.26
575.516	51207.1
575.877	51322.13
576.238	51441.22
576.599	51590.37
576.96	51608.9
577.32	51567.32
577.681	51809.12
578.042	51894.54
578.403	51872.39
578.763	51976.12
579.124	52071.26
579.485	52277.13
579.845	52277.81
580.206	52163.46
580.566	52229.45
580.927	52372.04
581.287	52409.33
581.648	52334.75
582.008	52474.19
582.368	52444.36
582.728	52505.82
583.089	52514.18
583.449	52485.94
583.809	52580.85
584.169	52590.34
584.529	52513.28
584.889	52850.67
585.249	52716.66
585.609	52556.67
585.969	52817.45
586.329	52699.49
586.688	52776.1
587.048	52725.25
587.408	52762.09
587.768	52813.16
588.127	52802.09
588.487	52830.79
588.846	52970.9
589.206	52873.5
589.565	52869.88
589.925	53026.71
590.284	52967.28
590.643	53009.76
591.003	52992.59
591.362	53144.68
591.721	53128.41
592.08	53115.07
592.44	53173.83
592.799	53212.02
593.158	53157.56
593.517	53208.4
593.876	53241.17
594.235	53165.01
594.593	53224
594.952	53271.23
595.311	53228.06
595.67	53290.21
596.029	53417.66
596.387	53505.34
596.746	53476.87
597.104	53338.57
597.463	53367.27
597.822	53488.4
598.18	53388.96
598.538	53397.1
598.897	53611.78
599.255	53407.95
599.613	53869.4
599.972	53546.02
600.33	53699.46
600.688	53591.22
601.046	53654.04
601.404	53797.99
601.762	53687.26
602.12	53953.47
602.478	53824.21
602.836	53868.05
603.194	53698.11
603.552	53814.26
603.91	53750.31
604.268	53927.25
604.625	53800.93
604.983	53944.66
605.341	53758.22
605.698	53967.03
606.056	53986.46
606.413	54021.04
606.771	54096.52
607.128	54034.6
607.485	54021.04
607.843	54041.6
608.2	54121.83
608.557	54226
608.914	54161.6
609.272	54236.17
609.629	54324.98
609.986	54402.72
610.343	54308.49
610.7	54483.4
611.057	54418.77
611.414	54355.49
611.771	54475.94
612.127	54552.1
612.484	54581.25
612.841	54577.41
613.198	54569.27
613.554	54560.91
613.911	54734.46
614.267	54687.91
614.624	54669.38
614.98	54707.8
615.337	54831.86
615.693	54711.87
616.05	54756.39
616.406	54814.46
616.762	54842.03
617.118	54792.09
617.475	54744.18
617.831	54877.74
618.187	54866.66
618.543	54847.46
618.899	55008.81
619.255	54976.04
619.611	55029.6
619.967	55057.85
620.323	55087.9
620.678	55058.98
621.034	54949.83
621.39	54982.82
621.746	55000.67
622.101	55278.63
622.457	55001.8
622.812	55037.06
623.168	55185.53
623.523	55121.57
623.879	55195.47
624.234	55048.13
624.589	55094.46
624.945	55052.42
625.3	55171.97
625.655	55126.09
626.01	55185.3
626.365	55131.29
626.72	55156.37
627.075	55065.08
627.43	55126.54
627.785	54998.41
628.14	55152.08
628.495	55107.11
628.85	55099.88
629.205	55026.43
629.559	55258.52
629.914	55059.43
630.269	55107.56
630.623	55003.84
630.978	55049.71
631.332	55132.87
631.687	55163.38
632.041	55034.8
632.396	55103.04
632.75	55016.49
633.104	55001.8
633.459	54929.49
633.813	54847.68
634.167	54902.37
634.521	54853.56
634.875	54948.02
635.229	54950.5
635.583	54851.98
635.937	54819.89
636.291	54761.81
636.645	54840.68
636.999	54793.45
637.352	54886.55
637.706	54644.07
638.06	54817.17
638.413	54738.98
638.767	54682.49
639.121	54776.72
639.474	54635.26
639.828	54688.14
640.181	54708.93
640.534	54675.94
640.888	54590.51
641.241	54552.55
641.594	54464.19
641.947	54631.64
642.301	54535.83
642.654	54574.69
643.007	54515.71
643.36	54522.04
643.713	54408.6
644.066	54546.45
644.419	54334.7
644.771	54175.38
645.124	53905.79
645.477	53875.5
645.83	53703.53
646.182	53575.63
646.535	53565
646.888	53628.51
647.24	53470.32
647.593	53659.69
647.945	53593.48
648.298	53365.24
648.65	53387.83
649.002	53414.95
649.355	53516.42
649.707	53457.44
650.059	53492.69
650.411	53879.8
650.763	53838.22
651.115	54202.5
651.467	54100.81
651.819	54165.67
652.171	54061.04
652.523	54032.34
652.875	54064.2
653.227	53779.69
653.578	54082.96
653.93	53995.05
654.282	53881.38
654.633	53856.07
654.985	53880.02
655.337	53893.81
655.688	53896.52
656.039	53896.07
656.391	53730.2
656.742	53714.6
657.094	53796.64
657.445	53854.71
657.796	53806.81
658.147	53745.79
658.498	53715.28
658.849	53790.76
659.2	53773.36
659.551	53693.14
659.902	53812.23
660.253	53700.37
660.604	53813.36
660.955	53610.88
661.306	53745.34
661.656	53677.54
662.007	53703.31
662.358	53642.29
662.708	53644.32
663.059	53671.89
663.409	53419.25
663.76	53699.01
664.11	53635.06
664.461	53705.34
664.811	53606.13
665.161	53639.35
665.511	53531.56
665.862	53548.51
666.212	53617.21
666.562	53590.99
666.912	53552.35
667.262	53601.16
667.612	53604.1
667.962	53539.47
668.312	53444.78
668.662	53554.83
669.011	53460.37
669.361	53438.23
669.711	53395.74
670.06	53334.05
670.41	53262.87
670.76	53224.45
671.109	53340.6
671.459	53335.41
671.808	53229.87
672.157	53226.03
672.507	53178.35
672.856	53041.4
673.205	53150.78
673.554	53232.58
673.904	53040.72
674.253	53299.47
674.602	53100.61
674.951	52653.16
675.3	52482.09
675.649	53017.45
675.998	52933.16
676.346	52967.51
676.695	53051.12
677.044	52772.03
677.393	52816.55
677.741	53000.27
678.09	52797.57
678.438	52741.52
678.787	52765.7
679.135	52843.44
679.484	52479.38
679.832	52616.55
680.181	52313.74
680.529	52534.52
680.877	52505.37
681.225	52382.21
681.573	52553.73
681.922	52323.45
682.27	52257.02
682.618	52285.72
682.966	52184.02
683.314	52241.65
683.661	52174.53
684.009	51940.64
684.357	51814.77
684.705	51845.05
685.053	51963.69
685.4	51768.22
685.748	51584.72
686.095	51598.05
686.443	51405.06
686.79	51366.87
687.138	51441.22
687.485	51408.68
687.832	51317.83
688.18	51361.22
688.527	51079.19
688.874	51027.44
689.221	50991.29
689.568	50896.37
689.915	50662.93
690.262	50759.2
690.609	50691.18
690.956	50492.99
691.303	50468.14
691.65	50343.17
691.997	50238.31
692.344	50086.23
692.69	50088.49
693.037	50079.45
693.383	49779.79
693.73	49927.13
694.077	49661.15
694.423	49726.46
694.769	49504.09
695.116	49505.9
695.462	49481.72
695.808	49335.06
696.155	49325.12
696.501	48961.96
696.847	49051.45
697.193	48771.23
697.539	48914.5
697.885	48721.52
698.231	48536.89
698.577	48647.62
698.923	48485.82
699.269	48333.5
699.614	48149.78
699.96	48057.35
700.306	48000.63
700.651	47824.36
700.997	47866.17
701.342	47690.36
701.688	47631.37
702.033	47460.76
702.379	47488.78
702.724	47327.2
703.069	47361.55
703.415	47143.03
703.76	46929.25
704.105	46953.65
704.45	46945.29
704.795	46763.15
705.14	46722.25
705.485	46512.08
705.83	46487.45
706.175	46475.25
706.52	46286.78
706.865	46202.03
707.209	46114.58
707.554	45889.73
707.899	46119.55
708.243	45770.41
708.588	45771.31
708.932	45682.5
709.277	45394.82
709.621	45495.61
709.966	45084.78
710.31	45351.43
710.654	45000.94
710.998	44993.93
711.342	45238.22
711.687	44925.01
712.031	44680.94
712.375	44677.78
712.719	44725.46
713.063	44520.04
713.407	44812.24
713.75	44438.69
714.094	44462.64
714.438	44311.69
714.782	44251.35
715.125	44040.51
715.469	44207.28
715.812	43823.11
716.156	43809.78
716.499	43736.11
716.843	43872.15
717.186	43547.64
717.53	43658.15
717.873	43656.56
718.216	43502.67
718.559	43327.99
718.902	43163.24
719.246	43314.88
719.589	43089.12
719.932	42980.42
720.275	42816.59
720.617	42848.9
720.96	42857.26
721.303	42967.99
721.646	42914.44
721.989	42557.61
722.331	42745.18
722.674	42526.2
723.016	42575.46
723.359	42593.77
723.701	42534.11
724.044	42255.7
724.386	42132.31
724.729	42204.85
725.071	42108.36
725.413	42149.26
725.755	42050.05
726.097	41925.76
726.439	41676.73
726.782	41773.45
727.124	41895.48
727.465	41648.26
727.807	41688.48
728.149	41560.57
728.491	41376.62
728.833	41415.72
729.175	41325.33
729.516	41231.32
729.858	41243.07
730.199	41273.35
730.541	41215.27
730.882	41021.15
731.224	41177.31
731.565	41005.56
731.906	41030.64
732.248	40866.35
732.589	40794.27
732.93	40606.02
733.271	40703.2
733.612	40687.6
733.953	40789.97
734.294	40479.25
734.635	40301.62
734.976	40490.09
735.317	40321.06
735.658	40255.07
735.999	40207.16
736.339	40058.24
736.68	40252.59
737.021	40030.67
737.361	39959.03
737.702	40091.91
738.042	39943.89
738.383	39890.79
738.723	39986.83
739.063	39874.06
739.404	39852.82
739.744	39690.57
740.084	39670
740.424	39678.59
740.764	39592.94
741.104	39627.74
741.444	39305.94
741.784	39321.54
742.124	39388.2
742.464	39318.37
742.804	39251.71
743.143	39140.52
743.483	39178.49
743.823	38912.51
744.162	38871.83
744.502	38968.55
744.841	38908.44
745.181	39150.24
745.52	38928.55
745.86	38831.83
746.199	38685.62
746.538	38785.05
746.877	38841.78
747.216	38655.79
747.556	38597.04
747.895	38605.62
748.234	38359.98
748.573	38289.25
748.911	38316.82
749.25	38319.53
749.589	38045.86
749.928	38175.35
750.267	38172.19
750.605	38119.08
750.944	37950.27
751.283	37807.45
751.621	37898.75
751.96	37684.97
752.298	37665.31
752.636	37668.02
752.975	37538.98
753.313	37324.3
753.651	37513.9
753.989	37259.22
754.327	37249.95
754.666	37056.96
755.004	37028.04
755.342	37099.67
755.679	37105.55
756.017	36746.46
756.355	36829.62
756.693	36666.24
757.031	36769.29
757.368	36401.16
757.706	36532.68
758.044	36268.28
758.381	36442.29
758.719	36211.79
759.056	36319.58
759.394	36150.32
759.731	35853.61
760.068	35767.28
760.405	35683.44
760.743	35569.77
761.08	35635.08
761.417	35466.04
761.754	35239.84
762.091	35214.75
762.428	35084.36
762.765	34988.09
763.102	35039.16
763.438	34952.61
763.775	34807.31
764.112	34784.93
764.449	34690.7
764.785	34567.99
765.122	34335.91
765.458	34352.18
765.795	34209.13
766.131	34372.74
766.467	34068.34
766.804	33842.13
767.14	33641.69
767.476	33732.76
767.812	33464.29
768.148	33595.81
768.485	33265.65
768.821	33262.26
769.157	33127.58
769.492	33142.49
769.828	32986.79
770.164	32600.13
770.5	32618.89
770.836	32625.22
771.171	32437.88
771.507	32278.56
771.842	32317.43
772.178	32242.4
772.513	32065.68
772.849	31961.96
773.184	31825.46
773.519	31818.46
773.855	31626.15
774.19	31538.46
774.525	31379.15
774.86	31307.28
775.195	31369.88
775.53	31141.86
775.865	30954.3
776.2	30785.94
776.535	30612.84
776.87	30598.6
777.205	30513.63
777.539	30372.85
777.874	30486.97
778.209	30094.89
778.543	30084.49
778.878	29862.58
779.212	29925.4
779.547	29642.7
779.881	29827.32
780.215	29592.53
780.55	29632.3
780.884	29294.46
781.218	29339.65
781.552	29242.93
781.886	29146.66
782.22	28960.68
782.554	28939.66
782.888	28741.7
783.222	28653.57
783.556	28466
783.889	28384.42
784.223	28161.83
784.557	28208.61
784.89	28133.36
785.224	28055.17
785.557	27958.22
785.891	27786.25
786.224	27786.02
786.558	27681.84
786.891	27532.02
787.224	27317.56
787.557	27318.24
787.891	27338.8
788.224	27227.17
788.557	27216.54
788.89	27091.8
789.223	27082.99
789.556	26798.48
789.888	26633.28
790.221	26577.24
790.554	26566.62
790.887	26487.3
791.219	26336.57
791.552	26321.88
791.884	26178.83
792.217	26067.2
792.549	26009.57
792.882	25803.47
793.214	25715.34
793.546	25740.88
793.879	25589.47
794.211	25505.85
794.543	25562.8
794.875	25444.84
795.207	25416.37
795.539	25210.95
795.871	25139.99
796.203	25025.87
796.535	24949.26
796.867	24940.22
797.198	24825.19
797.53	24834.46
797.862	24714.69
798.193	24770.73
798.525	24477.63
798.856	24497.07
799.188	24286
799.519	24222.5
799.85	24163.74
800.182	24097.53
800.513	24077.19
800.844	23900.02
801.175	23925.33
801.506	23967.36
801.837	23811.66
802.168	23713.59
802.499	23670.2
802.83	23523.08
803.161	23391.56
803.491	23456.42
803.822	23408.06
804.153	23328.06
804.483	23167.61
804.814	23172.58
805.145	23062.3
805.475	22964
805.805	22883.1
806.136	22930.56
806.466	22988.86
806.796	22804
807.126	22703.22
807.457	22627.06
807.787	22618.7
808.117	22526.5
808.447	22372.6
808.777	22412.83
809.107	22349.78
809.436	22254.41
809.766	22161.76
810.096	22178.03
810.426	21957.02
810.755	22067.98
811.085	22017.58
811.414	21831.38
811.744	21722.68
812.073	21707.76
812.403	21775.11
812.732	21523.13
813.061	21591.83
813.39	21508.22
813.719	21382.8
814.049	21512.97
814.378	21293.31
814.707	21303.03
815.036	21258.06
815.365	21170.83
815.693	21040.66
816.022	21096.03
816.351	21028.91
816.68	20774.23
817.008	20885.41
817.337	20793.89
817.665	20686.77
817.994	20795.47
818.322	20652.88
818.651	20600.45
818.979	20465.31
819.307	20647.23
819.636	20546.44
819.964	20352.09
820.292	20381.02
820.62	20451.52
820.948	20381.02
821.276	20519.32
821.604	20335.82
821.932	20424.86
822.259	20443.16
822.587	20240.23
822.915	20284.75
823.243	20399.55
823.57	20290.4
823.898	20296.5
824.225	20226.67
824.553	20229.84
824.88	20239.55
825.207	20327.01
825.535	20208.14
825.862	20241.59
826.189	20191.19
826.516	20237.74
826.843	20324.52
827.17	20282.94
827.497	20253.34
827.824	20214.02
828.151	20241.59
828.478	20203.62
828.805	20296.73
829.131	20185.54
829.458	20169.5
829.785	20184.41
830.111	20116.84
830.438	20312.77
830.764	20221.25
831.09	20338.76
831.417	20150.97
831.743	20086.56
832.069	20123.62
832.395	20098.77
832.722	20116.84
833.048	19993.23
833.374	20049.28
833.7	20066.9
834.026	19973.34
834.351	19953.68
834.677	19901.03
835.003	19957.53
835.329	19926.34
835.654	19923.4
835.98	19816.74
836.306	19903.97
836.631	19776.29
836.956	19755.95
837.282	19806.8
837.607	19640.02
837.932	19694.48
838.258	19705.1
838.583	19699.68
838.908	19441.61
839.233	19564.54
839.558	19522.28
839.883	19449.74
840.208	19379.01
840.533	19328.84
840.858	19431.44
841.182	19358.45
841.507	19430.08
841.832	19244.1
842.156	19255.4
842.481	19172.46
842.805	19120.03
843.13	19095.63
843.454	19150.32
843.778	18998.46
844.103	18965.91
844.427	18911
844.751	18904.9
845.075	18870.78
845.399	18689.99
845.723	18702.19
846.047	18684.79
846.371	18453.61
846.695	18529.32
847.019	18360.51
847.343	18363.9
847.666	18245.71
847.99	18227.85
848.313	18168.19
848.637	18094.75
848.96	18032.6
849.284	17930.23
849.607	17794.19
849.931	17779.96
850.254	17602.33
850.577	17571.83
850.9	17408.21
851.223	17478.72
851.546	17392.62
851.869	17261.78
852.192	17278.27
852.515	17076.92
852.838	17066.75
853.161	17101.1
853.483	17011.39
853.806	16947.89
854.129	16965.51
854.451	16869.25
854.774	16738.63
855.096	16620.66
855.419	16639.42
855.741	16640.78
856.063	16457.28
856.385	16388.81
856.708	16372.31
857.03	16325.76
857.352	16355.81
857.674	16317.62
857.996	16201.24
858.318	16201.69
858.64	16215.7
858.961	16075.82
859.283	16062.04
859.605	15931.87
859.926	16034.01
860.248	15890.06
860.57	15931.19
860.891	15911.3
861.212	15717.41
861.534	15703.63
861.855	15812.32
862.176	15705.21
862.498	15728.48
862.819	15646.23
863.14	15560.35
863.461	15566.68
863.782	15487.36
864.103	15606.68
864.424	15404.65
864.745	15483.75
865.065	15523.74
865.386	15322.39
865.707	15416.18
866.027	15367.82
866.348	15352.22
866.668	15289.4
866.989	15134.15
867.309	15098.9
867.63	15126.47
867.95	15150.42
868.27	15086.02
868.59	15180.7
868.91	15018.22
869.23	15106.35
869.55	14965.34
869.87	15055.51
870.19	14942.97
870.51	14972.12
870.83	14945.23
871.15	14844.44
871.469	14868.85
871.789	14877.66
872.109	14809.64
872.428	14754.73
872.748	14779.81
873.067	14773.26
873.386	14759.24
873.706	14816.42
874.025	14657.55
874.344	14610.32
874.663	14624.33
874.982	14667.5
875.301	14617.55
875.62	14450.55
875.939	14454.85
876.258	14504.34
876.577	14490.55
876.896	14493.71
877.214	14448.97
877.533	14377.33
877.852	14294.62
878.17	14363.32
878.489	14346.83
878.807	14323.78
879.125	14330.78
879.444	14229.77
879.762	14151.58
880.08	14224.34
880.398	14131.01
880.716	14211.46
881.034	14102.99
881.352	14039.04
881.67	14078.58
881.988	13985.03
882.306	14070
882.624	13949.1
882.941	13898.93
883.259	13827.07
883.577	13896.67
883.894	13885.14
884.212	13820.29
884.529	13805.82
884.846	13862.32
885.164	13661.19
885.481	13713.17
885.798	13667.07
886.115	13589.11
886.432	13563.8
886.75	13496.91
887.067	13518.83
887.383	13408.55
887.7	13423.01
888.017	13323.58
888.334	13435.21
888.651	13283.58
888.967	13298.04
889.284	13195.67
889.6	13286.52
889.917	13153.64
890.233	13159.06
890.55	13099.18
890.866	13037.48
891.182	12998.84
891.498	12884.49
891.815	12909.12
892.131	12964.94
892.447	12890.37
892.763	12804.95
893.079	12788
893.395	12705.74
893.71	12629.81
894.026	12698.06
894.342	12621.67
894.657	12466.2
894.973	12572.18
895.289	12505.29
895.604	12549.81
895.92	12427.33
896.235	12401.34
896.55	12335.13
896.865	12311.17
897.181	12315.92
897.496	12214
897.811	12176.71
898.126	12098.3
898.441	12124.74
898.756	12023.95
899.071	12076.38
899.386	11958.41
899.7	11842.94
900.015	11902.6
900.33	11758.87
900.644	11739.44
900.959	11747.35
901.273	11693.56
901.588	11600.91
901.902	11638.2
902.216	11566.79
902.531	11574.7
902.845	11473.23
903.159	11402.04
903.473	11365.44
903.787	11285.44
904.101	11312.56
904.415	11243.4
904.729	11259.9
905.042	11189.4
905.356	11141.03
905.67	11143.97
905.984	11110.3
906.297	11102.84
906.611	10973.36
906.924	10962.06
907.237	10930.42
907.551	10883.64
907.864	10821.95
908.177	10743.31
908.491	10757.77
908.804	10669.18
909.117	10576.98
909.43	10519.81
909.743	10489.98
910.056	10476.65
910.368	10514.38
910.681	10461.73
910.994	10353.03
911.307	10244.56
911.619	10289.98
911.932	10249.76
912.244	10220.38
912.557	10096.09
912.869	10128.41
913.181	10075.3
913.494	10066.26
913.806	10000.95
914.118	9922.54
914.43	9909.88
914.742	9929.99
915.054	9818.36
915.366	9763.9
915.678	9760.51
915.99	9703.11
916.302	9635.09
916.613	9601.19
916.925	9559.38
917.236	9517.35
917.548	9441.64
917.859	9504.47
918.171	9370.91
918.482	9376.79
918.794	9315.09
919.105	9299.73
919.416	9172.05
919.727	9205.27
920.038	9214.53
920.349	9101.09
920.66	9140.86
920.971	9001.66
921.282	9098.38
921.593	8957.36
921.903	8956.69
922.214	8847.54
922.525	8866.07
922.835	8804.6
923.146	8779.74
923.456	8749.23
923.767	8697.48
924.077	8623.13
924.387	8636.02
924.697	8604.6
925.008	8598.5
925.318	8533.65
925.628	8489.13
925.938	8455.46
926.248	8404.16
926.558	8335.46
926.867	8345.63
927.177	8346.76
927.487	8271.96
927.796	8188.57
928.106	8179.08
928.416	8164.62
928.725	8084.84
929.034	8079.65
929.344	8049.36
929.653	8033.32
929.962	7957.62
930.271	7914.45
930.581	7889.37
930.89	7832.65
931.199	7765.76
931.508	7803.27
931.817	7778.86
932.125	7773.89
932.434	7675.82
932.743	7598.08
933.051	7586.78
933.36	7577.06
933.669	7516.95
933.977	7528.7
934.286	7506.78
934.594	7467.01
934.902	7349.27
935.21	7424.52
935.519	7379.78
935.827	7318.08
936.135	7295.03
936.443	7238.09
936.751	7179.78
937.059	7175.94
937.367	7112.67
937.674	7142.95
937.982	7111.54
938.29	7013.69
938.597	7068.15
938.905	6964.65
939.213	6931.65
939.52	6881.49
939.827	6944.76
940.135	6861.83
940.442	6827.93
940.749	6845.55
941.056	6817.53
941.363	6754.26
941.67	6743.64
941.977	6656.41
942.284	6655.05
942.591	6575.96
942.898	6518.33
943.205	6563.08
943.511	6546.13
943.818	6570.31
944.125	6476.75
944.431	6435.62
944.738	6426.13
945.044	6390.2
945.35	6361.05
945.657	6336.42
945.963	6252.58
946.269	6318.79
946.575	6272.69
946.881	6199.24
947.187	6217.32
947.493	6201.5
947.799	6082.86
948.105	6086.48
948.41	6120.15
948.716	6076.31
949.022	6019.81
949.327	6013.26
949.633	5927.16
949.938	5958.35
950.244	5942.75
950.549	5899.82
950.854	5890.33
951.16	5808.29
951.465	5833.38
951.77	5782.08
952.075	5730.78
952.38	5725.58
952.685	5704.79
952.99	5688.52
953.294	5645.81
953.599	5639.03
953.904	5600.84
954.209	5614.85
954.513	5571.92
954.818	5519.04
955.122	5492.14
955.426	5466.16
955.731	5463.44
956.035	5448.53
956.339	5394.52
956.643	5413.95
956.948	5295.54
957.252	5294.41
957.556	5297.12
957.86	5270.91
958.163	5276.56
958.467	5262.77
958.771	5248.76
959.075	5211.7
959.378	5126.96
959.682	5204.92
959.985	5096.9
960.289	5070.69
960.592	5079.5
960.896	5069.33
961.199	5015.09
961.502	5055.09
961.805	4955.43
962.108	4968.77
962.411	4953.85
962.714	4892.61
963.017	4888.54
963.32	4888.09
963.623	4861.43
963.926	4870.92
964.228	4840.18
964.531	4786.85
964.833	4766.51
965.136	4697.14
965.438	4711.6
965.741	4700.98
966.043	4692.39
966.345	4664.14
966.648	4670.92
966.95	4642.67
967.252	4583.02
967.554	4546.18
967.856	4572.85
968.158	4530.36
968.46	4566.97
968.761	4495.33
969.063	4480.64
969.365	4412.4
969.666	4465.96
969.968	4409.46
970.269	4388.44
970.571	4402.45
970.872	4353.64
971.174	4312.51
971.475	4295.79
971.776	4302.34
972.077	4222.35
972.378	4231.61
972.679	4223.25
972.98	4216.7
973.281	4214.21
973.582	4164.72
973.883	4185.29
974.183	4177.83
974.484	4122.91
974.785	4067.32
975.085	4080.2
975.386	4063.25
975.686	4043.59
975.986	4025.97
976.287	4008.34
976.587	3970.6
976.887	3996.14
977.187	3897.38
977.487	3968.34
977.787	3919.3
978.087	3898.06
978.387	3871.17
978.687	3859.42
978.987	3888.12
979.286	3810.38
979.586	3794.79
979.885	3771.74
980.185	3780.32
980.484	3732.87
980.784	3716.6
981.083	3678.63
981.382	3692.42
981.682	3702.36
981.981	3698.29
982.28	3644.73
982.579	3589.37
982.878	3645.19
983.177	3598.63
983.475	3573.55
983.774	3559.31
984.073	3558.18
984.372	3562.7
984.67	3499.65
984.969	3519.77
985.267	3471.18
985.566	3465.08
985.864	3424.63
986.162	3436.6
986.461	3407
986.759	3429.15
987.057	3374.23
987.355	3341.69
987.653	3349.83
987.951	3310.28
988.249	3288.13
988.547	3324.29
988.844	3290.85
989.142	3287.91
989.44	3268.7
989.737	3222.82
990.035	3216.95
990.332	3202.03
990.63	3163.84
990.927	3186.67
991.224	3149.15
991.521	3161.36
991.819	3145.31
992.116	3151.19
992.413	3098.31
992.71	3114.58
993.006	3081.59
993.303	3052.43
993.6	3070.51
993.897	3080.23
994.193	3024.19
994.49	3019.67
994.787	2989.38
995.083	2929.73
995.379	2962.04
995.676	2940.12
995.972	2956.17
996.268	2864.64
996.565	2868.48
996.861	2872.33
997.157	2832.1
997.453	2880.24
997.749	2851.76
998.044	2804.98
998.34	2792.33
998.636	2771.99
998.932	2758.88
999.227	2762.27
999.523	2771.31
999.818	2696.06
1000.114	2709.17
1000.409	2668.26
1000.704	2675.72
1001	2649.05
1001.295	2657.42
1001.59	2668.72
1001.885	2622.84
1002.18	2588.72
1002.475	2570.41
1002.77	2569.51
1003.065	2582.62
1003.359	2546.46
1003.654	2564.31
1003.949	2550.75
1004.243	2531.54
1004.538	2471.21
1004.832	2512.11
1005.127	2482.73
1005.421	2478.89
1005.715	2456.97
1006.009	2429.4
1006.304	2409.74
1006.598	2395.05
1006.892	2354.6
1007.186	2342.85
1007.48	2338.33
1007.773	2332.45
1008.067	2323.64
1008.361	2292.23
1008.655	2288.61
1008.948	2275.73
1009.242	2259.23
1009.535	2279.8
1009.829	2231.66
1010.122	2231.44
1010.415	2253.58
1010.708	2213.59
1011.001	2188.28
1011.295	2156.86
1011.588	2157.09
1011.881	2138.56
1012.173	2157.99
1012.466	2127.71
1012.759	2110.99
1013.052	2101.05
1013.344	2050.2
1013.637	2050.43
1013.93	2062.4
1014.222	2072.57
1014.514	1999.13
1014.807	2031.9
1015.099	2007.94
1015.391	1995.74
1015.683	1984.89
1015.976	1969.3
1016.268	1935.85
1016.56	1942.63
1016.851	1922.07
1017.143	1932.46
1017.435	1918.23
1017.727	1871.45
1018.018	1913.48
1018.31	1867.38
1018.602	1854.05
1018.893	1786.93
1019.185	1810.43
1019.476	1825.8
1019.767	1789.87
1020.058	1800.94
1020.35	1772.24
1020.641	1779.92
1020.932	1732.92
1021.223	1758.23
1021.514	1733.6
1021.804	1695.41
1022.095	1709.64
1022.386	1708.97
1022.677	1671.45
1022.967	1693.6
1023.258	1674.62
1023.548	1661.51
1023.839	1640.95
1024.129	1643.66
1024.419	1602.08
1024.709	1584.68
1025	1565.24
1025.29	1567.28
1025.58	1556.88
1025.87	1543.1
1026.16	1529.99
1026.449	1544.22
1026.739	1519.59
1027.029	1518.46
1027.319	1496.99
1027.608	1529.76
1027.898	1520.95
1028.187	1500.84
1028.477	1468.97
1028.766	1466.71
1029.055	1428.52
1029.344	1450.89
1029.634	1430.33
1029.923	1411.35
1030.212	1403.89
1030.501	1380.84
1030.79	1379.03
1031.078	1390.33
1031.367	1380.84
1031.656	1365.7
1031.945	1360.5
1032.233	1325.47
1032.522	1337
1032.81	1328.19
1033.099	1277.11
1033.387	1284.12
1033.675	1309.88
1033.963	1268.75
1034.251	1285.02
1034.54	1262.88
1034.828	1276.44
1035.116	1255.42
1035.403	1245.93
1035.691	1226.49
1035.979	1241.63
1036.267	1196.66
1036.554	1193.05
1036.842	1188.3
1037.129	1201.41
1037.417	1199.83
1037.704	1176.78
1037.992	1174.29
1038.279	1151.92
1038.566	1147.63
1038.853	1147.63
1039.14	1147.63
