Data from White_paper_FLMS001491_032.txt Node
Date: Tue Feb 07 10:34:59 GMT 2017
User: dcchb
Spectrometer: FLMS00149
Trigger mode: 0
Integration Time (sec): 2.000000E-2
Scans to average: 10
Electric dark correction enabled: true
Nonlinearity correction enabled: false
Boxcar width: 0
XAxis mode: Wavelengths
Number of Pixels in Spectrum: 2048
>>>>>Begin Spectral Data<<<<<
341.393	-5.69
341.776	-5.69
342.16	-5.69
342.543	-65.35
342.927	-64
343.31	-49.98
343.693	-67.16
344.077	-81.85
344.46	-64.67
344.843	-49.53
345.226	-40.27
345.61	-39.82
345.993	-24.22
346.376	-27.16
346.759	4.03
347.142	19.39
347.525	46.28
347.908	87.41
348.291	74.08
348.674	93.06
349.057	120.41
349.44	126.51
349.823	123.12
350.206	177.58
350.588	216.45
350.971	249.22
351.354	240.4
351.737	264.36
352.119	299.38
352.502	287.86
352.884	300.06
353.267	281.31
353.65	320.63
354.032	332.38
354.414	336.9
354.797	329.67
355.179	352.26
355.562	365.6
355.944	328.08
356.326	353.85
356.709	375.31
357.091	394.52
357.473	371.7
357.855	367.63
358.238	360.63
358.62	381.42
359.002	367.18
359.384	370.8
359.766	368.99
360.148	371.7
360.53	390.23
360.912	373.51
361.294	359.95
361.676	351.81
362.057	362.43
362.439	361.98
362.821	374.41
363.203	367.63
363.584	345.49
363.966	360.63
364.348	346.16
364.729	362.43
365.111	361.08
365.493	350.91
365.874	349.78
366.256	362.21
366.637	364.47
367.019	358.37
367.4	352.72
367.781	372.38
368.163	376.9
368.544	360.4
368.925	348.65
369.306	350.91
369.688	370.34
370.069	372.6
370.45	372.38
370.831	370.57
371.212	349.55
371.593	355.65
371.974	359.27
372.355	374.19
372.736	376.9
373.117	378.25
373.498	375.77
373.879	357.01
374.26	391.13
374.641	357.91
375.021	375.77
375.402	378.48
375.783	395.2
376.163	383.68
376.544	387.97
376.925	386.61
377.305	399.04
377.686	404.01
378.066	393.85
378.447	395.2
378.827	400.4
379.208	399.5
379.588	399.72
379.968	408.31
380.349	401.98
380.729	420.74
381.109	414.18
381.489	428.19
381.87	417.57
382.25	423.68
382.63	424.35
383.01	432.49
383.39	427.97
383.77	439.49
384.15	451.02
384.53	444.69
384.91	436.33
385.29	428.65
385.67	461.64
386.049	447.86
386.429	467.97
386.809	433.84
387.189	468.42
387.568	463.67
387.948	463.9
388.328	472.71
388.707	474.07
389.087	474.52
389.466	478.82
389.846	500.96
390.225	516.78
390.605	506.84
390.984	515.2
391.363	508.64
391.743	526.95
392.122	527.85
392.501	538.93
392.881	539.38
393.26	555.65
393.639	579.38
394.018	539.15
394.397	527.4
394.776	550.68
395.155	588.42
395.534	547.29
395.913	571.69
396.292	594.74
396.671	578.02
397.05	594.07
397.429	599.26
397.808	592.03
398.186	614.18
398.565	611.02
398.944	610.34
399.323	635.87
399.701	615.31
400.08	632.26
400.458	664.57
400.837	660.51
401.215	667.51
401.594	682.43
401.972	693.27
402.351	676.1
402.729	710
403.107	722.65
403.486	723.78
403.864	728.3
404.242	721.29
404.62	750.45
404.999	766.72
405.377	783.21
405.755	806.04
406.133	833.16
406.511	859.6
406.889	856.66
407.267	866.83
407.645	892.82
408.023	928.29
408.401	928.75
408.779	928.75
409.156	973.72
409.534	991.8
409.912	1005.58
410.29	1031.79
410.667	1068.18
411.045	1088.97
411.422	1099.36
411.8	1113.15
412.178	1165.58
412.555	1199.7
412.933	1214.16
413.31	1261.17
413.687	1271.11
414.065	1286.48
414.442	1315.86
414.819	1364.67
415.197	1368.74
415.574	1395.63
415.951	1421.39
416.328	1446.25
416.705	1473.14
417.082	1489.64
417.46	1535.28
417.837	1576.87
418.214	1606.02
418.591	1635.62
418.967	1625
419.344	1653.25
419.721	1694.38
420.098	1691.21
420.475	1758.56
420.852	1753.81
421.228	1810.08
421.605	1804.66
421.982	1866.35
422.358	1879
422.735	1905.22
423.111	1916.52
423.488	1962.17
423.864	1965.56
424.241	1997.19
424.617	2048.72
424.994	2046.46
425.37	2082.39
425.746	2054.82
426.123	2121.48
426.499	2151.77
426.875	2197.64
427.251	2211.42
427.627	2266.11
428.003	2264.08
428.379	2309.5
428.756	2339.56
429.132	2385.88
429.507	2435.37
429.883	2495.94
430.259	2489.61
430.635	2537.74
431.011	2577.52
431.387	2588.14
431.763	2649.61
432.138	2660.23
432.514	2756.04
432.89	2718.08
433.265	2838.08
433.641	2855.48
434.016	2873.55
434.392	2952.42
434.767	3007.79
435.143	2960.11
435.518	3024.28
435.894	3041.46
436.269	3123.72
436.644	3168.91
437.02	3130.72
437.395	3236.48
437.77	3255.47
438.145	3327.1
438.52	3337.72
438.895	3326.42
439.271	3387.89
439.646	3476.7
440.021	3485.97
440.395	3474.44
440.77	3454.78
441.145	3552.41
441.52	3591.28
441.895	3595.57
442.27	3627.21
442.645	3607.77
443.019	3660.65
443.394	3694.32
443.769	3774.1
444.143	3709.69
444.518	3784.04
444.892	3776.36
445.267	3824.94
445.641	3841.66
446.016	3839.86
446.39	3874.66
446.764	3930.48
447.139	3883.47
447.513	4015.22
447.887	4002.11
448.262	4025.39
448.636	4016.58
449.01	4071.71
449.384	4112.17
449.758	4113.3
450.132	4172.96
450.506	4186.97
450.88	4253.41
451.254	4205.72
451.628	4279.62
452.002	4330.47
452.376	4413.85
452.75	4425.6
453.123	4466.51
453.497	4587.63
453.871	4583.34
454.244	4671.93
454.618	4703.79
454.992	4736.56
455.365	4738.82
455.739	4883.67
456.112	4882.09
456.486	4972.26
456.859	4987.62
457.232	5138.58
457.606	5141.29
457.979	5173.83
458.352	5234.85
458.725	5352.13
459.099	5352.81
459.472	5448.85
459.845	5488.85
460.218	5601.62
460.591	5579.02
460.964	5650.2
461.337	5806.58
461.71	5873.7
462.083	5950.31
462.456	5923.87
462.829	5962.06
463.201	6104.43
463.574	6096.29
463.947	6230.98
464.32	6336.74
464.692	6390.3
465.065	6440.24
465.438	6518.2
465.81	6611.08
466.183	6717.3
466.555	6790.97
466.928	6882.49
467.3	6893.56
467.672	7064.18
468.045	7165.42
468.417	7201.58
468.789	7220.78
469.161	7352.31
469.534	7507.56
469.906	7711.62
470.278	7724.27
470.65	7739.87
471.022	7930.14
471.394	8128.33
471.766	8161.55
472.138	8254.43
472.51	8441.09
472.882	8524.03
473.253	8630.47
473.625	8698.49
473.997	9004.47
474.369	9034.52
474.74	9142.32
475.112	9347.96
475.484	9403.78
475.855	9554.96
476.227	9678.57
476.598	9965.8
476.97	9981.16
477.341	10275.39
477.713	10403.53
478.084	10467.25
478.455	10783.63
478.827	10819.33
479.198	11173.45
479.569	11198.53
479.94	11460.22
480.311	11565.76
480.682	11869.7
481.053	12048.23
481.424	12258.39
481.795	12396.47
482.166	12604.15
482.537	12800.75
482.908	13042.55
483.279	13060.63
483.65	13370.68
484.021	13605.25
484.391	13783.55
484.762	13900.61
485.133	14020.61
485.503	14289.75
485.874	14590.31
486.244	14712.34
486.615	14891.77
486.985	15072.33
487.356	15358.2
487.726	15473.68
488.097	15728.13
488.467	15757.51
488.837	16205.86
489.207	16286.31
489.578	16527.43
489.948	16726.75
490.318	16898.27
490.688	17056.46
491.058	17200.41
491.428	17551.81
491.798	17634.07
492.168	18003.33
492.538	18107.05
492.908	18221.4
493.278	18455.74
493.648	18526.7
494.017	18718.79
494.387	18949.97
494.757	19140.02
495.126	19260.02
495.496	19359.67
495.866	19456.17
496.235	19710.85
496.605	19926.67
496.974	20017.74
497.344	20203.04
497.713	20261.57
498.082	20497.5
498.452	20626.99
498.821	20756.47
499.19	20833.53
499.559	20999.86
499.928	21251.15
500.298	21395.1
500.667	21467.87
501.036	21456.12
501.405	21701.76
501.774	21729.56
502.143	22068.08
502.512	21963.67
502.88	22294.29
503.249	22299.03
503.618	22494.28
503.987	22609.98
504.356	22703.54
504.724	22845.91
505.093	22909.64
505.462	23040.03
505.83	23245.22
506.199	23406.35
506.567	23601.82
506.936	23791.2
507.304	24040.46
507.672	24050.17
508.041	24237.06
508.409	24306.66
508.777	24529.03
509.145	24691.74
509.514	24750.95
509.882	25007.44
510.25	25031.84
510.618	25190.26
510.986	25281.1
511.354	25516.8
511.722	25800.64
512.09	26030.91
512.458	25965.6
512.826	26222.32
513.193	26350.23
513.561	26569.2
513.929	26708.41
514.297	26911.11
514.664	27099.58
515.032	27153.37
515.4	27443.98
515.767	27441.27
516.135	27659.34
516.502	27535.73
516.869	28125.77
517.237	28122.83
517.604	28122.83
517.972	28504.07
518.339	28590.84
518.706	28697.73
519.073	28931.17
519.44	29143.37
519.808	29315.8
520.175	29378.39
520.542	29758.95
520.909	29866.06
521.276	29958.49
521.643	30331.36
522.009	30476.9
522.376	30667.4
522.743	30891.8
523.11	31144
523.477	31430.77
523.843	31521.61
524.21	31908.27
524.577	32117.76
524.943	32277.98
525.31	32485.88
525.676	32746.89
526.043	32906.44
526.409	32990.73
526.776	33368.8
527.142	33406.31
527.508	33584.61
527.874	33944.38
528.241	34103.02
528.607	34344.59
528.973	34643.57
529.339	34634.08
529.705	34902.54
530.071	35154.29
530.437	35265.02
530.803	35574.39
531.169	35529.19
531.535	35664.78
531.901	35981.84
532.267	35987.94
532.632	36490.98
532.998	36290.98
533.364	36726
533.73	36637.41
534.095	36886.22
534.461	37102.94
534.826	37268.81
535.192	37364.17
535.557	37767.78
535.923	37735.46
536.288	37850.71
536.653	38116.02
537.019	38058.39
537.384	38226.98
537.749	38333.86
538.114	38474.65
538.479	38715.1
538.845	38956.67
539.21	38741.99
539.575	39052.04
539.94	39095.88
540.305	39442.31
540.67	39225.82
541.034	39488.41
541.399	39568.86
541.764	39812.92
542.129	39992.35
542.494	40030.32
542.858	40226.02
543.223	40282.74
543.587	40483.64
543.952	40497.88
544.316	40652.9
544.681	40747.81
545.045	40922.27
545.41	41099.44
545.774	41339.66
546.138	41407.91
546.503	41329.72
546.867	41498.3
547.231	41722.7
547.595	41902.58
547.959	41891.96
548.324	42015.12
548.688	42112.75
549.052	42368.11
549.416	42355.23
549.779	42561.32
550.143	42820.3
550.507	43061.65
550.871	43048.09
551.235	42981.43
551.599	43314.3
551.962	43508.87
552.326	43601.75
552.689	43991.12
553.053	43618.47
553.417	43779.37
553.78	44312.46
554.143	44076.09
554.507	44413.25
554.87	44455.51
555.234	44857.54
555.597	44793.36
555.96	44827.03
556.323	45034.03
556.686	45152.44
557.05	45428.37
557.413	45534.13
557.776	45539.55
558.139	45798.98
558.502	45901.35
558.865	45973.21
559.228	46380.66
559.59	46393.54
559.953	46410.04
560.316	46908.1
560.679	46838.95
561.041	47088.44
561.404	47408.2
561.767	47436.68
562.129	47282.78
562.492	47862.2
562.854	47671.47
563.217	47819.49
563.579	47979.49
563.941	48296.77
564.304	48330.89
564.666	48619.24
565.028	48612.46
565.39	48832.57
565.753	49080.7
566.115	49171.32
566.477	49353.69
566.839	49437.3
567.201	49730.85
567.563	49762.49
567.925	49968.81
568.287	49939.66
568.648	50057.85
569.01	50257.85
569.372	50463.72
569.734	50370.61
570.095	50756.36
570.457	50707.32
570.819	50823.48
571.18	50830.71
571.542	51199.52
571.903	51156.58
572.265	51391.6
572.626	51495.1
572.987	51404.26
573.349	51678.82
573.71	51684.25
574.071	51850.35
574.432	51866.39
574.794	52171.02
575.155	52121.75
575.516	52034.3
575.877	52289.88
576.238	52342.31
576.599	52439.26
576.96	52442.42
577.32	52544.56
577.681	52713.83
578.042	52663.66
578.403	52740.04
578.763	52729.64
579.124	52850.55
579.485	52939.81
579.845	53111.56
580.206	53001.28
580.566	53066.36
580.927	53116.53
581.287	53220.25
581.648	53125.34
582.008	53282.4
582.368	53235.85
582.728	53369.18
583.089	53296.64
583.449	53412.34
583.809	53441.94
584.169	53527.82
584.529	53427.03
584.889	53683.52
585.249	53442.17
585.609	53400.14
585.969	53516.29
586.329	53539.79
586.688	53551.32
587.048	53541.15
587.408	53532.34
587.768	53592.45
588.127	53618.43
588.487	53530.98
588.846	53883.06
589.206	53609.4
589.565	53673.57
589.925	53836.51
590.284	53759.9
590.643	53789.73
591.003	53862.95
591.362	53930.29
591.721	53948.14
592.08	53965.54
592.44	54007.58
592.799	53996.73
593.158	53902.27
593.517	53909.05
593.876	54004.19
594.235	53976.62
594.593	54025.2
594.952	54086.9
595.311	54019.78
595.67	54144.75
596.029	54291.64
596.387	54268.59
596.746	54321.92
597.104	54221.58
597.463	54169.83
597.822	54303.39
598.18	54194.46
598.538	54165.09
598.897	54344.29
599.255	54190.85
599.613	54502.03
599.972	54354.46
600.33	54504.06
600.688	54373.67
601.046	54452.09
601.404	54538.41
601.762	54482.14
602.12	54695.92
602.478	54570.5
602.836	54640.1
603.194	54460.9
603.552	54531.86
603.91	54585.42
604.268	54662.48
604.625	54655.92
604.983	54678.07
605.341	54607.79
605.698	54725.52
606.056	54813.21
606.413	54730.27
606.771	54820.21
607.128	54882.81
607.485	54806.2
607.843	54860.89
608.2	54978.17
608.557	54998.51
608.914	54947.44
609.272	55046.87
609.629	55049.13
609.986	55222.46
610.343	54998.06
610.7	55197.15
611.057	55130.49
611.414	55174.1
611.771	55233.08
612.127	55277.37
612.484	55298.39
612.841	55402.12
613.198	55271.5
613.554	55252.97
613.911	55437.82
614.267	55394.43
614.624	55340.88
614.98	55433.75
615.337	55586.97
615.693	55523.24
616.05	55505.62
616.406	55653.18
616.762	55493.19
617.118	55551.72
617.475	55498.39
617.831	55671.26
618.187	55617.7
618.543	55596.24
618.899	55731.37
619.255	55711.94
619.611	55729.11
619.967	55838.72
620.323	55797.13
620.678	55729.79
621.034	55632.62
621.39	55727.76
621.746	55694.09
622.101	55956.23
622.457	55786.06
622.812	55816.12
623.168	55877.13
623.523	55800.98
623.879	55863.57
624.234	55757.59
624.589	55869.68
624.945	55855.44
625.3	55926.17
625.655	55836.46
626.01	55885.27
626.365	55891.82
626.72	55833.29
627.075	55806.4
627.43	55787.64
627.785	55785.16
628.14	55855.66
628.495	55892.27
628.85	55880.3
629.205	55783.35
629.559	55968.43
629.914	55782.67
630.269	55793.97
630.623	55836
630.978	55729.79
631.332	55951.25
631.687	55930.92
632.041	55690.24
632.396	55802.11
632.75	55733.86
633.104	55780.41
633.459	55634.2
633.813	55712.17
634.167	55701.77
634.521	55654.31
634.875	55607.08
635.229	55610.25
635.583	55556.46
635.937	55538.61
636.291	55535.67
636.645	55592.17
636.999	55496.13
637.352	55584.03
637.706	55396.69
638.06	55587.65
638.413	55462.68
638.767	55350.14
639.121	55460.87
639.474	55257.94
639.828	55353.08
640.181	55303.59
640.534	55418.39
640.888	55253.19
641.241	55165.06
641.594	55243.02
641.947	55329.8
642.301	55211.16
642.654	55276.7
643.007	55277.15
643.36	55197.6
643.713	55159.19
644.066	55230.82
644.419	55030.15
644.771	54835.35
645.124	54606.21
645.477	54582.93
645.83	54502.48
646.182	54337.96
646.535	54275.82
646.888	54462.25
647.24	54296.61
647.593	54435.14
647.945	54368.92
648.298	54065.2
648.65	54170.96
649.002	54097.07
649.355	54227.46
649.707	54139.1
650.059	54287.12
650.411	54652.53
650.763	54643.04
651.115	54871.96
651.467	54837.16
651.819	54798.52
652.171	54805.75
652.523	54682.81
652.875	54743.6
653.227	54615.02
653.578	54890.72
653.93	54750.16
654.282	54575.25
654.633	54549.71
654.985	54628.13
655.337	54647.11
655.688	54603.72
656.039	54713.32
656.391	54435.59
656.742	54576.6
657.094	54572.76
657.445	54662.02
657.796	54489.82
658.147	54472.65
658.498	54499.54
658.849	54555.59
659.2	54507
659.551	54473.78
659.902	54561.69
660.253	54509.71
660.604	54465.87
660.955	54366.66
661.306	54504.97
661.656	54402.59
662.007	54355.36
662.358	54393.56
662.708	54330.51
663.059	54344.52
663.409	54177.97
663.76	54431.97
664.11	54355.82
664.461	54468.36
664.811	54402.82
665.161	54334.12
665.511	54211.19
665.862	54281.47
666.212	54280.56
666.562	54355.14
666.912	54183.17
667.262	54192.66
667.612	54262.03
667.962	54255.48
668.312	54217.29
668.662	54362.82
669.011	54148.14
669.361	54093.22
669.711	54067.01
670.06	54086.67
670.41	54066.78
670.76	53981.59
671.109	54125.31
671.459	54021.59
671.808	54022.72
672.157	54019.33
672.507	53869.28
672.856	53883.06
673.205	53896.17
673.554	53894.59
673.904	53746.34
674.253	53941.14
674.602	53862.04
674.951	53362.62
675.3	53253.02
675.649	53720.8
675.998	53669.96
676.346	53726.23
676.695	53797.87
677.044	53541.6
677.393	53703.4
677.741	53604.2
678.09	53526.23
678.438	53497.53
678.787	53533.47
679.135	53426.12
679.484	53273.81
679.832	53373.02
680.181	53160.37
680.529	53293.7
680.877	53161.95
681.225	53155.4
681.573	53389.74
681.922	53057.55
682.27	53059.13
682.618	52947.49
682.966	52909.75
683.314	52940.94
683.661	52793.37
684.009	52776.2
684.357	52639.48
684.705	52653.26
685.053	52586.6
685.4	52614.62
685.748	52393.38
686.095	52357.9
686.443	52206.95
686.79	52181.64
687.138	52320.16
687.485	52166.5
687.832	52077.01
688.18	52133.95
688.527	51945.94
688.874	51911.59
689.221	51854.41
689.568	51664.36
689.915	51535.55
690.262	51586.85
690.609	51511.6
690.956	51440.86
691.303	51291.49
691.65	51243.81
691.997	51201.1
692.344	51020.76
692.69	50983.93
693.037	50922.69
693.383	50634.33
693.73	50714.78
694.077	50607.67
694.423	50598.85
694.769	50435.69
695.116	50334
695.462	50404.51
695.808	50162.03
696.155	50188.69
696.501	49992.99
696.847	49950.73
697.193	49778.31
697.539	49916.61
697.885	49442.95
698.231	49459.22
698.577	49481.14
698.923	49422.39
699.269	49247.93
699.614	48974.49
699.96	48937.65
700.306	48988.27
700.651	48854.04
700.997	48870.31
701.342	48713.25
701.688	48600.94
702.033	48479.59
702.379	48526.14
702.724	48358.46
703.069	48393.94
703.415	47942.2
703.76	48018.58
704.105	47779.04
704.45	47803.9
704.795	47636.9
705.14	47517.58
705.485	47508.76
705.83	47428.09
706.175	47465.38
706.52	47289.11
706.865	47235.78
707.209	47061.55
707.554	46955.11
707.899	47110.58
708.243	46782
708.588	46730.71
708.932	46501.79
709.277	46528.68
709.621	46633.31
709.966	46225.86
710.31	46350.38
710.654	45922.82
710.998	45979.09
711.342	46097.5
711.687	45917.39
712.031	45838.07
712.375	45594.24
712.719	45681.02
713.063	45646.44
713.407	45691.19
713.75	45436.05
714.094	45444.86
714.438	45271.08
714.782	45277.41
715.125	45052.56
715.469	45120.81
715.812	44930.3
716.156	44915.84
716.499	44817.54
716.843	44853.47
717.186	44535.74
717.53	44721.49
717.873	44747.26
718.216	44473.59
718.559	44386.81
718.902	44115.86
719.246	44257.55
719.589	44122.87
719.932	43933.27
720.275	43963.32
720.617	44016.65
720.96	43850.56
721.303	43842.19
721.646	43886.49
721.989	43589.77
722.331	43688.98
722.674	43590.9
723.016	43501.64
723.359	43451.7
723.701	43385.03
724.044	43136.68
724.386	43037.24
724.729	43147.07
725.071	43040.63
725.413	43144.36
725.755	43029.33
726.097	42716.12
726.439	42659.85
726.782	42706.86
727.124	42860.98
727.465	42605.62
727.807	42404.04
728.149	42459.18
728.491	42374.66
728.833	42442.46
729.175	42318.17
729.516	42180.32
729.858	42226.42
730.199	42308.22
730.541	42026.65
730.882	42039.3
731.224	42134.89
731.565	41814.9
731.906	41783.04
732.248	41928.8
732.589	41678.41
732.93	41644.29
733.271	41503.05
733.612	41608.58
733.953	41611.74
734.294	41474.12
734.635	41301.02
734.976	41352.77
735.317	41362.26
735.658	41167.01
735.999	41226.22
736.339	41006.56
736.68	41107.8
737.021	41135.83
737.361	40845.66
737.702	41105.54
738.042	40803.18
738.383	40770.19
738.723	40818.77
739.063	40544.88
739.404	40634.14
739.744	40571.77
740.084	40574.03
740.424	40506.24
740.764	40513.92
741.104	40542.17
741.444	40272.12
741.784	40367.94
742.124	40369.52
742.464	40259.01
742.804	40124.55
743.143	40044.1
743.483	40069.19
743.823	39815.63
744.162	39905.12
744.502	39828.29
744.841	39755.52
745.181	39925.91
745.52	39862.19
745.86	39664.68
746.199	39675.75
746.538	39656.77
746.877	39621.29
747.216	39632.81
747.556	39400.96
747.895	39423.78
748.234	39287.74
748.573	39333.16
748.911	39106.05
749.25	39110.57
749.589	39029.21
749.928	39078.03
750.267	38977.46
750.605	38876.9
750.944	38892.72
751.283	38746.06
751.621	38675.55
751.96	38534.76
752.298	38564.59
752.636	38588.1
752.975	38482.79
753.313	38287.09
753.651	38355.56
753.989	38144.94
754.327	38118.96
754.666	37914.21
755.004	37881.67
755.342	38005.96
755.679	37942.46
756.017	37659.31
756.355	37810.26
756.693	37555.35
757.031	37493.66
757.368	37412.53
757.706	37297.51
758.044	37173.9
758.381	37198.3
758.719	37011.64
759.056	36936.39
759.394	37007.57
759.731	36697.3
760.068	36826.56
760.405	36473.35
760.743	36332.34
761.08	36426.57
761.417	36222.73
761.754	36189.97
762.091	36197.42
762.428	35963.76
762.765	35789.98
763.102	35764.89
763.438	35699.58
763.775	35585.24
764.112	35599.93
764.449	35627.04
764.785	35380.04
765.122	35169.2
765.458	35104.12
765.795	34943.9
766.131	34972.15
766.467	34890.34
766.804	34704.81
767.14	34454.19
767.476	34485.15
767.812	34316.57
768.148	34359.73
768.485	34079.74
768.821	34018.05
769.157	33893.08
769.492	33853.76
769.828	33858.28
770.164	33473.2
770.5	33463.26
770.836	33472.52
771.171	33261.68
771.507	33200.21
771.842	32917.06
772.178	33007.68
772.513	32862.14
772.849	32824.18
773.184	32636.61
773.519	32619.44
773.855	32450.86
774.19	32327.02
774.525	32180.58
774.86	32244.53
775.195	32115.05
775.53	32074.82
775.865	31694.27
776.2	31584.66
776.535	31373.6
776.87	31402.3
777.205	31285.01
777.539	31056.54
777.874	31248.18
778.209	30866.94
778.543	30792.59
778.878	30587.85
779.212	30545.37
779.547	30465.82
779.881	30511.02
780.215	30297.92
780.55	30347.86
780.884	30118.26
781.218	30034.65
781.552	30151.71
781.886	29862
782.22	29727.99
782.554	29581.78
782.888	29311.96
783.222	29304.95
783.556	29218.62
783.889	28979.99
784.223	28856.83
784.557	28899.31
784.89	28962.36
785.224	28783.16
785.557	28622.71
785.891	28496.16
786.224	28444.63
786.558	28350.4
786.891	28090.74
787.224	28081.25
787.557	28029.96
787.891	27972.78
788.224	27927.13
788.557	27951.77
788.89	27779.34
789.223	27624.77
789.556	27455.51
789.888	27355.4
790.221	27349.07
790.554	27062.07
790.887	27240.37
791.219	27004.9
791.552	26956.99
791.884	26735.53
792.217	26813.04
792.549	26625.47
792.882	26451.01
793.214	26380.73
793.546	26457.79
793.879	26216.67
794.211	26067.29
794.543	26212.38
794.875	26037.01
795.207	26113.4
795.539	25828.21
795.871	25934.87
796.203	25657.81
796.535	25493.3
796.867	25543.01
797.198	25430.48
797.53	25482
797.862	25292.4
798.193	25271.16
798.525	25162.23
798.856	25122.01
799.188	24940.09
799.519	24753.66
799.85	24751.85
800.182	24724.73
800.513	24694.45
800.844	24529.71
801.175	24651.06
801.506	24416.94
801.837	24312.31
802.168	24288.13
802.499	24199.32
802.83	24139.21
803.161	24071.42
803.491	23930.85
803.822	23964.3
804.153	23796.17
804.483	23743.74
804.814	23631.2
805.145	23584.42
805.475	23586.68
805.805	23561.37
806.136	23480.7
806.466	23447.93
806.796	23402.96
807.126	23214.04
807.457	23154.6
807.787	23205.9
808.117	23139.69
808.447	22870.09
808.777	23048.62
809.107	23026.02
809.436	22791
809.766	22761.39
810.096	22738.12
810.426	22558.91
810.755	22541.06
811.085	22518.46
811.414	22460.16
811.744	22300.61
812.073	22259.03
812.403	22256.1
812.732	22103.33
813.061	22077.12
813.39	21988.53
813.719	21953.96
814.049	22055.42
814.378	21866.73
814.707	21751.02
815.036	21705.83
815.365	21671.25
815.693	21406.85
816.022	21542.67
816.351	21500.41
816.68	21386.74
817.008	21491.37
817.337	21219.06
817.665	21160.53
817.994	21247.31
818.322	21183.36
818.651	21212.06
818.979	21023.36
819.307	21158.05
819.636	20925.96
819.964	20906.98
820.292	20907.88
820.62	20976.36
820.948	20862.69
821.276	20882.35
821.604	20956.69
821.932	21018.39
822.259	20968.9
822.587	20883.48
822.915	20810.26
823.243	20856.13
823.57	20815.91
823.898	20921.89
824.225	20611.85
824.553	20723.03
824.88	20740.2
825.207	20729.13
825.535	20727.32
825.862	20731.84
826.189	20613.65
826.516	20772.52
826.843	20768
827.17	20758.73
827.497	20742.01
827.824	20768.23
828.151	20723.71
828.478	20742.01
828.805	20715.35
829.131	20603.71
829.458	20674.67
829.785	20585.86
830.111	20602.35
830.438	20746.08
830.764	20656.14
831.09	20635.57
831.417	20629.92
831.743	20682.35
832.069	20539.3
832.395	20528.68
832.722	20618.17
833.048	20490.72
833.374	20568.46
833.7	20464.73
834.026	20469.25
834.351	20445.75
834.677	20474.9
835.003	20494.79
835.329	20452.3
835.654	20452.53
835.98	20274.9
836.306	20322.14
836.631	20128.92
836.956	20323.04
837.282	20248.24
837.607	20156.94
837.932	20131.86
838.258	20187.9
838.583	20106.77
838.908	19988.36
839.233	19963.5
839.558	19963.05
839.883	19845.09
840.208	19802.83
840.533	19869.49
840.858	19867.91
841.182	19808.7
841.507	19828.14
841.832	19740.91
842.156	19691.19
842.481	19622.04
842.805	19558.77
843.13	19561.48
843.454	19435.15
843.778	19415.27
844.103	19336.85
844.427	19315.61
844.751	19450.07
845.075	19250.3
845.399	19170.08
845.723	19109.29
846.047	19112.22
846.371	19001.49
846.695	18954.71
847.019	18829.07
847.343	18665.68
847.666	18671.33
847.99	18499.36
848.313	18499.58
848.637	18512.47
848.96	18353.15
849.284	18355.41
849.607	18112.25
849.931	18121.29
850.254	18074.74
850.577	17976.89
850.9	17803.33
851.223	17738.02
851.546	17735.99
851.869	17609.66
852.192	17720.17
852.515	17533.28
852.838	17447.41
853.161	17534.41
853.483	17328.99
853.806	17300.07
854.129	17346.85
854.451	17259.84
854.774	17132.39
855.096	17102.78
855.419	17006.97
855.741	17023.69
856.063	16860.98
856.385	16911.83
856.708	16793.19
857.03	16872.51
857.352	16764.04
857.674	16613.31
857.996	16597.94
858.318	16538.05
858.64	16646.53
858.961	16462.8
859.283	16454.67
859.605	16290.6
859.926	16365.4
860.248	16211.28
860.57	16197.27
860.891	16253.77
861.212	16136.26
861.534	16162.47
861.855	16115.47
862.176	16065.75
862.498	16129.7
862.819	16105.3
863.14	15919.31
863.461	16018.07
863.782	15841.57
864.103	15863.04
864.424	15812.2
864.745	15865.08
865.065	15724.29
865.386	15691.07
865.707	15756.83
866.027	15738.98
866.348	15708.92
866.668	15685.87
866.989	15595.48
867.309	15407.01
867.63	15532.2
867.95	15411.76
868.27	15442.49
868.59	15371.98
868.91	15503.5
869.23	15408.59
869.55	15376.28
869.87	15426.9
870.19	15324.98
870.51	15339.44
870.83	15300.35
871.15	15108.71
871.469	15228.48
871.789	15309.61
872.109	15238.65
872.428	15098.09
872.748	15191.87
873.067	15110.97
873.386	15124.53
873.706	15106.68
874.025	14967.25
874.344	15012.22
874.663	15016.74
874.982	14975.84
875.301	14894.48
875.62	14864.2
875.939	14815.16
876.258	14845.44
876.577	14792.79
876.896	14757.54
877.214	14681.38
877.533	14701.04
877.852	14732.45
878.17	14739.46
878.489	14706.92
878.807	14686.58
879.125	14661.27
879.444	14605.22
879.762	14558.67
880.08	14548.28
880.398	14408.62
880.716	14475.06
881.034	14360.48
881.352	14508.95
881.67	14378.11
881.988	14385.79
882.306	14314.16
882.624	14336.3
882.941	14144.67
883.259	14174.95
883.577	14134.95
883.894	14216.53
884.212	14071.68
884.529	14069.42
884.846	14061.96
885.164	13996.43
885.481	14038.23
885.798	14064.22
886.115	13901.29
886.432	13880.5
886.75	13933.83
887.067	13792.36
887.383	13753.04
887.7	13789.2
888.017	13699.94
888.334	13719.14
888.651	13566.15
888.967	13711.91
889.284	13591.24
889.6	13546.72
889.917	13447.74
890.233	13500.39
890.55	13399.38
890.866	13411.81
891.182	13341.08
891.498	13265.37
891.815	13207.52
892.131	13205.49
892.447	13226.95
892.763	13108.09
893.079	13141.31
893.395	13017.69
893.71	13014.3
894.026	13036.23
894.342	12990.58
894.657	12857.25
894.973	12893.63
895.289	12846.4
895.604	12816.8
895.92	12749
896.235	12687.76
896.55	12720.3
896.865	12654.54
897.181	12452.29
897.496	12506.97
897.811	12461.55
898.126	12490.48
898.441	12372.06
898.756	12385.39
899.071	12322.12
899.386	12279.18
899.7	12109.7
900.015	12186.08
900.33	12072.18
900.644	12118.06
900.959	12118.06
901.273	12016.14
901.588	11905.18
901.902	11895.24
902.216	11850.72
902.531	11884.84
902.845	11805.07
903.159	11704.28
903.473	11628.58
903.787	11607.11
904.101	11472.88
904.415	11548.81
904.729	11528.02
905.042	11351.52
905.356	11437.4
905.67	11421.58
905.984	11373.22
906.297	11337.06
906.611	11238.76
906.924	11165.09
907.237	11183.62
907.551	11193.34
907.864	11067.69
908.177	11024.53
908.491	11003.74
908.804	10883.51
909.117	10859.56
909.43	10782.72
909.743	10844.87
910.056	10827.47
910.368	10779.56
910.681	10665.21
910.994	10625.89
911.307	10581.37
911.619	10533.24
911.932	10500.92
912.244	10450.76
912.557	10402.4
912.869	10342.51
913.181	10393.13
913.494	10290.76
913.806	10232
914.118	10178.67
914.43	10110.88
914.742	10105
915.054	10079.47
915.366	10062.07
915.678	9994.72
915.99	9967.38
916.302	9894.16
916.613	9855.52
916.925	9858.46
917.236	9799.7
917.548	9714.05
917.859	9697.1
918.171	9610.55
918.482	9612.59
918.794	9568.52
919.105	9530.33
919.416	9512.48
919.727	9501.18
920.038	9443.33
920.349	9404.68
920.66	9340.73
920.971	9252.14
921.282	9331.92
921.593	9213.95
921.903	9145.93
922.214	9076.56
922.525	9103.67
922.835	9049.44
923.146	8974.64
923.456	8953.62
923.767	8894.86
924.077	8894.86
924.387	8861.42
924.697	8748.88
925.008	8774.87
925.318	8769.44
925.628	8712.95
925.938	8724.25
926.248	8535.78
926.558	8564.93
926.867	8570.13
927.177	8531.71
927.487	8389.12
927.796	8344.82
928.106	8355.22
928.416	8321.09
928.725	8372.84
929.034	8235.9
929.344	8334.43
929.653	8246.52
929.962	8162
930.271	8128.33
930.581	8101.21
930.89	8023.7
931.199	8059.18
931.508	8006.75
931.817	8002.91
932.125	7955
932.434	7961.78
932.743	7788.45
933.051	7772.18
933.36	7762.47
933.669	7724.73
933.977	7707.1
934.286	7693.99
934.594	7627.33
934.902	7583.49
935.21	7578.97
935.519	7610.83
935.827	7564.28
936.135	7442.93
936.443	7453.32
936.751	7385.98
937.059	7462.13
937.367	7317.28
937.674	7324.28
937.982	7270.5
938.29	7235.25
938.597	7220.33
938.905	7104.86
939.213	7062.37
939.52	7037.96
939.827	7082.71
940.135	7031.86
940.442	6971.75
940.749	6988.47
941.056	6974.24
941.363	6962.03
941.67	6835.48
941.977	6850.85
942.284	6856.73
942.591	6778.54
942.898	6738.54
943.205	6720.23
943.511	6659.67
943.818	6674.58
944.125	6621.48
944.431	6629.84
944.738	6616.51
945.044	6621.7
945.35	6501.26
945.657	6481.14
945.963	6444.53
946.269	6429.62
946.575	6416.74
946.881	6393.46
947.187	6356.4
947.493	6304.42
947.799	6306.23
948.105	6240.7
948.41	6234.82
948.716	6211.09
949.022	6159.12
949.327	6155.95
949.633	6110.08
949.938	6066.01
950.244	6041.15
950.549	6050.87
950.854	6027.82
951.16	6003.19
951.465	5941.95
951.77	5933.36
952.075	5872.8
952.38	5868.73
952.685	5821.05
952.99	5799.13
953.294	5794.61
953.599	5774.5
953.904	5726.59
954.209	5692.46
954.513	5739.69
954.818	5636.19
955.122	5632.13
955.426	5618.79
955.731	5570.43
956.035	5542.86
956.339	5523.43
956.643	5452.24
956.948	5483.43
957.252	5406.14
957.556	5442.98
957.86	5384
958.163	5377.67
958.467	5388.52
958.771	5343.55
959.075	5358.69
959.378	5281.17
959.682	5274.62
959.985	5261.06
960.289	5252.47
960.592	5228.75
960.896	5190.1
961.199	5183.32
961.502	5138.13
961.805	5093.61
962.108	5061.52
962.411	5020.84
962.714	5005.02
963.017	4977.23
963.32	5025.36
963.623	4959.83
963.926	4987.4
964.228	4938.58
964.531	4918.47
964.833	4871.47
965.136	4848.19
965.438	4822.88
965.741	4846.16
966.043	4794.41
966.345	4780.4
966.648	4722.77
966.95	4762.77
967.252	4713.96
967.554	4707.86
967.856	4657.24
968.158	4680.06
968.46	4667.86
968.761	4569.33
969.063	4595.09
969.365	4569.1
969.666	4544.92
969.968	4513.51
970.269	4522.1
970.571	4473.51
970.872	4455.66
971.174	4404.81
971.475	4399.39
971.776	4363.01
972.077	4394.87
972.378	4347.19
972.679	4334.08
972.98	4346.74
973.281	4278.49
973.582	4281.65
973.883	4300.64
974.183	4226.97
974.484	4212.73
974.785	4147.42
975.085	4163.92
975.386	4172.96
975.686	4168.21
975.986	4129.11
976.287	4075.56
976.587	4063.13
976.887	4090.02
977.187	4058.38
977.487	4069.23
977.787	4021.55
978.087	3990.14
978.387	3965.73
978.687	3984.26
978.987	3928.89
979.286	3907.43
979.586	3890.93
979.885	3838.73
980.185	3862.68
980.484	3815.68
980.784	3804.83
981.083	3826.3
981.382	3799.41
981.682	3800.99
981.981	3722.57
982.28	3678.73
982.579	3680.09
982.878	3706.53
983.177	3700.65
983.475	3697.04
983.774	3625.4
984.073	3622.01
984.372	3590.37
984.67	3601.44
984.969	3615.91
985.267	3587.21
985.566	3519.87
985.864	3504.72
986.162	3521.67
986.461	3492.75
986.759	3501.11
987.057	3438.06
987.355	3475.35
987.653	3466.53
987.951	3419.3
988.249	3404.61
988.547	3412.3
988.844	3391.28
989.142	3360.32
989.44	3342.69
989.737	3303.37
990.035	3314.22
990.332	3288.46
990.63	3310.83
990.927	3257.05
991.224	3270.15
991.521	3227.44
991.819	3217.27
992.116	3209.82
992.413	3188.8
992.71	3162.13
993.006	3159.87
993.303	3135.47
993.6	3118.75
993.897	3108.12
994.193	3067
994.49	3083.27
994.787	3073.78
995.083	3047.34
995.379	3019.31
995.676	2987.68
995.972	2961.01
996.268	2981.57
996.565	2958.75
996.861	2931.18
997.157	2966.21
997.453	2883.05
997.749	2943.61
998.044	2871.29
998.34	2874.68
998.636	2825.19
998.932	2840.56
999.227	2806.89
999.523	2795.82
999.818	2815.02
1000.114	2796.04
1000.409	2769.15
1000.704	2770.51
1001	2707.68
1001.295	2715.59
1001.59	2684.18
1001.885	2689.15
1002.18	2648.93
1002.475	2635.59
1002.77	2645.76
1003.065	2599.44
1003.359	2608.48
1003.654	2591.3
1003.949	2582.49
1004.243	2572.09
1004.538	2537.52
1004.832	2552.66
1005.127	2492.77
1005.421	2527.12
1005.715	2491.42
1006.009	2471.53
1006.304	2455.94
1006.598	2431.76
1006.892	2462.04
1007.186	2443.74
1007.48	2409.84
1007.773	2371.87
1008.067	2371.65
1008.361	2325.55
1008.655	2345.21
1008.948	2304.08
1009.242	2325.55
1009.535	2275.6
1009.829	2250.52
1010.122	2260.69
1010.415	2254.81
1010.708	2233.12
1011.001	2265.43
1011.295	2236.06
1011.588	2209.62
1011.881	2171.43
1012.173	2208.71
1012.466	2156.06
1012.759	2142.27
1013.052	2154.7
1013.344	2145.66
1013.637	2119
1013.93	2100.69
1014.222	2073.58
1014.514	2077.19
1014.807	2079.45
1015.099	2073.35
1015.391	2004.42
1015.683	2017.76
1015.976	2021.83
1016.268	1971.43
1016.56	1985.44
1016.851	1980.7
1017.143	1945.67
1017.435	1966.01
1017.727	1920.81
1018.018	1890.76
1018.31	1911.09
1018.602	1882.39
1018.893	1877.87
1019.185	1874.71
1019.476	1853.02
1019.767	1818.89
1020.058	1823.19
1020.35	1840.36
1020.641	1792.45
1020.932	1796.07
1021.223	1779.12
1021.514	1779.35
1021.804	1745.22
1022.095	1724.66
1022.386	1724.43
1022.677	1711.33
1022.967	1723.3
1023.258	1657.09
1023.548	1687.37
1023.839	1702.74
1024.129	1652.8
1024.419	1640.14
1024.709	1603.08
1025	1634.04
1025.29	1643.76
1025.58	1611.21
1025.87	1579.8
1026.16	1604.89
1026.449	1570.76
1026.739	1560.37
1027.029	1538.9
1027.319	1550.88
1027.608	1531.67
1027.898	1521.5
1028.187	1478.79
1028.477	1483.31
1028.766	1479.69
1029.055	1465.91
1029.344	1471.78
1029.634	1456.42
1029.923	1439.24
1030.212	1428.17
1030.501	1420.94
1030.79	1374.38
1031.078	1389.3
1031.367	1396.53
1031.656	1396.76
1031.945	1365.57
1032.233	1378.23
1032.522	1346.14
1032.81	1349.53
1033.099	1349.3
1033.387	1328.06
1033.675	1266.14
1033.963	1330.09
1034.251	1287.16
1034.54	1287.16
1034.828	1286.48
1035.116	1282.64
1035.403	1257.78
1035.691	1250.09
1035.979	1260.94
1036.267	1216.87
1036.554	1220.26
1036.842	1216.65
1037.129	1208.51
1037.417	1223.2
1037.704	1188.4
1037.992	1187.27
1038.279	1164.22
1038.566	1168.74
1038.853	1168.74
1039.14	1168.74
