Data from White_paper_FLMS001491_027.txt Node
Date: Tue Feb 07 10:34:52 GMT 2017
User: dcchb
Spectrometer: FLMS00149
Trigger mode: 0
Integration Time (sec): 2.000000E-2
Scans to average: 10
Electric dark correction enabled: true
Nonlinearity correction enabled: false
Boxcar width: 0
XAxis mode: Wavelengths
Number of Pixels in Spectrum: 2048
>>>>>Begin Spectral Data<<<<<
341.393	-14.08
341.776	-14.08
342.16	-14.08
342.543	-66.74
342.927	-58.83
343.31	-68.77
343.693	-60.63
344.077	-43.46
344.46	-66.51
344.843	-70.35
345.226	-50.92
345.61	-18.83
345.993	-38.26
346.376	-21.76
346.759	2.64
347.142	20.04
347.525	53.71
347.908	53.49
348.291	83.54
348.674	109.08
349.057	116.99
349.44	127.61
349.823	121.96
350.206	196.31
350.588	230.21
350.971	250.77
351.354	241.28
351.737	260.26
352.119	273.82
352.502	282.63
352.884	298.9
353.267	310.88
353.65	320.82
354.032	330.32
354.414	335.97
354.797	348.85
355.179	343.88
355.562	339.13
355.944	363.54
356.326	358.79
356.709	358.79
357.091	386.36
357.473	375.51
357.855	353.82
358.238	384.55
358.62	379.13
359.002	378.9
359.384	376.64
359.766	366.02
360.148	356.98
360.53	366.25
360.912	386.36
361.294	360.15
361.676	375.74
362.057	362.86
362.439	367.83
362.821	364.21
363.203	352.24
363.584	342.29
363.966	362.63
364.348	371.45
364.729	354.04
365.111	364.67
365.493	371.9
365.874	357.21
366.256	375.74
366.637	365.34
367.019	376.64
367.4	354.72
367.781	357.89
368.163	356.76
368.544	353.37
368.925	360.37
369.306	375.74
369.688	354.95
370.069	372.57
370.45	365.8
370.831	378.9
371.212	344.78
371.593	355.63
371.974	348.39
372.355	373.7
372.736	377.32
373.117	386.59
373.498	400.37
373.879	354.5
374.26	355.4
374.641	365.57
375.021	377.32
375.402	396.98
375.783	379.58
376.163	373.7
376.544	427.26
376.925	370.77
377.305	403.99
377.686	380.26
378.066	393.14
378.447	392.91
378.827	390.2
379.208	390.65
379.588	408.96
379.968	398.11
380.349	419.81
380.729	404.21
381.109	392.01
381.489	422.97
381.87	425.45
382.25	426.13
382.63	412.35
383.01	406.92
383.39	416.64
383.77	414.61
384.15	430.88
384.53	442.18
384.91	438.56
385.29	416.64
385.67	427.26
386.049	447.15
386.429	446.47
386.809	446.92
387.189	459.35
387.568	441.5
387.948	474.95
388.328	484.89
388.707	469.52
389.087	472.23
389.466	494.38
389.846	476.08
390.225	503.64
390.605	494.83
390.984	494.38
391.363	507.26
391.743	537.99
392.122	541.61
392.501	528.5
392.881	537.32
393.26	531.21
393.639	522.85
394.018	514.49
394.397	562.85
394.776	552.01
395.155	552.68
395.534	547.94
395.913	573.7
396.292	548.84
396.671	547.71
397.05	579.58
397.429	567.82
397.808	581.83
398.186	581.16
398.565	593.81
398.944	603.08
399.323	617.77
399.701	597.65
400.08	624.09
400.458	632.68
400.837	644.66
401.215	644.43
401.594	666.8
401.972	661.61
402.351	672
402.729	673.58
403.107	719.91
403.486	699.57
403.864	715.62
404.242	742.73
404.62	733.02
404.999	758.78
405.377	771.21
405.755	773.92
406.133	805.78
406.511	810.76
406.889	822.05
407.267	830.42
407.645	872
408.023	906.12
408.401	877.65
408.779	928.94
409.156	933.01
409.534	956.97
409.912	997.42
410.29	1024.54
410.667	1040.13
411.045	1063.18
411.422	1070.86
411.8	1105.21
412.178	1142.27
412.555	1161.48
412.933	1212.33
413.31	1213.46
413.687	1245.32
414.065	1264.08
414.442	1300.46
414.819	1321.02
415.197	1340.91
415.574	1405.99
415.951	1422.72
416.328	1444.64
416.705	1434.02
417.082	1458.2
417.46	1497.74
417.837	1534.8
418.214	1557.85
418.591	1593.56
418.967	1614.12
419.344	1616.16
419.721	1646.44
420.098	1713.56
420.475	1703.61
420.852	1730.51
421.228	1772.76
421.605	1782.48
421.982	1791.07
422.358	1841.69
422.735	1891.86
423.111	1890.5
423.488	1933.66
423.864	1925.3
424.241	1969.37
424.617	2011.63
424.994	1974.34
425.37	2039.2
425.746	2025.64
426.123	2081.46
426.499	2097.5
426.875	2127.11
427.251	2201.45
427.627	2250.49
428.003	2260.89
428.379	2271.28
428.756	2298.63
429.132	2357.16
429.507	2392.41
429.883	2439.19
430.259	2477.83
430.635	2478.06
431.011	2537.94
431.387	2588.56
431.763	2617.71
432.138	2612.52
432.514	2671.95
432.89	2687.77
433.265	2771.38
433.641	2812.06
434.016	2855.22
434.392	2868.78
434.767	2918.5
435.143	2929.12
435.518	2956.69
435.894	3030.81
436.269	3046.85
436.644	3122.11
437.02	3151.48
437.395	3153.52
437.77	3195.1
438.145	3256.11
438.52	3269.67
438.895	3304.7
439.271	3345.38
439.646	3433.29
440.021	3445.04
440.395	3449.1
440.77	3388.31
441.145	3490.69
441.52	3533.85
441.895	3505.6
442.27	3578.59
442.645	3588.08
443.019	3624.24
443.394	3617.91
443.769	3666.27
444.143	3670.79
444.518	3724.13
444.892	3703.11
445.267	3749.66
445.641	3813.84
446.016	3815.42
446.39	3892.71
446.764	3840.05
447.139	3867.4
447.513	3914.4
447.887	3913.72
448.262	3947.4
448.636	3978.58
449.01	4039.15
449.384	4077.34
449.758	4049.09
450.132	4117.79
450.506	4158.01
450.88	4158.24
451.254	4113.27
451.628	4236.43
452.002	4306.93
452.376	4331.34
452.75	4361.17
453.123	4354.17
453.497	4470.32
453.871	4506.03
454.244	4610.43
454.618	4578.34
454.992	4657.66
455.365	4664.89
455.739	4757.54
456.112	4844.77
456.486	4880.93
456.859	4884.09
457.232	5045.22
457.606	4987.82
457.979	5021.04
458.352	5143.07
458.725	5215.61
459.099	5262.16
459.472	5336.06
459.845	5405.89
460.218	5484.3
460.591	5466.45
460.964	5553
461.337	5622.83
461.71	5717.29
462.083	5825.76
462.456	5837.29
462.829	5827.8
463.201	5957.74
463.574	5960.45
463.947	6097.85
464.32	6249.03
464.692	6252.65
465.065	6271.63
465.438	6416.03
465.81	6477.05
466.183	6536.48
466.555	6693.09
466.928	6741.67
467.3	6767.21
467.672	6912.06
468.045	7028.22
468.417	7039.29
468.789	7094.43
469.161	7230.47
469.534	7374.65
469.906	7514.53
470.278	7577.13
470.65	7634.98
471.022	7763.79
471.394	7920.4
471.766	8032.71
472.138	8008.76
472.51	8266.83
472.882	8373.04
473.253	8376.66
473.625	8559.7
473.997	8788.4
474.369	8834.73
474.74	8945
475.112	9131.89
475.484	9279.69
475.855	9409.4
476.227	9500.92
476.598	9758.54
476.97	9815.26
477.341	10048.03
477.713	10162.15
478.084	10239.66
478.455	10569.82
478.827	10587
479.198	10970.04
479.569	10868.8
479.94	11236.47
480.311	11291.16
480.682	11577.93
481.053	11811.37
481.424	12014.3
481.795	12071.25
482.166	12347.4
482.537	12481.86
482.908	12683.44
483.279	12847.28
483.65	13126.36
484.021	13314.38
484.391	13450.88
484.762	13503.76
485.133	13725.9
485.503	13897.42
485.874	14220.8
486.244	14269.16
486.615	14625.08
486.985	14675.93
487.356	14903.72
487.726	15103.71
488.097	15436.13
488.467	15468.45
488.837	15832.96
489.207	15974.88
489.578	16120.86
489.948	16390.91
490.318	16539.83
490.688	16657.57
491.058	16903.89
491.428	16995.41
491.798	17267.5
492.168	17597.43
492.538	17703.87
492.908	17907.03
493.278	18064.99
493.648	18060.25
494.017	18346.57
494.387	18471.99
494.757	18613
495.126	18809.15
495.496	18878.76
495.866	19055.02
496.235	19296.82
496.605	19380.66
496.974	19465.63
497.344	19646.64
497.713	19747.21
498.082	20012.51
498.452	20226.52
498.821	20229.45
499.19	20301.99
499.559	20521.2
499.928	20720.74
500.298	20725.26
500.667	20927.29
501.036	20954.63
501.405	21232.37
501.774	21219.26
502.143	21461.96
502.512	21552.81
502.88	21744.22
503.249	21769.3
503.618	21932.23
503.987	22077.31
504.356	22241.38
504.724	22321.15
505.093	22318.44
505.462	22475.5
505.83	22673.01
506.199	22981.7
506.567	23222.14
506.936	23110.51
507.304	23362.93
507.672	23532.64
508.041	23605.86
508.409	23787.78
508.777	23896.25
509.145	24119.52
509.514	24198.84
509.882	24376.46
510.25	24320.19
510.618	24636.34
510.986	24702.56
511.354	24891.25
511.722	25073.17
512.09	25414.18
512.458	25311.81
512.826	25653.94
513.193	25628.18
513.561	25837.67
513.929	25953.6
514.297	26170.99
514.664	26408.05
515.032	26523.3
515.4	26684.88
515.767	26865.44
516.135	26942.72
516.502	26851.88
516.869	27381.36
517.237	27471.3
517.604	27362.37
517.972	27850.04
518.339	27859.76
518.706	28002.13
519.073	28023.15
519.44	28322.35
519.808	28725.05
520.175	28664.03
520.542	29056.34
520.909	29202.55
521.276	29152.61
521.643	29535.88
522.009	29721.41
522.376	29883.21
522.743	30162.53
523.11	30422.18
523.477	30612.68
523.843	30793.02
524.21	31055.61
524.577	31305.77
524.943	31497.86
525.31	31543.96
525.676	31965.19
526.043	32062.14
526.409	32149.14
526.776	32552.75
527.142	32583.71
527.508	32846.98
527.874	33067.99
528.241	33204.25
528.607	33293.29
528.973	33719.72
529.339	33725.82
529.705	34014.63
530.071	34244.68
530.437	34400.38
530.803	34640.37
531.169	34818
531.535	34740.94
531.901	35087.59
532.267	35223.86
532.632	35406.46
532.998	35525.32
533.364	35583.63
533.73	35797.18
534.095	36078.53
534.461	36135.7
534.826	36279.43
535.192	36424.06
535.557	36806.42
535.923	36811.84
536.288	36851.62
536.653	37209.8
537.019	37057.71
537.384	37232.62
537.749	37602.33
538.114	37549.22
538.479	37650.92
538.845	37786.05
539.21	37796.45
539.575	38111.47
539.94	38090.68
540.305	38381.52
540.67	38288.19
541.034	38412.48
541.399	38674.39
541.764	38839.13
542.129	39056.76
542.494	39075.06
542.858	39207.71
543.223	39263.98
543.587	39580.13
543.952	39455.84
544.316	39830.07
544.681	39697.42
545.045	40000.91
545.41	40150.51
545.774	40202.71
546.138	40218.08
546.503	40426.44
546.867	40541.69
547.231	40840.21
547.595	40920.21
547.959	40895.8
548.324	41159.53
548.688	41075.69
549.052	41395.23
549.416	41495.56
549.779	41724.71
550.143	41665.73
550.507	41965.83
550.871	42048.09
551.235	41998.37
551.599	42259.16
551.962	42506.61
552.326	42491.92
552.689	42762.19
553.053	42633.16
553.417	42844.68
553.78	43341.84
554.143	43123.77
554.507	43219.58
554.87	43373.03
555.234	43775.05
555.597	43605.11
555.96	43783.64
556.323	43950.86
556.686	44063.63
557.05	44320.35
557.413	44443.96
557.776	44452.32
558.139	44798.3
558.502	44905.42
558.865	44877.85
559.228	45297.95
559.59	45385.18
559.953	45408.9
560.316	45790.14
560.679	45915.78
561.041	46169.79
561.404	46233.29
561.767	46418.14
562.129	46382.44
562.492	46768.42
562.854	46808.87
563.217	46701.3
563.579	47004.57
563.941	47093.38
564.304	47253.6
564.666	47563.42
565.028	47576.98
565.39	47797.77
565.753	48068.95
566.115	48159.57
566.477	48230.75
566.839	48540.57
567.201	48710.51
567.563	48553.23
567.925	48952.99
568.287	48967.91
568.648	49049.26
569.01	49293.1
569.372	49526.76
569.734	49431.85
570.095	49858.05
570.457	49893.08
570.819	49915.45
571.18	49975.11
571.542	50235.44
571.903	50268.89
572.265	50347.31
572.626	50537.36
572.987	50633.85
573.349	50689.44
573.71	50901.19
574.071	50889.21
574.432	50997.23
574.794	51303.89
575.155	51211.46
575.516	51134.86
575.877	51359.48
576.238	51454.85
576.599	51545.69
576.96	51639.7
577.32	51722.41
577.681	51834.05
578.042	51842.86
578.403	51955.17
578.763	51947.26
579.124	51967.6
579.485	52170.31
579.845	52358.55
580.206	52225.45
580.566	52238.78
580.927	52328.05
581.287	52388.83
581.648	52340.02
582.008	52470.64
582.368	52441.26
582.728	52551.09
583.089	52514.03
583.449	52549.06
583.809	52536.18
584.169	52584.76
584.529	52526.23
584.889	52905.88
585.249	52655.04
585.609	52578.66
585.969	52873.57
586.329	52653.23
586.688	52751.08
587.048	52745.44
587.408	52716.96
587.768	52758.54
588.127	52764.19
588.487	52781.82
588.846	53053.9
589.206	52817.98
589.565	52854.36
589.925	53065.65
590.284	52900.46
590.643	53032.89
591.003	53062.26
591.362	53180.9
591.721	53039.21
592.08	53159.66
592.44	53178.19
592.799	53118.76
593.158	53052.09
593.517	53101.58
593.876	53189.94
594.235	53253.9
594.593	53272.2
594.952	53309.26
595.311	53166.67
595.67	53356.72
596.029	53463.83
596.387	53438.52
596.746	53561.01
597.104	53384.06
597.463	53377.51
597.822	53538.63
598.18	53416.38
598.538	53462.7
598.897	53585.87
599.255	53371.18
599.613	53848.68
599.972	53591.74
600.33	53658.86
600.688	53582.48
601.046	53736.6
601.404	53831.28
601.762	53785.18
602.12	53858.85
602.478	53853.88
602.836	53928.23
603.194	53744.73
603.552	53797.16
603.91	53733.43
604.268	53900.43
604.625	53919.19
604.983	54024.27
605.341	53880.32
605.698	53923.94
606.056	53998.96
606.413	53906.76
606.771	54015.23
607.128	54059.3
607.485	54022.24
607.843	54108.11
608.2	54190.59
608.557	54286.64
608.914	54084.38
609.272	54248.9
609.629	54326.18
609.986	54408.89
610.343	54273.53
610.7	54503.81
611.057	54439.18
611.414	54397.6
611.771	54511.26
612.127	54593.75
612.484	54577.7
612.841	54621.32
613.198	54560.75
613.554	54578.83
613.911	54723.24
614.267	54633.52
614.624	54746.74
614.98	54686.4
615.337	54769.11
615.693	54812.5
616.05	54677.36
616.406	54932.95
616.762	54779.05
617.118	54775.66
617.475	54816.12
617.831	54883.23
618.187	54878.94
618.543	54879.62
618.899	55075.32
619.255	55021.76
619.611	54968.88
619.967	55054.98
620.323	55087.29
620.678	55045.71
621.034	54960.52
621.39	54948.09
621.746	54985.15
622.101	55261.53
622.457	55016.79
622.812	55069.22
623.168	55125.94
623.523	55134.75
623.879	55263.79
624.234	54994.19
624.589	55137.69
624.945	55083.68
625.3	55186.73
625.655	55153.28
626.01	55115.77
626.365	55156.9
626.72	55105.15
627.075	55134.52
627.43	55104.92
627.785	55079.39
628.14	55121.87
628.495	55073.51
628.85	55095.2
629.205	55046.84
629.559	55232.15
629.914	55061.76
630.269	55073.96
630.623	55029.67
630.978	55011.14
631.332	55131.81
631.687	55137.01
632.041	54986.96
632.396	55126.16
632.75	55052.04
633.104	55067.63
633.459	54996.45
633.813	54918.03
634.167	54876.45
634.521	54930.01
634.875	54978.82
635.229	54932.04
635.583	54785.61
635.937	54845.72
636.291	54710.81
636.645	54772.5
636.999	54730.92
637.352	54805.95
637.706	54677.14
638.06	54846.62
638.413	54734.99
638.767	54606.18
639.121	54723.24
639.474	54593.3
639.828	54578.83
640.181	54652.96
640.534	54601.66
640.888	54579.29
641.241	54500.87
641.594	54528.67
641.947	54600.75
642.301	54493.64
642.654	54578.38
643.007	54530.7
643.36	54491.6
643.713	54473.98
644.066	54570.7
644.419	54374.32
644.771	54170.03
645.124	53878.29
645.477	53813.88
645.83	53671.51
646.182	53680.55
646.535	53613.21
646.888	53675.58
647.24	53448.02
647.593	53606.66
647.945	53603.49
648.298	53495.47
648.65	53433.33
649.002	53254.57
649.355	53460.67
649.707	53316.04
650.059	53568.46
650.411	53943.14
650.763	53949.47
651.115	54287.32
651.467	54120.31
651.819	54095.68
652.171	54025.18
652.523	54045.51
652.875	54083.25
653.227	53842.36
653.578	54042.58
653.93	54019.75
654.282	53873.09
654.633	53816.14
654.985	53880.55
655.337	53896.82
655.688	53850.72
656.039	53935.46
656.391	53658.63
656.742	53836.03
657.094	53769.14
657.445	53885.97
657.796	53810.49
658.147	53833.09
658.498	53757.61
658.849	53772.98
659.2	53754.67
659.551	53706.54
659.902	53761.91
660.253	53685.3
660.604	53819.98
660.955	53631.97
661.306	53764.84
661.656	53753.09
662.007	53634.45
662.358	53637.62
662.708	53724.39
663.059	53666.31
663.409	53440.78
663.76	53685.75
664.11	53627.67
664.461	53648.24
664.811	53641.68
665.161	53606.43
665.511	53527.11
665.862	53597.16
666.212	53601.46
666.562	53618.63
666.912	53574.57
667.262	53534.57
667.612	53483.27
667.962	53484.62
668.312	53520.1
668.662	53584.06
669.011	53472.2
669.361	53424.29
669.711	53409.15
670.06	53396.94
670.41	53243.73
670.76	53230.17
671.109	53391.07
671.459	53403.72
671.808	53264.97
672.157	53315.82
672.507	53117.63
672.856	53100.68
673.205	53195.14
673.554	53194.46
673.904	53036.5
674.253	53202.6
674.602	53017.52
674.951	52629.73
675.3	52392.68
675.649	52976.84
675.998	52910.85
676.346	52953.34
676.695	53004.19
677.044	52755.38
677.393	52940.23
677.741	52954.47
678.09	52782.27
678.438	52719.22
678.787	52744.98
679.135	52752.67
679.484	52549.28
679.832	52677.41
680.181	52400.13
680.529	52526.01
680.877	52376.63
681.225	52369.85
681.573	52481.94
681.922	52328.05
682.27	52220.48
682.618	52276.75
682.966	52088.28
683.314	52147.03
683.661	52173.25
684.009	51839.47
684.357	51902.75
684.705	51825.23
685.053	51805.8
685.4	51785.01
685.748	51584.11
686.095	51648.97
686.443	51402.87
686.79	51385.24
687.138	51418.46
687.485	51421.85
687.832	51293.27
688.18	51284.91
688.527	51092.82
688.874	51090.79
689.221	50871.81
689.568	50894.41
689.915	50746.62
690.262	50700.74
690.609	50596.11
690.956	50601.08
691.303	50537.58
691.65	50275.67
691.997	50183.92
692.344	50128.55
692.69	50108.44
693.037	50140.08
693.383	49859.86
693.73	50038.61
694.077	49669.58
694.423	49726.31
694.769	49508.01
695.116	49534.22
695.462	49512.3
695.808	49275.47
696.155	49237.73
696.501	49065.98
696.847	49057.4
697.193	48844.97
697.539	48880.45
697.885	48594.81
698.231	48498.77
698.577	48463.51
698.923	48385.32
699.269	48297.64
699.614	48116.86
699.96	48082.51
700.306	48086.57
700.651	47840.71
700.997	47732.46
701.342	47734.72
701.688	47708.73
702.033	47568.85
702.379	47339.02
702.724	47370.89
703.069	47368.18
703.415	46987.62
703.76	47025.36
704.105	46986.72
704.45	46852.93
704.795	46686.39
705.14	46598.93
705.485	46607.07
705.83	46361.87
706.175	46451.14
706.52	46244.14
706.865	46269.67
707.209	46175.21
707.554	45925.28
707.899	46054.54
708.243	45878.72
708.588	45862.23
708.932	45403.03
709.277	45566.87
709.621	45479.19
709.966	45154.45
710.31	45384.5
710.654	44994.68
710.998	45094.79
711.342	45158.52
711.687	44932.76
712.031	44723.05
712.375	44648.92
712.719	44608.25
713.063	44700.45
713.407	44598.76
713.75	44551.3
714.094	44454.13
714.438	44300.46
714.782	44404.19
715.125	44090.52
715.469	44183.85
715.812	43891.43
716.156	43767.37
716.499	43734.82
716.843	43865.67
717.186	43552.23
717.53	43809.62
717.873	43649.86
718.216	43616.64
718.559	43412.8
718.902	43081.96
719.246	43360.37
719.589	43080.83
719.932	42951.12
720.275	42995.18
720.617	43014.62
720.96	43000.15
721.303	42817.11
721.646	42979.82
721.989	42584.35
722.331	42804.68
722.674	42670.9
723.016	42562.65
723.359	42465.25
723.701	42482.2
724.044	42196.33
724.386	42143.68
724.729	42248.54
725.071	42170.12
725.413	42063
725.755	41973.97
726.097	41890.13
726.439	41795.89
726.782	41818.72
727.124	41830.69
727.465	41687.42
727.807	41624.37
728.149	41533.3
728.491	41529.68
728.833	41513.64
729.175	41226.64
729.516	41168.79
729.858	41154.55
730.199	41197.49
730.541	41207.21
730.882	41176.93
731.224	41270.26
731.565	40938.06
731.906	40944.39
732.248	40954.11
732.589	40761.12
732.93	40597.28
733.271	40720.21
733.612	40718.41
733.953	40701.46
734.294	40479.32
734.635	40497.85
734.976	40583.5
735.317	40278.87
735.658	40246.78
735.999	40232.32
736.339	40069.61
736.68	40325.2
737.021	40150.29
737.361	39983.51
737.702	40122.72
738.042	40030.74
738.383	39949.16
738.723	40021.25
739.063	39623.75
739.404	39970.86
739.744	39618.77
740.084	39610.64
740.424	39554.37
740.764	39602.05
741.104	39681.6
741.444	39313.7
741.784	39192.35
742.124	39395.28
742.464	39289.52
742.804	39161.84
743.143	39163.19
743.483	39173.36
743.823	39060.37
744.162	38986.93
744.502	39122.97
744.841	38902.41
745.181	38893.14
745.52	38809.3
745.86	38880.94
746.199	38689.53
746.538	38547.16
746.877	38814.5
747.216	38614.06
747.556	38576.32
747.895	38492.02
748.234	38396.89
748.573	38314.63
748.911	38320.28
749.25	38400.73
749.589	38106.95
749.928	38049.55
750.267	38174.74
750.605	38126.84
750.944	37851.82
751.283	37802.78
751.621	37938.59
751.96	37692.05
752.298	37610.69
752.636	37671.26
752.975	37497.47
753.313	37488.66
753.651	37484.14
753.989	37302.68
754.327	37174.32
754.666	36987.21
755.004	37021.33
755.342	37193.08
755.679	37043.93
756.017	36676.71
756.355	36928.9
756.693	36623.6
757.031	36779.98
757.368	36462.02
757.706	36455.69
758.044	36385.19
758.381	36311.29
758.719	36226.55
759.056	36316.71
759.394	36006.21
759.731	35815.71
760.068	35832.21
760.405	35672.66
760.743	35654.36
761.08	35602.84
761.417	35463.63
761.754	35377.08
762.091	35276.74
762.428	35191.77
762.765	35044.43
763.102	35151.55
763.438	34787.26
763.775	34742.97
764.112	34740.94
764.449	34749.75
764.785	34509.53
765.122	34452.36
765.458	34342.08
765.795	34197.45
766.131	34119.48
766.467	33830.45
766.804	33754.3
767.14	33724.92
767.476	33697.35
767.812	33580.29
768.148	33530.12
768.485	33194.08
768.821	33067.99
769.157	33157.93
769.492	33097.82
769.828	33004.71
770.164	32723.81
770.5	32778.5
770.836	32604.04
771.171	32406.53
771.507	32336.25
771.842	32131.29
772.178	32236.82
772.513	32061.91
772.849	32001.12
773.184	31868.02
773.519	31749.6
773.855	31586.67
774.19	31450.85
774.525	31420.8
774.86	31374.02
775.195	31336.28
775.53	31164.08
775.865	30937.87
776.2	30710.99
776.535	30563.65
776.87	30624.89
777.205	30550.76
777.539	30400.03
777.874	30627.82
778.209	30229.64
778.543	30169.31
778.878	30067.84
779.212	29911.23
779.547	29698.58
779.881	29732.71
780.215	29662.65
780.55	29708.3
780.884	29377.46
781.218	29397.35
781.552	29336.33
781.886	29211.36
782.22	28937.93
782.554	29022.44
782.888	28589.69
783.222	28498.39
783.556	28448.45
783.889	28423.59
784.223	28280.77
784.557	28224.27
784.89	28215.46
785.224	28010.49
785.557	27941.79
785.891	27862.7
786.224	27798.75
786.558	27675.59
786.891	27437.4
787.224	27363.28
787.557	27247.8
787.891	27288.25
788.224	27283.96
788.557	27144.75
788.89	27068.37
789.223	26964.64
789.556	26859.79
789.888	26669.51
790.221	26678.55
790.554	26382.06
790.887	26497.09
791.219	26343.19
791.552	26239.69
791.884	26155.85
792.217	26094.61
792.549	26039.24
792.882	25780.27
793.214	25695.52
793.546	25757.44
793.879	25735.07
794.211	25538.01
794.543	25567.17
794.875	25509.77
795.207	25419.6
795.539	25261.19
795.871	25351.35
796.203	25054.64
796.535	24956.56
796.867	25019.84
797.198	24806.96
797.53	24808.09
797.862	24672.95
798.193	24651.94
798.525	24466.86
798.856	24564.03
799.188	24317.71
799.519	24260.31
799.85	24226.19
800.182	24042.46
800.513	24143.7
800.844	23846.08
801.175	23892.41
801.506	23953.2
801.837	23803.37
802.168	23653.09
802.499	23651.51
802.83	23499.2
803.161	23428.47
803.491	23346.21
803.822	23549.82
804.153	23296.04
804.483	23050.85
804.814	23112.09
805.145	23112.99
805.475	22991.19
805.805	22925.2
806.136	22918.42
806.466	23004.97
806.796	22769.27
807.126	22634.81
807.457	22640.46
807.787	22554.59
808.117	22462.39
808.447	22487.7
808.777	22426.46
809.107	22314.82
809.436	22260.14
809.766	22278.67
810.096	22128.39
810.426	22088.16
810.755	21949.63
811.085	21998.67
811.414	21904.66
811.744	21727.72
812.073	21739.47
812.403	21774.5
812.732	21628.06
813.061	21621.06
813.39	21510.32
813.719	21417.22
814.049	21581.51
814.378	21406.37
814.707	21358.92
815.036	21374.51
815.365	21179.03
815.693	21037.34
816.022	20981.52
816.351	21037.57
816.68	20788.99
817.008	20949.66
817.337	20736.56
817.665	20713.06
817.994	20796.44
818.322	20732.72
818.651	20668.99
818.979	20566.39
819.307	20610.46
819.636	20540.18
819.964	20327.53
820.292	20485.49
820.62	20525.49
820.948	20436.91
821.276	20559.39
821.604	20370.69
821.932	20473.74
822.259	20371.6
822.587	20371.15
822.915	20262.9
823.243	20333.41
823.57	20202.11
823.898	20376.34
824.225	20263.35
824.553	20221.09
824.88	20248.21
825.207	20325.5
825.535	20313.07
825.862	20194.2
826.189	20110.81
826.516	20297.7
826.843	20358.94
827.17	20120.08
827.497	20254.31
827.824	20256.57
828.151	20338.15
828.478	20173.86
828.805	20288.21
829.131	20298.6
829.458	20230.36
829.785	20077.37
830.111	20102.9
830.438	20295.89
830.764	20250.02
831.09	20219.28
831.417	20078.27
831.743	20094.99
832.069	20039.63
832.395	19956.01
832.722	20109.23
833.048	19946.07
833.374	19951.27
833.7	19986.07
834.026	19891.38
834.351	20089.34
834.677	19991.95
835.003	20018.39
835.329	19899.52
835.654	19952.17
835.98	19822.46
836.306	19878.73
836.631	19779.07
836.956	19813.19
837.282	19736.59
837.607	19735.68
837.932	19678.28
838.258	19640.99
838.583	19594.89
838.908	19559.42
839.233	19623.82
839.558	19502.24
839.883	19438.97
840.208	19352.87
840.533	19515.35
840.858	19409.14
841.182	19431.96
841.507	19366.65
841.832	19200.1
842.156	19134.12
842.481	19272.42
842.805	19149.93
843.13	19090.5
843.454	19027
843.778	18948.81
844.103	18907
844.427	18888.47
844.751	18930.28
845.075	18802.6
845.399	18795.37
845.723	18671.53
846.047	18647.35
846.371	18568.71
846.695	18566.45
847.019	18403.97
847.343	18305.44
847.666	18189.06
847.99	18142.05
848.313	18050.3
848.637	17967.59
848.96	17961.04
849.284	17955.39
849.607	17787.94
849.931	17731.21
850.254	17660.48
850.577	17516.08
850.9	17380.94
851.223	17402.64
851.546	17317.89
851.869	17203.32
852.192	17307.72
852.515	17166.26
852.838	17010.1
853.161	16991.57
853.483	17038.58
853.806	16943.21
854.129	16853.27
854.451	16846.94
854.774	16740.05
855.096	16683.33
855.419	16717.23
855.741	16620.74
856.063	16418.93
856.385	16438.14
856.708	16445.6
857.03	16289.67
857.352	16267.98
857.674	16328.54
857.996	16186.85
858.318	16166.28
858.64	16166.28
858.961	16135.32
859.283	15986.63
859.605	15994.54
859.926	15920.41
860.248	15931.26
860.57	15875.67
860.891	15876.8
861.212	15754.32
861.534	15722.68
861.855	15760.87
862.176	15719.06
862.498	15678.39
862.819	15668.9
863.14	15595.23
863.461	15592.74
863.782	15439.07
864.103	15633.19
864.424	15487.43
864.745	15453.76
865.065	15424.16
865.386	15302.8
865.707	15324.5
866.027	15292.86
866.348	15286.76
866.668	15323.14
866.989	15185.07
867.309	15110.94
867.63	15089.93
867.95	15165.63
868.27	15100.1
868.59	15105.97
868.91	15114.11
869.23	15066.88
869.55	14992.3
869.87	14992.53
870.19	15003.15
870.51	14957.28
870.83	15025.97
871.15	14859.43
871.469	14865.75
871.789	14928.35
872.109	14876.83
872.428	14746.66
872.748	14772.65
873.067	14734.01
873.386	14734.91
873.706	14678.64
874.025	14688.36
874.344	14639.77
874.663	14607.23
874.982	14580.11
875.301	14580.56
875.62	14588.92
875.939	14531.75
876.258	14513.9
876.577	14425.76
876.896	14472.09
877.214	14420.12
877.533	14385.99
877.852	14395.26
878.17	14395.26
878.489	14371.98
878.807	14386.67
879.125	14331.76
879.444	14324.98
879.762	14166.34
880.08	14189.61
880.398	14157.07
880.716	14201.82
881.034	14108.71
881.352	14109.39
881.67	14041.82
881.988	14048.83
882.306	13952.78
882.624	14024.42
882.941	13873.24
883.259	13879.79
883.577	13803.63
883.894	13838.44
884.212	13867.14
884.529	13803.18
884.846	13776.97
885.164	13729.06
885.481	13673.02
885.798	13673.92
886.115	13560.7
886.432	13616.07
886.75	13555.73
887.067	13487.03
887.383	13442.74
887.7	13487.03
888.017	13393.25
888.334	13406.58
888.651	13303.76
888.967	13279.13
889.284	13251.56
889.6	13228.96
889.917	13169.75
890.233	13241.62
890.55	13115.52
890.866	13080.94
891.182	13079.59
891.498	12957.55
891.815	12944.45
892.131	12910.78
892.447	12833.72
892.763	12857.67
893.079	12820.84
893.395	12708.97
893.71	12713.72
894.026	12650.22
894.342	12664.91
894.657	12533.16
894.973	12550.11
895.289	12537.23
895.604	12492.26
895.92	12383.33
896.235	12360.96
896.55	12390.56
896.865	12239.83
897.181	12257.01
897.496	12261.98
897.811	12172.26
898.126	12077.35
898.441	12053.85
898.756	12021.53
899.071	12007.75
899.386	11967.3
899.7	11907.64
900.015	11842.56
900.33	11783.35
900.644	11772.73
900.959	11765.95
901.273	11753.74
901.588	11660.64
901.902	11619.96
902.216	11573.41
902.531	11531.38
902.845	11542.45
903.159	11429.01
903.473	11344.49
903.787	11323.02
904.101	11315.11
904.415	11317.15
904.729	11184.72
905.042	11115.57
905.356	11123.7
905.67	11123.7
905.984	11119.41
906.297	11082.12
906.611	10994.67
906.924	11002.13
907.237	10980.66
907.551	10824.5
907.864	10836.71
908.177	10765.75
908.491	10775.92
908.804	10674.22
909.117	10629.93
909.43	10609.59
909.743	10594
910.056	10475.59
910.368	10434.46
910.681	10440.78
910.994	10348.36
911.307	10406.44
911.619	10224.52
911.932	10310.17
912.244	10170.74
912.557	10208.7
912.869	10029.95
913.181	10035.6
913.494	10000.57
913.806	9924.64
914.118	9976.62
914.43	9884.87
914.742	9918.09
915.054	9805.77
915.366	9776.4
915.678	9697.3
915.99	9721.71
916.302	9624.31
916.613	9598.32
916.925	9568.49
917.236	9539.11
917.548	9513.58
917.859	9483.97
918.171	9383.41
918.482	9313.13
918.794	9302.28
919.105	9272
919.416	9264.09
919.727	9253.25
920.038	9201.27
920.349	9109.29
920.66	9113.59
920.971	9083.08
921.282	9034.49
921.593	8921.28
921.903	8883.09
922.214	8936.87
922.525	8804.22
922.835	8876.31
923.146	8775.29
923.456	8761.51
923.767	8686.93
924.077	8701.17
924.387	8590.89
924.697	8577.56
925.008	8595.86
925.318	8508.18
925.628	8499.37
925.938	8467.5
926.248	8370.33
926.558	8325.59
926.867	8332.82
927.177	8261.41
927.487	8225.93
927.796	8163.33
928.106	8213.5
928.416	8153.39
928.725	8115.42
929.034	8052.37
929.344	8075.88
929.653	8005.37
929.962	7918.82
930.271	7956.78
930.581	7928.08
930.89	7892.83
931.199	7781.42
931.508	7820.97
931.817	7780.74
932.125	7734.19
932.434	7727.86
932.743	7638.82
933.051	7600.86
933.36	7623.23
933.669	7498.26
933.977	7521.31
934.286	7470.47
934.594	7439.06
934.902	7391.6
935.21	7337.14
935.519	7411.94
935.827	7340.75
936.135	7358.83
936.443	7255.78
936.751	7194.32
937.059	7153.64
937.367	7148.44
937.674	7140.53
937.982	7105.96
938.29	7123.58
938.597	7001.55
938.905	6990.93
939.213	6922.01
939.52	6916.58
939.827	6954.55
940.135	6905.96
940.442	6848.79
940.749	6798.17
941.056	6774.67
941.363	6717.72
941.67	6730.37
941.977	6685.63
942.284	6600.66
942.591	6663.26
942.898	6626.87
943.205	6630.72
943.511	6535.12
943.818	6526.99
944.125	6412.42
944.431	6456.48
944.738	6398.41
945.044	6428.46
945.35	6325.64
945.657	6334.68
945.963	6295.58
946.269	6254.45
946.575	6247.45
946.881	6227.56
947.187	6232.31
947.493	6165.87
947.799	6141.24
948.105	6165.42
948.41	6061.46
948.716	6099.43
949.022	5988.7
949.327	5995.7
949.633	5926.78
949.938	5987.57
950.244	5919.32
950.549	5898.76
950.854	5849.49
951.16	5858.53
951.465	5744.41
951.77	5808.14
952.075	5759.78
952.38	5751.42
952.685	5770.85
952.99	5663.06
953.294	5684.98
953.599	5604.3
953.904	5575.15
954.209	5555.49
954.513	5562.04
954.818	5523.17
955.122	5504.19
955.426	5492.67
955.731	5439.11
956.035	5496.28
956.339	5421.93
956.643	5390.97
956.948	5334.7
957.252	5364.53
957.556	5352.11
957.86	5295.61
958.163	5264.42
958.467	5237.76
958.771	5268.04
959.075	5217.42
959.378	5114.82
959.682	5142.62
959.985	5174.71
960.289	5105.78
960.592	5069.63
960.896	5075.05
961.199	5086.35
961.502	4999.8
961.805	4968.84
962.108	4947.6
962.411	4958.22
962.714	4883.87
963.017	4892.46
963.32	4871.67
963.623	4865.79
963.926	4806.81
964.228	4878.67
964.531	4784.44
964.833	4845
965.136	4754.38
965.438	4706.92
965.741	4725
966.043	4671.22
966.345	4666.02
966.648	4633.48
966.95	4621.05
967.252	4619.47
967.554	4564.78
967.856	4583.99
968.158	4570.66
968.46	4495.4
968.761	4510.32
969.063	4465.12
969.365	4457.44
969.666	4479.13
969.968	4416.08
970.269	4364.79
970.571	4389.42
970.872	4390.77
971.174	4275.75
971.475	4261.96
971.776	4281.17
972.077	4276.43
972.378	4242.98
972.679	4245.47
972.98	4200.5
973.281	4212.7
973.582	4171.8
973.883	4146.94
974.183	4175.86
974.484	4127.05
974.785	4108.07
975.085	4090.22
975.386	4052.03
975.686	4048.64
975.986	4044.34
976.287	4014.06
976.587	3972.71
976.887	3948.53
977.187	3942.88
977.487	3956.66
977.787	3903.33
978.087	3911.46
978.387	3908.98
978.687	3885.93
978.987	3838.7
979.286	3850.9
979.586	3831.02
979.885	3788.08
980.185	3762.32
980.484	3727.74
980.784	3740.4
981.083	3737.91
981.382	3702.2
981.682	3707.85
981.981	3691.81
982.28	3654.97
982.579	3593.06
982.878	3598.7
983.177	3585.15
983.475	3577.91
983.774	3541.98
984.073	3550.57
984.372	3571.59
984.67	3544.69
984.969	3559.16
985.267	3504.47
985.566	3414.3
985.864	3435.77
986.162	3441.19
986.461	3442.78
986.759	3400.29
987.057	3339.5
987.355	3339.5
987.653	3353.29
987.951	3347.64
988.249	3330.24
988.547	3288.66
988.844	3318.71
989.142	3306.28
989.44	3261.99
989.737	3237.81
990.035	3218.38
990.332	3236.91
990.63	3206.17
990.927	3195.1
991.224	3203.69
991.521	3160.3
991.819	3132.95
992.116	3111.71
992.413	3131.82
992.71	3103.8
993.006	3108.77
993.303	3086.4
993.6	3090.24
993.897	3029
994.193	2995.33
994.49	3009.34
994.787	2983.35
995.083	2983.58
995.379	2951.04
995.676	2958.27
995.972	2897.71
996.268	2894.99
996.565	2888.44
996.861	2875.79
997.157	2894.09
997.453	2817.93
997.749	2834.66
998.044	2834.21
998.34	2758.27
998.636	2811.15
998.932	2792.4
999.227	2758.73
999.523	2763.25
999.818	2730.71
1000.114	2712.4
1000.409	2692.29
1000.704	2667.43
1001	2661.78
1001.295	2647.32
1001.59	2644.15
1001.885	2612.06
1002.18	2621.33
1002.475	2596.7
1002.77	2590.37
1003.065	2574.78
1003.359	2525.96
1003.654	2562.8
1003.949	2540.65
1004.243	2521.67
1004.538	2480.77
1004.832	2478.73
1005.127	2452.07
1005.421	2419.3
1005.715	2446.64
1006.009	2391.05
1006.304	2422.92
1006.598	2399.87
1006.892	2369.36
1007.186	2327.78
1007.48	2340.43
1007.773	2346.08
1008.067	2331.62
1008.361	2289.81
1008.655	2291.85
1008.948	2285.29
1009.242	2277.16
1009.535	2272.19
1009.829	2249.36
1010.122	2208.91
1010.415	2239.42
1010.708	2240.32
1011.001	2194.22
1011.295	2162.36
1011.588	2159.65
1011.881	2116.71
1012.173	2132.08
1012.466	2100.89
1012.759	2118.07
1013.052	2118.29
1013.344	2100.44
1013.637	2070.38
1013.93	2067.67
1014.222	2059.54
1014.514	2030.61
1014.807	2038.97
1015.099	2013.21
1015.391	1986.32
1015.683	1970.27
1015.976	1965.08
1016.268	1978.63
1016.56	1956.26
1016.851	1918.52
1017.143	1891.63
1017.435	1888.24
1017.727	1906.32
1018.018	1879.65
1018.31	1879.65
1018.602	1833.33
1018.893	1845.98
1019.185	1824.29
1019.476	1829.94
1019.767	1811.63
1020.058	1786.55
1020.35	1781.35
1020.641	1815.93
1020.932	1764.63
1021.223	1741.8
1021.514	1733.22
1021.804	1680.11
1022.095	1707.23
1022.386	1697.51
1022.677	1683.73
1022.967	1689.15
1023.258	1671.07
1023.548	1636.95
1023.839	1647.34
1024.129	1634.91
1024.419	1641.92
1024.709	1612.77
1025	1617.97
1025.29	1577.29
1025.58	1577.29
1025.87	1550.62
1026.16	1543.17
1026.449	1534.8
1026.739	1544.3
1027.029	1515.82
1027.319	1541.58
1027.608	1524.86
1027.898	1472.21
1028.187	1493.9
1028.477	1462.49
1028.766	1451.87
1029.055	1425.2
1029.344	1463.62
1029.634	1426.78
1029.923	1418.65
1030.212	1391.53
1030.501	1413.9
1030.79	1368.71
1031.078	1374.81
1031.367	1372.55
1031.656	1359.67
1031.945	1374.36
1032.233	1347.01
1032.522	1324.64
1032.81	1335.71
1033.099	1304.53
1033.387	1293.91
1033.675	1314.92
1033.963	1289.61
1034.251	1300.23
1034.54	1250.52
1034.828	1271.53
1035.116	1248.48
1035.403	1249.39
1035.691	1256.39
1035.979	1220.69
1036.267	1194.02
1036.554	1214.81
1036.842	1203.51
1037.129	1184.98
1037.417	1175.72
1037.704	1161.93
1037.992	1165.32
1038.279	1159.9
1038.566	1131.2
1038.853	1131.2
1039.14	1131.2
