Data from white_poster_card_FLMS001491_00020.txt Node
Date: Wed Feb 08 11:51:10 GMT 2017
User: dcchb
Spectrometer: FLMS00149
Trigger mode: 0
Integration Time (sec): 2.000000E-2
Scans to average: 10
Electric dark correction enabled: true
Nonlinearity correction enabled: false
Boxcar width: 0
XAxis mode: Wavelengths
Number of Pixels in Spectrum: 2048
>>>>>Begin Spectral Data<<<<<
341.393	-32.06
341.776	-32.06
342.16	-32.06
342.543	-46.75
342.927	-100.76
343.31	-53.53
343.693	-46.98
344.077	-58.28
344.46	-63.25
344.843	-42.23
345.226	-53.98
345.61	-30.48
345.993	-33.87
346.376	-0.2
346.759	14.49
347.142	15.17
347.525	50.2
347.908	42.51
348.291	68.28
348.674	90.42
349.057	101.72
349.44	129.29
349.823	125
350.206	161.15
350.588	191.66
350.971	211.55
351.354	213.58
351.737	208.16
352.119	235.5
352.502	271.89
352.884	273.47
353.267	288.38
353.65	289.74
354.032	305.56
354.414	311.88
354.797	321.15
355.179	328.61
355.562	331.32
355.944	303.75
356.326	319.79
356.709	343.97
357.091	336.97
357.473	345.1
357.855	346.46
358.238	341.71
358.62	341.71
359.002	355.95
359.384	323.18
359.766	350.98
360.148	337.65
360.53	327.93
360.912	343.75
361.294	341.26
361.676	338.32
362.057	319.12
362.439	329.74
362.821	324.31
363.203	326.8
363.584	312.56
363.966	322.51
364.348	324.09
364.729	326.35
365.111	340.13
365.493	322.28
365.874	324.77
366.256	321.38
366.637	312.79
367.019	320.92
367.4	323.86
367.781	334.71
368.163	306.46
368.544	318.21
368.925	290.64
369.306	317.53
369.688	325.22
370.069	300.81
370.45	331.32
370.831	288.38
371.212	303.98
371.593	317.53
371.974	306.23
372.355	312.56
372.736	298.1
373.117	314.6
373.498	314.37
373.879	332.45
374.26	324.09
374.641	302.39
375.021	312.11
375.402	332.67
375.783	326.35
376.163	328.61
376.544	331.54
376.925	333.58
377.305	325.44
377.686	334.48
378.066	329.06
378.447	338.1
378.827	332.67
379.208	342.62
379.588	321.15
379.968	325.9
380.349	360.24
380.729	338.32
381.109	322.05
381.489	328.61
381.87	343.75
382.25	338.32
382.63	339.68
383.01	325.9
383.39	337.87
383.77	332.9
384.15	344.65
384.53	344.43
384.91	364.76
385.29	338.78
385.67	348.72
386.049	349.85
386.429	357.76
386.809	382.17
387.189	367.25
387.568	353.24
387.948	372.9
388.328	351.43
388.707	356.4
389.087	382.17
389.466	371.09
389.846	369.06
390.225	374.03
390.605	379
390.984	385.55
391.363	395.05
391.743	380.81
392.122	387.14
392.501	386.46
392.881	405.44
393.26	404.99
393.639	386.23
394.018	393.69
394.397	390.75
394.776	395.72
395.155	412.9
395.534	384.2
395.913	402.5
396.292	427.59
396.671	414.25
397.05	429.17
397.429	411.77
397.808	414.48
398.186	442.73
398.565	389.85
398.944	433.01
399.323	432.56
399.701	417.64
400.08	422.84
400.458	427.14
400.837	434.14
401.215	458.32
401.594	440.69
401.972	439.79
402.351	444.99
402.729	460.58
403.107	472.56
403.486	463.29
403.864	464.2
404.242	460.81
404.62	473.69
404.999	505.33
405.377	473.46
405.755	478.89
406.133	495.38
406.511	507.81
406.889	523.4
407.267	529.05
407.645	531.09
408.023	487.7
408.401	537.87
408.779	557.08
409.156	561.37
409.534	561.82
409.912	539
410.29	589.84
410.667	573.12
411.045	585.55
411.422	607.02
411.8	607.92
412.178	626.68
412.555	653.34
412.933	629.39
413.31	670.07
413.687	665.55
414.065	669.84
414.442	727.47
414.819	697.19
415.197	708.71
415.574	734.02
415.951	759.78
416.328	782.15
416.705	764.75
417.082	776.51
417.46	813.34
417.837	844.07
418.214	836.39
418.591	820.57
418.967	846.79
419.344	876.16
419.721	878.42
420.098	893.34
420.475	874.81
420.852	932.89
421.228	949.16
421.605	950.29
421.982	984.18
422.358	983.51
422.735	999.1
423.111	969.27
423.488	966.56
423.864	1046.78
424.241	1035.48
424.617	1048.14
424.994	1057.85
425.37	1100.34
425.746	1095.37
426.123	1114.12
426.499	1114.58
426.875	1112.54
427.251	1176.72
427.627	1173.56
428.003	1169.94
428.379	1209.26
428.756	1225.08
429.132	1230.28
429.507	1265.53
429.883	1293.33
430.259	1295.36
430.635	1310.05
431.011	1302.37
431.387	1363.38
431.763	1365.87
432.138	1410.16
432.514	1426.88
432.89	1426.88
433.265	1447.67
433.641	1473.89
434.016	1476.6
434.392	1500.55
434.767	1554.79
435.143	1521.12
435.518	1531.74
435.894	1578.29
436.269	1596.14
436.644	1610.61
437.02	1623.26
437.395	1655.13
437.77	1671.85
438.145	1665.3
438.52	1713.66
438.895	1731.06
439.271	1747.1
439.646	1783.94
440.021	1758.17
440.395	1774.44
440.77	1751.39
441.145	1801.79
441.52	1837.04
441.895	1824.39
442.27	1841.56
442.645	1837.49
443.019	1874.1
443.394	1881.56
443.769	1902.13
444.143	1870.94
444.518	1906.19
444.892	1910.03
445.267	1912.29
445.641	1944.84
446.016	1952.07
446.39	1966.76
446.764	2037.04
447.139	2003.82
447.513	2028.22
447.887	2026.19
448.262	2027.32
448.636	2046.53
449.01	2051.27
449.384	2099.86
449.758	2110.26
450.132	2104.83
450.506	2154.32
450.88	2158.39
451.254	2147.09
451.628	2213.3
452.002	2192.29
452.376	2219.4
452.75	2277.93
453.123	2270.25
453.497	2303.24
453.871	2329.91
454.244	2384.82
454.618	2387.76
454.992	2402.9
455.365	2388.21
455.739	2474.31
456.112	2494.65
456.486	2477.03
456.859	2547.31
457.232	2583.92
457.606	2544.59
457.979	2605.84
458.352	2657.13
458.725	2659.85
459.099	2728.09
459.472	2749.79
459.845	2766.51
460.218	2784.81
460.591	2816.9
460.964	2852.16
461.337	2865.49
461.71	2920.63
462.083	2952.49
462.456	2959.95
462.829	2957.92
463.201	3030.01
463.574	3053.96
463.947	3072.04
464.32	3113.39
464.692	3186.39
465.065	3197.68
465.438	3221.64
465.81	3286.27
466.183	3302.54
466.555	3390.9
466.928	3394.06
467.3	3417.79
467.672	3443.33
468.045	3547.73
468.417	3564.23
468.789	3589.54
469.161	3643.77
469.534	3667.28
469.906	3734.17
470.278	3786.37
470.65	3793.15
471.022	3877.89
471.394	3929.87
471.766	3928.74
472.138	4002.18
472.51	4091.22
472.882	4158.79
473.253	4215.28
473.625	4216.87
473.997	4363.98
474.369	4352.23
474.74	4413.92
475.112	4467.71
475.484	4566.91
475.855	4636.52
476.227	4711.09
476.598	4804.65
476.97	4867.7
477.341	4986.56
477.713	5018.88
478.084	5058.2
478.455	5194.47
478.827	5270.85
479.198	5393.56
479.569	5363.5
479.94	5563.05
480.311	5588.36
480.682	5678.3
481.053	5865.86
481.424	5874.22
481.795	5916.48
482.166	6015.92
482.537	6115.35
482.908	6267.21
483.279	6308.11
483.65	6464.27
484.021	6503.36
484.391	6603.7
484.762	6640.98
485.133	6676.01
485.503	6855.44
485.874	7016.11
486.244	6944.93
486.615	7169.33
486.985	7244.13
487.356	7370
487.726	7468.08
488.097	7648.19
488.467	7619.49
488.837	7809.09
489.207	7880.72
489.578	8007.95
489.948	8092.24
490.318	8146.93
490.688	8247.5
491.058	8304.67
491.428	8456.3
491.798	8578.56
492.168	8670.08
492.538	8713.25
492.908	8839.8
493.278	8932
493.648	9017.87
494.017	9105.1
494.387	9208.6
494.757	9223.74
495.126	9305.09
495.496	9389.61
495.866	9476.16
496.235	9628.02
496.605	9700.79
496.974	9751.18
497.344	9821.24
497.713	9887.23
498.082	9980.78
498.452	10071.85
498.821	10160.44
499.19	10196.6
499.559	10314.79
499.928	10332.86
500.298	10427.32
500.667	10504.61
501.036	10515.23
501.405	10711.61
501.774	10597.04
502.143	10742.12
502.512	10877.71
502.88	10873.41
503.249	10933.98
503.618	11063.24
503.987	11099.4
504.356	11183.46
504.724	11288.32
505.093	11287.87
505.462	11378.71
505.83	11394.08
506.199	11603.11
506.567	11691.92
506.936	11718.59
507.304	11782.77
507.672	11866.83
508.041	11914.74
508.409	12071.12
508.777	12184.79
509.145	12318.8
509.514	12232.7
509.882	12467.05
510.25	12443.32
510.618	12568.29
510.986	12599.47
511.354	12749.98
511.722	12871.55
512.09	12891.67
512.458	12937.77
512.826	13174.6
513.193	13166.91
513.561	13316.51
513.929	13277.19
514.297	13507.92
514.664	13578.65
515.032	13614.81
515.4	13798.99
515.767	13805.99
516.135	13843.96
516.502	13855.71
516.869	14107.68
517.237	14229.03
517.604	14187.68
517.972	14366.2
518.339	14417.28
518.706	14503.15
519.073	14596.48
519.44	14785.18
519.808	14851.84
520.175	14900.88
520.542	15097.03
520.909	15275.56
521.276	15240.98
521.643	15420.87
522.009	15571.37
522.376	15677.81
522.743	15726.85
523.11	15839.84
523.477	16103.79
523.843	16145.37
524.21	16272.82
524.577	16415.42
524.943	16522.08
525.31	16585.13
525.676	16801.85
526.043	16784.9
526.409	16895.4
526.776	17251.33
527.142	17286.35
527.508	17331.78
527.874	17492.45
528.241	17527.25
528.607	17650.86
528.973	17760.01
529.339	17809.28
529.705	18084.07
530.071	18203.39
530.437	18268.02
530.803	18338.76
531.169	18451.29
531.535	18419.88
531.901	18535.81
532.267	18735.58
532.632	18870.49
532.998	18861.45
533.364	19082.24
533.73	19140.99
534.095	19264.61
534.461	19359.52
534.826	19304.38
535.192	19491.49
535.557	19565.62
535.923	19574.2
536.288	19740.75
536.653	19880.86
537.019	19821.65
537.384	19921.54
537.749	20069.11
538.114	20053.06
538.479	20092.83
538.845	20174.87
539.21	20225.94
539.575	20326.95
539.94	20473.39
540.305	20509.55
540.67	20646.94
541.034	20665.7
541.399	20770.33
541.764	20719.94
542.129	20839.48
542.494	20927.39
542.858	21055.75
543.223	21038.35
543.587	21212.35
543.952	21240.83
544.316	21423.19
544.681	21325.57
545.045	21321.95
545.41	21563.53
545.774	21705.67
546.138	21747.93
546.503	21700.93
546.867	21832
547.231	21944.31
547.595	21983.86
547.959	21995.38
548.324	22087.13
548.688	22183.17
549.052	22278.31
549.416	22335.94
549.779	22391.76
550.143	22446.9
550.507	22648.92
550.871	22647.79
551.235	22700.67
551.599	22889.82
551.962	22950.39
552.326	23010.04
552.689	23202.58
553.053	22975.24
553.417	23228.8
553.78	23337.49
554.143	23405.51
554.507	23485.74
554.87	23718.27
555.234	23934.77
555.597	23744.26
555.96	23819.97
556.323	23931.38
556.686	24037.59
557.05	24249.11
557.413	24280.97
557.776	24328.43
558.139	24471.93
558.502	24620.85
558.865	24614.52
559.228	24841.86
559.59	24819.94
559.953	25011.35
560.316	25152.81
560.679	25144
561.041	25360.49
561.404	25506.48
561.767	25602.52
562.129	25548.96
562.492	25833.47
562.854	25924.32
563.217	25985.56
563.579	25986.01
563.941	26127.48
564.304	26309.39
564.666	26523.4
565.028	26539.9
565.39	26620.35
565.753	26736.5
566.115	26898.53
566.477	26914.8
566.839	27145.3
567.201	27285.19
567.563	27228.69
567.925	27410.61
568.287	27637.04
568.648	27577.38
569.01	27816.25
569.372	27928.33
569.734	27750.26
570.095	28018.5
570.457	28144.37
570.819	28243.13
571.18	28230.92
571.542	28389.79
571.903	28534.42
572.265	28586.85
572.626	28587.53
572.987	28651.93
573.349	28743
573.71	28950.23
574.071	28988.64
574.432	29132.82
574.794	29290.11
575.155	29228.19
575.516	29174.4
575.877	29345.02
576.238	29438.35
576.599	29437.45
576.96	29425.7
577.32	29485.35
577.681	29648.06
578.042	29718.12
578.403	29762.64
578.763	29597.89
579.124	29879.24
579.485	29889.19
579.845	29845.12
580.206	29876.3
580.566	29943.65
580.927	29874.27
581.287	30012.8
581.648	29932.8
582.008	30097.99
582.368	30147.94
582.728	30182.96
583.089	30185.22
583.449	30111.1
583.809	30255.5
584.169	30216.86
584.529	30250.31
584.889	30530.75
585.249	30321.72
585.609	30128.73
585.969	30347.03
586.329	30292.57
586.688	30233.13
587.048	30252.34
587.408	30238.56
587.768	30161.27
588.127	30285.79
588.487	30289.85
588.846	30525.78
589.206	30298.67
589.565	30229.52
589.925	30389.96
590.284	30408.95
590.643	30359
591.003	30548.6
591.362	30445.33
591.721	30387.03
592.08	30468.15
592.44	30459.11
592.799	30579.34
593.158	30568.49
593.517	30516.51
593.876	30484.2
594.235	30476.06
594.593	30501.15
594.952	30581.37
595.311	30456.18
595.67	30615.04
596.029	30820.69
596.387	30600.35
596.746	30688.03
597.104	30574.59
597.463	30610.75
597.822	30796.05
598.18	30767.81
598.538	30609.39
598.897	30802.61
599.255	30674.93
599.613	31076.05
599.972	30991.08
600.33	30989.04
600.688	30699.33
601.046	30897.97
601.404	31032.66
601.762	30934.36
602.12	31060.91
602.478	31124.86
602.836	31038.08
603.194	30911.98
603.552	31144.75
603.91	30999.89
604.268	31383.38
604.625	31053.22
604.983	31148.59
605.341	31195.37
605.698	31176.38
606.056	31352.42
606.413	31183.16
606.771	31299.54
607.128	31460.9
607.485	31252.54
607.843	31373.44
608.2	31545.64
608.557	31529.14
608.914	31482.82
609.272	31769.59
609.629	31745.86
609.986	31791.28
610.343	31615.24
610.7	31839.64
611.057	31666.09
611.414	31809.59
611.771	31641.68
612.127	31881
612.484	31784.5
612.841	32017.94
613.198	31868.79
613.554	31812.07
613.911	32058.62
614.267	32062.24
614.624	31935.91
614.98	32115.12
615.337	32137.49
615.693	32207.54
616.05	32077.83
616.406	32419.74
616.762	32221.78
617.118	32132.52
617.475	32245.96
617.831	32284.38
618.187	32302
618.543	32349.46
618.899	32439.63
619.255	32535.44
619.611	32373.64
619.967	32560.08
620.323	32505.84
620.678	32366.63
621.034	32441.44
621.39	32345.17
621.746	32341.55
622.101	32778.15
622.457	32453.64
622.812	32563.01
623.168	32536.12
623.523	32502.9
623.879	32631.03
624.234	32450.25
624.589	32605.27
624.945	32466.75
625.3	32586.29
625.655	32610.7
626.01	32675.1
626.365	32592.84
626.72	32465.16
627.075	32509.46
627.43	32424.03
627.785	32512.62
628.14	32470.13
628.495	32541.55
628.85	32460.19
629.205	32296.58
629.559	32412.74
629.914	32446.41
630.269	32338.84
630.623	32401.66
630.978	32234.21
631.332	32315.34
631.687	32449.34
632.041	32228.11
632.396	32183.14
632.75	32088.22
633.104	32245.28
633.459	31979.98
633.813	32039.64
634.167	32112.18
634.521	31961.45
634.875	32015.01
635.229	31942.69
635.583	31860.21
635.937	31857.5
636.291	31835.8
636.645	31876.48
636.999	31769.81
637.352	31841.68
637.706	31555.81
638.06	31731.17
638.413	31657.5
638.767	31538.63
639.121	31539.31
639.474	31351.52
639.828	31363.72
640.181	31438.3
640.534	31321.01
640.888	31372.99
641.241	31147.68
641.594	31186.55
641.947	31330.73
642.301	31280.79
642.654	31155.82
643.007	31182.71
643.36	31019.55
643.713	30963.28
644.066	31203.28
644.419	30972.1
644.771	30795.38
645.124	30476.29
645.477	30361.72
645.83	30062.51
646.182	29920.15
646.535	29961.5
646.888	29929.64
647.24	29806.93
647.593	30022.52
647.945	29903.42
648.298	29892.12
648.65	29778.23
649.002	29566.48
649.355	29749.75
649.707	29685.12
650.059	29903.87
650.411	30117.43
650.763	30179.12
651.115	30459.11
651.467	30232.68
651.819	30349.06
652.171	30187.94
652.523	30212.57
652.875	30171.44
653.227	29969.86
653.578	30183.19
653.93	30132.57
654.282	30115.39
654.633	30017.54
654.985	30054.83
655.337	30017.09
655.688	29966.47
656.039	30051.22
656.391	29787.72
656.742	29759.7
657.094	29846.25
657.445	30007.6
657.796	29942.29
658.147	29793.14
658.498	29854.84
658.849	29845.57
659.2	29747.72
659.551	29635.63
659.902	29763.54
660.253	29645.8
660.604	29608.06
660.955	29639.47
661.306	29613.03
661.656	29672.69
662.007	29561.51
662.358	29717.21
662.708	29520.38
663.059	29542.75
663.409	29401.06
663.76	29423.21
664.11	29557.22
664.461	29405.81
664.811	29457.33
665.161	29562.19
665.511	29341.86
665.862	29302.31
666.212	29484.68
666.562	29480.61
666.912	29388.18
667.262	29322.87
667.612	29314.06
667.962	29349.31
668.312	29206.72
668.662	29460.95
669.011	29277.45
669.361	29279.94
669.711	29205.14
670.06	29325.36
670.41	29179.15
670.76	29026.61
671.109	29215.98
671.459	29180.5
671.808	29074.29
672.157	29141.41
672.507	28909.55
672.856	28980.74
673.205	29007.18
673.554	29016.89
673.904	28919.49
674.253	29104.57
674.602	28943.67
674.951	28551.37
675.3	28368.1
675.649	28813.96
675.998	28910.23
676.346	28797.24
676.695	28901.19
677.044	28737.58
677.393	28752.49
677.741	28855.54
678.09	28746.17
678.438	28609.67
678.787	28670.69
679.135	28663.91
679.484	28511.82
679.832	28625.04
680.181	28578.71
680.529	28536
680.877	28458.26
681.225	28521.31
681.573	28597.24
681.922	28286.74
682.27	28204.71
682.618	28176.46
682.966	28136.69
683.314	28197.48
683.661	28067.76
684.009	27975.79
684.357	27973.3
684.705	27881.1
685.053	27891.95
685.4	27955.23
685.748	27747.77
686.095	27703.93
686.443	27629.81
686.79	27615.35
687.138	27569.92
687.485	27635.69
687.832	27525.18
688.18	27510.27
688.527	27266.43
688.874	27265.07
689.221	27257.62
689.568	27162.25
689.915	27056.49
690.262	26996.61
690.609	26987.57
690.956	26896.72
691.303	26866.21
691.65	26787.35
691.997	26734.92
692.344	26475.49
692.69	26489.73
693.037	26654.02
693.383	26301.94
693.73	26482.72
694.077	26226.46
694.423	26263.07
694.769	26113.69
695.116	26156.85
695.462	25943.3
695.808	26023.52
696.155	26026.69
696.501	25803.19
696.847	25678.68
697.193	25635.51
697.539	25750.31
697.885	25531.11
698.231	25496.31
698.577	25505.8
698.923	25430.77
699.269	25252.02
699.614	25190.55
699.96	25105.81
700.306	25195.3
700.651	25055.87
700.997	24954.63
701.342	25001.4
701.688	24814.97
702.033	24768.87
702.379	24863.1
702.724	24706.5
703.069	24822.88
703.415	24471.7
703.76	24461.98
704.105	24546.05
704.45	24396.9
704.795	24444.58
705.14	24195.32
705.485	24208.66
705.83	24042.11
706.175	24166.4
706.52	24135.66
706.865	23927.99
707.209	23870.14
707.554	23861.77
707.899	23845.28
708.243	23742.45
708.588	23688.44
708.932	23494.33
709.277	23591.5
709.621	23485.29
709.966	23321.67
710.31	23423.37
710.654	23207.55
710.998	23210.94
711.342	23181.57
711.687	23191.73
712.031	23098.63
712.375	22927.34
712.719	23012.53
713.063	22958.97
713.407	23063.83
713.75	22858.41
714.094	22729.83
714.438	22709.04
714.782	22799.43
715.125	22553.79
715.469	22656.38
715.812	22549.94
716.156	22449.16
716.499	22414.35
716.843	22471.08
717.186	22270.63
717.53	22454.35
717.873	22390.17
718.216	22286.9
718.559	22181.82
718.902	22063.85
719.246	22128.49
719.589	22097.53
719.932	21902.73
720.275	22061.37
720.617	21934.14
720.96	21896.18
721.303	21849.17
721.646	21781.83
721.989	21766.91
722.331	21693.02
722.674	21656.86
723.016	21702.51
723.359	21557.2
723.701	21597.65
724.044	21505.9
724.386	21477.43
724.729	21546.35
725.071	21412.35
725.413	21432.01
725.755	21434.72
726.097	21233.59
726.439	21236.31
726.782	21221.62
727.124	21316.98
727.465	21178.23
727.807	21123.99
728.149	21157.44
728.491	21048.97
728.833	21058.46
729.175	21002.64
729.516	20968.29
729.858	20851.01
730.199	20886.71
730.541	20857.78
730.882	20850.55
731.224	20894.17
731.565	20655.98
731.906	20728.07
732.248	20725.36
732.589	20607.17
732.93	20498.47
733.271	20564.69
733.612	20604.23
733.953	20550.22
734.294	20414.41
734.635	20390.45
734.976	20496.66
735.317	20379.38
735.658	20356.33
735.999	20324.24
736.339	20276.33
736.68	20361.07
737.021	20147.75
737.361	20102.32
737.702	20154.98
738.042	20175.77
738.383	20092.83
738.723	20176.67
739.063	19999.05
739.404	20049.9
739.744	20040.63
740.084	19934.19
740.424	19954.98
740.764	19871.6
741.104	19945.72
741.444	19803.8
741.784	19654.65
742.124	19766.51
742.464	19764.93
742.804	19622.11
743.143	19644.71
743.483	19698.04
743.823	19587.99
744.162	19511.38
744.502	19627.99
744.841	19512.96
745.181	19566.29
745.52	19452.85
745.86	19528.33
746.199	19426.18
746.538	19489.46
746.877	19393.19
747.216	19337.6
747.556	19223.03
747.895	19320.42
748.234	19299.63
748.573	19136.7
748.911	19187.32
749.25	19032.97
749.589	19058.51
749.928	19072.75
750.267	19015.8
750.605	18926.08
750.944	18910.49
751.283	18839.76
751.621	18910.04
751.96	18701.23
752.298	18717.5
752.636	18749.37
752.975	18709.14
753.313	18627.11
753.651	18692.19
753.989	18564.29
754.327	18524.06
754.666	18464.85
755.004	18406.32
755.342	18518.64
755.679	18346.89
756.017	18277.74
756.355	18387.79
756.693	18269.15
757.031	18211.3
757.368	18160.45
757.706	18113.22
758.044	18021.48
758.381	18022.38
758.719	17949.39
759.056	17971.99
759.394	17836.17
759.731	17788.04
760.068	17781.71
760.405	17716.62
760.743	17576.29
761.08	17642.05
761.417	17552.11
761.754	17619.23
762.091	17512.56
762.428	17434.6
762.765	17446.58
763.102	17269.86
763.438	17167.49
763.775	17121.39
764.112	17136.98
764.449	17204.32
764.785	17067.38
765.122	17094.95
765.458	16887.49
765.795	17039.58
766.131	16864.67
766.467	16783.32
766.804	16769.53
767.14	16683.66
767.476	16723.43
767.812	16508.52
768.148	16630.1
768.485	16429.2
768.821	16423.33
769.157	16384.46
769.492	16399.15
769.828	16241.18
770.164	16156.67
770.5	16116.44
770.836	16132.71
771.171	15983.34
771.507	15920.29
771.842	15811.59
772.178	15820.18
772.513	15852.49
772.849	15766.17
773.184	15669.22
773.519	15647.98
773.855	15464.93
774.19	15583.8
774.525	15440.53
774.86	15474.88
775.195	15403.01
775.53	15352.84
775.865	15178.61
776.2	15168.44
776.535	15017.94
776.87	15096.58
777.205	15003.25
777.539	14898.85
777.874	14883.25
778.209	14761.45
778.543	14763.48
778.878	14690.94
779.212	14647.78
779.547	14632.64
779.881	14541.34
780.215	14546.99
780.55	14543.6
780.884	14423.6
781.218	14363.94
781.552	14373.66
781.886	14360.1
782.22	14136.38
782.554	14196.49
782.888	13950.62
783.222	14025.42
783.556	13946.1
783.889	13959.66
784.223	13834.69
784.557	13847.35
784.89	13891.64
785.224	13718.31
785.557	13628.82
785.891	13682.38
786.224	13614.59
786.558	13615.94
786.891	13454.59
787.224	13487.36
787.557	13353.58
787.891	13395.61
788.224	13400.81
788.557	13351.32
788.89	13256.4
789.223	13257.08
789.556	13192.9
789.888	13113.13
790.221	13082.4
790.554	12962.4
790.887	12975.73
791.219	12837.88
791.552	12966.24
791.884	12866.13
792.217	12785.68
792.549	12713.82
792.882	12613.93
793.214	12608.74
793.546	12616.19
793.879	12572.35
794.211	12455.52
794.543	12520.83
794.875	12388.4
795.207	12467.5
795.539	12335.52
795.871	12379.14
796.203	12173.49
796.535	12240.38
796.867	12251.46
797.198	12116.55
797.53	12105.02
797.862	12023.89
798.193	12078.13
798.525	12003.55
798.856	12024.57
799.188	11832.94
799.519	11854.18
799.85	11771.92
800.182	11796.1
800.513	11766.05
800.844	11694.86
801.175	11753.17
801.506	11698.93
801.837	11620.74
802.168	11542.1
802.499	11645.82
802.83	11507.75
803.161	11451.48
803.491	11468.65
803.822	11469.56
804.153	11430.24
804.483	11301.65
804.814	11274.76
805.145	11291.48
805.475	11241.99
805.805	11179.85
806.136	11223.69
806.466	11217.81
806.796	11108.89
807.126	11065.27
807.457	11056.01
807.787	11027.76
808.117	11018.5
808.447	10965.39
808.777	10950.25
809.107	10918.84
809.436	10904.37
809.766	10885.62
810.096	10916.58
810.426	10764.04
810.755	10773.76
811.085	10762.68
811.414	10689.24
811.744	10659.18
812.073	10597.49
812.403	10587.09
812.732	10494.89
813.061	10597.04
813.39	10421.22
813.719	10425.52
814.049	10527.89
814.378	10483.37
814.707	10381.45
815.036	10378.51
815.365	10296.71
815.693	10244.73
816.022	10300.77
816.351	10259.19
816.68	10208.35
817.008	10249.48
817.337	10145.52
817.665	10152.08
817.994	10192.75
818.322	10089.71
818.651	10091.51
818.979	9927.9
819.307	10101.46
819.636	9992.31
819.964	10015.58
820.292	10004.96
820.62	9986.88
820.948	9900.78
821.276	9937.17
821.604	9938.3
821.932	9998.41
822.259	9944.63
822.587	9887.45
822.915	9844.29
823.243	9952.53
823.57	9910.95
823.898	9927
824.225	9891.75
824.553	9872.76
824.88	9832.09
825.207	9908.02
825.535	9852.42
825.862	9903.27
826.189	9843.61
826.516	9879.77
826.843	9917.06
827.17	9906.89
827.497	9969.94
827.824	9905.98
828.151	9951.18
828.478	9880.67
828.805	9972.65
829.131	9877.06
829.458	9859.2
829.785	9763.84
830.111	9825.98
830.438	9864.18
830.764	9880.67
831.09	9898.75
831.417	9783.27
831.743	9794.57
832.069	9890.16
832.395	9772.65
832.722	9824.18
833.048	9813.1
833.374	9791.86
833.7	9747.12
834.026	9757.51
834.351	9847.68
834.677	9719.09
835.003	9799.54
835.329	9789.83
835.654	9784.18
835.98	9685.65
836.306	9708.93
836.631	9672.54
836.956	9691.75
837.282	9708.93
837.607	9644.29
837.932	9638.64
838.258	9596.39
838.583	9566.1
838.908	9541.92
839.233	9568.36
839.558	9583.05
839.883	9489.04
840.208	9420.35
840.533	9495.37
840.858	9451.53
841.182	9430.97
841.507	9508.48
841.832	9324.3
842.156	9376.28
842.481	9399.33
842.805	9372.66
843.13	9326.11
843.454	9323.4
843.778	9266
844.103	9224.64
844.427	9284.53
844.751	9269.84
845.075	9146.45
845.399	9185.55
845.723	9080.69
846.047	9210.41
846.371	9068.94
846.695	9092.22
847.019	9002.96
847.343	9025.33
847.666	8881.38
847.99	8923.41
848.313	8842.73
848.637	8865.11
848.96	8769.06
849.284	8799.12
849.607	8746.92
849.931	8673.92
850.254	8612.46
850.577	8627.37
850.9	8513.48
851.223	8471.22
851.546	8478.68
851.869	8489.75
852.192	8406.36
852.515	8409.98
852.838	8339.7
853.161	8327.94
853.483	8356.64
853.806	8308.06
854.129	8269.87
854.451	8214.95
854.774	8228.96
855.096	8165.92
855.419	8195.29
855.741	8134.28
856.063	8175.18
856.385	8106.03
856.708	8069.42
857.03	8046.82
857.352	8072.81
857.674	8010.21
857.996	7949.88
858.318	7965.02
858.64	7941.29
858.961	7959.14
859.283	7840.27
859.605	7853.16
859.926	7903.32
860.248	7826.26
860.57	7812.03
860.891	7752.37
861.212	7783.78
861.534	7806.38
861.855	7682.76
862.176	7729.32
862.498	7705.14
862.819	7666.27
863.14	7631.92
863.461	7734.97
863.782	7604.8
864.103	7673.72
864.424	7600.73
864.745	7643.44
865.065	7565.03
865.386	7544.69
865.707	7549.21
866.027	7530.68
866.348	7504.69
866.668	7532.26
866.989	7508.08
867.309	7425.6
867.63	7448.19
867.95	7435.54
868.27	7419.72
868.59	7428.99
868.91	7397.57
869.23	7383.34
869.55	7317.12
869.87	7381.53
870.19	7360.74
870.51	7388.99
870.83	7332.49
871.15	7367.52
871.469	7361.42
871.789	7329.55
872.109	7282.1
872.428	7259.72
872.748	7222.44
873.067	7260.18
873.386	7251.81
873.706	7256.79
874.025	7170.69
874.344	7181.08
874.663	7218.14
874.982	7211.14
875.301	7165.72
875.62	7129.78
875.939	7114.64
876.258	7141.99
876.577	7109.45
876.896	7167.75
877.214	7050.92
877.533	7106.96
877.852	7043.91
878.17	7052.72
878.489	7054.53
878.807	7088.2
879.125	7025.15
879.444	7030.13
879.762	7001.2
880.08	7021.76
880.398	6986.51
880.716	6966.4
881.034	6969.56
881.352	6901.09
881.67	6849.57
881.988	6951.26
882.306	6905.38
882.624	6891.6
882.941	6829.68
883.259	6840.07
883.577	6816.35
883.894	6778.16
884.212	6739.29
884.529	6832.39
884.846	6778.83
885.164	6664.49
885.481	6692.96
885.798	6838.49
886.115	6701.09
886.432	6636.92
886.75	6657.03
887.067	6647.09
887.383	6685.95
887.7	6615.67
888.017	6588.78
888.334	6589.91
888.651	6588.78
888.967	6563.92
889.284	6472.63
889.6	6482.34
889.917	6444.83
890.233	6464.49
890.55	6428.79
890.866	6444.83
891.182	6360.31
891.498	6382.23
891.815	6387.66
892.131	6320.77
892.447	6348.79
892.763	6330.03
893.079	6319.64
893.395	6340.43
893.71	6280.54
894.026	6263.37
894.342	6210.49
894.657	6200.09
894.973	6239.19
895.289	6175.69
895.604	6137.27
895.92	6132.52
896.235	6099.75
896.55	6164.84
896.865	6085.74
897.181	6070.15
897.496	6077.16
897.811	6063.82
898.126	6029.7
898.441	5999.19
898.756	5992.64
899.071	5948.35
899.386	5933.66
899.7	5881.91
900.015	5811.85
900.33	5821.8
900.644	5857.05
900.959	5817.73
901.273	5811.85
901.588	5758.29
901.902	5749.48
902.216	5697.28
902.531	5725.75
902.845	5718.07
903.159	5677.39
903.473	5663.38
903.787	5637.39
904.101	5603.95
904.415	5566.66
904.729	5566.89
905.042	5552.42
905.356	5524.4
905.67	5485.08
905.984	5516.95
906.297	5487.12
906.611	5455.48
906.924	5455.03
907.237	5422.71
907.551	5419.77
907.864	5384.07
908.177	5352.88
908.491	5338.64
908.804	5324.86
909.117	5290.74
909.43	5238.08
909.743	5215.26
910.056	5218.65
910.368	5199.67
910.681	5194.47
910.994	5191.76
911.307	5093
911.619	5123.28
911.932	5163.06
912.244	5054.36
912.557	5090.29
912.869	5087.8
913.181	5036.28
913.494	4997.41
913.806	4973.68
914.118	4966.23
914.43	4946.11
914.742	4918.99
915.054	4866.79
915.366	4882.61
915.678	4891.43
915.99	4863.63
916.302	4794.03
916.613	4836.96
916.925	4810.3
917.236	4748.6
917.548	4772.11
917.859	4777.76
918.171	4669.06
918.482	4649.85
918.794	4665.22
919.105	4676.52
919.416	4630.64
919.727	4680.13
920.038	4670.41
920.349	4596.97
920.66	4573.02
920.971	4529.85
921.282	4529.63
921.593	4518.55
921.903	4533.02
922.214	4477.65
922.525	4492.79
922.835	4427.26
923.146	4439.01
923.456	4407.14
923.767	4383.42
924.077	4344.32
924.387	4357.88
924.697	4390.2
925.008	4358.11
925.318	4319.01
925.628	4309.75
925.938	4302.74
926.248	4182.52
926.558	4209.41
926.867	4258.45
927.177	4191.56
927.487	4165.12
927.796	4123.99
928.106	4144.78
928.416	4167.6
928.725	4123.99
929.034	4098.68
929.344	4072.01
929.653	4067.94
929.962	4046.48
930.271	4022.52
930.581	3987.04
930.89	3998.57
931.199	3973.03
931.508	3934.16
931.817	3977.78
932.125	3947.72
932.434	3918.34
932.743	3886.93
933.051	3863.2
933.36	3907.95
933.669	3831.11
933.977	3798.12
934.286	3802.64
934.594	3835.41
934.902	3800.61
935.21	3738.69
935.519	3735.3
935.827	3745.24
936.135	3747.73
936.443	3691.91
936.751	3714.28
937.059	3693.49
937.367	3681.97
937.674	3703.66
937.982	3622.53
938.29	3670.21
938.597	3596.54
938.905	3587.96
939.213	3601.52
939.52	3542.76
939.827	3565.36
940.135	3561.74
940.442	3537.11
940.749	3529.2
941.056	3507.05
941.363	3476.1
941.67	3452.14
941.977	3454.4
942.284	3417.79
942.591	3445.36
942.898	3423.44
943.205	3389.09
943.511	3373.95
943.818	3363.33
944.125	3329.88
944.431	3290.79
944.738	3347.51
945.044	3327.62
945.35	3288.3
945.657	3306.16
945.963	3244.91
946.269	3267.96
946.575	3254.41
946.881	3227.29
947.187	3171.02
947.493	3217.34
947.799	3178.93
948.105	3160.4
948.41	3121.75
948.716	3143.9
949.022	3105.71
949.327	3132.83
949.633	3056.22
949.938	3096.44
950.244	3074.07
950.549	3055.09
950.854	3038.82
951.16	3031.13
951.465	3020.29
951.77	2999.95
952.075	3013.28
952.38	2980.74
952.685	2966.96
952.99	2979.61
953.294	2945.04
953.599	2981.87
953.904	2953.17
954.209	2875.21
954.513	2901.42
954.818	2845.15
955.122	2882.66
955.426	2864.59
955.731	2820.07
956.035	2856.9
956.339	2799.73
956.643	2835.66
956.948	2796.56
957.252	2775.55
957.556	2788.66
957.86	2806.06
958.163	2764.93
958.467	2743.68
958.771	2757.02
959.075	2748.88
959.378	2702.1
959.682	2722.22
959.985	2707.98
960.289	2709.34
960.592	2650.35
960.896	2702.33
961.199	2681.77
961.502	2622.56
961.805	2642.67
962.108	2624.14
962.411	2642.22
962.714	2625.72
963.017	2592.5
963.32	2587.53
963.623	2542.79
963.926	2561.77
964.228	2575.55
964.531	2553.86
964.833	2577.14
965.136	2514.31
965.438	2503.92
965.741	2488.1
966.043	2506.85
966.345	2479.29
966.648	2472.73
966.95	2454.43
967.252	2464.37
967.554	2476.35
967.856	2424.6
968.158	2407.2
968.46	2429.57
968.761	2399.51
969.063	2378.27
969.365	2381.43
969.666	2406.07
969.968	2333.3
970.269	2321.78
970.571	2326.97
970.872	2324.49
971.174	2317.71
971.475	2296.24
971.776	2278.39
972.077	2245.39
972.378	2262.79
972.679	2247.2
972.98	2265.73
973.281	2256.47
973.582	2242.46
973.883	2237.03
974.183	2234.77
974.484	2205.39
974.785	2212.4
975.085	2203.81
975.386	2180.31
975.686	2189.12
975.986	2157.71
976.287	2142.34
976.587	2157.71
976.887	2137.15
977.187	2165.17
977.487	2114.32
977.787	2136.24
978.087	2112.29
978.387	2090.59
978.687	2067.54
978.987	2082.46
979.286	2103.7
979.586	2080.65
979.885	2075.23
980.185	2055.57
980.484	2047.88
980.784	2060.77
981.083	2013.31
981.382	2018.51
981.682	2029.35
981.981	2004.5
982.28	2004.95
982.579	1973.99
982.878	1976.25
983.177	1995.91
983.475	1955.68
983.774	1929.92
984.073	1920.66
984.372	1913.42
984.67	1919.75
984.969	1895.57
985.267	1915.23
985.566	1900.32
985.864	1897.15
986.162	1877.72
986.461	1884.95
986.759	1859.87
987.057	1820.09
987.355	1849.7
987.653	1826.87
987.951	1848.79
988.249	1837.27
988.547	1824.61
988.844	1825.74
989.142	1795.69
989.44	1791.17
989.737	1804.95
990.035	1761.34
990.332	1766.76
990.63	1772.64
990.927	1733.77
991.224	1757.72
991.521	1756.37
991.819	1750.72
992.116	1720.89
992.413	1731.51
992.71	1722.24
993.006	1682.92
993.303	1699.87
993.6	1699.42
993.897	1689.25
994.193	1676.14
994.49	1651.96
994.787	1677.27
995.083	1650.38
995.379	1655.35
995.676	1644.5
995.972	1619.19
996.268	1616.03
996.565	1615.13
996.861	1595.69
997.157	1605.41
997.453	1578.97
997.749	1577.16
998.044	1601.12
998.34	1567.44
998.636	1569.7
998.932	1572.64
999.227	1535.13
999.523	1510.27
999.818	1515.24
1000.114	1514.11
1000.409	1524.28
1000.704	1505.07
1001	1495.36
1001.295	1510.05
1001.59	1488.12
1001.885	1486.99
1002.18	1472.98
1002.475	1458.29
1002.77	1461.46
1003.065	1440.22
1003.359	1459.65
1003.654	1453.55
1003.949	1435.24
1004.243	1442.48
1004.538	1430.95
1004.832	1412.87
1005.127	1396.6
1005.421	1388.69
1005.715	1379.88
1006.009	1370.84
1006.304	1393.66
1006.598	1376.72
1006.892	1382.36
1007.186	1355.02
1007.48	1338.75
1007.773	1355.02
1008.067	1320.67
1008.361	1344.17
1008.655	1310.05
1008.948	1305.08
1009.242	1328.81
1009.535	1276.38
1009.829	1272.99
1010.122	1274.57
1010.415	1277.51
1010.708	1274.35
1011.001	1284.74
1011.295	1279.99
1011.588	1273.22
1011.881	1246.1
1012.173	1212.88
1012.466	1245.87
1012.759	1242.71
1013.052	1242.26
1013.344	1174.69
1013.637	1213.1
1013.93	1218.3
1014.222	1224.4
1014.514	1202.48
1014.807	1175.36
1015.099	1158.42
1015.391	1153.9
1015.683	1167.23
1015.976	1156.16
1016.268	1151.86
1016.56	1155.93
1016.851	1134.01
1017.143	1129.26
1017.435	1123.61
1017.727	1122.71
1018.018	1138.53
1018.31	1108.25
1018.602	1080.23
1018.893	1120
1019.185	1081.13
1019.476	1104.86
1019.767	1074.8
1020.058	1072.99
1020.35	1080
1020.641	1033.9
1020.932	1060.79
1021.223	1040.68
1021.514	1050.62
1021.804	1043.62
1022.095	1027.57
1022.386	1030.28
1022.677	1047.23
1022.967	1029.83
1023.258	1000.91
1023.548	1000.45
1023.839	1005.65
1024.129	999.55
1024.419	981.7
1024.709	969.72
1025	961.58
1025.29	969.72
1025.58	955.71
1025.87	977.63
1026.16	949.83
1026.449	959.33
1026.739	958.42
1027.029	950.06
1027.319	917.29
1027.608	904.19
1027.898	912.77
1028.187	913.68
1028.477	914.58
1028.766	886.11
1029.055	879.78
1029.344	895.6
1029.634	887.46
1029.923	864.19
1030.212	885.88
1030.501	882.04
1030.79	867.35
1031.078	879.1
1031.367	869.84
1031.656	845.2
1031.945	840.91
1032.233	839.78
1032.522	836.39
1032.81	823.28
1033.099	828.93
1033.387	818.54
1033.675	820.12
1033.963	823.28
1034.251	832.1
1034.54	801.59
1034.828	805.2
1035.116	798.43
1035.403	782.15
1035.691	804.75
1035.979	803.4
1036.267	786.9
1036.554	767.01
1036.842	767.69
1037.129	774.47
1037.417	749.61
1037.704	746
1037.992	754.58
1038.279	768.82
1038.566	732.66
1038.853	732.66
1039.14	732.66
