Data from white_wall_FLMS001491_029.txt Node
Date: Tue Feb 07 11:04:01 GMT 2017
User: dcchb
Spectrometer: FLMS00149
Trigger mode: 0
Integration Time (sec): 2.000000E-2
Scans to average: 10
Electric dark correction enabled: true
Nonlinearity correction enabled: false
Boxcar width: 0
XAxis mode: Wavelengths
Number of Pixels in Spectrum: 2048
>>>>>Begin Spectral Data<<<<<
341.393	-27.84
341.776	-27.84
342.16	-27.84
342.543	-59.93
342.927	-67.39
343.31	-71.9
343.693	-63.32
344.077	-66.93
344.46	-38.91
344.843	-53.6
345.226	-51.34
345.61	-40.04
345.993	-29.87
346.376	7.42
346.759	-0.27
347.142	35.44
347.525	40.63
347.908	56
348.291	63.46
348.674	100.97
349.057	112.27
349.44	134.64
349.823	140.29
350.206	145.94
350.588	195.88
350.971	208.54
351.354	220.74
351.737	260.29
352.119	253.51
352.502	272.72
352.884	276.33
353.267	300.51
353.65	303.68
354.032	314.53
354.414	321.31
354.797	313.85
355.179	335.09
355.562	349.78
355.944	334.86
356.326	334.41
356.709	340.06
357.091	350.68
357.473	363.79
357.855	351.59
358.238	353.62
358.62	363.34
359.002	343.9
359.384	345.03
359.766	336.22
360.148	354.75
360.53	339.84
360.912	340.51
361.294	354.75
361.676	355.88
362.057	335.32
362.439	351.13
362.821	335.99
363.203	347.52
363.584	327.63
363.966	339.16
364.348	314.98
364.729	347.97
365.111	323.56
365.493	330.12
365.874	355.88
366.256	318.14
366.637	302.32
367.019	335.09
367.4	324.24
367.781	331.93
368.163	348.2
368.544	317.46
368.925	312.27
369.306	328.08
369.688	310.68
370.069	334.86
370.45	316.79
370.831	334.64
371.212	340.06
371.593	358.14
371.974	332.38
372.355	312.49
372.736	322.89
373.117	347.75
373.498	349.33
373.879	330.34
374.26	322.21
374.641	327.86
375.021	346.16
375.402	338.25
375.783	344.36
376.163	362.89
376.544	345.49
376.925	372.15
377.305	337.58
377.686	351.13
378.066	326.5
378.447	359.5
378.827	346.39
379.208	353.17
379.588	346.62
379.968	353.39
380.349	354.98
380.729	349.1
381.109	386.16
381.489	353.62
381.87	371.93
382.25	351.13
382.63	371.47
383.01	362.89
383.39	376.67
383.77	357.01
384.15	368.76
384.53	375.31
384.91	386.16
385.29	384.58
385.67	382.09
386.049	396.33
386.429	390.68
386.809	392.26
387.189	410.79
387.568	406.95
387.948	388.2
388.328	407.18
388.707	427.74
389.087	401.75
389.466	427.52
389.846	437.23
390.225	441.08
390.605	435.65
390.984	429.78
391.363	428.65
391.743	450.57
392.122	448.08
392.501	452.15
392.881	447.18
393.26	472.26
393.639	485.59
394.018	476.56
394.397	468.65
394.776	475.88
395.155	498.93
395.534	493.28
395.913	497.8
396.292	506.38
396.671	531.7
397.05	515.42
397.429	537.12
397.808	570.56
398.186	528.08
398.565	545.71
398.944	584.58
399.323	560.85
399.701	565.82
400.08	580.06
400.458	585.7
400.837	613.5
401.215	601.98
401.594	620.05
401.972	625.25
402.351	651.01
402.729	641.07
403.107	654.86
403.486	672.03
403.864	685.59
404.242	715.42
404.62	710.45
404.999	749.54
405.377	749.09
405.755	739.6
406.133	766.27
406.511	765.36
406.889	785.25
407.267	805.59
407.645	818.92
408.023	810.33
408.401	825.02
408.779	862.99
409.156	854.17
409.534	886.26
409.912	872.48
410.29	913.15
410.667	937.33
411.045	940.95
411.422	959.93
411.8	939.59
412.178	979.82
412.555	990.44
412.933	999.48
413.31	1034.05
413.687	1044.45
414.065	1082.42
414.442	1068.18
414.819	1116.54
415.197	1073.15
415.574	1121.06
415.951	1140.27
416.328	1115.41
416.705	1158.12
417.082	1161.06
417.46	1168.97
417.837	1187.27
418.214	1206.93
418.591	1224.78
418.967	1231.34
419.344	1243.31
419.721	1232.47
420.098	1258
420.475	1290.09
420.852	1306.14
421.228	1295.74
421.605	1313.6
421.982	1318.79
422.358	1333.71
422.735	1372.12
423.111	1378.45
423.488	1395.63
423.864	1403.08
424.241	1422.29
424.617	1454.83
424.994	1463.65
425.37	1468.17
425.746	1470.2
426.123	1499.58
426.499	1492.35
426.875	1554.27
427.251	1553.36
427.627	1591.78
428.003	1634.49
428.379	1628.16
428.756	1644.66
429.132	1659.35
429.507	1669.52
429.883	1695.96
430.259	1721.72
430.635	1726.69
431.011	1755.39
431.387	1795.39
431.763	1826.58
432.138	1843.07
432.514	1847.37
432.89	1866.8
433.265	1928.72
433.641	1942.51
434.016	1958.55
434.392	1983.18
434.767	2020.24
435.143	2053.01
435.518	2067.47
435.894	2088.72
436.269	2074.48
436.644	2144.08
437.02	2135.72
437.395	2162.84
437.77	2218.66
438.145	2232.22
438.52	2260.01
438.895	2260.69
439.271	2277.41
439.646	2332.33
440.021	2332.78
440.395	2366.22
440.77	2335.04
441.145	2395.15
441.52	2442.38
441.895	2406.22
442.27	2463.4
442.645	2462.72
443.019	2507.69
443.394	2501.81
443.769	2535.94
444.143	2508.37
444.518	2550.4
444.892	2602.83
445.267	2590.85
445.641	2629.94
446.016	2662.71
446.39	2681.47
446.764	2687.57
447.139	2712.43
447.513	2737.74
447.887	2743.61
448.262	2715.82
448.636	2798.98
449.01	2802.37
449.384	2850.73
449.758	2847.79
450.132	2864.52
450.506	2895.93
450.88	2933.44
451.254	2948.58
451.628	3001.23
452.002	3034.68
452.376	3055.24
452.75	3061.12
453.123	3135.02
453.497	3123.94
453.871	3152.19
454.244	3243.26
454.618	3297.95
454.992	3279.87
455.365	3289.14
455.739	3415.01
456.112	3406.2
456.486	3425.4
456.859	3473.76
457.232	3574.33
457.606	3565.97
457.979	3638.05
458.352	3670.37
458.725	3719.86
459.099	3774.77
459.472	3852.74
459.845	3860.87
460.218	3904.26
460.591	3991.94
460.964	3943.81
461.337	4043.47
461.71	4116.23
462.083	4186.97
462.456	4219.96
462.829	4212.5
463.201	4339.73
463.574	4284.59
463.947	4396.45
464.32	4491.14
464.692	4514.64
465.065	4545.15
465.438	4603.9
465.81	4663.11
466.183	4742.88
466.555	4859.94
466.928	4886.16
467.3	4919.6
467.672	5009.09
468.045	5108.3
468.417	5100.39
468.789	5093.83
469.161	5258.58
469.534	5353.26
469.906	5421.06
470.278	5460.83
470.65	5546.93
471.022	5648.4
471.394	5722.97
471.766	5773.14
472.138	5877.09
472.51	5976.98
472.882	6091.77
473.253	6191.66
473.625	6255.16
473.997	6392.11
474.369	6400.24
474.74	6535.83
475.112	6616.73
475.484	6779.21
475.855	6818.99
476.227	6906.44
476.598	7174.23
476.97	7211.52
477.341	7340.78
477.713	7522.92
478.084	7462.59
478.455	7776.02
478.827	7789.13
479.198	8070.93
479.569	8005.85
479.94	8316.12
480.311	8394.99
480.682	8558.15
481.053	8762.44
481.424	8943.23
481.795	9011.7
482.166	9160.39
482.537	9291.46
482.908	9490.1
483.279	9508.18
483.65	9700.95
484.021	9922.41
484.391	10019.81
484.762	10117.43
485.133	10206.24
485.503	10337.09
485.874	10602.62
486.244	10796.06
486.615	11015.94
486.985	11054.36
487.356	11343.16
487.726	11349.26
488.097	11588.13
488.467	11710.16
488.837	11922.58
489.207	12076.93
489.578	12234.44
489.948	12321.89
490.318	12615.67
490.688	12606.63
491.058	12809.11
491.428	13021.99
491.798	13160.52
492.168	13347.86
492.538	13468.3
492.908	13540.84
493.278	13736.77
493.648	13805.92
494.017	14063.77
494.387	14162.52
494.757	14274.61
495.126	14466.02
495.496	14458.33
495.866	14633.25
496.235	14848.61
496.605	15021.71
496.974	15116.85
497.344	15275.04
497.713	15250.86
498.082	15463.05
498.452	15642.71
498.821	15703.05
499.19	15759.32
499.559	15911.18
499.928	16115.24
500.298	16215.8
500.667	16343.03
501.036	16433.88
501.405	16493.99
501.774	16595.45
502.143	16792.96
502.512	16892.85
502.88	17064.59
503.249	17098.04
503.618	17277.7
503.987	17251.48
504.356	17461.19
504.724	17518.59
505.093	17616.9
505.462	17745.93
505.83	17912.03
506.199	18098.69
506.567	18357.44
506.936	18295.97
507.304	18578.45
507.672	18638.34
508.041	18700.26
508.409	18897.77
508.777	19108.16
509.145	19249.39
509.514	19223.86
509.882	19470.18
510.25	19486
510.618	19599.89
510.986	19790.85
511.354	19952.65
511.722	20170.27
512.09	20361.46
512.458	20332.98
512.826	20522.13
513.193	20710.83
513.561	20781.56
513.929	20931.38
514.297	21205.95
514.664	21292.73
515.032	21443.01
515.4	21668.09
515.767	21711.48
516.135	21833.06
516.502	21814.07
516.869	22208.64
517.237	22219.26
517.604	22314.85
517.972	22554.62
518.339	22829.19
518.706	22854.72
519.073	22962.97
519.44	23231.89
519.808	23342.39
520.175	23452
520.542	23724.53
520.909	23854.7
521.276	23836.39
521.643	24006.11
522.009	24456.26
522.376	24524.51
522.743	24751.62
523.11	24955.01
523.477	25150.03
523.843	25351.16
524.21	25561.09
524.577	25690.36
524.943	25943
525.31	26030.01
525.676	26285.59
526.043	26506.38
526.409	26629.77
526.776	26800.61
527.142	26934.39
527.508	27112.69
527.874	27352.23
528.241	27479.24
528.607	27649.63
528.973	27883.97
529.339	27884.42
529.705	28083.06
530.071	28368.7
530.437	28467.46
530.803	28688.02
531.169	28862.02
531.535	28734.34
531.901	29021.12
532.267	29130.72
532.632	29219.53
532.998	29391.28
533.364	29532.74
533.73	29707.43
534.095	29994.2
534.461	30011.6
534.826	30133.85
535.192	30292.27
535.557	30507.63
535.923	30551.02
536.288	30616.55
536.653	30853.61
537.019	30820.84
537.384	31086.6
537.749	31133.38
538.114	31225.35
538.479	31402.75
538.845	31653.36
539.21	31396.65
539.575	31787.6
539.94	31824.88
540.305	32049.74
540.67	32061.94
541.034	32233.91
541.399	32296.96
541.764	32412.66
542.129	32381.71
542.494	32569.04
542.858	32725.88
543.223	32812.65
543.587	32971.29
543.952	33060.56
544.316	33227.56
544.681	33267.78
545.045	33359.76
545.41	33544.16
545.774	33620.09
546.138	33718.62
546.503	33921.33
546.867	34014.43
547.231	34176.91
547.595	34398.15
547.959	34517.02
548.324	34499.16
548.688	34713.85
549.052	34791.59
549.416	34988.19
549.779	35059.6
550.143	35097.57
550.507	35420.72
550.871	35351.57
551.235	35439.93
551.599	35824.78
551.962	35897.77
552.326	36036.3
552.689	36240.59
553.053	36318.32
553.417	36304.09
553.78	36776.84
554.143	36776.62
554.507	36871.76
554.87	37149.26
555.234	37527.78
555.597	37235.81
555.96	37556.71
556.323	37665.18
556.686	37734.56
557.05	37995.34
557.413	38128.9
557.776	38182.23
558.139	38511.71
558.502	38627.87
558.865	38707.87
559.228	39079.61
559.59	39253.39
559.953	39288.87
560.316	39715.07
560.679	39713.04
561.041	39814.5
561.404	40065.34
561.767	40354.15
562.129	40280.25
562.492	40739
562.854	40699.23
563.217	40741.71
563.579	40976.96
563.941	41199.78
564.304	41438.19
564.666	41665.3
565.028	41748.92
565.39	41806.54
565.753	42025.97
566.115	42270.48
566.477	42352.52
566.839	42526.07
567.201	42703.47
567.563	42853.29
567.925	43043.8
568.287	43175.09
568.648	43343.22
569.01	43405.14
569.372	43713.38
569.734	43587.51
570.095	43942.31
570.457	44127.16
570.819	44203.09
571.18	44174.39
571.542	44302.52
571.903	44383.88
572.265	44672
572.626	44776.86
572.987	44961.71
573.349	44936.4
573.71	45216.62
574.071	45269.5
574.432	45387.46
574.794	45675.14
575.155	45472.89
575.516	45551.53
575.877	45780
576.238	45632.2
576.599	46041.91
576.96	45975.7
577.32	46017.96
577.681	46196.26
578.042	46413.2
578.403	46300.66
578.763	46265.63
579.124	46387.89
579.485	46439.19
579.845	46582.46
580.206	46475.35
580.566	46528
580.927	46617.94
581.287	46640.31
581.648	46610.94
582.008	46829.23
582.368	46608.68
582.728	46711.05
583.089	46871.72
583.449	46761.89
583.809	46786.3
584.169	47005.73
584.529	46914.2
584.889	47123.01
585.249	46978.61
585.609	46753.08
585.969	47018.61
586.329	46834.88
586.688	46988.55
587.048	46894.32
587.408	46889.57
587.768	46955.33
588.127	46970.93
588.487	46844.83
588.846	47214.08
589.206	46895.67
589.565	47063.13
589.925	47169.34
590.284	47019.51
590.643	47056.35
591.003	47156.01
591.362	47317.81
591.721	47213.63
592.08	47303.12
592.44	47351.25
592.799	47234.65
593.158	47142.45
593.517	47119.62
593.876	47295.66
594.235	47105.84
594.593	47303.35
594.952	47160.07
595.311	47135.22
595.67	47290.92
596.029	47400.29
596.387	47408.2
596.746	47458.6
597.104	47450.01
597.463	47357.13
597.822	47588.08
598.18	47401.42
598.538	47207.08
598.897	47579.72
599.255	47283.46
599.613	47804.12
599.972	47575.66
600.33	47669.44
600.688	47526.39
601.046	47791.7
601.404	47818.36
601.762	47583.11
602.12	47784.24
602.478	47882.99
602.836	47890.9
603.194	47812.71
603.552	47788.53
603.91	47679.16
604.268	47937.91
604.625	47821.75
604.983	48013.84
605.341	47832.6
605.698	48093.16
606.056	48142.42
606.413	48031.01
606.771	48158.69
607.128	48254.73
607.485	48140.84
607.843	48116.43
608.2	48395.75
608.557	48457.44
608.914	48285.47
609.272	48473.71
609.629	48515.29
609.986	48659.47
610.343	48454.5
610.7	48599.58
611.057	48647.94
611.414	48617.21
611.771	48646.36
612.127	48846.81
612.484	48800.48
612.841	48894.04
613.198	48709.41
613.554	48862.4
613.911	49103.75
614.267	49005
614.624	49141.04
614.98	49128.61
615.337	49103.07
615.693	49073.47
616.05	49158.21
616.406	49506.45
616.762	49327.25
617.118	49257.42
617.475	49301.49
617.831	49489.28
618.187	49409.73
618.543	49418.77
618.899	49518.2
619.255	49484.98
619.611	49568.37
619.967	49562.27
620.323	49759.1
620.678	49607.92
621.034	49510.29
621.39	49617.41
621.746	49380.58
622.101	49904.86
622.457	49584.19
622.812	49705.54
623.168	49787.35
623.523	49670.52
623.879	49948.02
624.234	49591.42
624.589	49720.23
624.945	49717.07
625.3	49819.21
625.655	49748.25
626.01	49781.93
626.365	49713.9
626.72	49661.25
627.075	49708.93
627.43	49624.19
627.785	49529.5
628.14	49697.63
628.495	49688.59
628.85	49675.26
629.205	49632.55
629.559	49820.79
629.914	49526.11
630.269	49485.21
630.623	49427.58
630.978	49312.79
631.332	49532.44
631.687	49524.08
632.041	49362.73
632.396	49488.6
632.75	49428.49
633.104	49500.8
633.459	49314.59
633.813	49098.78
634.167	49179
634.521	49180.13
634.875	49253.8
635.229	49202.73
635.583	49057.65
635.937	49025.79
636.291	48942.85
636.645	48932
636.999	48793.93
637.352	49040.48
637.706	48789.86
638.06	49016.75
638.413	48832.35
638.767	48829.18
639.121	48798.67
639.474	48508.06
639.828	48682.97
640.181	48699.92
640.534	48698.34
640.888	48604.78
641.241	48455.41
641.594	48441.62
641.947	48493.37
642.301	48326.37
642.654	48411.57
643.007	48429.87
643.36	48387.61
643.713	48289.31
644.066	48472.13
644.419	48068.98
644.771	47951.01
645.124	47521.19
645.477	47498.37
645.83	47358.03
646.182	47177.47
646.535	47051.6
646.888	46969.12
647.24	46780.65
647.593	47015.22
647.945	46961.89
648.298	46758.28
648.65	46685.96
649.002	46624.95
649.355	46675.57
649.707	46713.76
650.059	46849.8
650.411	47278.26
650.763	47176.57
651.115	47652.04
651.467	47484.81
651.819	47424.7
652.171	47435.77
652.523	47247.08
652.875	47382.44
653.227	47159.4
653.578	47347.19
653.93	47386.73
654.282	47067.19
654.633	46986.74
654.985	47134.76
655.337	47032.85
655.688	47052.05
656.039	47234.87
656.391	46896.8
656.742	46979.06
657.094	46866.75
657.445	47033.75
657.796	46851.61
658.147	46782
658.498	46911.04
658.849	46822
659.2	46662.91
659.551	46717.15
659.902	46787.43
660.253	46694.1
660.604	46764.83
660.955	46620.65
661.306	46698.39
661.656	46517.15
662.007	46522.35
662.358	46578.62
662.708	46590.37
663.059	46402.13
663.409	46271.74
663.76	46645.96
664.11	46437.38
664.461	46636.02
664.811	46425.86
665.161	46549.47
665.511	46322.13
665.862	46382.92
666.212	46482.35
666.562	46495.46
666.912	46274.45
667.262	46331.17
667.612	46241.45
667.962	46223.6
668.312	46190.83
668.662	46339.3
669.011	46274.45
669.361	46072.64
669.711	46190.83
670.06	46121.91
670.41	45952.87
670.76	45961.91
671.109	46102.02
671.459	45996.71
671.808	45985.42
672.157	45997.17
672.507	45772.54
672.856	45822.71
673.205	45887.56
673.554	45995.36
673.904	45766.89
674.253	46031.29
674.602	45836.72
674.951	45172.1
675.3	44961.26
675.649	45581.58
675.998	45509.72
676.346	45554.47
676.695	45660.68
677.044	45275.6
677.393	45480.34
677.741	45530.51
678.09	45405.09
678.438	45300.01
678.787	45360.35
679.135	45311.99
679.484	45099.56
679.832	45131.65
680.181	45024.08
680.529	45068.38
680.877	44915.39
681.225	44882.62
681.573	45074.48
681.922	44671.55
682.27	44566.24
682.618	44700.03
682.966	44621.61
683.314	44762.17
683.661	44377.77
684.009	44205.35
684.357	44254.39
684.705	44215.97
685.053	44201.06
685.4	44097.56
685.748	43897.11
686.095	44018.91
686.443	43762.87
686.79	43693.05
687.138	43755.64
687.485	43749.54
687.832	43526.27
688.18	43523.56
688.527	43274.3
688.874	43296.22
689.221	43227.3
689.568	43167.64
689.915	42963.57
690.262	42913.18
690.609	42764.03
690.956	42794.31
691.303	42631.38
691.65	42546.41
691.997	42482.46
692.344	42316.81
692.69	42115.01
693.037	42287.43
693.383	41871.85
693.73	41895.13
694.077	41696.94
694.423	41724.96
694.769	41466.89
695.116	41504.4
695.462	41371.75
695.808	41297.4
696.155	41329.94
696.501	41085.21
696.847	41107.58
697.193	40899.9
697.539	41029.61
697.885	40561.83
698.231	40528.38
698.577	40445.45
698.923	40428.73
699.269	40290.88
699.614	40044.78
699.96	40175.4
700.306	39974.05
700.651	39835.29
700.997	39744.45
701.342	39663.55
701.688	39631.91
702.033	39518.69
702.379	39531.57
702.724	39384.46
703.069	39429.43
703.415	38935.21
703.76	38955.54
704.105	39010.23
704.45	38892.27
704.795	38556.68
705.14	38602.11
705.485	38561.66
705.83	38483.24
706.175	38362.79
706.52	38260.65
706.865	38081.22
707.209	38003.03
707.554	37940.2
707.899	38230.59
708.243	37876.48
708.588	37827.66
708.932	37537.73
709.277	37619.99
709.621	37595.35
709.966	37312.2
710.31	37365.3
710.654	37221.58
710.998	37208.02
711.342	37175.25
711.687	37141.58
712.031	37007.57
712.375	36899.33
712.719	36930.29
713.063	36806.67
713.407	36922.38
713.75	36702.27
714.094	36600.8
714.438	36568.04
714.782	36488.26
715.125	36379.34
715.469	36456.4
715.812	36256.86
716.156	35919.69
716.499	35872.69
716.843	36056.86
717.186	35884.44
717.53	36035.85
717.873	35863.42
718.216	35919.69
718.559	35663.2
718.902	35589.98
719.246	35528.29
719.589	35312.48
719.932	35264.12
720.275	35299.37
720.617	35237.45
720.96	35097.11
721.303	35208.98
721.646	35105.02
721.989	34964.24
722.331	35066.61
722.674	34796.1
723.016	34904.12
723.359	34792.04
723.701	34733.28
724.044	34566.28
724.386	34456.9
724.729	34703
725.071	34508.65
725.413	34431.82
725.755	34472.5
726.097	34302.78
726.439	34197.7
726.782	34175.56
727.124	34478.37
727.465	34093.3
727.807	34195.67
728.149	34061.21
728.491	33983.7
728.833	34039.97
729.175	33836.58
729.516	33729.47
729.858	33824.83
730.199	33693.08
730.541	33662.12
730.882	33582.35
731.224	33758.84
731.565	33445.86
731.906	33503.26
732.248	33447.44
732.589	33335.58
732.93	33123.61
733.271	33256.71
733.612	33232.53
733.953	33304.62
734.294	33187.11
734.635	33091.97
734.976	33095.81
735.317	32977.62
735.658	32854.01
735.999	32850.17
736.339	32567.69
736.68	32869.38
737.021	32620.57
737.361	32624.41
737.702	32778.3
738.042	32629.83
738.383	32571.76
738.723	32502.15
739.063	32607.01
739.404	32486.56
739.744	32413.79
740.084	32410.63
740.424	32255.15
740.764	32227.13
741.104	32312.55
741.444	32087.7
741.784	32008.83
742.124	32114.59
742.464	32083.86
742.804	32060.13
743.143	31894.26
743.483	32019.91
743.823	31649.97
744.162	31668.96
744.502	31739.91
744.841	31497.89
745.181	31633.93
745.52	31485.23
745.86	31509.64
746.199	31439.81
746.538	31298.12
746.877	31525
747.216	31482.07
747.556	31245.69
747.895	31363.88
748.234	31159.59
748.573	31178.57
748.911	31063.55
749.25	31019.03
749.589	30929.54
749.928	31002.98
750.267	30953.72
750.605	30878.69
750.944	30726.83
751.283	30496.33
751.621	30627.4
751.96	30419.95
752.298	30487.74
752.636	30387.41
752.975	30243.68
753.313	30203.23
753.651	30317.35
753.989	30001.65
754.327	30072.16
754.666	30031.26
755.004	29937.48
755.342	29863.13
755.679	29815.22
756.017	29648.44
756.355	29650.25
756.693	29498.62
757.031	29504.49
757.368	29487.32
757.706	29345.63
758.044	29245.29
758.381	29269.47
758.719	29138.85
759.056	29234.22
759.394	29137.5
759.731	28773.21
760.068	28796.26
760.405	28742.03
760.743	28683.05
761.08	28742.03
761.417	28523.05
761.754	28557.17
762.091	28380.45
762.428	28412.54
762.765	28201.25
763.102	28233.57
763.438	28039.9
763.775	27964.65
764.112	28101.37
764.449	27985.66
764.785	27799
765.122	27664.77
765.458	27586.12
765.795	27514.04
766.131	27521.95
766.467	27357.88
766.804	27406.02
767.14	27217.1
767.476	27162.86
767.812	27078.79
768.148	27028.85
768.485	26801.29
768.821	26737.33
769.157	26661.4
769.492	26628.64
769.828	26467.51
770.164	26333.73
770.5	26314.52
770.836	26225.71
771.171	26095.09
771.507	26088.76
771.842	25863.01
772.178	25741.2
772.513	25663.69
772.849	25691.71
773.184	25592.05
773.519	25562.9
773.855	25413.75
774.19	25310.25
774.525	25218.28
774.86	25239.52
775.195	25152.06
775.53	24988.23
775.865	24859.19
776.2	24721.57
776.535	24551.4
776.87	24525.64
777.205	24464.17
777.539	24419.43
777.874	24272.09
778.209	24196.16
778.543	24183.5
778.878	23988.93
779.212	24027.8
779.547	23845.43
779.881	23888.6
780.215	23672.78
780.55	23732.44
780.884	23659.67
781.218	23438.21
781.552	23441.6
781.886	23285.67
782.22	23202.96
782.554	23112.8
782.888	23019.24
783.222	22879.36
783.556	22941.73
783.889	22838.23
784.223	22616.09
784.557	22538.12
784.89	22648.63
785.224	22448.41
785.557	22342.65
785.891	22318.69
786.224	22229.88
786.558	22193.27
786.891	22005.03
787.224	21920.06
787.557	21902.21
787.891	21874.86
788.224	21917.57
788.557	21792.6
788.89	21723.23
789.223	21671.7
789.556	21443.46
789.888	21484.14
790.221	21301.54
790.554	21182.9
790.887	21262.68
791.219	21034.88
791.552	21082.34
791.884	20845.74
792.217	20830.14
792.549	20845.74
792.882	20616.82
793.214	20584.5
793.546	20615.91
793.879	20498.85
794.211	20353.09
794.543	20527.78
794.875	20420.89
795.207	20469.7
795.539	20287.33
795.871	20342.93
796.203	20029.71
796.535	19914.24
796.867	19957.85
797.198	19803.05
797.53	19807.57
797.862	19718.76
798.193	19723.05
798.525	19589.27
798.856	19663.62
799.188	19412.33
799.519	19342.05
799.85	19253.69
800.182	19304.31
800.513	19157.87
800.844	19161.49
801.175	19187.93
801.506	19083.98
801.837	18961.04
802.168	18924.66
802.499	18931.21
802.83	18804.21
803.161	18733.02
803.491	18706.81
803.822	18720.37
804.153	18679.47
804.483	18455.07
804.814	18338.23
805.145	18377.55
805.475	18461.17
805.805	18340.94
806.136	18358.57
806.466	18225.92
806.796	18238.8
807.126	18002.87
807.457	18050.33
807.787	17992.25
808.117	17927.4
808.447	17884.23
808.777	17844.01
809.107	17801.07
809.436	17752.26
809.766	17748.87
810.096	17663.45
810.426	17519.72
810.755	17527.63
811.085	17550.23
811.414	17516.79
811.744	17335.32
812.073	17336.9
812.403	17272.5
812.732	17128.09
813.061	17200.64
813.39	17079.96
813.719	17044.93
814.049	17179.39
814.378	17106.17
814.707	17025.05
815.036	16897.14
815.365	16866.63
815.693	16837.03
816.022	16811.04
816.351	16685.17
816.68	16576.47
817.008	16651.27
817.337	16507.55
817.665	16491.73
817.994	16650.82
818.322	16561.33
818.651	16411.73
818.979	16334.44
819.307	16407.89
819.636	16381.9
819.964	16234.11
820.292	16295.12
820.62	16372.18
820.948	16226.2
821.276	16188.23
821.604	16099.2
821.932	16254.67
822.259	16173.09
822.587	16165.18
822.915	16134.9
823.243	16237.27
823.57	16054.22
823.898	16132.41
824.225	16167.67
824.553	16148.46
824.88	16150.95
825.207	16210.83
825.535	16149.36
825.862	16120.89
826.189	16053.55
826.516	16107.1
826.843	16139.42
827.17	16122.7
827.497	16139.65
827.824	16133.32
828.151	16190.27
828.478	16161.34
828.805	16130.38
829.131	16070.72
829.458	16146.43
829.785	15998.86
830.111	16052.64
830.438	16124.96
830.764	16014
831.09	16080.44
831.417	15951.85
831.743	16072.3
832.069	15993.89
832.395	15930.84
832.722	16003.38
833.048	15913.66
833.374	15955.02
833.7	15842.7
834.026	15877.73
834.351	15963.15
834.677	15881.35
835.003	15945.75
835.329	15874.79
835.654	15856.49
835.98	15760.45
836.306	15764.97
836.631	15715.02
836.956	15724.06
837.282	15765.19
837.607	15690.84
837.932	15579.21
838.258	15617.17
838.583	15620.11
838.908	15526.56
839.233	15525.88
839.558	15507.35
839.883	15411.98
840.208	15439.1
840.533	15473.45
840.858	15456.73
841.182	15346.45
841.507	15336.28
841.832	15298.99
842.156	15276.39
842.481	15223.96
842.805	15211.08
843.13	15169.05
843.454	15133.35
843.778	15119.33
844.103	15056.28
844.427	14922.05
844.751	15001.6
845.075	14871.43
845.399	14873.69
845.723	14790.98
846.047	14821.71
846.371	14709.85
846.695	14685.22
847.019	14585.34
847.343	14623.53
847.666	14496.53
847.99	14420.6
848.313	14432.35
848.637	14288.4
848.96	14297.21
849.284	14267.83
849.607	14169.08
849.931	14209.3
850.254	14032.13
850.577	13976.09
850.9	13854.28
851.223	13816.09
851.546	13761.4
851.869	13729.31
852.192	13850.21
852.515	13653.61
852.838	13527.96
853.161	13518.02
853.483	13516.44
853.806	13366.16
854.129	13457
854.451	13366.61
854.774	13353.28
855.096	13214.07
855.419	13237.8
855.741	13250.23
856.063	13137.47
856.385	13120.74
856.708	13053.4
857.03	12922.56
857.352	13069.44
857.674	12986.96
857.996	12889.11
858.318	12834.2
858.64	12785.38
858.961	12848.89
859.283	12753.52
859.605	12634.65
859.926	12679.4
860.248	12588.78
860.57	12635.56
860.891	12599.63
861.212	12595.56
861.534	12521.21
861.855	12522.11
862.176	12513.98
862.498	12437.37
862.819	12407.54
863.14	12492.28
863.461	12364.6
863.782	12328.22
864.103	12477.82
864.424	12238.73
864.745	12326.64
865.065	12237.6
865.386	12104.5
865.707	12154.89
866.027	12196.47
866.348	12231.05
866.668	12181.33
866.989	12106.98
867.309	12050.26
867.63	12080.32
867.95	12028.12
868.27	12027.44
868.59	12044.61
868.91	11992.86
869.23	11939.08
869.55	11834.22
869.87	11994.22
870.19	11940.21
870.51	11950.6
870.83	11893.88
871.15	11797.84
871.469	11852.3
871.789	11875.8
872.109	11786.31
872.428	11739.08
872.748	11781.57
873.067	11701.12
873.386	11741.34
873.706	11745.19
874.025	11653.66
874.344	11613.89
874.663	11706.32
874.982	11537.28
875.301	11746.09
875.62	11619.31
875.939	11568.24
876.258	11568.47
876.577	11523.27
876.896	11518.98
877.214	11462.26
877.533	11561.69
877.852	11505.87
878.17	11516.72
878.489	11427.91
878.807	11441.24
879.125	11328.47
879.444	11384.07
879.762	11344.74
880.08	11346.55
880.398	11356.72
880.716	11318.98
881.034	11274.92
881.352	11252.32
881.67	11182.71
881.988	11190.17
882.306	11143.62
882.624	11142.72
882.941	11136.39
883.259	11044.41
883.577	11042.83
883.894	11081.93
884.212	10973.91
884.529	10961.25
884.846	10968.93
885.164	10980.01
885.481	10935.49
885.798	10935.04
886.115	10846.23
886.432	10814.36
886.75	10703.86
887.067	10779.11
887.383	10758.54
887.7	10704.99
888.017	10730.07
888.334	10778.21
888.651	10635.61
888.967	10586.35
889.284	10566.01
889.6	10524.43
889.917	10427.93
890.233	10437.65
890.55	10365.11
890.866	10443.52
891.182	10409.85
891.498	10370.76
891.815	10321.72
892.131	10286.69
892.447	10285.11
892.763	10201.5
893.079	10199.24
893.395	10188.39
893.71	10126.25
894.026	10131.67
894.342	10101.39
894.657	9978.9
894.973	9970.77
895.289	9968.96
895.604	9890.32
895.92	9880.6
896.235	9801.73
896.55	9804.67
896.865	9793.15
897.181	9820.94
897.496	9825.24
897.811	9731.68
898.126	9691
898.441	9630.89
898.756	9583.89
899.071	9566.26
899.386	9567.62
899.7	9497.79
900.015	9467.28
900.33	9367.62
900.644	9351.12
900.959	9441.52
901.273	9338.92
901.588	9327.85
901.902	9279.49
902.216	9256.89
902.531	9215.31
902.845	9196.55
903.159	9164.69
903.473	9129.66
903.787	9081.75
904.101	8994.98
904.415	9046.5
904.729	8936.45
905.042	8970.12
905.356	8940.51
905.67	8895.77
905.984	8875.43
906.297	8866.39
906.611	8707.07
906.924	8771.93
907.237	8694.42
907.551	8714.76
907.864	8631.82
908.177	8641.99
908.491	8612.16
908.804	8531.26
909.117	8469.79
909.43	8390.92
909.743	8391.15
910.056	8408.1
910.368	8362.22
910.681	8341.66
910.994	8321.09
911.307	8319.06
911.619	8207.65
911.932	8223.7
912.244	8179.63
912.557	8144.6
912.869	8089.24
913.181	8074.1
913.494	8083.81
913.806	7974.21
914.118	7940.54
914.43	7872.07
914.742	7917.72
915.054	7863.93
915.366	7837.72
915.678	7783.26
915.99	7754.1
916.302	7663.48
916.613	7711.17
916.925	7690.15
917.236	7616.93
917.548	7588.01
917.859	7585.75
918.171	7494
918.482	7522.02
918.794	7467.78
919.105	7447.9
919.416	7351.18
919.727	7392.31
920.038	7420.78
920.349	7343.49
920.66	7253.55
920.971	7260.78
921.282	7265.3
921.593	7174.68
921.903	7082.71
922.214	7076.16
922.525	7052.88
922.835	7088.81
923.146	7037.51
923.456	7059.66
923.767	7024.41
924.077	7002.94
924.387	6922.71
924.697	6875.03
925.008	6847.01
925.318	6870.51
925.628	6898.99
925.938	6797.29
926.248	6707.8
926.558	6715.04
926.867	6708.71
927.177	6649.05
927.487	6658.54
927.796	6594.36
928.106	6582.16
928.416	6536.73
928.725	6562.72
929.034	6472.56
929.344	6499.67
929.653	6496.96
929.962	6407.02
930.271	6371.99
930.581	6360.02
930.89	6300.36
931.199	6283.86
931.508	6305.33
931.817	6227.82
932.125	6235.27
932.434	6236.86
932.743	6172.22
933.051	6113.47
933.36	6122.96
933.669	6040.7
933.977	6082.28
934.286	6078.67
934.594	6022.17
934.902	6010.42
935.21	5934.72
935.519	5920.93
935.827	5908.95
936.135	5846.81
936.443	5861.05
936.751	5819.69
937.059	5721.84
937.367	5801.16
937.674	5825.57
937.982	5727.94
938.29	5678.23
938.597	5701.95
938.905	5640.49
939.213	5577.21
939.52	5608.17
939.827	5584.9
940.135	5549.42
940.442	5530.43
940.749	5512.81
941.056	5503.32
941.363	5459.48
941.67	5445.01
941.977	5353.04
942.284	5355.52
942.591	5368.86
942.898	5336.77
943.205	5329.54
943.511	5292.93
943.818	5301.51
944.125	5239.59
944.431	5246.6
944.738	5196.66
945.044	5195.53
945.35	5186.26
945.657	5118.02
945.963	5113.5
946.269	5099.03
946.575	5063.1
946.881	5054.29
947.187	5013.84
947.493	5020.84
947.799	5035.53
948.105	4924.35
948.41	4903.11
948.716	4921.41
949.022	4869.21
949.327	4868.08
949.633	4744.47
949.938	4821.98
950.244	4783.79
950.549	4740.4
950.854	4737.69
951.16	4760.51
951.465	4713.73
951.77	4679.16
952.075	4635.77
952.38	4598.03
952.685	4662.43
952.99	4581.31
953.294	4595.09
953.599	4618.37
953.904	4586.05
954.209	4515.55
954.513	4489.78
954.818	4504.02
955.122	4467.18
955.426	4490.24
955.731	4411.37
956.035	4410.69
956.339	4422.44
956.643	4423.8
956.948	4338.37
957.252	4338.6
957.556	4349.67
957.86	4289.11
958.163	4288.43
958.467	4278.72
958.771	4235.55
959.075	4289.34
959.378	4213.86
959.682	4225.84
959.985	4169.34
960.289	4181.54
960.592	4098.83
960.896	4089.57
961.199	4074.88
961.502	4083.92
961.805	4022.22
962.108	4053.86
962.411	4025.84
962.714	3978.38
963.017	3996.91
963.32	3970.47
963.623	3925.96
963.926	3950.14
964.228	3901.1
964.531	3911.95
964.833	3919.63
965.136	3837.37
965.438	3862.45
965.741	3833.76
966.043	3819.52
966.345	3798.73
966.648	3773.42
966.95	3781.55
967.252	3723.02
967.554	3713.31
967.856	3723.02
968.158	3647.09
968.46	3663.82
968.761	3653.19
969.063	3657.71
969.365	3624.04
969.666	3619.98
969.968	3594.44
970.269	3596.02
970.571	3580.88
970.872	3556.93
971.174	3541.33
971.475	3557.83
971.776	3518.28
972.077	3519.87
972.378	3473.99
972.679	3483.26
972.98	3482.58
973.281	3440.32
973.582	3447.78
973.883	3419.98
974.183	3432.41
974.484	3393.77
974.785	3388.12
975.085	3385.18
975.386	3352.19
975.686	3321.9
975.986	3306.76
976.287	3312.86
976.587	3276.48
976.887	3273.77
977.187	3238.74
977.487	3236.71
977.787	3218.18
978.087	3220.89
978.387	3237.84
978.687	3215.24
978.987	3188.57
979.286	3156.03
979.586	3165.07
979.885	3111.29
980.185	3125.3
980.484	3076.49
980.784	3057.5
981.083	3060.67
981.382	3042.59
981.682	3041.69
981.981	3036.94
982.28	2992.87
982.579	2976.6
982.878	3017.51
983.177	2967.11
983.475	2972.76
983.774	2941.12
984.073	2883.27
984.372	2886.44
984.67	2906.1
984.969	2890.28
985.267	2892.99
985.566	2895.7
985.864	2899.09
986.162	2824.97
986.461	2819.54
986.759	2818.19
987.057	2787.91
987.355	2780.22
987.653	2789.71
987.951	2784.74
988.249	2736.83
988.547	2724.41
988.844	2733.22
989.142	2725.54
989.44	2682.15
989.737	2719.21
990.035	2676.05
990.332	2658.19
990.63	2636.27
990.927	2595.37
991.224	2639.44
991.521	2607.35
991.819	2625.43
992.116	2594.92
992.413	2555.82
992.71	2553.11
993.006	2565.77
993.303	2527.57
993.6	2521.7
993.897	2542.49
994.193	2520.8
994.49	2485.99
994.787	2488.25
995.083	2458.65
995.379	2434.92
995.676	2470.63
995.972	2432.89
996.268	2420.91
996.565	2392.66
996.861	2407.35
997.157	2406.22
997.453	2365.55
997.749	2329.39
998.044	2340.01
998.34	2337.07
998.636	2311.76
998.932	2317.41
999.227	2296.62
999.523	2285.1
999.818	2269.28
1000.114	2251.2
1000.409	2248.94
1000.704	2210.29
1001	2246
1001.295	2190.41
1001.59	2212.33
1001.885	2201.71
1002.18	2209.84
1002.475	2129.39
1002.77	2161.03
1003.065	2140.01
1003.359	2138.66
1003.654	2126.46
1003.949	2124.42
1004.243	2089.39
1004.538	2076.29
1004.832	2072.9
1005.127	2076.97
1005.421	2043.97
1005.715	2046.91
1006.009	2022.73
1006.304	2015.27
1006.598	2014.37
1006.892	1989.74
1007.186	1969.17
1007.48	1954.71
1007.773	1928.95
1008.067	1953.35
1008.361	1932.79
1008.655	1924.2
1008.948	1921.26
1009.242	1904.31
1009.535	1888.72
1009.829	1897.76
1010.122	1867.93
1010.415	1872.45
1010.708	1846.46
1011.001	1863.19
1011.295	1829.29
1011.588	1805.11
1011.881	1822.73
1012.173	1786.13
1012.466	1795.84
1012.759	1762.17
1013.052	1737.09
1013.344	1760.14
1013.637	1748.39
1013.93	1763.75
1014.222	1745
1014.514	1728.95
1014.807	1675.39
1015.099	1718.33
1015.391	1665.22
1015.683	1710.42
1015.976	1652.8
1016.268	1660.25
1016.56	1634.26
1016.851	1648.95
1017.143	1620.71
1017.435	1632.91
1017.727	1585
1018.018	1578.22
1018.31	1595.4
1018.602	1575.06
1018.893	1578.22
1019.185	1561.72
1019.476	1558.79
1019.767	1522.86
1020.058	1509.07
1020.35	1503.87
1020.641	1500.48
1020.932	1490.77
1021.223	1501.39
1021.514	1471.78
1021.804	1443.31
1022.095	1453.03
1022.386	1449.64
1022.677	1454.61
1022.967	1403.76
1023.258	1422.29
1023.548	1404.21
1023.839	1391.33
1024.129	1393.37
1024.419	1375.51
1024.709	1385.01
1025	1372.8
1025.29	1327.15
1025.58	1334.61
1025.87	1335.29
1026.16	1345.01
1026.449	1312.01
1026.739	1266.82
1027.029	1304.78
1027.319	1305.23
1027.608	1274.05
1027.898	1274.05
1028.187	1280.6
1028.477	1262.98
1028.766	1273.37
1029.055	1231.34
1029.344	1236.31
1029.634	1235.18
1029.923	1223.88
1030.212	1194.5
1030.501	1195.63
1030.79	1208.51
1031.078	1187.05
1031.367	1187.27
1031.656	1183.43
1031.945	1158.8
1032.233	1160.83
1032.522	1155.18
1032.81	1137.78
1033.099	1126.26
1033.387	1123.32
1033.675	1093.94
1033.963	1087.61
1034.251	1098.91
1034.54	1088.29
1034.828	1101.85
1035.116	1082.42
1035.403	1071.79
1035.691	1056.43
1035.979	1067.95
1036.267	1035.86
1036.554	1023.66
1036.842	1045.35
1037.129	1054.62
1037.417	1028.18
1037.704	1027.28
1037.992	1004.23
1038.279	1028.63
1038.566	985.24
1038.853	985.24
1039.14	985.24
