Data from whiteboard_FLMS001491_00054.txt Node
Date: Wed Feb 08 11:27:06 GMT 2017
User: dcchb
Spectrometer: FLMS00149
Trigger mode: 0
Integration Time (sec): 2.000000E-2
Scans to average: 10
Electric dark correction enabled: true
Nonlinearity correction enabled: false
Boxcar width: 0
XAxis mode: Wavelengths
Number of Pixels in Spectrum: 2048
>>>>>Begin Spectral Data<<<<<
341.393	0.92
341.776	0.92
342.16	0.92
342.543	-82.7
342.927	-71.62
343.31	-62.81
343.693	-69.14
344.077	-70.04
344.46	-63.49
344.843	-63.94
345.226	-40.21
345.61	-25.3
345.993	2.27
346.376	-9.03
346.759	-2.92
347.142	44.31
347.525	16.96
347.908	66.23
348.291	74.14
348.674	94.47
349.057	108.49
349.44	118.43
349.823	150.97
350.206	190.74
350.588	226.22
350.971	222.16
351.354	250.85
351.737	250.4
352.119	265.54
352.502	308.71
352.884	300.12
353.267	318.65
353.65	308.48
354.032	324.53
354.414	320.91
354.797	359.1
355.179	363.85
355.562	354.58
355.944	362.94
356.326	350.51
356.709	374.47
357.091	373.79
357.473	408.14
357.855	370.85
358.238	374.47
358.62	401.59
359.002	361.59
359.384	378.76
359.766	359.1
360.148	371.98
360.53	358.65
360.912	377.63
361.294	386.67
361.676	369.27
362.057	374.24
362.439	382.15
362.821	354.13
363.203	345.09
363.584	358.65
363.966	369.72
364.348	376.5
364.729	370.17
365.111	374.92
365.493	369.5
365.874	346.67
366.256	359.1
366.637	361.59
367.019	360.68
367.4	367.46
367.781	355.26
368.163	330.17
368.544	370.85
368.925	366.56
369.306	357.29
369.688	352.55
370.069	372.43
370.45	383.73
370.831	374.47
371.212	346.22
371.593	377.86
371.974	382.15
372.355	384.64
372.736	370.17
373.117	368.82
373.498	390.96
373.879	371.98
374.26	378.08
374.641	366.78
375.021	381.47
375.402	371.3
375.783	384.64
376.163	407.01
376.544	398.65
376.925	390.51
377.305	400.68
377.686	382.15
378.066	404.52
378.447	414.24
378.827	414.47
379.208	396.84
379.588	421.02
379.968	410.62
380.349	419.66
380.729	414.24
381.109	417.86
381.489	415.82
381.87	425.09
382.25	427.8
382.63	447.91
383.01	427.12
383.39	437.29
383.77	430.51
384.15	428.03
384.53	455.6
384.91	452.43
385.29	468.93
385.67	454.47
386.049	467.35
386.429	479.32
386.809	474.8
387.189	480
387.568	482.04
387.948	452.66
388.328	477.74
388.707	497.18
389.087	496.95
389.466	499.21
389.846	499.44
390.225	510.96
390.605	534.46
390.984	539.89
391.363	535.14
391.743	552.54
392.122	556.38
392.501	543.5
392.881	548.25
393.26	578.08
393.639	579.43
394.018	593.9
394.397	599.55
394.776	581.92
395.155	602.26
395.534	611.75
395.913	623.95
396.292	630.73
396.671	634.35
397.05	656.72
397.429	638.42
397.808	657.17
398.186	663.27
398.565	680
398.944	670.05
399.323	689.26
399.701	698.75
400.08	677.74
400.458	739.88
400.837	754.8
401.215	747.57
401.594	759.09
401.972	782.37
402.351	808.81
402.729	789.15
403.107	828.01
403.486	831.63
403.864	838.64
404.242	830.05
404.62	861.69
404.999	873.44
405.377	905.75
405.755	904.62
406.133	924.28
406.511	936.03
406.889	974.23
407.267	1013.32
407.645	1015.58
408.023	1037.27
408.401	1050.61
408.779	1067.78
409.156	1090.38
409.534	1093.77
409.912	1118.63
410.29	1135.58
410.667	1156.14
411.045	1192.3
411.422	1197.95
411.8	1199.98
412.178	1272.75
412.555	1262.35
412.933	1288.57
413.31	1301
413.687	1297.61
414.065	1348
414.442	1378.06
414.819	1413.08
415.197	1429.36
415.574	1476.36
415.951	1457.38
416.328	1498.73
416.705	1515.45
417.082	1477.94
417.46	1542.12
417.837	1593.19
418.214	1576.92
418.591	1595.23
418.967	1624.15
419.344	1650.82
419.721	1687.43
420.098	1677.48
420.475	1731.27
420.852	1693.53
421.228	1752.06
421.605	1742.34
421.982	1763.36
422.358	1816.01
422.735	1838.61
423.111	1811.94
423.488	1864.6
423.864	1907.76
424.241	1897.59
424.617	1949.79
424.994	1966.52
425.37	1968.32
425.746	1997.02
426.123	2020.53
426.499	2024.14
426.875	2089.45
427.251	2110.69
427.627	2164.03
428.003	2179.62
428.379	2215.32
428.756	2239.73
429.132	2268.88
429.507	2347.75
429.883	2343.91
430.259	2356.56
430.635	2387.3
431.011	2419.16
431.387	2510.68
431.763	2526.5
432.138	2523.11
432.514	2563.11
432.89	2583.9
433.265	2668.64
433.641	2719.04
434.016	2724.91
434.392	2766.04
434.767	2789.55
435.143	2796.32
435.518	2872.25
435.894	2921.97
436.269	2952.7
436.644	2997
437.02	2996.55
437.395	3024.12
437.77	3046.04
438.145	3114.96
438.52	3141.4
438.895	3213.49
439.271	3187.73
439.646	3275.18
440.021	3291
440.395	3258.91
440.77	3285.13
441.145	3359.7
441.52	3392.69
441.895	3409.87
442.27	3484.89
442.645	3430.43
443.019	3534.61
443.394	3478.57
443.769	3567.15
444.143	3552.69
444.518	3616.87
444.892	3587.94
445.267	3629.98
445.641	3645.79
446.016	3711.55
446.39	3746.13
446.764	3756.3
447.139	3713.81
447.513	3821.61
447.887	3869.52
448.262	3839.46
448.636	3911.78
449.01	3942.74
449.384	3986.58
449.758	4045.78
450.132	4064.31
450.506	4067.48
450.88	4110.64
451.254	4118.1
451.628	4176.4
452.002	4229.06
452.376	4287.59
452.75	4308.38
453.123	4390.63
453.497	4448.94
453.871	4441.71
454.244	4559.44
454.618	4622.49
454.992	4683.28
455.365	4703.39
455.739	4786.1
456.112	4843.28
456.486	4922.6
456.859	4950.84
457.232	5060.45
457.606	5052.54
457.979	5078.3
458.352	5238.07
458.725	5276.49
459.099	5335.02
459.472	5445.97
459.845	5487.1
460.218	5544.5
460.591	5599.64
460.964	5652.97
461.337	5730.03
461.71	5849.13
462.083	5892.06
462.456	5972.74
462.829	5951.72
463.201	6107.42
463.574	6121.89
463.947	6232.84
464.32	6326.4
464.692	6372.5
465.065	6478.04
465.438	6538.15
465.81	6659.73
466.183	6741.76
466.555	6900.85
466.928	6958.02
467.3	6947.4
467.672	7047.74
468.045	7271.91
468.417	7272.59
468.789	7323.44
469.161	7429.2
469.534	7584.9
469.906	7749.64
470.278	7822.86
470.65	7876.19
471.022	8022.18
471.394	8232.57
471.766	8274.37
472.138	8376.97
472.51	8496.06
472.882	8689.05
473.253	8829.16
473.625	8929.04
473.997	9084.97
474.369	9184.41
474.74	9307.34
475.112	9466.21
475.484	9673.66
475.855	9810.6
476.227	9877.27
476.598	10168.79
476.97	10222.8
477.341	10482.68
477.713	10588.44
478.084	10652.16
478.455	10914.76
478.827	11046.05
479.198	11416.89
479.569	11437.45
479.94	11780.27
480.311	11910.44
480.682	12149.53
481.053	12379.35
481.424	12564.66
481.795	12651.21
482.166	12903.4
482.537	13153.34
482.908	13326.9
483.279	13522.37
483.65	13723.04
484.021	14070.15
484.391	14129.36
484.762	14274.44
485.133	14500.65
485.503	14657.26
485.874	15113.74
486.244	15132.05
486.615	15463.79
486.985	15651.13
487.356	16064
487.726	16065.13
488.097	16469.64
488.467	16475.74
488.837	16873.69
489.207	17019.68
489.578	17386.68
489.948	17424.87
490.318	17713.9
490.688	17769.04
491.058	18053.55
491.428	18361.11
491.798	18505.29
492.168	18888.11
492.538	18992.74
492.908	19178.49
493.278	19506.39
493.648	19576.22
494.017	19804.01
494.387	19934.63
494.757	20098.02
495.126	20338.69
495.496	20456.2
495.866	20558.57
496.235	20756.76
496.605	21041.04
496.974	21041.04
497.344	21318.55
497.713	21541.59
498.082	21594.02
498.452	21787.24
498.821	21914.69
499.19	22109.04
499.559	22290.28
499.928	22438.52
500.298	22544.51
500.667	22873.54
501.036	22717.61
501.405	23008.9
501.774	23086.19
502.143	23301.77
502.512	23270.36
502.88	23695.21
503.249	23633.52
503.618	23821.08
503.987	23957.58
504.356	24022.66
504.724	24183.56
505.093	24370.45
505.462	24635.98
505.83	24701.74
506.199	24888.4
506.567	25268.73
506.936	25109.86
507.304	25474.15
507.672	25701.26
508.041	25841.37
508.409	25996.62
508.777	26255.59
509.145	26404.29
509.514	26448.58
509.882	26673.21
510.25	26779.42
510.618	26999.53
510.986	27044.73
511.354	27453.53
511.722	27647.65
512.09	27811.26
512.458	27896.91
512.826	28167.18
513.193	28338.7
513.561	28446.95
513.929	28846.71
514.297	28904.79
514.664	29280.83
515.032	29329.64
515.4	29554.27
515.767	29748.16
516.135	29987.93
516.502	29828.61
516.869	30340.01
517.237	30512.21
517.604	30506.56
517.972	30843.72
518.339	31043.94
518.706	31091.4
519.073	31476.93
519.44	31663.81
519.808	32025.61
520.175	31974.99
520.542	32440.07
520.909	32472.38
521.276	32540.85
521.643	33054.74
522.009	33173.83
522.376	33322.53
522.743	33627.83
523.11	33954.38
523.477	34295.84
523.843	34355.95
524.21	34779.66
524.577	34943.95
524.943	35147.56
525.31	35482.7
525.676	35621.45
526.043	35865.29
526.409	36014.89
526.776	36481.99
527.142	36628.88
527.508	36693.29
527.874	37152.71
528.241	37248.07
528.607	37458.92
528.973	37805.57
529.339	37765.12
529.705	38113.14
530.071	38418.21
530.437	38582.05
530.803	38749.05
531.169	39052.32
531.535	38968.93
531.901	39228.59
532.267	39357.4
532.632	39578.86
532.998	39695.24
533.364	39883.71
533.73	40146.98
534.095	40334.55
534.461	40489.34
534.826	40710.58
535.192	40865.83
535.557	41226.73
535.923	41133.17
536.288	41397.12
536.653	41612.25
537.019	41512.59
537.384	41658.35
537.749	41979.93
538.114	42166.59
538.479	42213.59
538.845	42428.5
539.21	42470.08
539.575	42674.37
539.94	42764.77
540.305	43174.7
540.67	43044.76
541.034	43301.02
541.399	43453.79
541.764	43675.93
542.129	43887.67
542.494	43909.14
542.858	44103.04
543.223	44102.36
543.587	44471.16
543.952	44428.9
544.316	44727.88
544.681	44457.38
545.045	45005.38
545.41	45191.82
545.774	45211.48
546.138	45259.16
546.503	45504.81
546.867	45501.19
547.231	45895.76
547.595	45921.07
547.959	46002.65
548.324	46148.63
548.688	46253.26
549.052	46334.62
549.416	46308.4
549.779	46509.53
550.143	46387.27
550.507	46860.7
550.871	46893.47
551.235	46859.57
551.599	47244.87
551.962	47182.73
552.326	47331.88
552.689	47537.3
553.053	47366.45
553.417	47522.38
553.78	47982.93
554.143	47866.78
554.507	48011.41
554.87	48161.23
555.234	48633.76
555.597	48401.68
555.96	48568.68
556.323	48713.76
556.686	48691.39
557.05	49040.53
557.413	49128.67
557.776	49259.51
558.139	49409.79
558.502	49465.15
558.865	49560.29
559.228	49791.02
559.59	49979.49
559.953	49958.25
560.316	50306.26
560.679	50316.21
561.041	50609.76
561.404	50797.77
561.767	50918.68
562.129	50852.24
562.492	51298.78
562.854	51277.31
563.217	51381.04
563.579	51466.23
563.941	51714.81
564.304	51907.12
564.666	52089.27
565.028	52069.83
565.39	52205.87
565.753	52406.55
566.115	52477.5
566.477	52630.04
566.839	52761.56
567.201	53054.44
567.563	52955.23
567.925	53299.4
568.287	53294.66
568.648	53269.8
569.01	53513.18
569.372	53684.93
569.734	53598.83
570.095	53816.9
570.457	53899.61
570.819	53907.75
571.18	54003.79
571.542	54214.18
571.903	54218.02
572.265	54430.9
572.626	54408.98
572.987	54485.81
573.349	54609.43
573.71	54687.16
574.071	54827.73
574.432	54885.8
574.794	55059.81
575.155	55020.94
575.516	55062.97
575.877	55151.33
576.238	55160.15
576.599	55309.52
576.96	55309.52
577.32	55297.54
577.681	55446.47
578.042	55452.79
578.403	55450.08
578.763	55493.7
579.124	55502.74
579.485	55671.54
579.845	55696.18
580.206	55662.96
580.566	55656.18
580.927	55739.57
581.287	55762.84
581.648	55609.85
582.008	55773.46
582.368	55763.07
582.728	55864.31
583.089	55780.24
583.449	55747.93
583.809	55758.55
584.169	55854.59
584.529	55818.21
584.889	55949.96
585.249	55813.91
585.609	55739.79
585.969	55929.17
586.329	55798.32
586.688	55835.38
587.048	55815.95
587.408	55759.23
587.768	55808.94
588.127	55785.21
588.487	55789.96
588.846	55898.43
589.206	55638.55
589.565	55758.1
589.925	55827.92
590.284	55771.2
590.643	55795.84
591.003	55860.01
591.362	55941.14
591.721	55843.29
592.08	55816.85
592.44	55901.82
592.799	55820.92
593.158	55834.25
593.517	55865.66
593.876	55906.11
594.235	55837.19
594.593	55837.19
594.952	55969.62
595.311	55923.97
595.67	55942.95
596.029	56038.54
596.387	56052.1
596.746	56119.89
597.104	55969.62
597.463	56064.98
597.822	56232.43
598.18	56107.47
598.538	56116.96
598.897	56258.2
599.255	56191.31
599.613	56514.46
599.972	56401.24
600.33	56467.91
600.688	56393.56
601.046	56464.97
601.404	56561.01
601.762	56478.08
602.12	56612.76
602.478	56557.85
602.836	56646.66
603.194	56449.83
603.552	56516.72
603.91	56562.59
604.268	56694.12
604.625	56558.53
604.983	56653.44
605.341	56544.52
605.698	56709.26
606.056	56819.54
606.413	56731.86
606.771	56803.72
607.128	56817.5
607.485	56652.08
607.843	56751.97
608.2	56899.53
608.557	56933.66
608.914	56866.99
609.272	57015.69
609.629	57011.62
609.986	57086.65
610.343	56923.04
610.7	57128.68
611.057	57014.11
611.414	57041.45
611.771	57044.16
612.127	57112.64
612.484	57089.59
612.841	57210.94
613.198	57088.91
613.554	57121.68
613.911	57248.23
614.267	57132.52
614.624	57143.14
614.98	57209.81
615.337	57335.91
615.693	57264.5
616.05	57240.09
616.406	57342.91
616.762	57255.46
617.118	57272.41
617.475	57188.57
617.831	57258.4
618.187	57300.88
618.543	57268.34
618.899	57400.09
619.255	57340.65
619.611	57340.2
619.967	57374.1
620.323	57447.09
620.678	57370.03
621.034	57245.06
621.39	57271.5
621.746	57239.19
622.101	57527.99
622.457	57214.33
622.812	57281.45
623.168	57333.87
623.523	57330.03
623.879	57366.87
624.234	57196.7
624.589	57338.85
624.945	57382.46
625.3	57302.46
625.655	57296.13
626.01	57235.35
626.365	57347.66
626.72	57291.62
627.075	57229.92
627.43	57272.86
627.785	57218.4
628.14	57206.65
628.495	57261.11
628.85	57242.35
629.205	57113.54
629.559	57278.51
629.914	57154.44
630.269	57125.29
630.623	57069.7
630.978	57068.34
631.332	57158.51
631.687	57212.75
632.041	57085.97
632.396	57087.78
632.75	57019.08
633.104	57012.98
633.459	56922.36
633.813	56958.06
634.167	56977.27
634.521	56932.08
634.875	56939.76
635.229	56972.53
635.583	56838.97
635.937	56866.32
636.291	56857.95
636.645	56832.19
636.999	56847.56
637.352	56908.35
637.706	56812.53
638.06	56877.84
638.413	56878.29
638.767	56753.32
639.121	56854.11
639.474	56625.87
639.828	56617.06
640.181	56646.21
640.534	56650.73
640.888	56576.15
641.241	56458.42
641.594	56568.7
641.947	56612.99
642.301	56581.58
642.654	56531.41
643.007	56602.82
643.36	56480.11
643.713	56456.38
644.066	56547.23
644.419	56376.61
644.771	56226.33
645.124	56026.56
645.477	55810.52
645.83	55662.96
646.182	55539.34
646.535	55401.72
646.888	55494.15
647.24	55377.99
647.593	55453.47
647.945	55412.57
648.298	55309.52
648.65	55182.74
649.002	55156.53
649.355	55152.01
649.707	55103.2
650.059	55263.19
650.411	55554.71
650.763	55598.55
651.115	55900.47
651.467	55611.43
651.819	55724.42
652.171	55590.19
652.523	55512
652.875	55510.19
653.227	55454.38
653.578	55609.85
653.93	55471.78
654.282	55342.29
654.633	55275.85
654.985	55298.22
655.337	55292.12
655.688	55189.52
656.039	55343.64
656.391	55059.58
656.742	55212.12
657.094	55101.84
657.445	55228.62
657.796	55119.24
658.147	55045.12
658.498	55074.95
658.849	55061.39
659.2	55016.42
659.551	54900.72
659.902	54963.09
660.253	54848.97
660.604	54950.66
660.955	54815.75
661.306	54927.84
661.656	54828.18
662.007	54840.38
662.358	54857.1
662.708	54800.16
663.059	54821.4
663.409	54572.82
663.76	54819.36
664.11	54732.13
664.461	54781.62
664.811	54629.76
665.161	54706.15
665.511	54599.26
665.862	54676.54
666.212	54596.77
666.562	54647.39
666.912	54576.66
667.262	54517.9
667.612	54508.86
667.962	54601.97
668.312	54485.81
668.662	54559.26
669.011	54384.12
669.361	54435.42
669.711	54384.12
670.06	54424.35
670.41	54312.48
670.76	54279.04
671.109	54364.91
671.459	54264.35
671.808	54157.69
672.157	54206.72
672.507	53987.75
672.856	53999.95
673.205	54018.48
673.554	54200.62
673.904	54119.5
674.253	54265.71
674.602	54085.15
674.951	53619.85
675.3	53463.92
675.649	53914.75
675.998	53823.91
676.346	53927.18
676.695	53987.07
677.044	53800.63
677.393	53786.17
677.741	53875.89
678.09	53782.33
678.438	53690.81
678.787	53745.95
679.135	53803.8
679.484	53631.15
679.832	53763.8
680.181	53583.01
680.529	53689.68
680.877	53564.26
681.225	53473.18
681.573	53712.05
681.922	53435.67
682.27	53269.57
682.618	53361.32
682.966	53239.97
683.314	53355.22
683.661	53337.37
684.009	53165.4
684.357	53239.97
684.705	53174.21
685.053	53197.94
685.4	53136.47
685.748	52995.68
686.095	52971.05
686.443	52822.13
686.79	52874.1
687.138	52968.34
687.485	52898.06
687.832	52765.18
688.18	52818.06
688.527	52639.53
688.874	52601.79
689.221	52603.38
689.568	52437.96
689.915	52385.08
690.262	52309.83
690.609	52410.16
690.956	52170.85
691.303	52146.21
691.65	51964.07
691.997	51938.31
692.344	51782.83
692.69	51771.99
693.037	51673.46
693.383	51398.66
693.73	51651.31
694.077	51175.62
694.423	51322.73
694.769	51122.51
695.116	51112.12
695.462	51021.72
695.808	50932.01
696.155	50953.48
696.501	50617.89
696.847	50595.07
697.193	50379.93
697.539	50529.76
697.885	50141.52
698.231	50031.24
698.577	50003.45
698.923	49898.59
699.269	49735.43
699.614	49503.35
699.96	49335.44
700.306	49386.96
700.651	49249.11
700.997	49006.86
701.342	48974.32
701.688	48800.09
702.033	48596.02
702.379	48619.53
702.724	48532.98
703.069	48693.65
703.415	48183.15
703.76	48041.91
704.105	48022.71
704.45	47912.43
704.795	47741.36
705.14	47707.91
705.485	47497.07
705.83	47401.71
706.175	47279.67
706.52	47171.66
706.865	47114.26
707.209	46960.59
707.554	46866.8
707.899	46931.89
708.243	46801.95
708.588	46582.97
708.932	46349.76
709.277	46272.24
709.621	46416.19
709.966	46187.05
710.31	46179.82
710.654	45896.89
710.998	45888.53
711.342	45905.7
711.687	45709.55
712.031	45535.31
712.375	45482.89
712.719	45492.15
713.063	45264.59
713.407	45482.66
713.75	45189.79
714.094	45116.79
714.438	45000.64
714.782	45144.82
715.125	44880.64
715.469	44973.29
715.812	44669.35
716.156	44508.9
716.499	44515.68
716.843	44550.93
717.186	44291.96
717.53	44607.43
717.873	44431.39
718.216	44286.08
718.559	44128.57
718.902	43989.82
719.246	44214.9
719.589	43832.99
719.932	43738.53
720.275	43904.62
720.617	43765.87
720.96	43599.77
721.303	43777.17
721.646	43771.29
721.989	43560.45
722.331	43574.46
722.674	43426.22
723.016	43393.22
723.359	43387.12
723.701	43392.32
724.044	43174.47
724.386	43000.69
724.729	42996.17
725.071	43022.39
725.413	42916.85
725.755	42926.12
726.097	42633.02
726.439	42663.98
726.782	42478.9
727.124	42809.06
727.465	42468.73
727.807	42513.7
728.149	42376.75
728.491	42128.85
728.833	42367.49
729.175	42155.52
729.516	42143.31
729.858	41957.78
730.199	42133.6
730.541	41788.97
730.882	41759.37
731.224	42023.09
731.565	41604.57
731.906	41639.37
732.248	41789.65
732.589	41505.36
732.93	41417.23
733.271	41560.73
733.612	41362.09
733.953	41447.96
734.294	41178.14
734.635	41204.81
734.976	41289.55
735.317	41014.75
735.658	41022.21
735.999	41017.47
736.339	40944.02
736.68	40842.78
737.021	40780.18
737.361	40588.33
737.702	40803.01
738.042	40700.19
738.383	40511.72
738.723	40619.06
739.063	40389.69
739.404	40458.16
739.744	40270.14
740.084	40231.27
740.424	40241.22
740.764	40083.03
741.104	40094.1
741.444	39816.59
741.784	39838.51
742.124	39770.04
742.464	39706.99
742.804	39779.76
743.143	39780.44
743.483	39528.24
743.823	39469.26
744.162	39359.66
744.502	39528.69
744.841	39178.42
745.181	39371.41
745.52	39089.38
745.86	39237.4
746.199	38966.9
746.538	39148.59
746.877	39078.31
747.216	38888.71
747.556	38864.53
747.895	38708.37
748.234	38546.57
748.573	38654.36
748.911	38467.7
749.25	38592.67
749.589	38288.5
749.928	38297.76
750.267	38182.74
750.605	38108.62
750.944	37886.48
751.283	37889.87
751.621	37924.21
751.96	37646.71
752.298	37579.59
752.636	37414.85
752.975	37366.04
753.313	37016.44
753.651	37359.26
753.989	36957.91
754.327	36872.49
754.666	36669.11
755.004	36781.42
755.342	36742.1
755.679	36629.33
756.017	36368.1
756.355	36427.08
756.693	36235.67
757.031	36323.58
757.368	36034.55
757.706	35980.31
758.044	35894.89
758.381	36017.82
758.719	35687.89
759.056	35697.83
759.394	35502.36
759.731	35186.43
760.068	35306.43
760.405	35051.07
760.743	35009.04
761.08	34981.02
761.417	34696.73
761.754	34670.29
762.091	34485.21
762.428	34242.28
762.765	34262.16
763.102	34306.23
763.438	34058.78
763.775	33982.62
764.112	34028.72
764.449	34029.4
764.785	33823.31
765.122	33545.12
765.458	33465.8
765.795	33281.62
766.131	33242.3
766.467	33180.38
766.804	32854.29
767.14	32879.6
767.476	32767.29
767.812	32669.89
768.148	32822.65
768.485	32480.29
768.821	32376.34
769.157	32331.37
769.492	32167.08
769.828	32174.54
770.164	31799.63
770.5	31734.09
770.836	31814.54
771.171	31506.08
771.507	31558.28
771.842	31293.88
772.178	31374.56
772.513	31278.06
772.849	31005.07
773.184	30976.37
773.519	30904.74
773.855	30825.87
774.19	30708.81
774.525	30479.66
774.86	30601.02
775.195	30595.14
775.53	30465.88
775.865	30290.97
776.2	30072.9
776.535	29881.94
776.87	29901.37
777.205	29722.17
777.539	29775.05
777.874	29645.11
778.209	29500.71
778.543	29487.6
778.878	29180.49
779.212	29213.94
779.547	28971.23
779.881	29019.59
780.215	28951.8
780.55	28979.37
780.884	28741.63
781.218	28732.37
781.552	28671.58
781.886	28507.29
782.22	28293.06
782.554	28257.35
782.888	28171.93
783.222	28101.65
783.556	27825.72
783.889	27830.47
784.223	27655.56
784.557	27593.64
784.89	27633.19
785.224	27409.69
785.557	27440.87
785.891	27396.58
786.224	27214.89
786.558	27222.35
786.891	26955.24
787.224	26773.77
787.557	26764.28
787.891	26598.41
788.224	26743.49
788.557	26684.51
788.89	26512.54
789.223	26457.17
789.556	26063.74
789.888	26218.99
790.221	26064.64
790.554	25914.36
790.887	25969.27
791.219	25839.79
791.552	25767.25
791.884	25536.07
792.217	25647.7
792.549	25505.56
792.882	25272.8
793.214	25171.78
793.546	25219.46
793.879	25133.82
794.211	25003.65
794.543	25155.74
794.875	25018.57
795.207	25074.61
795.539	24835.75
795.871	24869.42
796.203	24567.73
796.535	24473.49
796.867	24373.61
797.198	24395.3
797.53	24263.33
797.862	24250.68
798.193	24149.89
798.525	24060.4
798.856	24075.31
799.188	23789.67
799.519	23787.19
799.85	23605.5
800.182	23623.35
800.513	23616.79
800.844	23439.62
801.175	23469.23
801.506	23420.19
801.837	23243.92
802.168	23131.84
802.499	23185.17
802.83	22996.25
803.161	22936.59
803.491	22803.48
803.822	22778.17
804.153	22681.23
804.483	22540.44
804.814	22493.66
805.145	22373.44
805.475	22334.57
805.805	22287.11
806.136	22284.4
806.466	22321.01
806.796	22269.26
807.126	22075.82
807.457	21902.49
807.787	22055.25
808.117	21795.37
808.447	21875.37
808.777	21925.99
809.107	21787.69
809.436	21625.66
809.766	21689.61
810.096	21562.16
810.426	21485.78
810.755	21415.95
811.085	21334.14
811.414	21177.54
811.744	21052.34
812.073	21169.18
812.403	21062.74
812.732	20927.37
813.061	20897.32
813.39	20769.86
813.719	20639.25
814.049	20858.22
814.378	20641.28
814.707	20594.5
815.036	20510.66
815.365	20458.23
815.693	20253.27
816.022	20085.59
816.351	20153.83
816.68	19951.13
817.008	20144.8
817.337	19977.57
817.665	19915.42
817.994	19942.09
818.322	19816.44
818.651	19754.75
818.979	19661.42
819.307	19811.7
819.636	19567.18
819.964	19496.45
820.292	19565.15
820.62	19523.34
820.948	19451.71
821.276	19468.88
821.604	19408.77
821.932	19536.45
822.259	19369.67
822.587	19322.22
822.915	19294.65
823.243	19368.54
823.57	19144.82
823.898	19286.74
824.225	19198.83
824.553	19136.46
824.88	19177.59
825.207	19195.89
825.535	19170.58
825.862	19216.68
826.189	19054.65
826.516	19243.35
826.843	19237.7
827.17	19192.05
827.497	19294.42
827.824	19152.28
828.151	19162.67
828.478	19041.1
828.805	19053.52
829.131	19081.55
829.458	19048.1
829.785	18992.06
830.111	18992.28
830.438	19081.09
830.764	19090.13
831.09	19093.3
831.417	18815.34
831.743	18957.71
832.069	18950.02
832.395	18856.02
832.722	18931.95
833.048	18896.69
833.374	18890.36
833.7	18877.03
834.026	18817.6
834.351	18835
834.677	18921.32
835.003	18869.35
835.329	18802.46
835.654	18779.63
835.98	18648.56
836.306	18782.8
836.631	18665.29
836.956	18732.4
837.282	18678.39
837.607	18664.16
837.932	18656.02
838.258	18642.24
838.583	18646.98
838.908	18473.43
839.233	18576.93
839.558	18453.99
839.883	18442.24
840.208	18379.42
840.533	18456.25
840.858	18508
841.182	18388.46
841.507	18397.72
841.832	18302.13
842.156	18291.96
842.481	18295.8
842.805	18287.44
843.13	18262.13
843.454	18193.43
843.778	18224.85
844.103	18054.23
844.427	18041.8
844.751	18103.94
845.075	17960.45
845.399	17979.88
845.723	17937.85
846.047	17972.2
846.371	17801.13
846.695	17771.52
847.019	17664.86
847.343	17623.28
847.666	17559.1
847.99	17394.81
848.313	17455.15
848.637	17332.89
848.96	17336.96
849.284	17311.2
849.607	17193.23
849.931	17083.41
850.254	17048.38
850.577	16984.43
850.9	16814.04
851.223	16848.16
851.546	16711.44
851.869	16677.54
852.192	16728.61
852.515	16603.19
852.838	16551.44
853.161	16548.51
853.483	16415.4
853.806	16356.87
854.129	16236.2
854.451	16277.1
854.774	16165.69
855.096	16038.91
855.419	16123.21
855.741	16002.31
856.063	15894.06
856.385	15852.7
856.708	15851.12
857.03	15726.83
857.352	15807.96
857.674	15716.89
857.996	15709.21
858.318	15610.68
858.64	15551.47
858.961	15509.89
859.283	15549.89
859.605	15407.97
859.926	15400.97
860.248	15362.77
860.57	15360.97
860.891	15276.9
861.212	15277.58
861.534	15148.77
861.855	15158.26
862.176	15220.4
862.498	15206.85
862.819	15130.92
863.14	15049.56
863.461	15038.26
863.782	14979.51
864.103	15049.79
864.424	14899.74
864.745	14869.91
865.065	14943.12
865.386	14824.94
865.707	14850.02
866.027	14742.45
866.348	14760.76
866.668	14828.55
866.989	14710.81
867.309	14525.51
867.63	14538.16
867.95	14571.38
868.27	14539.74
868.59	14456.58
868.91	14428.11
869.23	14508.56
869.55	14367.55
869.87	14448
870.19	14408.9
870.51	14412.97
870.83	14365.51
871.15	14278.96
871.469	14241.9
871.789	14237.83
872.109	14233.99
872.428	14143.37
872.748	14280.09
873.067	14201
873.386	14204.16
873.706	14197.15
874.025	14104.73
874.344	13972.53
874.663	14000.55
874.982	13972.08
875.301	13915.13
875.62	13892.08
875.939	13914.9
876.258	13847.11
876.577	13815.92
876.896	13848.92
877.214	13785.87
877.533	13704.96
877.852	13681.91
878.17	13757.84
878.489	13735.25
878.807	13659.77
879.125	13643.05
879.444	13592.2
879.762	13573.89
880.08	13543.84
880.398	13398.08
880.716	13462.26
881.034	13478.3
881.352	13396.72
881.67	13392.88
881.988	13431.98
882.306	13272.66
882.624	13300.68
882.941	13179.78
883.259	13183.4
883.577	13143.17
883.894	13137.97
884.212	13117.86
884.529	13139.56
884.846	13058.2
885.164	13004.19
885.481	12977.53
885.798	12952.22
886.115	12861.37
886.432	12787.47
886.75	12824.76
887.067	12901.37
887.383	12721.94
887.7	12780.47
888.017	12651.21
888.334	12704.09
888.651	12664.09
888.967	12629.29
889.284	12606.69
889.6	12528.27
889.917	12409.86
890.233	12456.64
890.55	12381.61
890.866	12351.78
891.182	12366.47
891.498	12313.59
891.815	12186.81
892.131	12212.12
892.447	12132.12
892.763	12076.98
893.079	12074.5
893.395	12034.95
893.71	11981.85
894.026	11966.71
894.342	11849.87
894.657	11766.26
894.973	11796.77
895.289	11783.66
895.604	11709.08
895.92	11681.51
896.235	11707.28
896.55	11587.51
896.865	11525.13
897.181	11454.85
897.496	11481.29
897.811	11411.69
898.126	11334.41
898.441	11161.3
898.756	11213.05
899.071	11278.36
899.386	11159.04
899.7	11099.61
900.015	11047.41
900.33	10938.71
900.644	11027.97
900.959	10997.24
901.273	10889.67
901.588	10860.97
901.902	10804.48
902.216	10777.13
902.531	10746.85
902.845	10704.59
903.159	10670.24
903.473	10635.44
903.787	10636.8
904.101	10553.41
904.415	10524.26
904.729	10495.33
905.042	10387.99
905.356	10357.03
905.67	10322.45
905.984	10347.54
906.297	10279.74
906.611	10181.22
906.924	10146.41
907.237	10082.91
907.551	10063.48
907.864	10060.09
908.177	9977.6
908.491	9969.47
908.804	9912.97
909.117	9856.7
909.43	9812.64
909.743	9814.22
910.056	9750.72
910.368	9696.93
910.681	9655.13
910.994	9655.81
911.307	9618.97
911.619	9566.09
911.932	9569.25
912.244	9437.73
912.557	9560.89
912.869	9356.15
913.181	9415.13
913.494	9387.34
913.806	9299.43
914.118	9304.18
914.43	9268.47
914.742	9185.08
915.054	9129.94
915.366	9149.38
915.678	9065.54
915.99	9020.34
916.302	8971.76
916.613	8971.53
916.925	8943.96
917.236	8985.31
917.548	8906.22
917.859	8833
918.171	8740.12
918.482	8709.16
918.794	8733.34
919.105	8683.85
919.416	8613.57
919.727	8621.26
920.038	8616.06
920.349	8576.74
920.66	8490.19
920.971	8491.54
921.282	8472.79
921.593	8448.38
921.903	8440.92
922.214	8372.22
922.525	8322.06
922.835	8346.46
923.146	8267.14
923.456	8239.57
923.767	8231.89
924.077	8252.23
924.387	8177.43
924.697	8130.87
925.008	8191.89
925.318	8095.85
925.628	8120.48
925.938	8022.4
926.248	7932.46
926.558	8005.91
926.867	7899.24
927.177	7915.74
927.487	7936.75
927.796	7819.47
928.106	7839.58
928.416	7795.52
928.725	7779.02
929.034	7765.69
929.344	7714.61
929.653	7716.2
929.962	7668.97
930.271	7612.47
930.581	7615.18
930.89	7579.25
931.199	7527.5
931.508	7482.76
931.817	7510.78
932.125	7507.61
932.434	7488.4
932.743	7402.98
933.051	7379.26
933.36	7343.55
933.669	7353.95
933.977	7273.27
934.286	7300.84
934.594	7273.5
934.902	7193.05
935.21	7157.34
935.519	7164.12
935.827	7105.36
936.135	7084.8
936.443	7036.89
936.751	6985.82
937.059	6993.5
937.367	6959.83
937.674	6929.1
937.982	6963.22
938.29	6893.62
938.597	6880.29
938.905	6841.19
939.213	6736.56
939.52	6737.46
939.827	6763.45
940.135	6729.78
940.442	6724.36
940.749	6649.33
941.056	6652.49
941.363	6617.02
941.67	6579.73
941.977	6543.12
942.284	6477.36
942.591	6449.79
942.898	6478.49
943.205	6485.27
943.511	6431.94
943.818	6363.01
944.125	6307.64
944.431	6282.33
944.738	6293.86
945.044	6253.86
945.35	6189.91
945.657	6171.38
945.963	6134.09
946.269	6112.17
946.575	6110.36
946.881	6040.31
947.187	6092.74
947.493	6046.86
947.799	6018.61
948.105	5979.97
948.41	5911.95
948.716	5887.99
949.022	5920.54
949.327	5828.56
949.633	5798.05
949.938	5827.66
950.244	5815.91
950.549	5743.59
950.854	5722.58
951.16	5690.49
951.465	5639.41
951.77	5608.68
952.075	5603.48
952.38	5584.27
952.685	5576.59
952.99	5539.53
953.294	5474.45
953.599	5435.8
953.904	5438.74
954.209	5416.37
954.513	5381.34
954.818	5390.15
955.122	5308.8
955.426	5277.39
955.731	5268.12
956.035	5241.01
956.339	5208.69
956.643	5196.71
956.948	5155.81
957.252	5132.08
957.556	5151.97
957.86	5117.62
958.163	5075.13
958.467	5035.59
958.771	5044.4
959.075	5008.92
959.378	4954.23
959.682	4903.84
959.985	4924.86
960.289	4878.53
960.592	4866.55
960.896	4790.85
961.199	4804.86
961.502	4809.83
961.805	4736.39
962.108	4700.68
962.411	4695.26
962.714	4664.98
963.017	4678.99
963.32	4618.42
963.623	4603.73
963.926	4576.62
964.228	4537.07
964.531	4570.74
964.833	4523.96
965.136	4497.07
965.438	4483.74
965.741	4443.74
966.043	4399.22
966.345	4366.23
966.648	4381.14
966.95	4357.41
967.252	4350.18
967.554	4354.25
967.856	4284.87
968.158	4237.64
968.46	4246.68
968.761	4236.74
969.063	4281.03
969.365	4191.77
969.666	4189.06
969.968	4135.72
970.269	4148.61
970.571	4129.62
970.872	4093.69
971.174	4051.21
971.475	4046.01
971.776	4036.07
972.077	4015.28
972.378	4014.82
972.679	3995.84
972.98	3986.58
973.281	3907.26
973.582	3965.56
973.883	3926.24
974.183	3902.28
974.484	3873.81
974.785	3842.4
975.085	3824.32
975.386	3805.11
975.686	3784.1
975.986	3774.38
976.287	3754.04
976.587	3728.28
976.887	3724.21
977.187	3713.81
977.487	3688.73
977.787	3691.22
978.087	3693.25
978.387	3660.03
978.687	3618.45
978.987	3581.16
979.286	3561.73
979.586	3599.02
979.885	3547.72
980.185	3545.46
980.484	3486.02
980.784	3513.37
981.083	3418.46
981.382	3434.95
981.682	3439.02
981.981	3442.41
982.28	3420.26
982.579	3355.41
982.878	3357.44
983.177	3348.63
983.475	3312.7
983.774	3295.97
984.073	3345.01
984.372	3252.58
984.67	3306.59
984.969	3242.87
985.267	3315.41
985.566	3205.58
985.864	3222.53
986.162	3186.15
986.461	3208.74
986.759	3149.54
987.057	3139.59
987.355	3151.8
987.653	3120.16
987.951	3145.02
988.249	3129.42
988.547	3114.28
988.844	3091.01
989.142	3084.9
989.44	3046.94
989.737	3008.3
990.035	3021.86
990.332	2999.03
990.63	2989.99
990.927	2948.86
991.224	2970.33
991.521	2926.26
991.819	2933.04
992.116	2925.13
992.413	2891.46
992.71	2925.36
993.006	2927.62
993.303	2873.16
993.6	2861.18
993.897	2853.95
994.193	2840.84
994.49	2825.93
994.787	2836.1
995.083	2825.93
995.379	2785.03
995.676	2748.42
995.972	2759.49
996.268	2717.46
996.565	2727.63
996.861	2751.35
997.157	2711.36
997.453	2703.22
997.749	2684.69
998.044	2711.58
998.34	2655.09
998.636	2613.05
998.932	2637.46
999.227	2617.57
999.523	2611.47
999.818	2597.01
1000.114	2543
1000.409	2566.05
1000.704	2535.99
1001	2546.16
1001.295	2494.86
1001.59	2489.67
1001.885	2487.18
1002.18	2480.63
1002.475	2437.69
1002.77	2432.94
1003.065	2450.8
1003.359	2392.95
1003.654	2400.85
1003.949	2392.95
1004.243	2380.06
1004.538	2381.42
1004.832	2353.85
1005.127	2343.91
1005.421	2356.79
1005.715	2311.14
1006.009	2293.74
1006.304	2317.69
1006.598	2306.62
1006.892	2254.42
1007.186	2236.57
1007.48	2248.77
1007.773	2220.07
1008.067	2204.7
1008.361	2191.59
1008.655	2179.39
1008.948	2186.4
1009.242	2193.63
1009.535	2182.78
1009.829	2160.64
1010.122	2144.82
1010.415	2114.99
1010.708	2113.86
1011.001	2081.09
1011.295	2074.54
1011.588	2075.21
1011.881	2076.8
1012.173	2048.77
1012.466	2028.21
1012.759	2029.79
1013.052	2049
1013.344	2044.03
1013.637	2031.15
1013.93	1984.37
1014.222	1997.93
1014.514	1971.04
1014.807	1947.53
1015.099	1951.83
1015.391	1945.27
1015.683	1914.54
1015.976	1904.6
1016.268	1861.89
1016.56	1860.08
1016.851	1845.62
1017.143	1834.54
1017.435	1850.13
1017.727	1821.44
1018.018	1838.61
1018.31	1808.33
1018.602	1800.42
1018.893	1764.71
1019.185	1792.28
1019.476	1754.54
1019.767	1748.89
1020.058	1763.36
1020.35	1727.65
1020.641	1717.71
1020.932	1693.75
1021.223	1708.44
1021.514	1681.55
1021.804	1674.32
1022.095	1673.87
1022.386	1649.24
1022.677	1639.29
1022.967	1646.07
1023.258	1632.51
1023.548	1623.47
1023.839	1608.79
1024.129	1584.15
1024.419	1612.4
1024.709	1573.76
1025	1578.73
1025.29	1582.35
1025.58	1526.3
1025.87	1537.6
1026.16	1528.34
1026.449	1536.02
1026.739	1507.77
1027.029	1499.86
1027.319	1515.23
1027.608	1453.99
1027.898	1489.47
1028.187	1478.17
1028.477	1459.86
1028.766	1437.72
1029.055	1424.61
1029.344	1440.43
1029.634	1421.22
1029.923	1411.73
1030.212	1434.55
1030.501	1380.54
1030.79	1388.9
1031.078	1332.86
1031.367	1370.6
1031.656	1345.52
1031.945	1325.4
1032.233	1333.54
1032.522	1376.7
1032.81	1315.69
1033.099	1311.84
1033.387	1270.72
1033.675	1286.08
1033.963	1303.26
1034.251	1285.18
1034.54	1282.47
1034.828	1246.76
1035.116	1248.34
1035.403	1235.69
1035.691	1219.19
1035.979	1226.65
1036.267	1223.94
1036.554	1189.81
1036.842	1181.23
1037.129	1182.36
1037.417	1169.47
1037.704	1179.42
1037.992	1167.22
1038.279	1164.28
1038.566	1134.22
1038.853	1134.22
1039.14	1134.22
