Data from white_steel_sheet_FLMS001491_008.txt Node
Date: Tue Feb 07 10:57:19 GMT 2017
User: dcchb
Spectrometer: FLMS00149
Trigger mode: 0
Integration Time (sec): 2.000000E-2
Scans to average: 10
Electric dark correction enabled: true
Nonlinearity correction enabled: false
Boxcar width: 0
XAxis mode: Wavelengths
Number of Pixels in Spectrum: 2048
>>>>>Begin Spectral Data<<<<<
341.393	9.22
341.776	9.22
342.16	9.22
342.543	-45.01
342.927	-63.09
343.31	-55.41
343.693	-70.55
344.077	-56.54
344.46	-55.86
344.843	-30.78
345.226	-46.37
345.61	-38.46
345.993	-20.38
346.376	-30.1
346.759	26.4
347.142	31.6
347.525	34.76
347.908	35.66
348.291	84.25
348.674	84.48
349.057	107.3
349.44	135.32
349.823	136.45
350.206	179.39
350.588	204.02
350.971	219.61
351.354	220.29
351.737	248.54
352.119	272.72
352.502	251.48
352.884	288.76
353.267	294.19
353.65	284.92
354.032	304.81
354.414	316.79
354.797	308.2
355.179	317.01
355.562	343.45
355.944	336.45
356.326	326.95
356.709	328.31
357.091	333.96
357.473	334.64
357.855	342.1
358.238	333.96
358.62	350.91
359.002	343.9
359.384	350.68
359.766	339.16
360.148	341.87
360.53	338.25
360.912	352.04
361.294	341.64
361.676	354.52
362.057	343.45
362.439	337.8
362.821	342.55
363.203	309.78
363.584	307.29
363.966	337.12
364.348	335.09
364.729	323.11
365.111	322.89
365.493	331.93
365.874	333.51
366.256	328.31
366.637	364.69
367.019	319.05
367.4	354.3
367.781	343.45
368.163	323.11
368.544	336.9
368.925	345.49
369.306	349.1
369.688	319.72
370.069	329.44
370.45	320.85
370.831	307.97
371.212	321.98
371.593	333.28
371.974	323.34
372.355	327.18
372.736	317.69
373.117	317.69
373.498	335.54
373.879	332.6
374.26	322.66
374.641	310.01
375.021	320.63
375.402	361.08
375.783	350.46
376.163	328.08
376.544	336.22
376.925	341.87
377.305	351.81
377.686	332.83
378.066	354.3
378.447	357.69
378.827	367.63
379.208	368.76
379.588	354.52
379.968	370.8
380.349	359.27
380.729	358.14
381.109	331.93
381.489	358.14
381.87	352.26
382.25	361.98
382.63	373.28
383.01	379.83
383.39	360.4
383.77	376.9
384.15	352.72
384.53	390.68
384.91	365.6
385.29	384.13
385.67	359.04
386.049	394.3
386.429	390.23
386.809	389.1
387.189	387.29
387.568	391.36
387.948	411.7
388.328	408.99
388.707	406.73
389.087	403.56
389.466	407.63
389.846	424.58
390.225	431.58
390.605	415.54
390.984	428.65
391.363	436.56
391.743	432.71
392.122	428.42
392.501	433.84
392.881	446.95
393.26	463.67
393.639	451.7
394.018	465.03
394.397	485.14
394.776	489.21
395.155	472.49
395.534	451.25
395.913	481.07
396.292	484.46
396.671	499.83
397.05	499.83
397.429	514.75
397.808	518.81
398.186	507.74
398.565	517.01
398.944	529.44
399.323	494.86
399.701	531.47
400.08	557.23
400.458	554.29
400.837	554.97
401.215	566.5
401.594	583.9
401.972	581.86
402.351	590.22
402.729	602.2
403.107	596.55
403.486	626.61
403.864	617.79
404.242	623.67
404.62	631.58
404.999	619.38
405.377	660.51
405.755	657.12
406.133	686.49
406.511	685.36
406.889	709.54
407.267	715.65
407.645	728.75
408.023	736.21
408.401	759.49
408.779	731.01
409.156	764.68
409.534	763.1
409.912	797.45
410.29	767.62
410.667	811.91
411.045	827.73
411.422	843.55
411.8	831.8
412.178	868.41
412.555	884
412.933	921.97
413.31	878.8
413.687	901.4
414.065	944.79
414.442	940.72
414.819	924.68
415.197	916.54
415.574	952.02
415.951	983.89
416.328	984.34
416.705	976.66
417.082	1007.39
417.46	1036.77
417.837	1000.16
418.214	1029.99
418.591	1022.98
418.967	1079.7
419.344	1071.12
419.721	1081.06
420.098	1064.34
420.475	1071.57
420.852	1116.54
421.228	1131.91
421.605	1129.42
421.982	1158.12
422.358	1164.9
422.735	1175.52
423.111	1164.45
423.488	1202.86
423.864	1179.14
424.241	1227.04
424.617	1244.22
424.994	1234.95
425.37	1272.69
425.746	1253.26
426.123	1285.35
426.499	1305.69
426.875	1321.73
427.251	1330.09
427.627	1361.28
428.003	1376.42
428.379	1394.27
428.756	1382.52
429.132	1406.7
429.507	1422.07
429.883	1439.92
430.259	1462.97
430.635	1483.31
431.011	1505
431.387	1539.8
431.763	1542.06
432.138	1571.44
432.514	1610.54
432.89	1594.27
433.265	1636.75
433.641	1653.7
434.016	1651.89
434.392	1689.63
434.767	1733.7
435.143	1719.01
435.518	1730.53
435.894	1777.09
436.269	1788.39
436.644	1812.79
437.02	1845.33
437.395	1838.55
437.77	1864.09
438.145	1916.74
438.52	1916.07
438.895	1930.08
439.271	1931.66
439.646	2023.86
440.021	1995.39
440.395	1988.61
440.77	2024.99
441.145	2024.99
441.52	2069.28
441.895	2053.46
442.27	2084.2
442.645	2070.86
443.019	2111.09
443.394	2154.7
443.769	2135.72
444.143	2148.6
444.518	2184.98
444.892	2153.57
445.267	2220.01
445.641	2221.82
446.016	2240.12
446.39	2271.54
446.764	2257.75
447.139	2301.82
447.513	2299.11
447.887	2307.02
448.262	2337.75
448.636	2362.38
449.01	2430.85
449.384	2418.2
449.758	2460.23
450.132	2497.07
450.506	2473.56
450.88	2517.18
451.254	2477.86
451.628	2560.34
452.002	2558.31
452.376	2598.31
452.75	2596.05
453.123	2590.85
453.497	2688.7
453.871	2672.2
454.244	2763.05
454.618	2773.22
454.992	2821.8
455.365	2836.72
455.739	2877.17
456.112	2871.75
456.486	2920.78
456.859	2987.9
457.232	3031.74
457.606	2989.71
457.979	3092.08
458.352	3093.44
458.725	3163.04
459.099	3167.33
459.472	3203.26
459.845	3272.19
460.218	3283.94
460.591	3295.46
460.964	3325.52
461.337	3412.75
461.71	3451.62
462.083	3499.75
462.456	3539.75
462.829	3536.14
463.201	3611.61
463.574	3617.04
463.947	3655
464.32	3738.84
464.692	3783.81
465.065	3814.55
465.438	3857.48
465.81	3930.93
466.183	4014.09
466.555	4055.22
466.928	4048.44
467.3	4023.13
467.672	4166.18
468.045	4222.9
468.417	4264.7
468.789	4279.62
469.161	4343.8
469.534	4362.33
469.906	4527.52
470.278	4476
470.65	4571.59
471.022	4675.54
471.394	4736.33
471.766	4831.47
472.138	4812.94
472.51	4937.45
472.882	5024.46
473.253	5057.9
473.625	5110.11
473.997	5266.49
474.369	5265.58
474.74	5291.8
475.112	5437.55
475.484	5514.84
475.855	5594.61
476.227	5675.29
476.598	5787.15
476.97	5843.87
477.341	6024.88
477.713	6083.87
478.084	6124.77
478.455	6272.11
478.827	6351.43
479.198	6513.01
479.569	6498.32
479.94	6697.18
480.311	6769.95
480.682	6913.67
481.053	7086.78
481.424	7181.69
481.795	7245.42
482.166	7335.58
482.537	7531.74
482.908	7605.18
483.279	7686.31
483.65	7921.33
484.021	8013.31
484.391	8128.56
484.762	8194.77
485.133	8249.01
485.503	8406.29
485.874	8573.97
486.244	8651.26
486.615	8858.93
486.985	8896.45
487.356	9060.51
487.726	9145.71
488.097	9385.47
488.467	9361.75
488.837	9586.15
489.207	9782.75
489.578	9805.8
489.948	9987.04
490.318	10058.68
490.688	10135.51
491.058	10253.7
491.428	10415.5
491.798	10541.6
492.168	10759.9
492.538	10822.95
492.908	10865.66
493.278	11076.95
493.648	11049.38
494.017	11212.77
494.387	11356.95
494.757	11421.8
495.126	11586.77
495.496	11609.82
495.866	11755.35
496.235	11876.26
496.605	11962.35
496.974	12046.87
497.344	12141.11
497.713	12333.42
498.082	12361.21
498.452	12392.63
498.821	12448.67
499.19	12615.67
499.559	12772.28
499.928	12765.95
500.298	12868.77
500.667	13035.77
501.036	13001.65
501.405	13156.9
501.774	13169.33
502.143	13275.09
502.512	13354.41
502.88	13460.85
503.249	13542.43
503.618	13706.04
503.987	13767.73
504.356	13874.17
504.724	13937.22
505.093	14001.4
505.462	14057.89
505.83	14159.59
506.199	14366.81
506.567	14566.13
506.936	14604.32
507.304	14754.37
507.672	14756.63
508.041	14790.53
508.409	14971.32
508.777	15123.63
509.145	15299.67
509.514	15246.79
509.882	15355.71
510.25	15469.38
510.618	15661.01
510.986	15659.21
511.354	15798.64
511.722	16022.14
512.09	16127.9
512.458	16030.27
512.826	16237.5
513.193	16465.06
513.561	16468.45
513.929	16630.93
514.297	16787.54
514.664	16876.58
515.032	17050.36
515.4	17099.4
515.767	17217.36
516.135	17369.44
516.502	17257.81
516.869	17660.06
517.237	17692.83
517.604	17733.5
517.972	17876.78
518.339	18105.47
518.706	18105.92
519.073	18189.54
519.44	18380.72
519.808	18649.41
520.175	18660.26
520.542	18795.62
520.909	19005.33
521.276	19026.35
521.643	19261.15
522.009	19357.41
522.376	19519.22
522.743	19684.86
523.11	19829.49
523.477	20033.78
523.843	20120.11
524.21	20354.68
524.577	20406.43
524.943	20659.53
525.31	20816.36
525.676	20984.04
526.043	21049.12
526.409	21131.61
526.776	21427.19
527.142	21540.63
527.508	21672.61
527.874	21862.66
528.241	21944.47
528.607	21974.52
528.973	22231.01
529.339	22328.86
529.705	22523.21
530.071	22750.09
530.437	22902.63
530.803	22928.85
531.169	23120.03
531.535	23120.48
531.901	23249.52
532.267	23389.17
532.632	23463.52
532.998	23664.65
533.364	23684.08
533.73	23819.9
534.095	24051.75
534.461	24129.27
534.826	24285.65
535.192	24319.09
535.557	24500.1
535.923	24524.74
536.288	24625.98
536.653	24799.76
537.019	24743.26
537.384	24821.23
537.749	24952.07
538.114	25125.85
538.479	25232.97
538.845	25305.73
539.21	25397.93
539.575	25494.43
539.94	25482
540.305	25660.98
540.67	25611.94
541.034	25719.73
541.399	25907.75
541.764	26093.51
542.129	26088.09
542.494	26208.53
542.858	26338.02
543.223	26246.27
543.587	26513.38
543.952	26628.86
544.316	26576.89
544.681	26631.57
545.045	26848.74
545.41	26940.72
545.774	27051.9
546.138	26974.84
546.503	27068.17
546.867	27259.13
547.231	27413.93
547.595	27495.05
547.959	27613.69
548.324	27639.91
548.688	27677.42
549.052	27787.7
549.416	27878.55
549.779	27844.88
550.143	27930.97
550.507	28149.95
550.871	28335.94
551.235	28319.66
551.599	28623.61
551.962	28566.21
552.326	28639.88
552.689	28840.56
553.053	28681.92
553.417	28824.51
553.78	29276.48
554.143	29163.03
554.507	29281
554.87	29398.28
555.234	29645.96
555.597	29592.63
555.96	29605.28
556.323	29803.92
556.686	29872.84
557.05	30072.84
557.413	30208.88
557.776	30183.34
558.139	30492.26
558.502	30600.96
558.865	30665.59
559.228	30888.64
559.59	30909.43
559.953	31009.09
560.316	31352.58
560.679	31355.52
561.041	31369.53
561.404	31675.28
561.767	31772
562.129	31714.6
562.492	32089.51
562.854	32109.17
563.217	32133.58
563.579	32228.94
563.941	32427.58
564.304	32596.39
564.666	32854.24
565.028	32891.97
565.39	32981.69
565.753	33066.66
566.115	33162.48
566.477	33513.43
566.839	33492.41
567.201	33616.7
567.563	33608.79
567.925	33904.6
568.287	33955.45
568.648	33920.42
569.01	34261.88
569.372	34352.5
569.734	34321.09
570.095	34518.6
570.457	34785.26
570.819	34816.22
571.18	34858.25
571.542	35055.08
571.903	35035.65
572.265	35119.03
572.626	35273.38
572.987	35365.58
573.349	35447.39
573.71	35636.99
574.071	35639.47
574.432	35745.23
574.794	35980.93
575.155	35899.13
575.516	35911.33
575.877	36003.98
576.238	36110.87
576.599	36284.43
576.96	36104.09
577.32	36296.63
577.681	36412.79
578.042	36367.36
578.403	36392.45
578.763	36517.19
579.124	36595.83
579.485	36709.5
579.845	36688.03
580.206	36682.83
580.566	36570.3
580.927	36653.46
581.287	36947.91
581.648	36880.57
582.008	36929.16
582.368	36787.69
582.728	37015.48
583.089	36916.28
583.449	36979.55
583.809	37022.71
584.169	36957.4
584.529	36940.23
584.889	37141.35
585.249	36909.72
585.609	36908.37
585.969	37078.08
586.329	36935.48
586.688	37014.58
587.048	36981.81
587.408	36892.77
587.768	36982.04
588.127	36965.54
588.487	36788.14
588.846	37126.44
589.206	36899.55
589.565	36873.79
589.925	37144.74
590.284	37021.58
590.643	37078.08
591.003	37191.52
591.362	37241.24
591.721	37116.27
592.08	37090.96
592.44	37196.27
592.799	37207.34
593.158	36950.17
593.517	37070.85
593.876	37141.13
594.235	37040.79
594.593	36962.15
594.952	37132.09
595.311	36981.36
595.67	37155.59
596.029	37248.7
596.387	37360.56
596.746	37368.69
597.104	37292.54
597.463	37237.17
597.822	37372.31
598.18	37259.99
598.538	37240.11
598.897	37398.97
599.255	37100
599.613	37557.61
599.972	37474.9
600.33	37475.36
600.688	37266.1
601.046	37480.33
601.404	37492.53
601.762	37330.73
602.12	37633.09
602.478	37603.71
602.836	37542.02
603.194	37508.8
603.552	37587.67
603.91	37324.17
604.268	37545.64
604.625	37379.54
604.983	37598.52
605.341	37355.36
605.698	37667.67
606.056	37628.35
606.413	37655.24
606.771	37802.35
607.128	37739.98
607.485	37654.79
607.843	37760.77
608.2	37784.05
608.557	37993.53
608.914	37963.25
609.272	38008.45
609.629	38045.96
609.986	38163.93
610.343	37949.24
610.7	38371.6
611.057	38229.46
611.414	38193.53
611.771	38342.45
612.127	38433.07
612.484	38396.46
612.841	38490.7
613.198	38334.32
613.554	38319.63
613.911	38656.57
614.267	38512.17
614.624	38536.8
614.98	38622.67
615.337	38730.24
615.693	38566.63
616.05	38535.67
616.406	38867.86
616.762	38725.72
617.118	38778.37
617.475	38854.08
617.831	38838.71
618.187	38800.29
618.543	38951.02
618.899	39052.94
619.255	38928.88
619.611	38968.65
619.967	39038.71
620.323	39268.53
620.678	39046.61
621.034	38934.75
621.39	38959.84
621.746	39083.22
622.101	39368.64
622.457	39293.61
622.812	39202.99
623.168	39369.54
623.523	39245.48
623.879	39442.76
624.234	39014.75
624.589	39160.06
624.945	39292.03
625.3	39310.34
625.655	39255.87
626.01	39202.77
626.365	39247.97
626.72	39223.79
627.075	39122.77
627.43	39063.34
627.785	39008.88
628.14	39179.27
628.495	39127.74
628.85	39043.9
629.205	39001.87
629.559	39318.7
629.914	38932.72
630.269	39087.52
630.623	38950.35
630.978	39008.2
631.332	39138.59
631.687	39197.35
632.041	38876.68
632.396	39018.59
632.75	38743.57
633.104	38976.11
633.459	38748.77
633.813	38575.44
634.167	38736.11
634.521	38694.99
634.875	38751.93
635.229	38643.24
635.583	38482.79
635.937	38409.8
636.291	38404.6
636.645	38340.87
636.999	38305.17
637.352	38452.05
637.706	38148.56
638.06	38288.44
638.413	38222.23
638.767	38114.66
639.121	38111.95
639.474	37774.11
639.828	37932.52
640.181	37988.79
640.534	37915.34
640.888	37764.84
641.241	37675.8
641.594	37722.36
641.947	37656.37
642.301	37655.46
642.654	37680.1
643.007	37604.17
643.36	37605.07
643.713	37514.45
644.066	37610.27
644.419	37414.12
644.771	37105.65
645.124	36891.64
645.477	36626.11
645.83	36500.24
646.182	36370.75
646.535	36173.92
646.888	36367.59
647.24	36095.51
647.593	36392.22
647.945	36337.31
648.298	36107.26
648.65	36036.07
649.002	36142.51
649.355	36097.99
649.707	35856.64
650.059	36025.23
650.411	36475.61
650.763	36465.21
651.115	36876.5
651.467	36758.99
651.819	36797.86
652.171	36683.96
652.523	36640.12
652.875	36581.14
653.227	36455.27
653.578	36767.58
653.93	36546.12
654.282	36434.48
654.633	36289.85
654.985	36344.76
655.337	36289.17
655.688	36284.2
656.039	36402.62
656.391	36014.38
656.742	36095.73
657.094	36171.89
657.445	36320.81
657.796	36073.36
658.147	36222.06
658.498	36091.89
658.849	36278.1
659.2	36086.24
659.551	35827.72
659.902	36110.65
660.253	35846.7
660.604	35921.5
660.955	35581.39
661.306	35858.45
661.656	35756.53
662.007	35708.4
662.358	35650.55
662.708	35657.55
663.059	35703.65
663.409	35422.98
663.76	35586.37
664.11	35528.51
664.461	35407.39
664.811	35405.81
665.161	35382.53
665.511	35181.63
665.862	35247.84
666.212	35220.95
666.562	35149.77
666.912	35087.17
667.262	34955.65
667.612	34972.37
667.962	34851.47
668.312	34724.24
668.662	34775.99
669.011	34740.29
669.361	34677.46
669.711	34653.96
670.06	34576.22
670.41	34281.99
670.76	34254.65
671.109	34273.18
671.459	34256.46
671.808	34020.98
672.157	34188.21
672.507	33865.96
672.856	33900.54
673.205	33816.24
673.554	33865.06
673.904	33767.88
674.253	33827.99
674.602	33560.88
674.951	33162.02
675.3	33014.46
675.649	33472.75
675.998	33476.14
676.346	33478.63
676.695	33473.88
677.044	33281.12
677.393	33358.63
677.741	33324.28
678.09	33297.61
678.438	33159.09
678.787	33235.02
679.135	33290.16
679.484	33133.1
679.832	33175.13
680.181	33061.24
680.529	33186.2
680.877	33014.68
681.225	33015.59
681.573	33169.03
681.922	33028.24
682.27	33022.37
682.618	33046.09
682.966	32957.28
683.314	33014.23
683.661	33008.36
684.009	32875.93
684.357	32892.43
684.705	32911.86
685.053	32959.77
685.4	32970.84
685.748	32816.95
686.095	32819.66
686.443	32710.28
686.79	32789.83
687.138	32854.01
687.485	32913.22
687.832	32880.22
688.18	32932.65
688.527	32721.36
688.874	32755.71
689.221	32823.05
689.568	32734.46
689.915	32646.78
690.262	32726.78
690.609	32681.13
690.956	32497.63
691.303	32581.02
691.65	32343.51
691.997	32552.55
692.344	32325.66
692.69	32359.11
693.037	32353.68
693.383	32202.95
693.73	32309.62
694.077	32064.88
694.423	32073.69
694.769	32096.74
695.116	32124.76
695.462	31995.5
695.808	31928.16
696.155	31949.17
696.501	31795.51
696.847	31808.16
697.193	31619.92
697.539	31836.86
697.885	31513.25
698.231	31407.95
698.577	31399.36
698.923	31298.34
699.269	31258.34
699.614	31086.37
699.96	31162.98
700.306	31180.83
700.651	30958.24
700.997	30884.8
701.342	30865.81
701.688	30912.14
702.033	30686.61
702.379	30687.51
702.724	30592.37
703.069	30692.48
703.415	30259.5
703.76	30358.26
704.105	30247.07
704.45	30208.65
704.795	30022.9
705.14	30021.54
705.485	30006.63
705.83	29824.26
706.175	29925.5
706.52	29782
706.865	29736.12
707.209	29672.62
707.554	29560.54
707.899	29711.49
708.243	29407.77
708.588	29450.71
708.932	29215.91
709.277	29195.57
709.621	29221.11
709.966	29158.74
710.31	29029.02
710.654	28993.55
710.998	29038.29
711.342	28960.55
711.687	28792.19
712.031	28700.45
712.375	28650.05
712.719	28621.13
713.063	28551.07
713.407	28580.22
713.75	28471.75
714.094	28447.12
714.438	28438.98
714.782	28403.96
715.125	28178.2
715.469	28301.36
715.812	28034.02
716.156	28018.2
716.499	28075.38
716.843	28075.38
717.186	27893.46
717.53	27940.24
717.873	27906.79
718.216	27856.17
718.559	27735.95
718.902	27555.62
719.246	27696.18
719.589	27674.03
719.932	27464.55
720.275	27501.83
720.617	27467.03
720.96	27363.98
721.303	27444.89
721.646	27401.72
721.989	27216.64
722.331	27283.31
722.674	27158.11
723.016	27163.31
723.359	27162.86
723.701	27002.19
724.044	26839.93
724.386	26768.29
724.729	26928.97
725.071	26742.31
725.413	26914.05
725.755	26808.97
726.097	26702.98
726.439	26508.64
726.782	26523.55
727.124	26751.34
727.465	26445.14
727.807	26475.19
728.149	26423.67
728.491	26381.86
728.833	26474.74
729.175	26398.59
729.516	26323.79
729.858	26305.48
730.199	26168.31
730.541	26167.41
730.882	26144.13
731.224	26080.63
731.565	26028.43
731.906	26022.78
732.248	26112.72
732.589	25932.84
732.93	25704.37
733.271	25886.06
733.612	25735.33
733.953	25788.21
734.294	25625.27
734.635	25624.14
734.976	25621.2
735.317	25540.08
735.658	25512.96
735.999	25653.97
736.339	25384.15
736.68	25554.31
737.021	25428.22
737.361	25347.77
737.702	25425.05
738.042	25323.13
738.383	25169.47
738.723	25321.78
739.063	25252.85
739.404	25327.88
739.744	25188.45
740.084	25053.99
740.424	25177.83
740.764	25058.96
741.104	25053.31
741.444	24986.65
741.784	24814.67
742.124	24884.28
742.464	24880.89
742.804	24706.43
743.143	24730.15
743.483	24710.04
743.823	24565.19
744.162	24753.43
744.502	24669.37
744.841	24402.25
745.181	24643.83
745.52	24475.02
745.86	24472.31
746.199	24414.91
746.538	24421.69
746.877	24367.45
747.216	24382.14
747.556	24312.54
747.895	24200.45
748.234	24112.09
748.573	24065.09
748.911	24058.08
749.25	24024.86
749.589	23924.3
749.928	23941.93
750.267	23968.82
750.605	23936.05
750.944	23836.17
751.283	23739.67
751.621	23812.89
751.96	23596.63
752.298	23605.44
752.636	23680.01
752.975	23411.32
753.313	23428.49
753.651	23568.83
753.989	23357.99
754.327	23372.45
754.666	23277.76
755.004	23210.87
755.342	23177.88
755.679	23210.87
756.017	23036.87
756.355	23077.32
756.693	22947.15
757.031	22909.41
757.368	22810.21
757.706	22820.15
758.044	22744.22
758.381	22760.49
758.719	22538.57
759.056	22586.26
759.394	22597.78
759.731	22360.05
760.068	22356.88
760.405	22261.97
760.743	22147.85
761.08	22247.51
761.417	22095.2
761.754	22051.36
762.091	22080.28
762.428	21994.18
762.765	21769.1
763.102	21879.16
763.438	21608.88
763.775	21645.72
764.112	21629.45
764.449	21590.35
764.785	21405.04
765.122	21340.41
765.458	21210.93
765.795	21223.35
766.131	21080.53
766.467	21071.72
766.804	21053.42
767.14	21021.33
767.476	20924.38
767.812	20929.58
768.148	20910.37
768.485	20647.1
768.821	20592.86
769.157	20520.32
769.492	20519.19
769.828	20606.2
770.164	20333.66
770.5	20275.58
770.836	20205.3
771.171	20181.57
771.507	20048.47
771.842	20012.99
772.178	19956.72
772.513	19881.24
772.849	19799.89
773.184	19795.6
773.519	19675.37
773.855	19723.73
774.19	19536.17
774.525	19481.93
774.86	19449.84
775.195	19445.77
775.53	19300.47
775.865	19140.02
776.2	19076.97
776.535	18910.19
776.87	18930.99
777.205	18846.24
777.539	18832.91
777.874	18833.81
778.209	18610.99
778.543	18636.08
778.878	18461.62
779.212	18465.69
779.547	18418.23
779.881	18469.98
780.215	18274.96
780.55	18241.51
780.884	18115.41
781.218	18085.13
781.552	18112.48
781.886	17959.71
782.22	17900.96
782.554	17809.66
782.888	17640.85
783.222	17566.73
783.556	17536.67
783.889	17519.27
784.223	17479.5
784.557	17390.91
784.89	17414.64
785.224	17445.83
785.557	17159.96
785.891	17149.11
786.224	17161.77
786.558	17136.46
786.891	16987.53
787.224	16929.91
787.557	16896.69
787.891	16814.43
788.224	16649.24
788.557	16807.65
788.89	16711.16
789.223	16652.85
789.556	16634.32
789.888	16471.84
790.221	16409.7
790.554	16237.5
790.887	16344.84
791.219	16235.01
791.552	16186.65
791.884	16098.29
792.217	16086.99
792.549	15961.8
792.882	15898.3
793.214	15866.89
793.546	15821.24
793.879	15745.08
794.211	15615.59
794.543	15647
794.875	15545.09
795.207	15650.62
795.539	15644.74
795.871	15558.42
796.203	15405.43
796.535	15328.37
796.867	15322.27
797.198	15228.71
797.53	15206.79
797.862	15109.62
798.193	15185.55
798.525	15044.31
798.856	15001.82
799.188	14888.83
799.519	14854.03
799.85	14782.62
800.182	14814.26
800.513	14769.29
800.844	14665.33
801.175	14746.24
801.506	14692.45
801.837	14567.03
802.168	14624.43
802.499	14548.05
802.83	14553.25
803.161	14327.49
803.491	14357.77
803.822	14403.65
804.153	14175.18
804.483	14220.15
804.814	14085.01
805.145	14084.33
805.475	14156.65
805.805	14032.36
806.136	14055.86
806.466	14012.02
806.796	14029.87
807.126	13892.47
807.457	13862.64
807.787	13802.76
808.117	13714.63
808.447	13743.1
808.777	13810.22
809.107	13672.14
809.436	13645.47
809.766	13615.64
810.096	13592.14
810.426	13471.24
810.755	13427.4
811.085	13454.07
811.414	13428.76
811.744	13344.47
812.073	13264.69
812.403	13328.42
812.732	13221.53
813.061	13304.69
813.39	13146.73
813.719	13117.8
814.049	13186.73
814.378	13100.4
814.707	13019.95
815.036	13047.98
815.365	12969.33
815.693	12866.74
816.022	12807.08
816.351	12856.12
816.68	12753.97
817.008	12837.81
817.337	12672.62
817.665	12607.76
817.994	12620.42
818.322	12700.41
818.651	12565.05
818.979	12587.88
819.307	12642.34
819.636	12568.67
819.964	12403.25
820.292	12520.98
820.62	12488.22
820.948	12483.92
821.276	12479.18
821.604	12498.84
821.932	12487.54
822.259	12442.57
822.587	12445.28
822.915	12373.42
823.243	12386.07
823.57	12405.28
823.898	12466.3
824.225	12355.79
824.553	12325.51
824.88	12482.57
825.207	12347.66
825.535	12316.24
825.862	12381.33
826.189	12299.3
826.516	12412.96
826.843	12424.04
827.17	12411.16
827.497	12409.35
827.824	12353.08
828.151	12444.6
828.478	12370.03
828.805	12341.55
829.131	12407.32
829.458	12312.4
829.785	12255.23
830.111	12313.98
830.438	12350.37
830.764	12376.36
831.09	12344.72
831.417	12189.47
831.743	12320.31
832.069	12243.7
832.395	12214.78
832.722	12222.69
833.048	12298.84
833.374	12299.75
833.7	12160.99
834.026	12238.51
834.351	12253.42
834.677	12197.15
835.003	12137.49
835.329	12125.29
835.654	12213.42
835.98	12074.89
836.306	12146.76
836.631	12062.69
836.956	12123.48
837.282	12070.37
837.607	12068.79
837.932	11976.14
838.258	12074.22
838.583	11973.43
838.908	11987.44
839.233	11956.03
839.558	11941.34
839.883	11912.86
840.208	11825.64
840.533	11915.12
840.858	11800.1
841.182	11868.8
841.507	11773.89
841.832	11718.97
842.156	11713.32
842.481	11749.03
842.805	11626.77
843.13	11695.7
843.454	11692.98
843.778	11565.98
844.103	11576.38
844.427	11519.2
844.751	11533.89
845.075	11474.91
845.399	11440.33
845.723	11355.14
846.047	11297.74
846.371	11339.09
846.695	11304.97
847.019	11202.83
847.343	11203.05
847.666	11073.11
847.99	11096.39
848.313	11029.05
848.637	10973.45
848.96	10955.38
849.284	10968.26
849.607	10820.92
849.931	10915.38
850.254	10795.61
850.577	10758.54
850.9	10708.6
851.223	10680.35
851.546	10573.01
851.869	10520.36
852.192	10577.53
852.515	10476.74
852.838	10374.15
853.161	10434.94
853.483	10367.14
853.806	10343.19
854.129	10282.17
854.451	10241.95
854.774	10255.06
855.096	10155.85
855.419	10133.93
855.741	10158.56
856.063	10127.15
856.385	10033.82
856.708	10060.48
857.03	10022.52
857.352	10010.54
857.674	9982.52
857.996	9887.83
858.318	9888.51
858.64	9927.15
858.961	9831.79
859.283	9840.83
859.605	9796.76
859.926	9844.9
860.248	9771.68
860.57	9747.27
860.891	9677.22
861.212	9687.39
861.534	9679.7
861.855	9577.11
862.176	9637.44
862.498	9615.52
862.819	9516.32
863.14	9545.7
863.461	9641.51
863.782	9505.7
864.103	9517.22
864.424	9426.38
864.745	9500.05
865.065	9416.21
865.386	9416.66
865.707	9356.77
866.027	9426.15
866.348	9324.68
866.668	9409.2
866.989	9348.41
867.309	9290.56
867.63	9317.9
867.95	9286.95
868.27	9178.7
868.59	9287.62
868.91	9203.56
869.23	9268.19
869.55	9135.54
869.87	9260.51
870.19	9183.44
870.51	9153.84
870.83	9201.3
871.15	9152.26
871.469	9080.85
871.789	9166.04
872.109	9116.78
872.428	9030.91
872.748	9108.87
873.067	9053.28
873.386	9079.72
873.706	8929.44
874.025	9024.35
874.344	8940.97
874.663	8986.84
874.982	9008.53
875.301	8973.96
875.62	8905.03
875.939	8840.18
876.258	8839.95
876.577	8827.52
876.896	8843.11
877.214	8820.74
877.533	8802.21
877.852	8765.83
878.17	8833.17
878.489	8767.86
878.807	8754.53
879.125	8800.4
879.444	8797.24
879.762	8627.3
880.08	8742.55
880.398	8695.32
880.716	8640.63
881.034	8640.63
881.352	8605.38
881.67	8620.75
881.988	8608.09
882.306	8557.92
882.624	8549.34
882.941	8489.45
883.259	8456.91
883.577	8467.76
883.894	8419.85
884.212	8429.79
884.529	8425.5
884.846	8442.67
885.164	8420.75
885.481	8424.59
885.798	8424.59
886.115	8334.43
886.432	8376.23
886.75	8323.13
887.067	8283.13
887.383	8215.56
887.7	8303.69
888.017	8130.14
888.334	8171.04
888.651	8221.21
888.967	8124.94
889.284	8163.81
889.6	8110.03
889.917	8092.63
890.233	8059.63
890.55	8065.51
890.866	8083.36
891.182	8019.18
891.498	7978.73
891.815	8037.03
892.131	7904.38
892.447	7878.17
892.763	7974.44
893.079	7875.91
893.395	7798.62
893.71	7814.22
894.026	7802.01
894.342	7795.23
894.657	7770.15
894.973	7695.8
895.289	7688.12
895.604	7696.25
895.92	7675.46
896.235	7607.44
896.55	7622.36
896.865	7606.76
897.181	7537.61
897.496	7587.78
897.811	7496.48
898.126	7442.25
898.441	7469.59
898.756	7360.89
899.071	7398.18
899.386	7327.9
899.7	7270.5
900.015	7242.25
900.33	7284.29
900.644	7267.34
900.959	7265.53
901.273	7199.99
901.588	7230.73
901.902	7130.62
902.216	7186.66
902.531	7065.31
902.845	7096.27
903.159	7010.17
903.473	7015.59
903.787	6996.84
904.101	6948.25
904.415	6925.65
904.729	6918.19
905.042	6876.16
905.356	6875.48
905.67	6764.07
905.984	6767.92
906.297	6765.2
906.611	6762.27
906.924	6689.95
907.237	6697.86
907.551	6699.89
907.864	6675.26
908.177	6654.92
908.491	6647.92
908.804	6593.46
909.117	6517.98
909.43	6497.41
909.743	6459.45
910.056	6485.89
910.368	6476.17
910.681	6440.01
910.994	6365.89
911.307	6321.15
911.619	6332.45
911.932	6320.92
912.244	6263.75
912.557	6290.41
912.869	6255.84
913.181	6190.53
913.494	6197.76
913.806	6222.84
914.118	6130.87
914.43	6095.62
914.742	6115.28
915.054	6062.62
915.366	6054.94
915.678	6072.57
915.99	5970.42
916.302	5965.45
916.613	5983.76
916.925	5938.33
917.236	5933.36
917.548	5870.09
917.859	5939.46
918.171	5846.13
918.482	5798.22
918.794	5762.29
919.105	5788.28
919.416	5750.31
919.727	5740.82
920.038	5713.25
920.349	5644.1
920.66	5596.19
920.971	5635.52
921.282	5589.42
921.593	5585.8
921.903	5541.05
922.214	5498.57
922.525	5515.52
922.835	5455.18
923.146	5441.17
923.456	5407.05
923.767	5430.78
924.077	5397.33
924.387	5378.12
924.697	5326.6
925.008	5329.08
925.318	5308.74
925.628	5308.29
925.938	5222.42
926.248	5231.91
926.558	5202.31
926.867	5198.92
927.177	5221.52
927.487	5153.72
927.796	5131.12
928.106	5140.61
928.416	5085.93
928.725	5087.28
929.034	5041.63
929.344	5008.87
929.653	5016.77
929.962	4977.45
930.271	4944.91
930.581	4908.3
930.89	4859.49
931.199	4879.83
931.508	4868.3
931.817	4805.71
932.125	4839.83
932.434	4825.82
932.743	4728.87
933.051	4785.82
933.36	4737.69
933.669	4721.64
933.977	4691.36
934.286	4648.65
934.594	4631.25
934.902	4637.12
935.21	4639.38
935.519	4624.02
935.827	4559.84
936.135	4535.21
936.443	4550.8
936.751	4512.83
937.059	4500.4
937.367	4446.85
937.674	4467.64
937.982	4505.6
938.29	4417.69
938.597	4440.52
938.905	4366.17
939.213	4358.26
939.52	4389.45
939.827	4335.89
940.135	4327.53
940.442	4307.64
940.749	4329.34
941.056	4267.42
941.363	4230.81
941.67	4242.11
941.977	4212.5
942.284	4176.57
942.591	4190.13
942.898	4153.29
943.205	4158.04
943.511	4126.4
943.818	4130.02
944.125	4083.92
944.431	4064.48
944.738	4086.4
945.044	4061.55
945.35	4040.08
945.657	3966.63
945.963	3985.62
946.269	3958.27
946.575	3957.37
946.881	3940.64
947.187	3939.74
947.493	3870.36
947.799	3848.9
948.105	3865.17
948.41	3808.22
948.716	3834.21
949.022	3822.68
949.327	3822.23
949.633	3743.59
949.938	3768.45
950.244	3749.46
950.549	3684.15
950.854	3726.87
951.16	3697.04
951.465	3716.7
951.77	3663.36
952.075	3664.95
952.38	3641.44
952.685	3610.26
952.99	3562.8
953.294	3618.62
953.599	3546.76
953.904	3564.61
954.209	3543.14
954.513	3524.38
954.818	3519.87
955.122	3490.71
955.426	3473.99
955.731	3480.09
956.035	3447.1
956.339	3431.05
956.643	3457.95
956.948	3410.04
957.252	3378.63
957.556	3389.7
957.86	3377.04
958.163	3356.71
958.467	3338.85
958.771	3336.82
959.075	3309.93
959.378	3280.1
959.682	3328.23
959.985	3285.07
960.289	3253.43
960.592	3210.27
960.896	3230.61
961.199	3244.39
961.502	3227.44
961.805	3171.4
962.108	3163.49
962.411	3151.97
962.714	3119.65
963.017	3107.67
963.32	3162.36
963.623	3110.38
963.926	3131.63
964.228	3085.53
964.531	3094.11
964.833	3074.45
965.136	3047.34
965.438	2988.81
965.741	3073.55
966.043	3003.27
966.345	2989.71
966.648	3009.14
966.95	3012.31
967.252	2959.43
967.554	2931.63
967.856	2951.29
968.158	2933.21
968.46	2874.91
968.761	2878.98
969.063	2861.8
969.365	2856.15
969.666	2834.46
969.968	2826.55
970.269	2826.32
970.571	2796.72
970.872	2811.64
971.174	2820.67
971.475	2738.64
971.776	2761.24
972.077	2763.73
972.378	2768.7
972.679	2751.75
972.98	2745.65
973.281	2719.21
973.582	2703.62
973.883	2695.93
974.183	2667.68
974.484	2643.05
974.785	2630.85
975.085	2643.73
975.386	2638.98
975.686	2621.81
975.986	2603.05
976.287	2592.66
976.587	2556.73
976.887	2573.9
977.187	2565.09
977.487	2524.19
977.787	2566.9
978.087	2546.11
978.387	2518.54
978.687	2521.02
978.987	2490.51
979.286	2504.75
979.586	2501.59
979.885	2467.92
980.185	2464.3
980.484	2438.31
980.784	2442.83
981.083	2394.02
981.382	2382.27
981.682	2383.62
981.981	2387.69
982.28	2395.37
982.579	2360.57
982.878	2351.31
983.177	2358.31
983.475	2319.67
983.774	2307.69
984.073	2326.22
984.372	2292.55
984.67	2284.19
984.969	2278.54
985.267	2264.53
985.566	2255.72
985.864	2250.52
986.162	2221.37
986.461	2251.2
986.759	2206.23
987.057	2192.89
987.355	2207.13
987.653	2175.04
987.951	2161.71
988.249	2184.76
988.547	2185.21
988.844	2150.41
989.142	2136.85
989.44	2126.68
989.737	2128.72
990.035	2092.78
990.332	2110.86
990.63	2098.43
990.927	2049.17
991.224	2107.47
991.521	2068.38
991.819	2081.71
992.116	2075.38
992.413	2045.55
992.71	2019.57
993.006	2044.2
993.303	2012.56
993.6	2007.59
993.897	1979.34
994.193	1984.99
994.49	2002.16
994.787	1990.19
995.083	1940.02
995.379	1931.66
995.676	1937.08
995.972	1939.57
996.268	1912.68
996.565	1879.91
996.861	1884.65
997.157	1891.43
997.453	1872.68
997.749	1889.4
998.044	1855.05
998.34	1852.56
998.636	1836.29
998.932	1839.68
999.227	1834.26
999.523	1841.72
999.818	1784.32
1000.114	1808.05
1000.409	1835.62
1000.704	1763.08
1001	1795.16
1001.295	1772.11
1001.59	1749.74
1001.885	1740.02
1002.18	1737.99
1002.475	1729.63
1002.77	1716.52
1003.065	1696.41
1003.359	1696.86
1003.654	1709.74
1003.949	1700.7
1004.243	1658.45
1004.538	1663.42
1004.832	1653.02
1005.127	1649.41
1005.421	1657.32
1005.715	1628.62
1006.009	1636.52
1006.304	1585.68
1006.598	1619.35
1006.892	1601.05
1007.186	1574.15
1007.48	1553.59
1007.773	1575.74
1008.067	1529.18
1008.361	1533.48
1008.655	1540.93
1008.948	1517.88
1009.242	1494.16
1009.535	1510.43
1009.829	1481.73
1010.122	1506.81
1010.415	1495.29
1010.708	1519.92
1011.001	1505.23
1011.295	1477.66
1011.588	1463.42
1011.881	1455.51
1012.173	1462.52
1012.466	1447.83
1012.759	1417.55
1013.052	1422.07
1013.344	1406.7
1013.637	1417.55
1013.93	1403.54
1014.222	1377.55
1014.514	1377.32
1014.807	1371.45
1015.099	1343.2
1015.391	1364.44
1015.683	1318.79
1015.976	1330.32
1016.268	1326.02
1016.56	1315.18
1016.851	1335.29
1017.143	1318.12
1017.435	1305.46
1017.727	1285.35
1018.018	1276.31
1018.31	1270.43
1018.602	1269.75
1018.893	1237.67
1019.185	1248.29
1019.476	1260.72
1019.767	1255.07
1020.058	1226.59
1020.35	1234.28
1020.641	1216.87
1020.932	1210.32
1021.223	1204.9
1021.514	1207.61
1021.804	1189.76
1022.095	1182.98
1022.386	1182.53
1022.677	1146.14
1022.967	1142.53
1023.258	1160.15
1023.548	1136.42
1023.839	1141.4
1024.129	1116.09
1024.419	1142.3
1024.709	1140.04
1025	1108.4
1025.29	1103.88
1025.58	1105.92
1025.87	1112.24
1026.16	1083.09
1026.449	1081.51
1026.739	1066.37
1027.029	1042.42
1027.319	1050.33
1027.608	1026.82
1027.898	1053.72
1028.187	1004.9
1028.477	1007.61
1028.766	1010.33
1029.055	1008.52
1029.344	1023.89
1029.634	1014.85
1029.923	987.73
1030.212	991.8
1030.501	974.62
1030.79	993.83
1031.078	967.16
1031.367	942.76
1031.656	965.81
1031.945	959.25
1032.233	956.99
1032.522	942.31
1032.81	938.24
1033.099	938.92
1033.387	926.03
1033.675	903.44
1033.963	920.39
1034.251	921.97
1034.54	926.71
1034.828	931.23
1035.116	856.88
1035.403	884.45
1035.691	874.96
1035.979	889.43
1036.267	895.75
1036.554	872.25
1036.842	865.92
1037.129	849.43
1037.417	858.92
1037.704	841.29
1037.992	845.13
1038.279	825.92
1038.566	821.86
1038.853	821.86
1039.14	821.86
