Data from White_paper_FLMS001491_072.txt Node
Date: Tue Feb 07 10:35:32 GMT 2017
User: dcchb
Spectrometer: FLMS00149
Trigger mode: 0
Integration Time (sec): 2.000000E-2
Scans to average: 10
Electric dark correction enabled: true
Nonlinearity correction enabled: false
Boxcar width: 0
XAxis mode: Wavelengths
Number of Pixels in Spectrum: 2048
>>>>>Begin Spectral Data<<<<<
341.393	-15.58
341.776	-15.58
342.16	-15.58
342.543	-58.52
342.927	-63.04
343.31	-53.09
343.693	-70.72
344.077	-53.77
344.46	-63.04
344.843	-67.78
345.226	-48.8
345.61	-22.36
345.993	-20.78
346.376	2.73
346.759	12.67
347.142	19
347.525	30.52
347.908	65.55
348.291	64.65
348.674	84.31
349.057	120.91
349.44	103.51
349.823	149.84
350.206	153.68
350.588	209.95
350.971	230.74
351.354	255.6
351.737	254.92
352.119	275.49
352.502	276.17
352.884	286.79
353.267	295.15
353.65	319.78
354.032	322.04
354.414	341.93
354.797	344.19
355.179	342.15
355.562	347.8
355.944	376.5
356.326	357.74
356.709	377.18
357.091	378.08
357.473	376.05
357.855	364.98
358.238	359.55
358.62	372.89
359.002	378.31
359.384	411.53
359.766	373.79
360.148	366.11
360.53	367.24
360.912	346.67
361.294	373.34
361.676	375.6
362.057	375.15
362.439	379.44
362.821	373.34
363.203	362.72
363.584	367.46
363.966	360
364.348	362.49
364.729	369.27
365.111	371.76
365.493	390.96
365.874	366.11
366.256	359.1
366.637	353.68
367.019	358.2
367.4	357.97
367.781	360.91
368.163	367.24
368.544	371.3
368.925	367.24
369.306	362.26
369.688	374.02
370.069	374.24
370.45	360.46
370.831	374.24
371.212	364.98
371.593	379.21
371.974	362.49
372.355	385.54
372.736	377.41
373.117	350.97
373.498	362.26
373.879	395.71
374.26	366.33
374.641	371.3
375.021	385.09
375.402	376.95
375.783	387.8
376.163	389.38
376.544	388.48
376.925	388.7
377.305	382.15
377.686	406.56
378.066	386.22
378.447	392.77
378.827	410.62
379.208	379.21
379.588	395.94
379.968	396.39
380.349	416.05
380.729	407.24
381.109	416.05
381.489	396.84
381.87	420.34
382.25	405.43
382.63	428.25
383.01	431.87
383.39	437.06
383.77	431.64
384.15	436.16
384.53	448.82
384.91	446.1
385.29	460.79
385.67	442.71
386.049	453.56
386.429	463.28
386.809	456.05
387.189	456.27
387.568	456.5
387.948	474.35
388.328	466.89
388.707	475.93
389.087	476.16
389.466	485.88
389.846	487.68
390.225	493.33
390.605	495.82
390.984	505.31
391.363	504.86
391.743	518.19
392.122	541.92
392.501	534.69
392.881	540.79
393.26	542.15
393.639	531.98
394.018	542.37
394.397	544.63
394.776	542.82
395.155	559.55
395.534	579.21
395.913	567
396.292	584.41
396.671	586.67
397.05	601.35
397.429	606.33
397.808	597.74
398.186	609.04
398.565	638.87
398.944	617.63
399.323	629.83
399.701	618.75
400.08	631.86
400.458	648.36
400.837	665.53
401.215	646.55
401.594	677.06
401.972	687.23
402.351	712.76
402.729	724.06
403.107	705.76
403.486	720.22
403.864	752.99
404.242	758.86
404.62	750.5
404.999	765.64
405.377	797.06
405.755	789.6
406.133	815.81
406.511	836.38
406.889	838.18
407.267	862.59
407.645	891.06
408.023	905.75
408.401	913.89
408.779	939.42
409.156	969.93
409.534	974.9
409.912	998.41
410.29	1040.21
410.667	1063.04
411.045	1092.19
411.422	1122.02
411.8	1130.83
412.178	1144.16
412.555	1196.82
412.933	1194.78
413.31	1245.86
413.687	1291.73
414.065	1306.65
414.442	1345.29
414.819	1346.65
415.197	1387.1
415.574	1391.62
415.951	1446.08
416.328	1462.12
416.705	1486.08
417.082	1526.08
417.46	1549.13
417.837	1587.09
418.214	1594.1
418.591	1627.99
418.967	1649.91
419.344	1693.08
419.721	1715.9
420.098	1716.81
420.475	1744.38
420.852	1780.31
421.228	1809.23
421.605	1834.77
421.982	1858.72
422.358	1871.15
422.735	1887.65
423.111	1928.1
423.488	1983.01
423.864	1971.04
424.241	2007.42
424.617	2059.4
424.994	2067.08
425.37	2122.22
425.746	2074.08
426.123	2145.04
426.499	2183.01
426.875	2192.05
427.251	2262.33
427.627	2291.71
428.003	2274.76
428.379	2361.31
428.756	2361.99
429.132	2401.76
429.507	2432.04
429.883	2500.06
430.259	2525.15
430.635	2566.5
431.011	2604.47
431.387	2629.55
431.763	2659.38
432.138	2705.93
432.514	2749.32
432.89	2764.46
433.265	2863.67
433.641	2863.89
434.016	2881.29
434.392	2986.6
434.767	3014.62
435.143	2984.57
435.518	3094.62
435.894	3107.28
436.269	3140.04
436.644	3163.09
437.02	3234.28
437.395	3226.37
437.77	3302.07
438.145	3353.15
438.52	3357.44
438.895	3395.18
439.271	3420.72
439.646	3501.17
440.021	3483.31
440.395	3542.07
440.77	3508.85
441.145	3556.98
441.52	3607.38
441.895	3612.57
442.27	3657.32
442.645	3686.02
443.019	3730.09
443.394	3741.84
443.769	3770.08
444.143	3735.74
444.518	3844.66
444.892	3818.22
445.267	3821.16
445.641	3861.83
446.016	3934.83
446.39	3955.39
446.764	3927.37
447.139	3987.93
447.513	3983.64
447.887	3996.52
448.262	4063.86
448.636	4058.66
449.01	4124.88
449.384	4173.24
449.758	4176.63
450.132	4221.82
450.506	4241.03
450.88	4270.86
451.254	4269.51
451.628	4309.28
452.002	4401.93
452.376	4441.48
452.75	4478.09
453.123	4494.36
453.497	4575.94
453.871	4598.09
454.244	4656.39
454.618	4738.19
454.992	4780.68
455.365	4820.23
455.739	4894.35
456.112	4944.74
456.486	4988.13
456.859	5025.64
457.232	5155.36
457.606	5122.37
457.979	5179.76
458.352	5360.33
458.725	5389.48
459.099	5401
459.472	5506.31
459.845	5590.15
460.218	5608.23
460.591	5646.42
460.964	5698.85
461.337	5794.66
461.71	5890.48
462.083	6022.45
462.456	5979.52
462.829	6044.83
463.201	6203.92
463.574	6192.39
463.947	6270.58
464.32	6482.78
464.692	6488.88
465.065	6522.78
465.438	6616.11
465.81	6678.48
466.183	6740.4
466.555	6938.59
466.928	6994.41
467.3	6964.35
467.672	7050.9
468.045	7230.33
468.417	7274.4
468.789	7296.32
469.161	7370.22
469.534	7565.46
469.906	7761.39
470.278	7807.49
470.65	7873.93
471.022	7993.02
471.394	8198.22
471.766	8257.65
472.138	8367.25
472.51	8515.72
472.882	8642.27
473.253	8765.66
473.625	8806.34
473.997	9011.75
474.369	9096.27
474.74	9221.47
475.112	9432.76
475.484	9514.34
475.855	9643.6
476.227	9802.47
476.598	10063.25
476.97	10109.35
477.341	10392.51
477.713	10458.72
478.084	10496.69
478.455	10875.21
478.827	10899.16
479.198	11361.52
479.569	11289.66
479.94	11587.73
480.311	11777.56
480.682	11969.87
481.053	12228.17
481.424	12370.76
481.795	12493.92
482.166	12685.78
482.537	12862.05
482.908	13166.22
483.279	13285.09
483.65	13515.36
484.021	13749.48
484.391	13874.23
484.762	14058.85
485.133	14201.67
485.503	14368.9
485.874	14650.25
486.244	14762.79
486.615	15098.6
486.985	15254.75
487.356	15483.45
487.726	15679.38
488.097	15973.38
488.467	16042.53
488.837	16337.44
489.207	16508.28
489.578	16762.06
489.948	16876.86
490.318	17171.54
490.688	17183.97
491.058	17458.09
491.428	17692.43
491.798	17783.5
492.168	18235.92
492.538	18286.99
492.908	18458.74
493.278	18695.12
493.648	18720.88
494.017	18888.11
494.387	19156.57
494.757	19197.25
495.126	19496
495.496	19568.31
495.866	19752.49
496.235	19815.31
496.605	20043.1
496.974	20157
497.344	20422.53
497.713	20459.82
498.082	20648.51
498.452	20838.79
498.821	20946.36
499.19	21050.53
499.559	21236.07
499.928	21361.71
500.298	21469.96
500.667	21647.81
501.036	21711.76
501.405	21906.1
501.774	22045.31
502.143	22260.45
502.512	22302.93
502.88	22452.53
503.249	22510.38
503.618	22733.65
503.987	22816.14
504.356	22983.82
504.724	23048
505.093	23206.41
505.462	23212.51
505.83	23419.74
506.199	23674.42
506.567	23903.79
506.936	23860.63
507.304	24287.29
507.672	24306.95
508.041	24418.13
508.409	24578.12
508.777	24701.51
509.145	24924.1
509.514	25105.57
509.882	25231.44
510.25	25249.29
510.618	25511.89
510.986	25457.65
511.354	25903.29
511.722	26084.53
512.09	26227.57
512.458	26235.26
512.826	26388.47
513.193	26609.48
513.561	26657.17
513.929	26994.11
514.297	27141.45
514.664	27432.06
515.032	27385.96
515.4	27585.5
515.767	27745.95
516.135	27896.23
516.502	27856
516.869	28335.31
517.237	28480.17
517.604	28386.39
517.972	28685.81
518.339	28876.54
518.706	28909.31
519.073	29179.81
519.44	29447.6
519.808	29610.31
520.175	29649.86
520.542	30166.45
520.909	30247.35
521.276	30164.42
521.643	30646.44
522.009	30770.5
522.376	31024.96
522.743	31138.18
523.11	31390.6
523.477	31793.98
523.843	31911.94
524.21	32126.85
524.577	32378.37
524.943	32581.53
525.31	32655.2
525.676	32990.33
526.043	33164.79
526.409	33275.3
526.776	33750.77
527.142	33737.21
527.508	33910.08
527.874	34294.03
528.241	34538.09
528.607	34591.19
528.973	34904.86
529.339	34907.12
529.705	35263.49
530.071	35394.79
530.437	35709.58
530.803	35757.04
531.169	36059.86
531.535	36081.33
531.901	36189.57
532.267	36402.9
532.632	36680.41
532.998	36731.25
533.364	36987.29
533.73	37003.56
534.095	37455.3
534.461	37534.17
534.826	37619.36
535.192	37831.34
535.557	38008.51
535.923	37970.32
536.288	38216.64
536.653	38429.06
537.019	38399
537.384	38582.95
537.749	38774.14
538.114	38832.67
538.479	39028.59
538.845	39216.84
539.21	39170.96
539.575	39452.54
539.94	39577.96
540.305	39687.78
540.67	39707.9
541.034	39909.47
541.399	39878.51
541.764	40305.17
542.129	40290.71
542.494	40285.73
542.858	40714.88
543.223	40598.95
543.587	41043
543.952	41036.22
544.316	41209.33
544.681	41169.55
545.045	41467.85
545.41	41579.49
545.774	41795.53
546.138	41701.06
546.503	41936.31
546.867	41819.48
547.231	42309.41
547.595	42372.91
547.959	42469.63
548.324	42508.73
548.688	42594.37
549.052	42659.68
549.416	42936.06
549.779	42945.33
550.143	43093.57
550.507	43285.88
550.871	43519.32
551.235	43386.22
551.599	43749.82
551.962	43842.25
552.326	43984.85
552.689	44144.16
553.053	44152.3
553.417	44189.36
553.78	44785.5
554.143	44560.42
554.507	44736.46
554.87	44806.75
555.234	45193.18
555.597	45119.96
555.96	45280.18
556.323	45391.59
556.686	45482.89
557.05	45918.81
557.413	45824.8
557.776	46042.65
558.139	46229.08
558.502	46353.37
558.865	46445.57
559.228	46705.23
559.59	46854.83
559.953	46872
560.316	47380.46
560.679	47383.63
561.041	47650.96
561.404	47649.38
561.767	47953.33
562.129	47780.68
562.492	48261.8
562.854	48134.12
563.217	48292.76
563.579	48425.86
563.941	48569.58
564.304	48845.06
564.666	49086.86
565.028	49134.77
565.39	49273.29
565.753	49527.75
566.115	49613.62
566.477	49601.42
566.839	49810.23
567.201	50105.82
567.563	50092.71
567.925	50272.14
568.287	50417.45
568.648	50440.5
569.01	50630.55
569.372	50841.39
569.734	50747.15
570.095	51080.03
570.457	51159.12
570.819	51266.24
571.18	51273.92
571.542	51376.06
571.903	51562.05
572.265	51613.8
572.626	51755.04
572.987	51834.58
573.349	51960.68
573.71	52030.74
574.071	52119.77
574.432	52223.05
574.794	52460.33
575.155	52410.61
575.516	52386.66
575.877	52565.19
576.238	52592.53
576.599	52806.31
576.96	52736.93
577.32	52842.69
577.681	52990.26
578.042	53060.31
578.403	53098.05
578.763	53129.92
579.124	53152.29
579.485	53195.68
579.845	53309.8
580.206	53267.09
580.566	53364.49
580.927	53406.29
581.287	53524.03
581.648	53465.5
582.008	53581.2
582.368	53492.84
582.728	53723.35
583.089	53594.09
583.449	53637.25
583.809	53743.46
584.169	53822.33
584.529	53742.78
584.889	53906.17
585.249	53704.36
585.609	53625.5
585.969	53912.27
586.329	53828.43
586.688	53903.46
587.048	53907.75
587.408	53820.29
587.768	53925.15
588.127	53931.03
588.487	53943
588.846	54185.26
589.206	54004.02
589.565	54039.72
589.925	54143
590.284	54015.09
590.643	54028.88
591.003	54228.19
591.362	54284.69
591.721	54207.85
592.08	54275.88
592.44	54239.49
592.799	54293.5
593.158	54295.76
593.517	54182.54
593.876	54380.96
594.235	54355.65
594.593	54329.21
594.952	54398.36
595.311	54292.15
595.67	54440.84
596.029	54664.79
596.387	54610.56
596.746	54575.75
597.104	54471.8
597.463	54551.12
597.822	54664.79
598.18	54609.2
598.538	54584.12
598.897	54587.05
599.255	54450.11
599.613	54868.85
599.972	54682.42
600.33	54782.98
600.688	54652.14
601.046	54791.57
601.404	54885.12
601.762	54779.14
602.12	54942.3
602.478	54906.14
602.836	54923.77
603.194	54833.37
603.552	54862.53
603.91	54702.76
604.268	54907.04
604.625	54840.15
604.983	55002.18
605.341	54863.2
605.698	55033.82
606.056	55049.19
606.413	54996.76
606.771	55150.88
607.128	55171.22
607.485	55055.52
607.843	55089.87
608.2	55250.54
608.557	55301.61
608.914	55165.57
609.272	55300.48
609.629	55336.19
609.986	55442.62
610.343	55353.13
610.7	55546.8
611.057	55406.24
611.414	55404.66
611.771	55454.15
612.127	55544.99
612.484	55587.71
612.841	55615.73
613.198	55506.13
613.554	55589.06
613.911	55793.58
614.267	55680.81
614.624	55669.28
614.98	55728.94
615.337	55802.61
615.693	55780.92
616.05	55703.86
616.406	55891.43
616.762	55769.85
617.118	55784.76
617.475	55812.33
617.831	55921.48
618.187	55903.18
618.543	55925.55
618.899	56067.24
619.255	56019.56
619.611	55981.14
619.967	56000.58
620.323	56050.74
620.678	55989.95
621.034	55865.44
621.39	55918.32
621.746	55941.59
622.101	56220
622.457	55989.5
622.812	56073.79
623.168	56133.23
623.523	56135.71
623.879	56158.09
624.234	55987.24
624.589	56109.73
624.945	56214.36
625.3	56241.93
625.655	56137.75
626.01	56124.87
626.365	56128.26
626.72	56166.67
627.075	56137.3
627.43	56123.51
627.785	56069.95
628.14	56131.19
628.495	56245.77
628.85	56104.98
629.205	56062.49
629.559	56291.64
629.914	56055.94
630.269	56056.85
630.623	56053.23
630.978	56015.49
631.332	56156.73
631.687	56168.03
632.041	55996.51
632.396	56018.88
632.75	56042.38
633.104	56029.28
633.459	55888.04
633.813	55944.98
634.167	55904.08
634.521	55908.83
634.875	55967.36
635.229	55920.35
635.583	55790.41
635.937	55767.14
636.291	55796.97
636.645	55787.93
636.999	55830.18
637.352	55802.39
637.706	55619.79
638.06	55780.69
638.413	55713.8
638.767	55692.56
639.121	55660.7
639.474	55560.81
639.828	55576.63
640.181	55666.12
640.534	55657.53
640.888	55575.95
641.241	55461.61
641.594	55462.06
641.947	55544.09
642.301	55508.84
642.654	55550.64
643.007	55558.55
643.36	55514.71
643.713	55421.16
644.066	55514.26
644.419	55295.28
644.771	55079.24
645.124	54938
645.477	54857.55
645.83	54702.3
646.182	54612.14
646.535	54514.96
646.888	54575.3
647.24	54479.49
647.593	54645.36
647.945	54610.78
648.298	54453.95
648.65	54399.04
649.002	54335.31
649.355	54453.27
649.707	54351.58
650.059	54531.01
650.411	54861.62
650.763	54851.68
651.115	55188.39
651.467	55100.49
651.819	55054.16
652.171	55015.97
652.523	54941.85
652.875	54946.59
653.227	54822.08
653.578	55079.92
653.93	54940.26
654.282	54856.65
654.633	54778.46
654.985	54844.22
655.337	54876.31
655.688	54812.58
656.039	54980.26
656.391	54693.49
656.742	54653.49
657.094	54745.69
657.445	54861.17
657.796	54812.36
658.147	54727.61
658.498	54659.37
658.849	54808.97
659.2	54686.03
659.551	54679.03
659.902	54756.09
660.253	54639.26
660.604	54720.61
660.955	54572.36
661.306	54695.07
661.656	54606.26
662.007	54695.98
662.358	54602.65
662.708	54568.52
663.059	54573.95
663.409	54434.74
663.76	54570.1
664.11	54590.22
664.461	54546.6
664.811	54558.81
665.161	54515.42
665.511	54397.23
665.862	54449.43
666.212	54488.98
666.562	54492.59
666.912	54478.81
667.262	54477.68
667.612	54435.42
667.962	54472.25
668.312	54417.34
668.662	54525.59
669.011	54455.08
669.361	54392.03
669.711	54377.79
670.06	54291.02
670.41	54253.05
670.76	54193.17
671.109	54225.93
671.459	54256.67
671.808	54185.48
672.157	54266.61
672.507	54044.02
672.856	54045.15
673.205	54062.32
673.554	54154.75
673.904	54100.74
674.253	54220.28
674.602	54105.03
674.951	53663.46
675.3	53514.54
675.649	53971.93
675.998	53936.68
676.346	53955.66
676.695	53952.27
677.044	53805.38
677.393	53883.12
677.741	53836.11
678.09	53792.05
678.438	53703.46
678.787	53762.89
679.135	53708.66
679.484	53485.39
679.832	53672.5
680.181	53454.88
680.529	53436.8
680.877	53489.46
681.225	53343.47
681.573	53560.87
681.922	53341.89
682.27	53200.2
682.618	53244.72
682.966	53208.56
683.314	53192.74
683.661	53013.76
684.009	52889.24
684.357	52916.14
684.705	52880.88
685.053	52919.75
685.4	52830.94
685.748	52564.06
686.095	52615.13
686.443	52407.45
686.79	52455.13
687.138	52382.82
687.485	52379.43
687.832	52284.74
688.18	52341.24
688.527	52149.83
688.874	52029.83
689.221	52021.25
689.568	51901.93
689.915	51888.14
690.262	51902.83
690.609	51809.05
690.956	51726.56
691.303	51691.08
691.65	51425.1
691.997	51442.05
692.344	51165.9
692.69	51222.17
693.037	51153.92
693.383	50965.23
693.73	51074.6
694.077	50859.02
694.423	50840.94
694.769	50808.4
695.116	50615.86
695.462	50583.32
695.808	50395.3
696.155	50416.09
696.501	50228.07
696.847	50159.83
697.193	49990.56
697.539	50173.16
697.885	49875.09
698.231	49821.08
698.577	49749.67
698.923	49614.53
699.269	49518.71
699.614	49317.59
699.96	49275.78
700.306	49283.92
700.651	49073.98
700.997	49041.21
701.342	48980.42
701.688	48873.31
702.033	48842.8
702.379	48784.95
702.724	48669.69
703.069	48643.03
703.415	48246.2
703.76	48285.07
704.105	48358.29
704.45	48167.56
704.795	47972.54
705.14	47949.04
705.485	47859.77
705.83	47682.6
706.175	47791.53
706.52	47543.62
706.865	47415.04
707.209	47302.5
707.554	47320.35
707.899	47332.55
708.243	47128.49
708.588	47129.4
708.932	46875.17
709.277	46901.15
709.621	46852.34
709.966	46584.1
710.31	46650.99
710.654	46354.28
710.998	46450.54
711.342	46403.54
711.687	46288.74
712.031	46090.33
712.375	45911.12
712.719	46060.27
713.063	45945.25
713.407	46007.84
713.75	45837.9
714.094	45775.99
714.438	45636.1
714.782	45640.17
715.125	45503.68
715.469	45569.44
715.812	45215.32
716.156	45142.78
716.499	45158.83
716.843	45206.74
717.186	44908.89
717.53	45138.04
717.873	45098.94
718.216	44824.37
718.559	44749.12
718.902	44492.4
719.246	44489.47
719.589	44567.66
719.932	44352.75
720.275	44332.86
720.617	44317.72
720.96	44122.47
721.303	44250.38
721.646	44109.59
721.989	43847.9
722.331	43982.59
722.674	43810.39
723.016	43962.7
723.359	43777.62
723.701	43742.14
724.044	43451.08
724.386	43298.99
724.729	43655.82
725.071	43453.56
725.413	43372.43
725.755	43385.31
726.097	43230.06
726.439	42978.55
726.782	43035.49
727.124	43114.36
727.465	42872.33
727.807	42870.75
728.149	42793.69
728.491	42776.29
728.833	42701.26
729.175	42515.96
729.516	42456.75
729.858	42515.96
730.199	42538.78
730.541	42311.9
730.882	42217.66
731.224	42397.32
731.565	42150.54
731.906	42253.59
732.248	42268.51
732.589	41899.93
732.93	41826.71
733.271	41858.8
733.612	41990.32
733.953	41914.84
734.294	41771.8
734.635	41498.36
734.976	41689.54
735.317	41355.76
735.658	41487.74
735.999	41470.56
736.339	41266.5
736.68	41456.55
737.021	41413.39
737.361	41111.02
737.702	41338.14
738.042	41122.55
738.383	41067.63
738.723	41139.5
739.063	40919.39
739.404	41016.79
739.744	40951.03
740.084	40892.95
740.424	40723.46
740.764	40759.62
741.104	40580.87
741.444	40564.6
741.784	40486.18
742.124	40558.5
742.464	40419.29
742.804	40422.91
743.143	40422.91
743.483	40524.15
743.823	40186.98
744.162	40121.22
744.502	40296.81
744.841	40066.08
745.181	40151.95
745.52	39922.13
745.86	39933.2
746.199	39797.84
746.538	39790.15
746.877	39890.04
747.216	39921.45
747.556	39744.05
747.895	39747.44
748.234	39555.13
748.573	39396.04
748.911	39415.47
749.25	39383.61
749.589	39221.58
749.928	39312.43
750.267	39234.01
750.605	39113.79
750.944	39120.57
751.283	38736.85
751.621	39073.79
751.96	38744.08
752.298	38602.84
752.636	38717.87
752.975	38614.82
753.313	38417.76
753.651	38535.5
753.989	38402.85
754.327	38455.05
754.666	38007.15
755.004	37998.79
755.342	38236.75
755.679	38094.83
756.017	37990.65
756.355	37921.28
756.693	37854.39
757.031	37705.92
757.368	37638.57
757.706	37569.87
758.044	37505.47
758.381	37437.67
758.719	37261.18
759.056	37311.58
759.394	37110.68
759.731	36854.19
760.068	36923.34
760.405	36755.43
760.743	36634.53
761.08	36609.67
761.417	36519.05
761.754	36415.78
762.091	36204.03
762.428	36260.08
762.765	36068.9
763.102	36134.88
763.438	35984.38
763.775	35696.48
764.112	35822.58
764.449	35783.25
764.785	35584.62
765.122	35257.84
765.458	35241.12
765.795	35163.84
766.131	35145.98
766.467	35063.72
766.804	34628.26
767.14	34633.68
767.476	34652.89
767.812	34522.27
768.148	34618.54
768.485	34415.15
768.821	34094.71
769.157	34205.44
769.492	33986.92
769.828	34051.77
770.164	33785.34
770.5	33729.52
770.836	33687.49
771.171	33470.55
771.507	33386.03
771.842	33098.13
772.178	33178.8
772.513	33082.99
772.849	32948.75
773.184	32852.71
773.519	32795.99
773.855	32654.97
774.19	32542.66
774.525	32356.23
774.86	32392.16
775.195	32311.93
775.53	32150.13
775.865	31968.67
776.2	31796.47
776.535	31549.24
776.87	31531.39
777.205	31563.7
777.539	31227.22
777.874	31378.62
778.209	30996.04
778.543	31029.25
778.878	30864.06
779.212	30973.89
779.547	30655.93
779.881	30697.51
780.215	30487.8
780.55	30471.08
780.884	30401.7
781.218	30195.15
781.552	30279.22
781.886	30014.37
782.22	29739.35
782.554	29788.61
782.888	29544.32
783.222	29387.94
783.556	29306.36
783.889	29233.14
784.223	29042.87
784.557	29030.89
784.89	29089.42
785.224	28886.71
785.557	28855.53
785.891	28561.75
786.224	28603.1
786.558	28636.78
786.891	28369.66
787.224	28218.48
787.557	28158.82
787.891	28126.51
788.224	28110.46
788.557	27964.48
788.89	27867.76
789.223	27836.8
789.556	27646.74
789.888	27545.5
790.221	27401.55
790.554	27262.57
790.887	27308
791.219	27093.54
791.552	27043.82
791.884	26885.63
792.217	26896.71
792.549	26794.34
792.882	26667.11
793.214	26569.26
793.546	26600.9
793.879	26357.06
794.211	26232.32
794.543	26292.88
794.875	26167.01
795.207	26204.75
795.539	26075.03
795.871	25933.57
796.203	25850.18
796.535	25639.11
796.867	25708.49
797.198	25634.37
797.53	25619.91
797.862	25481.15
798.193	25421.27
798.525	25307.82
798.856	25313.02
799.188	25054.27
799.519	25023.08
799.85	24806.82
800.182	24873.03
800.513	24811.57
800.844	24545.58
801.175	24711
801.506	24655.64
801.837	24506.94
802.168	24487.05
802.499	24410.9
802.83	24245.93
803.161	24193.73
803.491	24109.21
803.822	24134.97
804.153	23952.6
804.483	23871.48
804.814	23673.52
805.145	23756
805.475	23729.11
805.805	23659.05
806.136	23629
806.466	23624.93
806.796	23430.58
807.126	23403.47
807.457	23301.32
807.787	23238.5
808.117	23237.14
808.447	23033.53
808.777	23144.04
809.107	23066.98
809.436	23026.75
809.766	22915.57
810.096	22804.39
810.426	22766.2
810.755	22597.84
811.085	22687.78
811.414	22508.8
811.744	22468.35
812.073	22467.45
812.403	22410.95
812.732	22262.71
813.061	22265.87
813.39	22205.31
813.719	22097.06
814.049	22111.52
814.378	22053.9
814.707	22004.63
815.036	21894.81
815.365	21829.72
815.693	21583.18
816.022	21725.77
816.351	21613.01
816.68	21530.97
817.008	21504.53
817.337	21373.24
817.665	21396.97
817.994	21436.06
818.322	21362.84
818.651	21280.36
818.979	21113.58
819.307	21326.01
819.636	21194.49
819.964	21017.54
820.292	21119.68
820.62	21042.85
820.948	20964.43
821.276	21028.61
821.604	20947.03
821.932	21009.63
822.259	20952.23
822.587	20936.64
822.915	20846.92
823.243	20952.46
823.57	20912.91
823.898	20930.99
824.225	20773.25
824.553	20923.31
824.88	20917.88
825.207	20933.25
825.535	20914.94
825.862	20900.93
826.189	20831.56
826.516	20982.51
826.843	20944.32
827.17	20995.62
827.497	20927.83
827.824	20972.57
828.151	20996.52
828.478	20896.19
828.805	20907.71
829.131	20815.51
829.458	20863.87
829.785	20737.32
830.111	20792.46
830.438	20836.98
830.764	20865.45
831.09	20889.63
831.417	20729.41
831.743	20801.5
832.069	20748.17
832.395	20669.98
832.722	20890.31
833.048	20730.77
833.374	20688.51
833.7	20632.24
834.026	20660.94
834.351	20632.47
834.677	20622.07
835.003	20693.26
835.329	20614.39
835.654	20529.42
835.98	20568.51
836.306	20519.7
836.631	20281.51
836.956	20384.34
837.282	20447.16
837.607	20343.89
837.932	20235.87
838.258	20273.61
838.583	20281.74
838.908	20065.93
839.233	20111.35
839.558	20099.37
839.883	20022.99
840.208	20025.25
840.533	20054.4
840.858	19953.16
841.182	19994.97
841.507	19871.36
841.832	19884.69
842.156	19825.03
842.481	19886.27
842.805	19715.43
843.13	19664.81
843.454	19601.76
843.778	19592.72
844.103	19561.99
844.427	19538.48
844.751	19569.9
845.075	19390.24
845.399	19392.72
845.723	19177.36
846.047	19239.51
846.371	19114.31
846.695	19187.31
847.019	19038.84
847.343	18930.59
847.666	18804.04
847.99	18683.36
848.313	18618.06
848.637	18588.23
848.96	18522.46
849.284	18484.27
849.607	18370.83
849.931	18244.05
850.254	18200.21
850.577	18012.65
850.9	18018.52
851.223	17964.74
851.546	17776.5
851.869	17633.45
852.192	17926.55
852.515	17586.9
852.838	17615.37
853.161	17676.39
853.483	17489.05
853.806	17418.09
854.129	17420.35
854.451	17296.28
854.774	17245.44
855.096	17221.26
855.419	17151.65
855.741	17204.53
856.063	17096.74
856.385	16995.5
856.708	17009.06
857.03	16871.21
857.352	16857.88
857.674	16763.87
857.996	16748.27
858.318	16642.51
858.64	16586.7
858.961	16614.94
859.283	16500.82
859.605	16466.02
859.926	16459.92
860.248	16404.1
860.57	16284.78
860.891	16297.89
861.212	16180.83
861.534	16214.73
861.855	16133.15
862.176	16233.71
862.498	16200.49
862.819	16214.73
863.14	15994.62
863.461	16027.62
863.782	16042.08
864.103	15927.5
864.424	15945.36
864.745	15891.57
865.065	15963.21
865.386	15826.04
865.707	15886.83
866.027	15899.03
866.348	15770.45
866.668	15820.84
866.989	15689.77
867.309	15547.85
867.63	15585.37
867.95	15593.73
868.27	15532.94
868.59	15575.42
868.91	15487.52
869.23	15574.07
869.55	15393.51
869.87	15561.64
870.19	15529.78
870.51	15497.46
870.83	15498.59
871.15	15282.32
871.469	15369.33
871.789	15340.4
872.109	15259.95
872.428	15237.35
872.748	15325.26
873.067	15247.3
873.386	15270.35
873.706	15229.67
874.025	15082.33
874.344	14984.48
874.663	15161.88
874.982	15107.87
875.301	15068.77
875.62	14921.43
875.939	14970.69
876.258	14952.16
876.577	14917.14
876.896	14864.93
877.214	14884.82
877.533	14906.51
877.852	14840.3
878.17	14832.17
878.489	14760.3
878.807	14747.42
879.125	14720.08
879.444	14738.84
879.762	14683.02
880.08	14720.31
880.398	14580.2
880.716	14580.87
881.034	14446.41
881.352	14520.31
881.67	14485.28
881.988	14489.58
882.306	14453.42
882.624	14335.68
882.941	14359.86
883.259	14339.3
883.577	14318.28
883.894	14273.31
884.212	14189.7
884.529	14225.63
884.846	14122.58
885.164	14135.69
885.481	14111.73
885.798	14070.6
886.115	14048.68
886.432	13995.13
886.75	13987.44
887.067	13963.04
887.383	13851.63
887.7	13914
888.017	13779.76
888.334	13798.97
888.651	13747
888.967	13806.66
889.284	13712.87
889.6	13707.45
889.917	13566.89
890.233	13617.28
890.55	13562.14
890.866	13468.13
891.182	13405.54
891.498	13415.03
891.815	13290.06
892.131	13299.1
892.447	13363.05
892.763	13179.1
893.079	13108.82
893.395	13224.3
893.71	13051.65
894.026	13008.94
894.342	13059.56
894.657	12979.11
894.973	12923.06
895.289	12888.26
895.604	12935.27
895.92	12763.52
896.235	12773.01
896.55	12796.97
896.865	12690.75
897.181	12648.72
897.496	12693.92
897.811	12595.39
898.126	12573.24
898.441	12476.07
898.756	12398.56
899.071	12460.25
899.386	12432.46
899.7	12318.79
900.015	12243.08
900.33	12150.88
900.644	12112.46
900.959	12174.38
901.273	12068.85
901.588	12012.81
901.902	12012.13
902.216	11965.58
902.531	11937.55
902.845	11794.73
903.159	11745.47
903.473	11742.3
903.787	11723.32
904.101	11651.01
904.415	11588.18
904.729	11605.81
905.042	11555.64
905.356	11445.36
905.67	11455.53
905.984	11370.34
906.297	11386.83
906.611	11252.6
906.924	11236.78
907.237	11281.3
907.551	11203.79
907.864	11171.92
908.177	11158.14
908.491	11076.79
908.804	10986.62
909.117	10947.52
909.43	10859.39
909.743	10881.31
910.056	10843.8
910.368	10758.38
910.681	10734.87
910.994	10676.12
911.307	10627.31
911.619	10560.41
911.932	10496.69
912.244	10517.48
912.557	10496.01
912.869	10398.61
913.181	10337.37
913.494	10341.21
913.806	10278.61
914.118	10232.97
914.43	10174.89
914.742	10170.14
915.054	10126.75
915.366	10070.48
915.678	10063.7
915.99	10077.26
916.302	9959.3
916.613	9861.68
916.925	9871.84
917.236	9850.15
917.548	9734.67
917.859	9786.65
918.171	9694
918.482	9624.39
918.794	9604.06
919.105	9577.39
919.416	9496.26
919.727	9533.1
920.038	9485.87
920.349	9427.11
920.66	9416.26
920.971	9384.4
921.282	9255.59
921.593	9211.3
921.903	9211.3
922.214	9195.03
922.525	9133.79
922.835	9125.65
923.146	9017.4
923.456	9028.7
923.767	8931.76
924.077	8942.15
924.387	8820.35
924.697	8829.61
925.008	8838.2
925.318	8841.14
925.628	8761.59
925.938	8749.84
926.248	8639.79
926.558	8625.1
926.867	8567.02
927.177	8583.52
927.487	8546.68
927.796	8441.83
928.106	8440.47
928.416	8410.64
928.725	8343.52
929.034	8291.1
929.344	8318.89
929.653	8256.97
929.962	8227.37
930.271	8172.45
930.581	8136.07
930.89	8087.94
931.199	8060.14
931.508	8025.34
931.817	8019.46
932.125	7922.29
932.434	7974.49
932.743	7845.68
933.051	7876.42
933.36	7821.05
933.669	7779.7
933.977	7713.26
934.286	7742.64
934.594	7785.35
934.902	7661.73
935.21	7562.98
935.519	7609.76
935.827	7575.41
936.135	7505.58
936.443	7414.96
936.751	7526.37
937.059	7421.97
937.367	7320.5
937.674	7368.41
937.982	7296.09
938.29	7264.68
938.597	7300.61
938.905	7227.62
939.213	7155.53
939.52	7146.49
939.827	7143.33
940.135	7089.09
940.442	7054.07
940.749	6993.5
941.056	6983.79
941.363	6962.99
941.67	6932.04
941.977	6878.93
942.284	6800.74
942.591	6845.26
942.898	6816.33
943.205	6771.14
943.511	6735.66
943.818	6678.03
944.125	6683
944.431	6637.13
944.738	6576.11
945.044	6588.32
945.35	6586.73
945.657	6572.5
945.963	6542.21
946.269	6466.06
946.575	6445.49
946.881	6426.74
947.187	6431.48
947.493	6342.45
947.799	6358.94
948.105	6273.75
948.41	6229.23
948.716	6276.69
949.022	6240.98
949.327	6180.42
949.633	6192.85
949.938	6128.67
950.244	6144.94
950.549	6038.05
950.854	6039.4
951.16	6046.18
951.465	5993.08
951.77	5988.11
952.075	5928.9
952.38	5908.79
952.685	5935.45
952.99	5867.66
953.294	5854.1
953.599	5803.25
953.904	5777.04
954.209	5753.76
954.513	5713.99
954.818	5698.62
955.122	5681.22
955.426	5591.51
955.731	5648.23
956.035	5578.4
956.339	5585.4
956.643	5551.51
956.948	5556.93
957.252	5501.79
957.556	5500.43
957.86	5364.39
958.163	5439.42
958.467	5388.35
958.771	5399.19
959.075	5378.4
959.378	5345.41
959.682	5338.18
959.985	5250.72
960.289	5258.63
960.592	5229.26
960.896	5247.11
961.199	5217.96
961.502	5166.43
961.805	5168.24
962.108	5087.11
962.411	5060.22
962.714	5014.57
963.017	5026.77
963.32	5016.61
963.623	5009.15
963.926	5014.8
964.228	4975.48
964.531	4913.11
964.833	4894.57
965.136	4905.42
965.438	4878.3
965.741	4821.81
966.043	4797.4
966.345	4816.84
966.648	4786.78
966.95	4716.95
967.252	4754.47
967.554	4723.73
967.856	4698.42
968.158	4645.54
968.46	4632.21
968.761	4573.45
969.063	4606.67
969.365	4603.96
969.666	4567.58
969.968	4538.65
970.269	4530.29
970.571	4492.1
970.872	4500.01
971.174	4478.54
971.475	4457.52
971.776	4391.54
972.077	4392.89
972.378	4329.17
972.679	4388.37
972.98	4347.24
973.281	4313.57
973.582	4353.12
973.883	4251.88
974.183	4280.13
974.484	4244.65
974.785	4201.71
975.085	4228.6
975.386	4183.41
975.686	4173.24
975.986	4158.55
976.287	4109.96
976.587	4099.34
976.887	4122.17
977.187	4022.73
977.487	4042.39
977.787	4026.57
978.087	4031.09
978.387	4024.09
978.687	3970.53
978.987	3945.9
979.286	3919.69
979.586	3908.39
979.885	3943.87
980.185	3889.86
980.484	3826.58
980.784	3820.25
981.083	3810.31
981.382	3831.1
981.682	3838.78
981.981	3774.83
982.28	3741.16
982.579	3737.09
982.878	3718.79
983.177	3701.61
983.475	3689.86
983.774	3639.01
984.073	3672.46
984.372	3591.78
984.67	3622.07
984.969	3599.92
985.267	3605.57
985.566	3581.39
985.864	3526.02
986.162	3538.9
986.461	3538.45
986.759	3493.48
987.057	3476.76
987.355	3486.02
987.653	3465.91
987.951	3454.16
988.249	3403.54
988.547	3399.7
988.844	3389.98
989.142	3366.48
989.44	3373.26
989.737	3345.91
990.035	3308.85
990.332	3333.71
990.63	3316.54
990.927	3245.8
991.224	3281.28
991.521	3248.74
991.819	3234.73
992.116	3216.43
992.413	3250.1
992.71	3213.94
993.006	3142.3
993.303	3182.53
993.6	3147.95
993.897	3139.59
994.193	3094.4
994.49	3120.61
994.787	3095.98
995.083	3053.04
995.379	3050.56
995.676	3048.75
995.972	2998.35
996.268	3001.97
996.565	2979.37
996.861	2973.5
997.157	2962.87
997.453	2963.55
997.749	2907.28
998.044	2936.66
998.34	2875.87
998.636	2870.9
998.932	2865.25
999.227	2854.85
999.523	2802.43
999.818	2808.53
1000.114	2789.77
1000.409	2778.02
1000.704	2757.68
1001	2751.58
1001.295	2724.01
1001.59	2700.06
1001.885	2726.5
1002.18	2690.56
1002.475	2646.5
1002.77	2646.72
1003.065	2627.29
1003.359	2651.92
1003.654	2588.42
1003.949	2603.11
1004.243	2609.21
1004.538	2553.85
1004.832	2563.34
1005.127	2539.61
1005.421	2557.46
1005.715	2502.1
1006.009	2453.28
1006.304	2445.6
1006.598	2446.73
1006.892	2453.06
1007.186	2461.87
1007.48	2405.37
1007.773	2375.54
1008.067	2393.62
1008.361	2361.99
1008.655	2355.43
1008.948	2349.78
1009.242	2346.62
1009.535	2307.98
1009.829	2319.73
1010.122	2284.93
1010.415	2265.72
1010.708	2244.93
1011.001	2252.61
1011.295	2229.33
1011.588	2206.74
1011.881	2214.42
1012.173	2197.92
1012.466	2178.71
1012.759	2174.87
1013.052	2128.77
1013.344	2142.33
1013.637	2129.9
1013.93	2111.15
1014.222	2101.2
1014.514	2082.45
1014.807	2075.21
1015.099	2073.63
1015.391	2035.44
1015.683	2030.47
1015.976	2037.7
1016.268	2015.33
1016.56	1976.91
1016.851	1956.57
1017.143	1957.48
1017.435	1961.54
1017.727	1907.31
1018.018	1928.55
1018.31	1916.8
1018.602	1888.33
1018.893	1887.2
1019.185	1919.96
1019.476	1874.54
1019.767	1882
1020.058	1869.8
1020.35	1828.89
1020.641	1828.44
1020.932	1817.14
1021.223	1778.05
1021.514	1753.87
1021.804	1767.88
1022.095	1729.91
1022.386	1778.95
1022.677	1727.88
1022.967	1724.26
1023.258	1717.48
1023.548	1731.72
1023.839	1677.48
1024.129	1692.4
1024.419	1640.42
1024.709	1633.64
1025	1642.23
1025.29	1604.04
1025.58	1623.25
1025.87	1606.75
1026.16	1606.75
1026.449	1550.03
1026.739	1568.56
1027.029	1547.54
1027.319	1540.31
1027.608	1558.84
1027.898	1532.86
1028.187	1532.4
1028.477	1515.45
1028.766	1505.06
1029.055	1488.79
1029.344	1471.16
1029.634	1433.87
1029.923	1455.8
1030.212	1447.21
1030.501	1428.23
1030.79	1438.85
1031.078	1419.41
1031.367	1430.71
1031.656	1370.37
1031.945	1376.48
1032.233	1392.07
1032.522	1350.71
1032.81	1364.27
1033.099	1355.01
1033.387	1337.61
1033.675	1336.93
1033.963	1323.82
1034.251	1309.81
1034.54	1284.5
1034.828	1320.43
1035.116	1294.44
1035.403	1269.59
1035.691	1249.02
1035.979	1240.66
1036.267	1269.81
1036.554	1248.12
1036.842	1229.81
1037.129	1220.77
1037.417	1237.04
1037.704	1235.69
1037.992	1199.08
1038.279	1178.97
1038.566	1189.59
1038.853	1189.59
1039.14	1189.59
