Data from whiteboard_FLMS001491_00096.txt Node
Date: Wed Feb 08 11:28:45 GMT 2017
User: dcchb
Spectrometer: FLMS00149
Trigger mode: 0
Integration Time (sec): 2.000000E-2
Scans to average: 10
Electric dark correction enabled: true
Nonlinearity correction enabled: false
Boxcar width: 0
XAxis mode: Wavelengths
Number of Pixels in Spectrum: 2048
>>>>>Begin Spectral Data<<<<<
341.393	-14.58
341.776	-14.58
342.16	-14.58
342.543	-38.53
342.927	-58.42
343.31	-67.68
343.693	-58.87
344.077	-51.86
344.46	-57.06
344.843	-64.29
345.226	-40.11
345.61	-37.4
345.993	-23.16
346.376	-13.67
346.759	5.99
347.142	45.99
347.525	41.69
347.908	58.64
348.291	86.89
348.674	71.3
349.057	103.61
349.44	119.21
349.823	136.61
350.206	161.69
350.588	219.99
350.971	226.32
351.354	253.67
351.737	255.47
352.119	283.72
352.502	274.91
352.884	294.79
353.267	299.54
353.65	320.78
354.032	328.69
354.414	338.41
354.797	345.41
355.179	344.74
355.562	351.52
355.944	361.69
356.326	350.39
356.709	377.5
357.091	368.01
357.473	360.78
357.855	364.4
358.238	374.79
358.62	370.27
359.002	390.39
359.384	393.32
359.766	388.35
360.148	382.02
360.53	368.69
360.912	384.06
361.294	385.87
361.676	367.33
362.057	363.04
362.439	381.8
362.821	370.5
363.203	356.71
363.584	382.02
363.966	370.05
364.348	379.09
364.729	378.41
365.111	368.01
365.493	365.08
365.874	361.46
366.256	376.83
366.637	366.88
367.019	353.78
367.4	376.15
367.781	346.54
368.163	349.71
368.544	383.38
368.925	354.91
369.306	382.48
369.688	379.76
370.069	355.58
370.45	368.46
370.831	380.44
371.212	361.01
371.593	370.95
371.974	400.1
372.355	358.3
372.736	399.2
373.117	385.41
373.498	373.89
373.879	388.58
374.26	383.38
374.641	377.05
375.021	380.89
375.402	370.5
375.783	415.92
376.163	390.39
376.544	417.05
376.925	405.3
377.305	403.72
377.686	405.53
378.066	399.42
378.447	396.49
378.827	415.7
379.208	415.92
379.588	415.24
379.968	420.89
380.349	414.11
380.729	429.25
381.109	429.48
381.489	421.8
381.87	425.86
382.25	429.48
382.63	434.45
383.01	426.99
383.39	437.84
383.77	429.93
384.15	441.01
384.53	444.17
384.91	468.12
385.29	481
385.67	453.89
386.049	497.28
386.429	436.94
386.809	464.96
387.189	463.83
387.568	481
387.948	473.77
388.328	481.91
388.707	470.84
389.087	494.79
389.466	511.96
389.846	499.31
390.225	499.99
390.605	513.77
390.984	506.99
391.363	510.83
391.743	519.87
392.122	531.85
392.501	544.05
392.881	542.25
393.26	570.49
393.639	545.18
394.018	599.42
394.397	549.25
394.776	590.38
395.155	589.48
395.534	605.07
395.913	608.01
396.292	617.95
396.671	610.94
397.05	612.53
397.429	634.22
397.808	661.79
398.186	652.53
398.565	644.62
398.944	678.29
399.323	682.81
399.701	689.13
400.08	693.88
400.458	734.78
400.837	721
401.215	742.69
401.594	757.16
401.972	764.84
402.351	794.22
402.729	801.67
403.107	826.53
403.486	806.65
403.864	846.64
404.242	839.19
404.62	861.33
404.999	855.01
405.377	863.14
405.755	906.98
406.133	909.02
406.511	939.3
406.889	963.93
407.267	976.81
407.645	994.66
408.023	1026.98
408.401	1034.21
408.779	1054.77
409.156	1083.47
409.534	1077.37
409.912	1120.08
410.29	1138.39
410.667	1167.31
411.045	1171.16
411.422	1205.05
411.8	1228.56
412.178	1241.21
412.555	1264.03
412.933	1279.85
413.31	1311.72
413.687	1324.15
414.065	1368.89
414.442	1383.13
414.819	1374.54
415.197	1407.76
415.574	1434.43
415.951	1456.8
416.328	1478.04
416.705	1495.89
417.082	1524.82
417.46	1518.94
417.837	1543.12
418.214	1581.09
418.591	1593.29
418.967	1598.94
419.344	1648.66
419.721	1646.17
420.098	1677.36
420.475	1695.21
420.852	1732.04
421.228	1720.29
421.605	1750.8
421.982	1778.82
422.358	1800.07
422.735	1851.14
423.111	1854.98
423.488	1880.97
423.864	1862.66
424.241	1896.33
424.617	1927.75
424.994	1945.15
425.37	1964.36
425.746	1983.34
426.123	2003.68
426.499	2010.91
426.875	2097.68
427.251	2085.93
427.627	2129.32
428.003	2158.02
428.379	2215.65
428.756	2203.67
429.132	2257.91
429.507	2285.48
429.883	2297.23
430.259	2361.63
430.635	2405.47
431.011	2395.3
431.387	2466.04
431.763	2475.75
432.138	2511.69
432.514	2574.96
432.89	2609.76
433.265	2658.57
433.641	2654.05
434.016	2708.52
434.392	2751.68
434.767	2787.61
435.143	2796.65
435.518	2815.63
435.894	2835.52
436.269	2871.9
436.644	2948.06
437.02	2948.28
437.395	2975.18
437.77	3047.26
438.145	3053.37
438.52	3066.25
438.895	3154.83
439.271	3136.08
439.646	3217.88
440.021	3241.16
440.395	3293.13
440.77	3263.08
441.145	3315.28
441.52	3356.18
441.895	3369.74
442.27	3404.77
442.645	3409.06
443.019	3471.21
443.394	3418.1
443.769	3562.51
444.143	3486.8
444.518	3574.26
444.892	3533.81
445.267	3590.08
445.641	3636.63
446.016	3710.3
446.39	3700.35
446.764	3705.78
447.139	3679.34
447.513	3726.34
447.887	3769.51
448.262	3791.88
448.636	3789.39
449.01	3856.06
449.384	3920.24
449.758	3937.64
450.132	3963.17
450.506	3997.52
450.88	4037.29
451.254	4042.49
451.628	4098.54
452.002	4137.86
452.376	4176.73
452.75	4264.41
453.123	4246.33
453.497	4331.3
453.871	4372.65
454.244	4436.61
454.618	4460.33
454.992	4606.77
455.365	4559.99
455.739	4696.94
456.112	4767.67
456.486	4792.08
456.859	4793.21
457.232	4963.15
457.606	4961.56
457.979	4973.32
458.352	5138.73
458.725	5173.99
459.099	5209.47
459.472	5298.96
459.845	5362.68
460.218	5384.83
460.591	5501.66
460.964	5487.65
461.337	5689.68
461.71	5696.46
462.083	5765.84
462.456	5791.37
462.829	5843.12
463.201	5943.23
463.574	5960.41
463.947	6089.9
464.32	6157.01
464.692	6274.3
465.065	6284.92
465.438	6352.04
465.81	6483.33
466.183	6513.84
466.555	6724.46
466.928	6710.22
467.3	6705.47
467.672	6800.39
468.045	7037.22
468.417	7020.27
468.789	7108.63
469.161	7172.35
469.534	7331.9
469.906	7525.11
470.278	7536.64
470.65	7601.95
471.022	7844.88
471.394	7966.01
471.766	8019.56
472.138	8081.93
472.51	8294.36
472.882	8462.26
473.253	8544.52
473.625	8651.64
473.997	8790.39
474.369	8795.36
474.74	8957.39
475.112	9148.12
475.484	9278.29
475.855	9420.66
476.227	9557.83
476.598	9782
476.97	9845.05
477.341	10081.88
477.713	10210.01
478.084	10269.22
478.455	10588.99
478.827	10585.6
479.198	10979.26
479.569	11026.94
479.94	11381.73
480.311	11387.38
480.682	11728.17
481.053	11969.97
481.424	12149.85
481.795	12227.59
482.166	12461.03
482.537	12638.65
482.908	12948.93
483.279	13042.48
483.65	13388.69
484.021	13543.94
484.391	13739.41
484.762	13804.5
485.133	13947.99
485.503	14224.82
485.874	14542.33
486.244	14716.11
486.615	14935.09
486.985	15086.04
487.356	15349.09
487.726	15538.91
488.097	15813.93
488.467	15785.23
488.837	16167.37
489.207	16407.82
489.578	16632.67
489.948	16801.25
490.318	16999.89
490.688	17132.32
491.058	17267.68
491.428	17528.24
491.798	17606.88
492.168	18038.06
492.538	17968.23
492.908	18265.62
493.278	18505.62
493.648	18598.27
494.017	18810.47
494.387	18997.13
494.757	19075.77
495.126	19366.16
495.496	19449.09
495.866	19627.39
496.235	19850.89
496.605	19992.58
496.974	20129.75
497.344	20413.36
497.713	20569.74
498.082	20589.4
498.452	20866.68
498.821	20982.61
499.19	21045.21
499.559	21393.67
499.928	21373.79
500.298	21650.17
500.667	21844.96
501.036	21799.77
501.405	22049.25
501.774	22108.68
502.143	22337.15
502.512	22380.09
502.88	22607.88
503.249	22597.48
503.618	22777.59
503.987	22812.17
504.356	23078.83
504.724	23187.3
505.093	23372.15
505.462	23361.76
505.83	23620.51
506.199	23783.67
506.567	23957.68
506.936	24097.11
507.304	24318.57
507.672	24381.62
508.041	24541.84
508.409	24627.71
508.777	24799.01
509.145	24981.15
509.514	25094.82
509.882	25271.76
510.25	25449.61
510.618	25552.21
510.986	25671.3
511.354	25959.88
511.722	26173.44
512.09	26567.32
512.458	26495.91
512.826	26758.28
513.193	26912.63
513.561	26962.34
513.929	27151.04
514.297	27504.02
514.664	27787.4
515.032	27888.19
515.4	28105.14
515.767	28244.57
516.135	28429.42
516.502	28286.6
516.869	28920.03
517.237	29044.1
517.604	28998.22
517.972	29413.35
518.339	29574.48
518.706	29651.54
519.073	29810.18
519.44	29968.82
519.808	30357.73
520.175	30304.85
520.542	30683.37
520.909	30700.1
521.276	30852.86
521.643	31096.92
522.009	31306.18
522.376	31634.99
522.743	31728.09
523.11	31884.25
523.477	32307.29
523.843	32515.42
524.21	32747.73
524.577	32994.05
524.943	33067.72
525.31	33190.88
525.676	33514.26
526.043	33831.54
526.409	33983.85
526.776	34278.99
527.142	34351.07
527.508	34640.56
527.874	34862.47
528.241	35162.58
528.607	35171.39
528.973	35536.81
529.339	35603.7
529.705	36049.11
530.071	36463.11
530.437	36516.67
530.803	36672.6
531.169	36983.77
531.535	36842.99
531.901	37152.81
532.267	37542.63
532.632	37703.98
532.998	37837.54
533.364	38034.82
533.73	38306.22
534.095	38394.36
534.461	38607.01
534.826	38778.53
535.192	38921.58
535.557	39272.07
535.923	39284.73
536.288	39435.46
536.653	39765.85
537.019	39579.41
537.384	39764.72
537.749	39941.89
538.114	39914.54
538.479	39986.18
538.845	40216
539.21	40256.46
539.575	40434.08
539.94	40400.41
540.305	40580.74
540.67	40602.21
541.034	40786.16
541.399	40960.17
541.764	40968.98
542.129	41083.1
542.494	41247.62
542.858	41205.13
543.223	41432.7
543.587	41554.27
543.952	41646.7
544.316	41765.12
544.681	41783.42
545.045	41990.65
545.41	42347.93
545.774	42312.22
546.138	42455.04
546.503	42573.23
546.867	42624.53
547.231	43008.25
547.595	43156.72
547.959	43295.92
548.324	43356.26
548.688	43684.16
549.052	43678.96
549.416	43887.32
549.779	43918.51
550.143	44203.47
550.507	44479.17
550.871	44692.27
551.235	44690.46
551.599	44970.68
551.962	44996.22
552.326	45035.76
552.689	45479.82
553.053	45457.22
553.417	45397.34
553.78	46050.2
554.143	45681.62
554.507	46121.84
554.87	46180.37
555.234	46478.66
555.597	46339.46
555.96	46412.45
556.323	46743.52
556.686	46603.86
557.05	47100.8
557.413	47148.48
557.776	47187.57
558.139	47383.27
558.502	47413.56
558.865	47448.13
559.228	47689.71
559.59	47686.54
559.953	47785.52
560.316	48180.32
560.679	48220.31
561.041	48377.37
561.404	48584.37
561.767	48735.78
562.129	48615.33
562.492	49087.86
562.854	48823.01
563.217	49099.84
563.579	49174.41
563.941	49463.22
564.304	49615.76
564.666	49713.83
565.028	49791.12
565.39	49889.2
565.753	49992.02
566.115	50164.44
566.477	50405.57
566.839	50506.36
567.201	50827.03
567.563	50881.26
567.925	51152.67
568.287	51247.13
568.648	51290.29
569.01	51532.77
569.372	51789.71
569.734	51697.28
570.095	51979.76
570.457	52150.83
570.819	52243.49
571.18	52205.07
571.542	52493.2
571.903	52441.67
572.265	52722.34
572.626	52784.71
572.987	52871.94
573.349	52924.15
573.71	53105.16
574.071	53121.65
574.432	53182.44
574.794	53495.88
575.155	53390.57
575.516	53413.4
575.877	53654.07
576.238	53605.94
576.599	53766.16
576.96	53776.55
577.32	53779.49
577.681	53827.85
578.042	53830.34
578.403	53849.32
578.763	53784.46
579.124	53888.41
579.485	53924.57
579.845	54053.83
580.206	53944.46
580.566	53913.95
580.927	53940.62
581.287	53966.6
581.648	53766.61
582.008	53956.66
582.368	53913.72
582.728	53903.33
583.089	53902.65
583.449	53879.15
583.809	53882.31
584.169	54002.31
584.529	53859.94
584.889	54052.25
585.249	53822.2
585.609	53917.79
585.969	53972.25
586.329	54021.29
586.688	53951.01
587.048	54076.88
587.408	54000.95
587.768	54054.06
588.127	54075.75
588.487	54069.2
588.846	54218.8
589.206	54002.99
589.565	54128.63
589.925	54268.97
590.284	54229.42
590.643	54373.82
591.003	54501.73
591.362	54522.07
591.721	54519.36
592.08	54542.41
592.44	54661.27
592.799	54728.39
593.158	54618.34
593.517	54658.79
593.876	54782.63
594.235	54702.4
594.593	54800.93
594.952	54842.06
595.311	54722.52
595.67	54764.1
596.029	54975.84
596.387	54904.21
596.746	55054.03
597.104	54812.01
597.463	54854.72
597.822	54894.71
598.18	54854.04
598.538	54801.84
598.897	55014.49
599.255	54759.8
599.613	55104.88
599.972	54890.2
600.33	54991.89
600.688	54776.53
601.046	54907.82
601.404	54919.35
601.762	54860.37
602.12	54957.99
602.478	54946.92
602.836	54881.83
603.194	54704.66
603.552	54769.29
603.91	54660.14
604.268	54776.75
604.625	54654.95
604.983	54768.84
605.341	54557.77
605.698	54668.96
606.056	54727.49
606.413	54652.46
606.771	54761.38
607.128	54787.37
607.485	54693.36
607.843	54675.51
608.2	54857.43
608.557	54902.62
608.914	54814.72
609.272	54936.52
609.629	54983.98
609.986	55110.3
610.343	54975.16
610.7	55248.38
611.057	55177.87
611.414	55150.53
611.771	55311.2
612.127	55308.49
612.484	55365.21
612.841	55533.12
613.198	55417.86
613.554	55469.16
613.911	55665.54
614.267	55589.16
614.624	55623.96
614.98	55689.95
615.337	55837.29
615.693	55919.32
616.05	55842.03
616.406	56090.16
616.762	56009.26
617.118	56051.75
617.475	56087
617.831	56158.41
618.187	56220.56
618.543	56183.72
618.899	56354.34
619.255	56208.58
619.611	56156.15
619.967	56271.85
620.323	56336.94
620.678	56242.02
621.034	56216.71
621.39	56181.46
621.746	56126.32
622.101	56377.16
622.457	56127.9
622.812	56085.64
623.168	56197.73
623.523	56188.47
623.879	56247.67
624.234	55910.06
624.589	56018.3
624.945	56056.27
625.3	56088.36
625.655	56026.44
626.01	56032.99
626.365	55988.92
626.72	55872.99
627.075	55784.41
627.43	55756.61
627.785	55642.04
628.14	55612.89
628.495	55701.02
628.85	55611.53
629.205	55551.42
629.559	55704.64
629.914	55503.06
630.269	55533.12
630.623	55452.89
630.978	55359.79
631.332	55414.02
631.687	55428.26
632.041	55345.55
632.396	55385.32
632.75	55194.14
633.104	55333.35
633.459	55173.58
633.813	55243.86
634.167	55255.38
634.521	55224.42
634.875	55204.76
635.229	55235.95
635.583	55145.56
635.937	55159.34
636.291	55101.72
636.645	55152.56
636.999	55143.3
637.352	55243.63
637.706	55001.83
638.06	55180.13
638.413	55155.95
638.767	55060.13
639.121	55123.18
639.474	54982.17
639.828	55091.09
640.181	55147.59
640.534	55116.18
640.888	55070.08
641.241	55047.25
641.594	54980.59
641.947	55143.97
642.301	55101.49
642.654	55105.56
643.007	55099
643.36	55055.39
643.713	55026.91
644.066	55170.41
644.419	54926.58
644.771	54800.93
645.124	54424.67
645.477	54380.6
645.83	54249.99
646.182	54135.86
646.535	54093.83
646.888	54137.22
647.24	53901.52
647.593	54168.18
647.945	54087.96
648.298	53844.57
648.65	53722.54
649.002	53575.43
649.355	53736.78
649.707	53617.23
650.059	53687.51
650.411	53989.2
650.763	53949.43
651.115	54216.77
651.467	54025.59
651.819	54021.07
652.171	53867.85
652.523	53791.02
652.875	53869.66
653.227	53721.86
653.578	53893.61
653.93	53721.41
654.282	53565.71
654.633	53582.43
654.985	53601.42
655.337	53519.16
655.688	53394.64
656.039	53536.11
656.391	53156
656.742	53161.88
657.094	53166.62
657.445	53310.12
657.796	53156.91
658.147	53126.4
658.498	53101.77
658.849	53212.5
659.2	53098.38
659.551	52926.63
659.902	53116.23
660.253	53008.21
660.604	53067.87
660.955	52918.72
661.306	52972.96
661.656	53044.37
662.007	52960.98
662.358	52991.71
662.708	53073.07
663.059	53013.63
663.409	52810.93
663.76	53029.23
664.11	53072.16
664.461	53133.41
664.811	53111.03
665.161	53118.49
665.511	53014.54
665.862	52990.58
666.212	53165.49
666.562	53135.67
666.912	53011.37
667.262	53052.28
667.612	53006.4
667.962	53092.05
668.312	52973.64
668.662	53199.39
669.011	53083.69
669.361	53171.37
669.711	53097.02
670.06	53049.11
670.41	52940.64
670.76	52959.62
671.109	53161.43
671.459	53034.88
671.808	52894.54
672.157	53031.94
672.507	52845.5
672.856	52849.8
673.205	52893.86
673.554	53001.66
673.904	52854.99
674.253	52884.37
674.602	52794.88
674.951	52274.9
675.3	52163.49
675.649	52684.83
675.998	52592.4
676.346	52658.84
676.695	52675.34
677.044	52410.94
677.393	52520.31
677.741	52434.89
678.09	52405.97
678.438	52307.66
678.787	52387.44
679.135	52236.48
679.484	52015.24
679.832	52131.62
680.181	51889.6
680.529	51989.93
680.877	51858.64
681.225	51636.27
681.573	51716.27
681.922	51572.32
682.27	51450.96
682.618	51391.3
682.966	51270.4
683.314	51371.42
683.661	51210.97
684.009	51128.03
684.357	50902.05
684.705	50909.51
685.053	50877.42
685.4	50886.68
685.748	50616.86
686.095	50563.76
686.443	50408.96
686.79	50375.51
687.138	50453.7
687.485	50366.47
687.832	50204.89
688.18	50319.02
688.527	50146.37
688.874	50058.46
689.221	49988.4
689.568	49878.12
689.915	49801.97
690.262	49685.36
690.609	49645.59
690.956	49513.16
691.303	49395.65
691.65	49174.64
691.997	49384.58
692.344	49166.5
692.69	49068.65
693.037	49133.06
693.383	48766.29
693.73	48959.05
694.077	48620.08
694.423	48701.43
694.769	48541.21
695.116	48493.08
695.462	48579.17
695.808	48405.39
696.155	48421.21
696.501	48142.35
696.847	48270.93
697.193	48047.21
697.539	48044.95
697.885	47892.64
698.231	47814.9
698.577	47943.94
698.923	47716.6
699.269	47553.44
699.614	47370.62
699.96	47274.12
700.306	47382.37
700.651	47226.89
700.997	47066.45
701.342	47094.02
701.688	47019.67
702.033	46864.42
702.379	46941.7
702.724	46786
703.069	46881.59
703.415	46390.76
703.76	46392.34
704.105	46414.26
704.45	46250.2
704.795	46164.32
705.14	45905.8
705.485	45980.6
705.83	45901.5
706.175	45903.54
706.52	45746.25
706.865	45608.86
707.209	45368.86
707.554	45265.59
707.899	45272.59
708.243	45116.44
708.588	45048.42
708.932	44753.06
709.277	44709.9
709.621	44784.25
709.966	44336.8
710.31	44477.81
710.654	43963.48
710.998	44024.94
711.342	44103.13
711.687	43968
712.031	43643.94
712.375	43485.98
712.719	43554.45
713.063	43468.35
713.407	43457.05
713.75	43220.9
714.094	43038.08
714.438	42888.93
714.782	42959.21
715.125	42725.32
715.469	42761.25
715.812	42476.74
716.156	42341.15
716.499	42366.91
716.843	42387.25
717.186	42002.62
717.53	41969.4
717.873	42038.78
718.216	42058.89
718.559	41774.61
718.902	41431.57
719.246	41549.53
719.589	41291
719.932	41017.34
720.275	41253.49
720.617	41183.66
720.96	41060.05
721.303	40910.9
721.646	40984.12
721.989	40706.16
722.331	40734.18
722.674	40640.17
723.016	40660.29
723.359	40447.41
723.701	40613.06
724.044	40307.3
724.386	40178.27
724.729	40436.34
725.071	40187.53
725.413	40102.79
725.755	40149.11
726.097	39888.56
726.439	39768.56
726.782	39860.53
727.124	40045.84
727.465	39597.72
727.807	39696.92
728.149	39483.37
728.491	39468.91
728.833	39499.87
729.175	39248.8
729.516	39238.63
729.858	39196.14
730.199	39303.71
730.541	39160.67
730.882	39064.85
731.224	39235.47
731.565	39023.04
731.906	39157.95
732.248	39038.86
732.589	38948.47
732.93	38842.71
733.271	38980.33
733.612	39035.92
733.953	38955.92
734.294	38911.18
734.635	38698.98
734.976	38941.69
735.317	38634.8
735.658	38604.75
735.999	38845.87
736.339	38600
736.68	38623.96
737.021	38554.13
737.361	38289.5
737.702	38444.3
738.042	38335.38
738.383	38313.23
738.723	38267.36
739.063	38220.58
739.404	38255.15
739.744	38077.53
740.084	38061.26
740.424	38098.55
740.764	37942.17
741.104	38008.15
741.444	37675.05
741.784	37689.74
742.124	37713.47
742.464	37643.87
742.804	37623.08
743.143	37492.91
743.483	37507.15
743.823	37348.51
744.162	37195.97
744.502	37254.27
744.841	37087.73
745.181	37195.97
745.52	37062.87
745.86	37049.99
746.199	36858.35
746.538	36752.82
746.877	36844.79
747.216	36747.4
747.556	36630.56
747.895	36558.7
748.234	36565.93
748.573	36305.6
748.911	36273.74
749.25	36337.24
749.589	35993.52
749.928	35955.55
750.267	35987.42
750.605	35813.18
750.944	35760.98
751.283	35558.95
751.621	35534.77
751.96	35332.52
752.298	35225.63
752.636	35197.15
752.975	34959.19
753.313	34753.55
753.651	34948.12
753.989	34728.01
754.327	34774.57
754.666	34413.22
755.004	34437.63
755.342	34380.45
755.679	34244.18
756.017	34019.33
756.355	34128.93
756.693	33858.88
757.031	33886.68
757.368	33646.46
757.706	33570.53
758.044	33527.14
758.381	33459.12
758.719	33175.06
759.056	33290.31
759.394	33172.35
759.731	32825.46
760.068	32856.42
760.405	32699.59
760.743	32604.45
761.08	32736.65
761.417	32618.01
761.754	32517.68
762.091	32452.14
762.428	32307.96
762.765	32136.44
763.102	32324.46
763.438	32062.09
763.775	31846.06
764.112	31912.49
764.449	31897.13
764.785	31663.01
765.122	31519.51
765.458	31381.89
765.795	31355.67
766.131	31382.11
766.467	31128.56
766.804	31122.01
767.14	30959.3
767.476	30990.71
767.812	30835.69
768.148	30840.21
768.485	30781.45
768.821	30645.18
769.157	30507.11
769.492	30421.46
769.828	30494
770.164	30216.27
770.5	30257.85
770.836	30300.11
771.171	29909.84
771.507	29829.84
771.842	29682.27
772.178	29650.18
772.513	29681.59
772.849	29482.95
773.184	29536.74
773.519	29449.96
773.855	29358.44
774.19	29120.03
774.525	29167.71
774.86	29175.17
775.195	28911.44
775.53	28894.27
775.865	28812.24
776.2	28620.83
776.535	28419.93
776.87	28621.73
777.205	28415.64
777.539	28282.76
777.874	28404.11
778.209	28035.76
778.543	28099.04
778.878	27922.32
779.212	27921.41
779.547	27656.33
779.881	27782.21
780.215	27488.43
780.55	27559.84
780.884	27353.97
781.218	27342.22
781.552	27403.46
781.886	27173.18
782.22	26995.56
782.554	26982.45
782.888	26635.12
783.222	26562.35
783.556	26523.94
783.889	26579.3
784.223	26245.3
784.557	26145.64
784.89	26193.77
785.224	25977.28
785.557	25930.73
785.891	25743.16
786.224	25681.92
786.558	25572.1
786.891	25368.49
787.224	25302.72
787.557	25281.48
787.891	25200.35
788.224	25054.82
788.557	25042.62
788.89	24918.1
789.223	24907.71
789.556	24597.21
789.888	24520.6
790.221	24471.33
790.554	24271.57
790.887	24158.12
791.219	24073.15
791.552	24053.72
791.884	23869.54
792.217	23818.47
792.549	23724.46
792.882	23503.68
793.214	23535.54
793.546	23482.43
793.879	23373.06
794.211	23256.68
794.543	23216.45
794.875	22943.46
795.207	23073.63
795.539	22854.2
795.871	22904.82
796.203	22750.25
796.535	22580.31
796.867	22498.96
797.198	22439.75
797.53	22362.91
797.862	22142.81
798.193	22218.06
798.525	22113.2
798.856	22157.95
799.188	21903.27
799.519	21764.96
799.85	21625.76
800.182	21596.83
800.513	21605.65
800.844	21412.43
801.175	21488.59
801.506	21464.18
801.837	21331.08
802.168	21179.22
802.499	21225.09
802.83	20957.3
803.161	20964.99
803.491	20920.69
803.822	20944.42
804.153	20787.59
804.483	20577.43
804.814	20582.85
805.145	20543.53
805.475	20443.42
805.805	20351.67
806.136	20387.37
806.466	20367.94
806.796	20446.13
807.126	20195.74
807.457	20269.18
807.787	20233.71
808.117	20028.29
808.447	20011.79
808.777	20167.49
809.107	19959.59
809.436	19966.14
809.766	19895.41
810.096	19925.69
810.426	19876.43
810.755	19831
811.085	19762.76
811.414	19771.34
811.744	19553.5
812.073	19672.59
812.403	19645.02
812.732	19637.56
813.061	19518.24
813.39	19385.82
813.719	19364.35
814.049	19482.76
814.378	19495.87
814.707	19437.34
815.036	19216.56
815.365	19295.88
815.693	19103.34
816.022	19130.46
816.351	19162.32
816.68	19066.96
817.008	19115.77
817.337	19045.71
817.665	18880.07
817.994	18998.94
818.322	18964.59
818.651	18794.2
818.979	18772.73
819.307	18801.43
819.636	18819.51
819.964	18622.67
820.292	18803.23
820.62	18718.72
820.948	18640.53
821.276	18639.62
821.604	18612.5
821.932	18679.85
822.259	18792.61
822.587	18614.31
822.915	18629
823.243	18650.92
823.57	18585.39
823.898	18618.38
824.225	18558.72
824.553	18638.49
824.88	18492.73
825.207	18659.96
825.535	18627.87
825.862	18647.08
826.189	18612.5
826.516	18677.81
826.843	18657.48
827.17	18577.93
827.497	18640.75
827.824	18594.2
828.151	18602.11
828.478	18455.45
828.805	18566.18
829.131	18390.82
829.458	18566.86
829.785	18347.88
830.111	18355.34
830.438	18378.84
830.764	18447.76
831.09	18396.92
831.417	18331.61
831.743	18367.09
832.069	18395.34
832.395	18302.68
832.722	18269.46
833.048	18119.86
833.374	18192.4
833.7	18085.06
834.026	18067.66
834.351	18278.05
834.677	18097.49
835.003	18043.25
835.329	17976.59
835.654	17951.96
835.98	17947.44
836.306	17858.63
836.631	17764.17
836.956	17810.94
837.282	17779.08
837.607	17675.81
837.932	17624.73
838.258	17623.38
838.583	17615.47
838.908	17504.29
839.233	17401.69
839.558	17466.09
839.883	17329.15
840.208	17249.38
840.533	17339.09
840.858	17289.83
841.182	17299.55
841.507	17218.64
841.832	17157.18
842.156	16992.89
842.481	17007.35
842.805	17020.46
843.13	17013.22
843.454	16861.82
843.778	16839.44
844.103	16775.04
844.427	16704.53
844.751	16773.91
845.075	16683.74
845.399	16622.05
845.723	16501.83
846.047	16368.04
846.371	16288.05
846.695	16300.25
847.019	16184.09
847.343	16082.63
847.666	16009.41
847.99	15878.34
848.313	15946.13
848.637	15850.54
848.96	15781.84
849.284	15729.87
849.607	15593.83
849.931	15537.33
850.254	15473.38
850.577	15408.75
850.9	15285.59
851.223	15275.87
851.546	15237
851.869	15095.08
852.192	15302.99
852.515	15070.9
852.838	15106.83
853.161	15020.73
853.483	14966.73
853.806	14978.02
854.129	14964.47
854.451	14876.56
854.774	14796.11
855.096	14708.88
855.419	14724.92
855.741	14694.42
856.063	14631.14
856.385	14619.84
856.708	14604.7
857.03	14533.74
857.352	14522.22
857.674	14516.34
857.996	14435.21
858.318	14324.48
858.64	14366.06
858.961	14329.68
859.283	14360.19
859.605	14287.19
859.926	14216.01
860.248	14254.65
860.57	14180.98
860.891	14174.43
861.212	14071.16
861.534	14098.73
861.855	14061.66
862.176	14073.87
862.498	14090.14
862.819	14071.83
863.14	13982.8
863.461	14045.39
863.782	13999.29
864.103	14045.39
864.424	14008.11
864.745	14007.88
865.065	13827.32
865.386	13849.24
865.707	13896.7
866.027	13867.77
866.348	13843.14
866.668	13804.95
866.989	13808.11
867.309	13697.38
867.63	13764.95
867.95	13780.32
868.27	13650.6
868.59	13835.46
868.91	13705.97
869.23	13727.44
869.55	13629.81
869.87	13644.05
870.19	13557.27
870.51	13655.57
870.83	13588.91
871.15	13587.55
871.469	13561.34
871.789	13643.37
872.109	13569.47
872.428	13463.71
872.748	13452.19
873.067	13437.95
873.386	13487.22
873.706	13501.9
874.025	13383.94
874.344	13349.37
874.663	13423.49
874.982	13273.44
875.301	13260.78
875.62	13255.58
875.939	13226.43
876.258	13271.4
876.577	13115.93
876.896	13149.82
877.214	13063.27
877.533	13148.02
877.852	13111.41
878.17	13011.52
878.489	13088.58
878.807	13120.67
879.125	12950.05
879.444	12912.09
879.762	12876.84
880.08	12858.31
880.398	12814.92
880.716	12833.9
881.034	12769.95
881.352	12705.99
881.67	12622.15
881.988	12673.23
882.306	12669.84
882.624	12557.52
882.941	12460.58
883.259	12554.36
883.577	12445.66
883.894	12335.16
884.212	12296.74
884.529	12318.66
884.846	12256.74
885.164	12294.93
885.481	12279.11
885.798	12223.97
886.115	12061.04
886.432	12035.95
886.75	11917.99
887.067	11932.68
887.383	11974.71
887.7	11887.94
888.017	11798.22
888.334	11877.54
888.651	11833.93
888.967	11783.98
889.284	11701.73
889.6	11636.64
889.917	11522.52
890.233	11505.8
890.55	11473.26
890.866	11487.27
891.182	11435.07
891.498	11355.97
891.815	11319.59
892.131	11197.78
892.447	11184.9
892.763	11124.79
893.079	11120.72
893.395	11105.13
893.71	11042.31
894.026	11039.14
894.342	10986.94
894.657	10879.37
894.973	10871.69
895.289	10859.26
895.604	10813.84
895.92	10754.18
896.235	10748.98
896.55	10744.24
896.865	10739.72
897.181	10671.02
897.496	10640.74
897.811	10563.23
898.126	10529.1
898.441	10483.91
898.756	10447.52
899.071	10451.59
899.386	10372.72
899.7	10264.02
900.015	10323.01
900.33	10213.63
900.644	10274.19
900.959	10214.53
901.273	10122.78
901.588	10079.85
901.902	10035.1
902.216	9983.13
902.531	9970.7
902.845	9986.97
903.159	9944.94
903.473	9892.96
903.787	9811.15
904.101	9834.43
904.415	9827.88
904.729	9785.17
905.042	9744.26
905.356	9775.9
905.67	9749.69
905.984	9753.98
906.297	9669.24
906.611	9548.56
906.924	9585.85
907.237	9538.62
907.551	9464.27
907.864	9514.21
908.177	9447.77
908.491	9471.28
908.804	9383.6
909.117	9329.81
909.43	9283.03
909.743	9302.47
910.056	9235.12
910.368	9166.2
910.681	9138.63
910.994	9216.14
911.307	9159.42
911.619	9066.54
911.932	9052.98
912.244	9005.75
912.557	9020.89
912.869	8969.37
913.181	8987.22
913.494	8949.71
913.806	8893.66
914.118	8865.64
914.43	8812.54
914.742	8796.72
915.054	8807.34
915.366	8747.45
915.678	8677.17
915.99	8713.33
916.302	8680.56
916.613	8616.84
916.925	8603.28
917.236	8608.25
917.548	8527.8
917.859	8591.75
918.171	8489.61
918.482	8398.54
918.794	8412.32
919.105	8394.69
919.416	8359.44
919.727	8287.58
920.038	8316.96
920.349	8248.03
920.66	8208.26
920.971	8222.04
921.282	8151.31
921.593	8153.57
921.903	8071.99
922.214	8079.67
922.525	8069.51
922.835	8032.22
923.146	7955.84
923.456	7986.34
923.767	7914.93
924.077	7985.21
924.387	7927.36
924.697	7879.23
925.008	7835.39
925.318	7798.1
925.628	7790.42
925.938	7765.11
926.248	7684.88
926.558	7648.5
926.867	7606.47
927.177	7516.75
927.487	7589.07
927.796	7464.1
928.106	7538.22
928.416	7475.85
928.725	7477.66
929.034	7395.62
929.344	7412.12
929.653	7322.63
929.962	7267.49
930.271	7218.68
930.581	7247.83
930.89	7165.35
931.199	7199.47
931.508	7129.19
931.817	7113.6
932.125	7083.09
932.434	7026.82
932.743	6979.82
933.051	6957.22
933.36	6900.5
933.669	6863.44
933.977	6858.46
934.286	6840.16
934.594	6787.96
934.902	6674.74
935.21	6677
935.519	6721.07
935.827	6595.65
936.135	6580.96
936.443	6502.77
936.751	6501.64
937.059	6481.98
937.367	6431.58
937.674	6431.36
937.982	6384.13
938.29	6328.08
938.597	6336.22
938.905	6272.94
939.213	6191.14
939.52	6128.54
939.827	6155.43
940.135	6106.62
940.442	6097.13
940.749	6109.33
941.056	6051.93
941.363	6009.22
941.67	6025.27
941.977	5959.05
942.284	5966.74
942.591	5889.45
942.898	5847.64
943.205	5841.99
943.511	5827.53
943.818	5714.54
944.125	5682.68
944.431	5724.71
944.738	5710.7
945.044	5604.26
945.35	5563.36
945.657	5484.04
945.963	5565.84
946.269	5508.67
946.575	5520.65
946.881	5408.11
947.187	5437.26
947.493	5376.47
947.799	5322.68
948.105	5352.29
948.41	5239.07
948.716	5320.2
949.022	5225.96
949.327	5228.9
949.633	5163.37
949.938	5176.7
950.244	5192.07
950.549	5077.04
950.854	5115.91
951.16	5106.42
951.465	5005.63
951.77	5012.86
952.075	4986.42
952.38	4979.42
952.685	4978.29
952.99	4906.88
953.294	4927.22
953.599	4790.27
953.904	4830.49
954.209	4795.69
954.513	4772.64
954.818	4778.07
955.122	4744.17
955.426	4700.1
955.731	4692.42
956.035	4656.26
956.339	4681.35
956.643	4675.02
956.948	4634.12
957.252	4617.17
957.556	4580.33
957.86	4567.22
958.163	4552.99
958.467	4487.45
958.771	4464.63
959.075	4491.07
959.378	4447.91
959.682	4450.39
959.985	4442.48
960.289	4409.26
960.592	4417.85
960.896	4312.99
961.199	4383.95
961.502	4310.28
961.805	4289.94
962.108	4269.38
962.411	4263.05
962.714	4220.12
963.017	4247.68
963.32	4238.19
963.623	4196.39
963.926	4157.52
964.228	4114.81
964.531	4097.86
964.833	4125.43
965.136	4093.56
965.438	4067.12
965.741	4083.4
966.043	4056.96
966.345	4058.31
966.648	4052.44
966.95	4044.75
967.252	4005.21
967.554	3989.16
967.856	3945.55
968.158	3958.65
968.46	3967.69
968.761	3955.72
969.063	3896.51
969.365	3869.39
969.666	3924.3
969.968	3860.58
970.269	3877.53
970.571	3873.46
970.872	3849.28
971.174	3807.7
971.475	3844.31
971.776	3828.49
972.077	3808.6
972.378	3790.52
972.679	3771.54
972.98	3756.4
973.281	3754.14
973.582	3730.41
973.883	3751.88
974.183	3709.62
974.484	3677.76
974.785	3679.34
975.085	3669.17
975.386	3672.78
975.686	3638.89
975.986	3666.01
976.287	3661.03
976.587	3606.35
976.887	3596.18
977.187	3619
977.487	3546.46
977.787	3568.38
978.087	3544.88
978.387	3559.57
978.687	3540.13
978.987	3512.11
979.286	3536.97
979.586	3518.21
979.885	3441.83
980.185	3407.71
980.484	3431.21
980.784	3393.92
981.083	3397.54
981.382	3381.72
981.682	3369.52
981.981	3374.26
982.28	3361.38
982.579	3325.9
982.878	3351.21
983.177	3324.09
983.475	3305.34
983.774	3281.61
984.073	3256.98
984.372	3254.26
984.67	3225.56
984.969	3200.25
985.267	3198.22
985.566	3169.75
985.864	3173.14
986.162	3172.46
986.461	3206.81
986.759	3160.03
987.057	3099.24
987.355	3111.67
987.653	3105.12
987.951	3086.13
988.249	3072.35
988.547	3071.22
988.844	3050.2
989.142	2998.45
989.44	2979.24
989.737	2978.11
990.035	2953.26
990.332	2983.76
990.63	2944.22
990.927	2945.8
991.224	2958
991.521	2960.04
991.819	2901.96
992.116	2868.74
992.413	2836.42
992.71	2859.02
993.006	2830.55
993.303	2828.74
993.6	2822.41
993.897	2804.11
994.193	2789.64
994.49	2803.43
994.787	2779.93
995.083	2729.76
995.379	2724.56
995.676	2703.32
995.972	2694.73
996.268	2690.21
996.565	2660.61
996.861	2655.18
997.157	2636.2
997.453	2605.24
997.749	2613.15
998.044	2606.82
998.34	2604.56
998.636	2555.07
998.932	2543.77
999.227	2532.7
999.523	2498.58
999.818	2478.92
1000.114	2457.22
1000.409	2489.54
1000.704	2471.46
1001	2467.17
1001.295	2432.14
1001.59	2419.94
1001.885	2428.52
1002.18	2365.7
1002.475	2336.77
1002.77	2299.49
1003.065	2314.63
1003.359	2323.67
1003.654	2275.31
1003.949	2272.14
1004.243	2241.18
1004.538	2219.94
1004.832	2188.98
1005.127	2206.61
1005.421	2202.54
1005.715	2182.43
1006.009	2181.98
1006.304	2150.11
1006.598	2144.92
1006.892	2121.41
1007.186	2100.85
1007.48	2136.78
1007.773	2073.96
1008.067	2092.04
1008.361	2067.4
1008.655	2068.08
1008.948	2038.7
1009.242	2014.98
1009.535	2026.95
1009.829	1968.2
1010.122	1973.39
1010.415	1947.41
1010.708	1929.1
1011.001	1928.2
1011.295	1927.97
1011.588	1892.94
1011.881	1872.61
1012.173	1853.62
1012.466	1878.93
1012.759	1833.51
1013.052	1843.45
1013.344	1828.54
1013.637	1843
1013.93	1774.3
1014.222	1806.39
1014.514	1748.77
1014.807	1733.4
1015.099	1755.77
1015.391	1743.57
1015.683	1753.51
1015.976	1707.86
1016.268	1700.63
1016.56	1693.85
1016.851	1704.7
1017.143	1688.2
1017.435	1684.81
1017.727	1647.75
1018.018	1639.17
1018.31	1629.67
1018.602	1629.9
1018.893	1605.72
1019.185	1578.83
1019.476	1574.76
1019.767	1551.26
1020.058	1562.78
1020.35	1557.36
1020.641	1502.22
1020.932	1502.9
1021.223	1532.73
1021.514	1515.78
1021.804	1485.27
1022.095	1464.48
1022.386	1470.58
1022.677	1449.34
1022.967	1459.74
1023.258	1421.77
1023.548	1435.1
1023.839	1410.47
1024.129	1421.77
1024.419	1395.78
1024.709	1360.3
1025	1375.9
1025.29	1365.27
1025.58	1351.04
1025.87	1351.26
1026.16	1348.78
1026.449	1347.42
1026.739	1327.08
1027.029	1327.99
1027.319	1316.69
1027.608	1309.91
1027.898	1298.84
1028.187	1294.77
1028.477	1292.51
1028.766	1271.27
1029.055	1262
1029.344	1262.9
1029.634	1248.67
1029.923	1233.98
1030.212	1234.66
1030.501	1254.09
1030.79	1258.16
1031.078	1227.88
1031.367	1222.68
1031.656	1219.52
1031.945	1196.92
1032.233	1212.74
1032.522	1167.99
1032.81	1146.52
1033.099	1171.16
1033.387	1157.82
1033.675	1161.44
1033.963	1165.51
1034.251	1139.07
1034.54	1129.57
1034.828	1128.22
1035.116	1104.49
1035.403	1100.2
1035.691	1106.07
1035.979	1115.79
1036.267	1084.6
1036.554	1082.57
1036.842	1069.24
1037.129	1083.47
1037.417	1066.53
1037.704	1064.49
1037.992	1055.9
1038.279	1050.03
1038.566	1041.22
1038.853	1041.22
1039.14	1041.22
