Data from whiteboard_FLMS001491_00072.txt Node
Date: Wed Feb 08 11:28:02 GMT 2017
User: dcchb
Spectrometer: FLMS00149
Trigger mode: 0
Integration Time (sec): 2.000000E-2
Scans to average: 10
Electric dark correction enabled: true
Nonlinearity correction enabled: false
Boxcar width: 0
XAxis mode: Wavelengths
Number of Pixels in Spectrum: 2048
>>>>>Begin Spectral Data<<<<<
341.393	7.46
341.776	7.46
342.16	7.46
342.543	-73.9
342.927	-62.15
343.31	-67.34
343.693	-49.26
344.077	-60.11
344.46	-68.02
344.843	-39.1
345.226	-44.29
345.61	-33.45
345.993	-36.16
346.376	3.84
346.759	-0.45
347.142	16.27
347.525	33.45
347.908	66.21
348.291	73.9
348.674	75.7
349.057	128.81
349.44	139.88
349.823	141.47
350.206	186.44
350.588	230.5
350.971	248.81
351.354	242.03
351.737	260.56
352.119	287.45
352.502	285.64
352.884	313.66
353.267	304.62
353.65	308.01
354.032	334.45
354.414	346.66
354.797	358.41
355.179	337.84
355.562	342.82
355.944	375.58
356.326	382.36
356.709	358.86
357.091	368.8
357.473	352.99
357.855	367.22
358.238	370.16
358.62	376.04
359.002	365.19
359.384	387.79
359.766	369.93
360.148	369.71
360.53	375.13
360.912	374.68
361.294	362.93
361.676	359.54
362.057	369.71
362.439	350.05
362.821	366.32
363.203	361.12
363.584	362.02
363.966	368.8
364.348	355.02
364.729	368.8
365.111	353.89
365.493	346.88
365.874	353.66
366.256	362.48
366.637	358.18
367.019	355.47
367.4	339.43
367.781	362.7
368.163	352.53
368.544	347.79
368.925	366.77
369.306	348.01
369.688	352.31
370.069	352.08
370.45	359.54
370.831	338.07
371.212	362.25
371.593	350.95
371.974	352.08
372.355	365.64
372.736	365.64
373.117	374.45
373.498	374.45
373.879	370.84
374.26	395.92
374.641	354.57
375.021	373.55
375.402	370.84
375.783	379.43
376.163	388.46
376.544	382.36
376.925	367.45
377.305	397.96
377.686	406.54
378.066	395.7
378.447	401.8
378.827	415.36
379.208	404.96
379.588	387.33
379.968	406.54
380.349	397.05
380.729	414.9
381.109	420.78
381.489	433.43
381.87	404.51
382.25	395.92
382.63	398.18
383.01	431.4
383.39	433.21
383.77	408.58
384.15	409.25
384.53	428.24
384.91	416.71
385.29	428.46
385.67	425.53
386.049	431.18
386.429	451.97
386.809	431.63
387.189	456.94
387.568	438.41
387.948	489.25
388.328	461.46
388.707	479.08
389.087	477.05
389.466	469.14
389.846	482.7
390.225	477.5
390.605	497.39
390.984	489.25
391.363	482.25
391.743	509.37
392.122	534.45
392.501	510.95
392.881	520.89
393.26	542.13
393.639	553.21
394.018	571.96
394.397	537.16
394.776	560.21
395.155	556.82
395.534	596.82
395.913	591.85
396.292	621.45
396.671	616.25
397.05	611.28
397.429	628.91
397.808	639.31
398.186	643.37
398.565	637.5
398.944	658.97
399.323	635.01
399.701	668.91
400.08	672.52
400.458	702.58
400.837	693.77
401.215	710.94
401.594	720.66
401.972	730.83
402.351	750.94
402.729	741.9
403.107	771.96
403.486	790.94
403.864	811.05
404.242	785.74
404.62	831.84
404.999	881.11
405.377	874.78
405.755	858.28
406.133	876.59
406.511	900.09
406.889	902.8
407.267	965.85
407.645	970.82
408.023	973.99
408.401	1009.01
408.779	1007.88
409.156	1028.45
409.534	1052.4
409.912	1064.6
410.29	1120.65
410.667	1123.13
411.045	1130.14
411.422	1169.46
411.8	1214.88
412.178	1222.34
412.555	1251.49
412.933	1257.37
413.31	1275.22
413.687	1292.85
414.065	1307.08
414.442	1344.82
414.819	1407.65
415.197	1358.16
415.574	1430.92
415.951	1424.6
416.328	1472.5
416.705	1475.67
417.082	1464.59
417.46	1526.74
417.837	1495.78
418.214	1517.25
418.591	1570.81
418.967	1601.77
419.344	1587.53
419.721	1606.06
420.098	1630.01
420.475	1677.47
420.852	1649.22
421.228	1671.59
421.605	1706.4
421.982	1744.59
422.358	1773.74
422.735	1801.76
423.111	1783.23
423.488	1836.11
423.864	1873.85
424.241	1876.56
424.617	1908.42
424.994	1903
425.37	1913.62
425.746	1928.31
426.123	1945.26
426.499	1997.69
426.875	2002.66
427.251	2068.65
427.627	2141.86
428.003	2116.33
428.379	2153.62
428.756	2180.06
429.132	2175.31
429.507	2278.58
429.883	2225.25
430.259	2279.49
430.635	2321.52
431.011	2352.71
431.387	2371.92
431.763	2464.34
432.138	2429.31
432.514	2484.91
432.89	2488.3
433.265	2557.67
433.641	2608.07
434.016	2618.01
434.392	2696.88
434.767	2720.61
435.143	2726.26
435.518	2781.17
435.894	2813.26
436.269	2804.9
436.644	2851.22
437.02	2879.02
437.395	2962.18
437.77	2931.9
438.145	3039.69
438.52	3025.01
438.895	3050.09
439.271	3093.48
439.646	3129.86
440.021	3165.34
440.395	3174.61
440.77	3161.72
441.145	3181.61
441.52	3296.41
441.895	3280.82
442.27	3313.13
442.645	3313.59
443.019	3343.87
443.394	3374.37
443.769	3401.94
444.143	3337.09
444.518	3438.78
444.892	3427.03
445.267	3491.43
445.641	3507.03
446.016	3564.2
446.39	3600.36
446.764	3639.45
447.139	3603.07
447.513	3667.02
447.887	3650.3
448.262	3653.01
448.636	3726
449.01	3754.03
449.384	3775.04
449.758	3817.75
450.132	3873.8
450.506	3917.41
450.88	3894.81
451.254	3956.96
451.628	3999.44
452.002	4025.2
452.376	4037.18
452.75	4116.95
453.123	4121.47
453.497	4237.63
453.871	4266.33
454.244	4352.43
454.618	4359.43
454.992	4379.77
455.365	4404.18
455.739	4549.48
456.112	4566.89
456.486	4653.89
456.859	4673.78
457.232	4753.77
457.606	4731.85
457.979	4847.56
458.352	4986.76
458.725	5068.12
459.099	5028.12
459.472	5149.47
459.845	5175.01
460.218	5209.81
460.591	5270.82
460.964	5299.97
461.337	5454.09
461.71	5513.08
462.083	5604.82
462.456	5573.41
462.829	5609.34
463.201	5672.85
463.574	5726.86
463.947	5874.65
464.32	5953.97
464.692	6035.1
465.065	6036.68
465.438	6127.3
465.81	6272.38
466.183	6332.04
466.555	6492.03
466.928	6504.01
467.3	6492.03
467.672	6593.5
468.045	6751.01
468.417	6852.93
468.789	6839.59
469.161	6968.4
469.534	7095.41
469.906	7237.1
470.278	7301.5
470.65	7364.55
471.022	7511.44
471.394	7647.71
471.766	7706.01
472.138	7814.71
472.51	8049.73
472.882	8096.28
473.253	8218.99
473.625	8346.45
473.997	8515.71
474.369	8520
474.74	8617.85
475.112	8749.6
475.484	8944.17
475.855	9086.31
476.227	9125.18
476.598	9422.58
476.97	9511.16
477.341	9759.52
477.713	9878.16
478.084	9912.06
478.455	10187.53
478.827	10297.13
479.198	10596.11
479.569	10637.23
479.94	10843.56
480.311	10951.35
480.682	11211.91
481.053	11563.99
481.424	11752.01
481.795	11783.64
482.166	11940.7
482.537	12134.6
482.908	12327.36
483.279	12514.02
483.65	12726.9
484.021	12983.16
484.391	13177.73
484.762	13256.6
485.133	13462.47
485.503	13615.46
485.874	13925.74
486.244	14007.09
486.615	14324.82
486.985	14504.25
487.356	14741.31
487.726	14830.57
488.097	15125.25
488.467	15222.42
488.837	15528.18
489.207	15658.57
489.578	15870.77
489.948	16100.59
490.318	16210.2
490.688	16329.97
491.058	16697.64
491.428	16802.72
491.798	17006.11
492.168	17345.31
492.538	17422.82
492.908	17571.74
493.278	17924.95
493.648	17877.5
494.017	18106.19
494.387	18232.97
494.757	18327.65
495.126	18559.74
495.496	18704.59
495.866	18774.42
496.235	19058.71
496.605	19084.24
496.974	19352.26
497.344	19462.31
497.713	19562.88
498.082	19724.23
498.452	19816.43
498.821	20032.24
499.19	20091.9
499.559	20327.38
499.928	20461.16
500.298	20710.19
500.667	20813.69
501.036	20778.66
501.405	21016.4
501.774	21052.33
502.143	21317.86
502.512	21376.16
502.88	21536.38
503.249	21582.26
503.618	21766.21
503.987	21858.86
504.356	22019.99
504.724	22184.5
505.093	22218.17
505.462	22449.35
505.83	22592.63
506.199	22683.47
506.567	23075.1
506.936	23004.59
507.304	23234.64
507.672	23355.32
508.041	23597.35
508.409	23713.95
508.777	23875.3
509.145	24003.89
509.514	24086.6
509.882	24367.49
510.25	24426.25
510.618	24527.94
510.986	24744.89
511.354	24880.48
511.722	25134.93
512.09	25258.54
512.458	25387.81
512.826	25629.61
513.193	25653.34
513.561	25802.94
513.929	26128.35
514.297	26208.58
514.664	26390.27
515.032	26657.83
515.4	26754.1
515.767	26877.71
516.135	27182.11
516.502	26969.69
516.869	27515.21
517.237	27618.26
517.604	27507.53
517.972	27885.14
518.339	28050.79
518.706	28126.27
519.073	28377.78
519.44	28570.77
519.808	28828.85
520.175	28848.96
520.542	29188.84
520.909	29454.59
521.276	29300.02
521.643	29651.65
522.009	29917.86
522.376	30127.12
522.743	30375.7
523.11	30668.57
523.477	30940.88
523.843	31069.01
524.21	31377.48
524.577	31711.48
524.943	31704.48
525.31	32000.29
525.676	32266.04
526.043	32554.62
526.409	32424.23
526.776	32932.69
527.142	33085.01
527.508	33295.4
527.874	33587.82
528.241	33661.04
528.607	33821.94
528.973	34114.81
529.339	34239.78
529.705	34554.35
530.071	34681.8
530.437	34963.37
530.803	35129.25
531.169	35239.07
531.535	35229.81
531.901	35438.39
532.267	35632.06
532.632	35930.58
532.998	36045.38
533.364	36288.54
533.73	36263.23
534.095	36689.43
534.461	36788.86
534.826	36786.15
535.192	37067.95
535.557	37305.69
535.923	37356.76
536.288	37494.16
536.653	37710.87
537.019	37591.1
537.384	37779.35
537.749	37983.18
538.114	37990.87
538.479	38001.03
538.845	38349.5
539.21	38321.93
539.575	38528.25
539.94	38707
540.305	38936.83
540.67	38797.17
541.034	38981.35
541.399	39248.69
541.764	39321.23
542.129	39577.49
542.494	39577.04
542.858	39703.14
543.223	39742.68
543.587	40050.47
543.952	40027.42
544.316	40179.51
544.681	40233.52
545.045	40537.69
545.41	40721.42
545.774	40807.51
546.138	40802.54
546.503	40954.86
546.867	40956.66
547.231	41305.58
547.595	41381.51
547.959	41722.97
548.324	41677.55
548.688	41819.24
549.052	41999.12
549.416	42225.56
549.779	42140.36
550.143	42183.52
550.507	42515.94
550.871	42637.75
551.235	42683.17
551.599	42966.1
551.962	42994.12
552.326	43249.03
552.689	43466.65
553.053	43240.22
553.417	43378.97
553.78	43783.93
554.143	43833.65
554.507	43927.43
554.87	44145.05
555.234	44478.15
555.597	44301.89
555.96	44484.25
556.323	44660.75
556.686	44790.69
557.05	44906.62
557.413	45140.96
557.776	45241.3
558.139	45536.2
558.502	45597.9
558.865	45644.9
559.228	45926.48
559.59	46081.27
559.953	46217.54
560.316	46645.78
560.679	46552.9
561.041	46930.74
561.404	47139.55
561.767	47250.06
562.129	47129.38
562.492	47563.04
562.854	47613.44
563.217	47736.37
563.579	47822.47
563.941	48061.56
564.304	48155.8
564.666	48405.51
565.028	48563.69
565.39	48680.3
565.753	48788.55
566.115	48886.62
566.477	49120.29
566.839	49202.55
567.201	49419.72
567.563	49417.01
567.925	49691.12
568.287	49796.2
568.648	49773.15
569.01	49987.16
569.372	50228.74
569.734	50081.85
570.095	50393.7
570.457	50542.63
570.819	50573.36
571.18	50687.25
571.542	50912.33
571.903	50909.85
572.265	51016.29
572.626	51058.32
572.987	51265.77
573.349	51347.35
573.71	51375.82
574.071	51489.72
574.432	51622.6
574.794	51731.3
575.155	51710.73
575.516	51774.91
575.877	51903.04
576.238	51891.74
576.599	52086.54
576.96	52057.16
577.32	52109.59
577.681	52168.8
578.042	52340.32
578.403	52364.27
578.763	52358.85
579.124	52365.63
579.485	52505.51
579.845	52587.09
580.206	52528.56
580.566	52526.3
580.927	52602.91
581.287	52725.39
581.648	52577.6
582.008	52728.11
582.368	52705.73
582.728	52829.8
583.089	52757.71
583.449	52754.55
583.809	52846.75
584.169	52949.12
584.529	52811.72
584.889	53036.57
585.249	52841.77
585.609	52802.91
585.969	52988.44
586.329	52917.03
586.688	52991.6
587.048	52966.97
587.408	52937.82
587.768	52925.84
588.127	52983.01
588.487	52942.11
588.846	53089.9
589.206	52904.82
589.565	52877.71
589.925	53020.75
590.284	52918.38
590.643	53064.14
591.003	53055.33
591.362	53127.87
591.721	53189.56
592.08	53137.59
592.44	53188.21
592.799	53219.17
593.158	53139.85
593.517	53178.71
593.876	53206.74
594.235	53106.4
594.593	53195.44
594.952	53247.87
595.311	53119.73
595.67	53164.7
596.029	53345.49
596.387	53274.08
596.746	53287.41
597.104	53166.29
597.463	53187.3
597.822	53274.76
598.18	53186.62
598.538	53246.06
598.897	53293.97
599.255	53149.79
599.613	53497.35
599.972	53376.45
600.33	53411.48
600.688	53333.74
601.046	53464.13
601.404	53535.54
601.762	53498.25
602.12	53649.89
602.478	53663
602.836	53632.71
603.194	53473.85
603.552	53488.54
603.91	53389.1
604.268	53587.29
604.625	53431.36
604.983	53677.23
605.341	53494.41
605.698	53634.07
606.056	53632.26
606.413	53658.48
606.771	53703.45
607.128	53762.65
607.485	53672.94
607.843	53703.45
608.2	53901.18
608.557	53930.56
608.914	53902.99
609.272	53984.57
609.629	54017.79
609.986	54015.98
610.343	53903.44
610.7	54098.92
611.057	54078.13
611.414	54047.17
611.771	54155.64
612.127	54260.95
612.484	54104.34
612.841	54338.46
613.198	54168.52
613.554	54113.83
613.911	54297.78
614.267	54300.72
614.624	54228.18
614.98	54346.14
615.337	54395.18
615.693	54415.07
616.05	54384.11
616.406	54594.04
616.762	54434.27
617.118	54404.45
617.475	54410.55
617.831	54518.57
618.187	54551.33
618.543	54549.98
618.899	54636.76
619.255	54602.63
619.611	54536.42
619.967	54712.23
620.323	54670.2
620.678	54647.15
621.034	54463.2
621.39	54505.91
621.746	54377.1
622.101	54786.81
622.457	54506.82
622.812	54536.19
623.168	54584.1
623.523	54559.92
623.879	54732.35
624.234	54481.96
624.589	54532.35
624.945	54619.35
625.3	54601.28
625.655	54572.58
626.01	54571.45
626.365	54589.3
626.72	54621.84
627.075	54539.13
627.43	54568.73
627.785	54528.96
628.14	54543.65
628.495	54517.66
628.85	54541.62
629.205	54324.45
629.559	54520.6
629.914	54361.73
630.269	54369.42
630.623	54297.56
630.978	54239.03
631.332	54257.1
631.687	54260.04
632.041	54199.93
632.396	54232.02
632.75	54155.64
633.104	54197.67
633.459	54015.08
633.813	53954.51
634.167	53966.94
634.521	54000.61
634.875	54033.38
635.229	53975.08
635.583	53866.15
635.937	53805.36
636.291	53808.08
636.645	53879.49
636.999	53673.84
637.352	53726.04
637.706	53512.49
638.06	53645.6
638.413	53591.36
638.767	53557.46
639.121	53613.96
639.474	53427.97
639.828	53541.19
640.181	53559.72
640.534	53436.11
640.888	53261.65
641.241	53240.41
641.594	53291.48
641.947	53341.87
642.301	53237.7
642.654	53181.88
643.007	53205.15
643.36	53164.25
643.713	53130.81
644.066	53273.63
644.419	53047.19
644.771	52833.19
645.124	52439.3
645.477	52388.45
645.83	52245.86
646.182	52069.82
646.535	52000.89
646.888	52030.5
647.24	51916.38
647.593	52137.16
647.945	52039.54
648.298	51864.17
648.65	51832.31
649.002	51737.85
649.355	51824.4
649.707	51736.49
650.059	51832.08
650.411	52200.21
650.763	52214.22
651.115	52518.39
651.467	52435.46
651.819	52476.36
652.171	52280.43
652.523	52408.57
652.875	52311.17
653.227	52174.9
653.578	52296.48
653.93	52234.56
654.282	52074.56
654.633	52050.61
654.985	52097.16
655.337	52116.6
655.688	52112.3
656.039	52116.6
656.391	51879.77
656.742	51809.71
657.094	51806.77
657.445	51891.29
657.796	51818.3
658.147	51623.95
658.498	51773.78
658.849	51764.06
659.2	51697.17
659.551	51583.05
659.902	51652.88
660.253	51600.9
660.604	51699.43
660.955	51462.6
661.306	51606.1
661.656	51565.65
662.007	51565.42
662.358	51513.45
662.708	51420.79
663.059	51496.27
663.409	51200.01
663.76	51400.91
664.11	51544.63
664.461	51489.27
664.811	51448.14
665.161	51402.04
665.511	51305.54
665.862	51284.08
666.212	51343.51
666.562	51358.88
666.912	51275.26
667.262	51279.78
667.612	51218.77
667.962	51273.45
668.312	51149.39
668.662	51268.48
669.011	51152.55
669.361	51091.31
669.711	51055.38
670.06	51064.65
670.41	51063.06
670.76	50854.48
671.109	51040.01
671.459	50954.37
671.808	50812.9
672.157	50903.75
672.507	50659.46
672.856	50782.39
673.205	50794.6
673.554	50933.12
673.904	50676.63
674.253	50909.62
674.602	50742.17
674.951	50294.95
675.3	50121.39
675.649	50613.58
675.998	50609.74
676.346	50463.98
676.695	50601.61
677.044	50453.36
677.393	50507.15
677.741	50490.88
678.09	50270.77
678.438	50238.23
678.787	50311.45
679.135	50304.21
679.484	50125.91
679.832	50188.51
680.181	49922.76
680.529	50093.15
680.877	49936.31
681.225	49938.57
681.573	50036.88
681.922	49749.2
682.27	49797.56
682.618	49659.71
682.966	49602.09
683.314	49554.4
683.661	49474.41
684.009	49342.66
684.357	49320.74
684.705	49142.89
685.053	49214.53
685.4	49135.66
685.748	49042.55
686.095	48945.38
686.443	48746.06
686.79	48804.37
687.138	48840.3
687.485	48780.86
687.832	48633.52
688.18	48607.54
688.527	48380.87
688.874	48422.46
689.221	48206.19
689.568	48003.94
689.915	48066.76
690.262	48089.13
690.609	47872.19
690.956	47687.11
691.303	47673.1
691.65	47386.1
691.997	47370.28
692.344	47198.76
692.69	47195.14
693.037	47271.07
693.383	46825.66
693.73	46940.69
694.077	46616.85
694.423	46703.63
694.769	46495.95
695.116	46422.06
695.462	46465.44
695.808	46276.98
696.155	46320.36
696.501	46097.09
696.847	46114.27
697.193	45776.2
697.539	45962.86
697.885	45663.21
698.231	45366.49
698.577	45368.52
698.923	45319.03
699.269	45221.86
699.614	45043.56
699.96	44825.04
700.306	44863.45
700.651	44682.21
700.997	44680.41
701.342	44413.07
701.688	44362.22
702.033	44261.21
702.379	44227.31
702.724	44107.09
703.069	44084.04
703.415	43682.47
703.76	43792.52
704.105	43729.7
704.45	43574.67
704.795	43302.59
705.14	43131.3
705.485	43130.84
705.83	42918.65
706.175	43061.24
706.52	42853.11
706.865	42816.73
707.209	42652.21
707.554	42710.06
707.899	42755.71
708.243	42417.42
708.588	42258.55
708.932	42134.49
709.277	42267.14
709.621	42190.98
709.966	41852.68
710.31	42004.32
710.654	41622.18
710.998	41735.85
711.342	41729.75
711.687	41527.72
712.031	41330.89
712.375	41138.13
712.719	41250.67
713.063	41319.82
713.407	41302.87
713.75	40965.93
714.094	41109.88
714.438	40990.11
714.782	40878.7
715.125	40699.04
715.469	40856.1
715.812	40572.49
716.156	40312.84
716.499	40320.75
716.843	40365.49
717.186	40121.88
717.53	40329.34
717.873	40214.54
718.216	40054.09
718.559	39914.43
718.902	39768.9
719.246	39745.62
719.589	39539.53
719.932	39458.17
720.275	39424.27
720.617	39438.06
720.96	39351.28
721.303	39292.75
721.646	39254.11
721.989	38947.9
722.331	39139.08
722.674	38987.22
723.016	38874.01
723.359	38846.44
723.701	38776.83
724.044	38512.89
724.386	38467.46
724.729	38533.68
725.071	38369.84
725.413	38344.53
725.755	38323.74
726.097	38176.4
726.439	37990.64
726.782	38064.08
727.124	38102.5
727.465	37797.42
727.807	37802.62
728.149	37728.27
728.491	37623.42
728.833	37615.96
729.175	37519.69
729.516	37323.76
729.858	37403.99
730.199	37341.84
730.541	37307.49
730.882	37122.19
731.224	37206.25
731.565	36826.83
731.906	37024.56
732.248	37037.44
732.589	36729.88
732.93	36616.66
733.271	36576.67
733.612	36618.02
733.953	36669.09
734.294	36463.22
734.635	36362.43
734.976	36522.88
735.317	36236.79
735.658	36240.18
735.999	36178.71
736.339	36124.02
736.68	36135.1
737.021	36042.22
737.361	35928.32
737.702	36075.89
738.042	35857.36
738.383	35769.45
738.723	35802.22
739.063	35676.8
739.404	35687.88
739.744	35458.95
740.084	35379.41
740.424	35416.02
740.764	35339.64
741.104	35486.98
741.444	35198.85
741.784	35155.46
742.124	35038.17
742.464	34869.59
742.804	34881.12
743.143	34829.82
743.483	34902.13
743.823	34719.99
744.162	34698.3
744.502	34600.45
744.841	34563.38
745.181	34719.31
745.52	34460.79
745.86	34665.3
746.199	34522.03
746.538	34369.72
746.877	34472.77
747.216	34451.07
747.556	34340.57
747.895	34295.6
748.234	33917.53
748.573	33916.62
748.911	33988.26
749.25	33989.16
749.589	33819
749.928	33981.93
750.267	33887.7
750.605	33760.69
750.944	33509.4
751.283	33611.32
751.621	33594.82
751.96	33297.66
752.298	33285.45
752.636	33375.85
752.975	33097.66
753.313	32946.48
753.651	33058.57
753.989	32921.62
754.327	32837.78
754.666	32785.35
755.004	32682.08
755.342	32856.76
755.679	32704.22
756.017	32468.98
756.355	32682.76
756.693	32214.75
757.031	32350.11
757.368	32194.63
757.706	32120.74
758.044	31873.74
758.381	32057.91
758.719	31873.51
759.056	31841.2
759.394	31604.14
759.731	31466.52
760.068	31364.15
760.405	31259.29
760.743	31280.76
761.08	31214.77
761.417	31165.28
761.754	30971.84
762.091	30916.25
762.428	30782.69
762.765	30579.76
763.102	30819.08
763.438	30613.43
763.775	30334.8
764.112	30394.91
764.449	30502.02
764.785	30205.08
765.122	30163.05
765.458	29871.98
765.795	29848.71
766.131	29917.18
766.467	29844.41
766.804	29562.39
767.14	29538.66
767.476	29352.9
767.812	29144.77
768.148	29371.66
768.485	29137.76
768.821	29065.22
769.157	28853.48
769.492	28878.34
769.828	28749.53
770.164	28548.85
770.5	28356.99
770.836	28436.31
771.171	28282.42
771.507	28205.36
771.842	28019.6
772.178	27984.12
772.513	27880.17
772.849	27871.58
773.184	27672.94
773.519	27594.98
773.855	27482.44
774.19	27362.9
774.525	27240.87
774.86	27251.71
775.195	27121.32
775.53	26942.12
775.865	26850.59
776.2	26775.57
776.535	26609.47
776.87	26596.14
777.205	26514.56
777.539	26324.96
777.874	26308.01
778.209	26147.79
778.543	26159.76
778.878	25973.1
779.212	25949.37
779.547	25735.14
779.881	25837.06
780.215	25557.29
780.55	25619.21
780.884	25324.76
781.218	25375.83
781.552	25256.06
781.886	25150.98
782.22	25015.39
782.554	25021.71
782.888	24725.45
783.222	24614.95
783.556	24549.64
783.889	24545.57
784.223	24292.47
784.557	24192.81
784.89	24313.03
785.224	24052.25
785.557	24000.72
785.891	24013.38
786.224	23953.95
786.558	23841.86
786.891	23628.31
787.224	23501.08
787.557	23453.39
787.891	23495.43
788.224	23356.22
788.557	23287.07
788.89	23183.12
789.223	23079.62
789.556	22953.52
789.888	22908.78
790.221	22861.77
790.554	22504.94
790.887	22623.59
791.219	22497.26
791.552	22490.26
791.884	22439.18
792.217	22281
792.549	22231.73
792.882	22115.8
793.214	21998.29
793.546	21942.02
793.879	21867.45
794.211	21713.55
794.543	21862.7
794.875	21665.87
795.207	21809.37
795.539	21584.97
795.871	21593.78
796.203	21370.06
796.535	21339.78
796.867	21263.85
797.198	21219.56
797.53	21164.87
797.862	20941.82
798.193	21003.06
798.525	20927.81
798.856	20945.44
799.188	20684.43
799.519	20776.4
799.85	20613.02
800.182	20647.14
800.513	20544.54
800.844	20358.11
801.175	20505.22
801.506	20391.1
801.837	20346.13
802.168	20243.76
802.499	20169.64
802.83	19995.86
803.161	19976.42
803.491	20024.11
803.822	19949.31
804.153	19794.51
804.483	19724.91
804.814	19650.33
805.145	19589.09
805.475	19604.23
805.805	19480.62
806.136	19501.18
806.466	19449.21
806.796	19428.87
807.126	19283.56
807.457	19136.22
807.787	19189.78
808.117	19123.79
808.447	19059.61
808.777	19107.75
809.107	18913.4
809.436	18916.11
809.766	18953.85
810.096	18900.97
810.426	18767.87
810.755	18792.5
811.085	18705.72
811.414	18667.08
811.744	18446.29
812.073	18546.86
812.403	18493.07
812.732	18322.46
813.061	18451.49
813.39	18310.48
813.719	18205.85
814.049	18313.19
814.378	18193.87
814.707	18126.53
815.036	18135.34
815.365	18043.37
815.693	17935.8
816.022	17949.81
816.351	17886.08
816.68	17792.98
817.008	17828.23
817.337	17614.45
817.665	17582.59
817.994	17679.76
818.322	17642.25
818.651	17575.81
818.979	17420.78
819.307	17479.31
819.636	17423.04
819.964	17313.67
820.292	17351.63
820.62	17325.42
820.948	17328.13
821.276	17435.7
821.604	17291.52
821.932	17259.66
822.259	17255.14
822.587	17255.37
822.915	17140.57
823.243	17172.43
823.57	17212.88
823.898	17201.13
824.225	17125.2
824.553	17180.79
824.88	17127.69
825.207	17081.58
825.535	17087.01
825.862	17137.85
826.189	17095.82
826.516	17249.72
826.843	17117.52
827.17	17129.72
827.497	17193.67
827.824	17153.67
828.151	17284.29
828.478	17102.6
828.805	17257.17
829.131	17148.02
829.458	17102.83
829.785	17002.72
830.111	17052.21
830.438	17044.3
830.764	17047.91
831.09	17075.03
831.417	16938.31
831.743	16966.56
832.069	16963.17
832.395	16825.77
832.722	16975.82
833.048	16852.44
833.374	16892.66
833.7	16836.39
834.026	16858.54
834.351	16861.7
834.677	16749.16
835.003	16839.56
835.329	16842.27
835.654	16759.33
835.98	16705.32
836.306	16738.54
836.631	16500.36
836.956	16660.58
837.282	16660.13
837.607	16610.64
837.932	16540.81
838.258	16507.14
838.583	16530.64
838.908	16415.16
839.233	16432.11
839.558	16350.98
839.883	16263.53
840.208	16289.06
840.533	16209.97
840.858	16303.3
841.182	16316.41
841.507	16186.69
841.832	16167.48
842.156	16104.66
842.481	16067.15
842.805	16015.4
843.13	15980.37
843.454	15961.16
843.778	15921.16
844.103	15839.36
844.427	15802.07
844.751	15828.96
845.075	15716.87
845.399	15669.19
845.723	15591.23
846.047	15626.48
846.371	15484.11
846.695	15486.15
847.019	15359.6
847.343	15303.1
847.666	15163.67
847.99	15112.6
848.313	15044.58
848.637	14912.6
848.96	14993.96
849.284	14962.32
849.607	14881.42
849.931	14796.45
850.254	14768.65
850.577	14662.67
850.9	14579.5
851.223	14574.76
851.546	14502.44
851.869	14323.92
852.192	14458.15
852.515	14265.16
852.838	14334.31
853.161	14298.61
853.483	14207.54
853.806	14073.3
854.129	14071.04
854.451	13982.91
854.774	13946.75
855.096	13968.9
855.419	13842.12
855.741	13900.65
856.063	13741.56
856.385	13727.32
856.708	13627.89
857.03	13643.26
857.352	13679.19
857.674	13584.95
857.996	13639.64
858.318	13518.97
858.64	13497.5
858.961	13440.55
859.283	13335.92
859.605	13261.35
859.926	13355.81
860.248	13314.23
860.57	13179.77
860.891	13212.76
861.212	13164.85
861.534	13127.11
861.855	13106.32
862.176	13160.56
862.498	13113.78
862.819	13048.02
863.14	13003.73
863.461	12948.59
863.782	12881.92
864.103	12902.26
864.424	12837.63
864.745	12950.39
865.065	12853.67
865.386	12850.28
865.707	12719.21
866.027	12763.96
866.348	12751.98
866.668	12774.81
866.989	12718.31
867.309	12657.07
867.63	12614.81
867.95	12584.53
868.27	12551.99
868.59	12628.82
868.91	12529.84
869.23	12525.77
869.55	12559.22
869.87	12520.57
870.19	12497.52
870.51	12420.92
870.83	12438.54
871.15	12344.53
871.469	12333.69
871.789	12316.06
872.109	12336.4
872.428	12232.67
872.748	12298.43
873.067	12302.05
873.386	12275.84
873.706	12228.15
874.025	12177.08
874.344	12130.08
874.663	12184.76
874.982	12175.27
875.301	12135.73
875.62	12044.66
875.939	12053.69
876.258	12042.85
876.577	12030.19
876.896	12017.31
877.214	12001.94
877.533	12015.73
877.852	11926.47
878.17	11821.61
878.489	11909.07
878.807	11907.26
879.125	11908.61
879.444	11837.88
879.762	11838.11
880.08	11742.74
880.398	11744.32
880.716	11776.41
881.034	11726.7
881.352	11805.34
881.67	11671.33
881.988	11726.92
882.306	11687.38
882.624	11564.67
882.941	11531.67
883.259	11462.3
883.577	11462.07
883.894	11438.34
884.212	11362.41
884.529	11485.57
884.846	11354.5
885.164	11361.74
885.481	11315.18
885.798	11352.02
886.115	11267.5
886.432	11256.2
886.75	11180.05
887.067	11154.28
887.383	11145.24
887.7	11122.87
888.017	11031.57
888.334	11065.25
888.651	11102.08
888.967	11005.36
889.284	10975.3
889.6	10965.36
889.917	10879.49
890.233	10896.66
890.55	10827.51
890.866	10901.86
891.182	10832.03
891.498	10775.99
891.815	10678.14
892.131	10678.59
892.447	10595.2
892.763	10692.6
893.079	10646.05
893.395	10604.92
893.71	10495.09
894.026	10485.6
894.342	10425.04
894.657	10351.82
894.973	10334.64
895.289	10334.42
895.604	10357.02
895.92	10202.9
896.235	10193.4
896.55	10232.5
896.865	10160.64
897.181	10176.23
897.496	10073.18
897.811	10065.27
898.126	10068.21
898.441	9990.92
898.756	9969.68
899.071	9886.75
899.386	9863.47
899.7	9784.83
900.015	9753.64
900.33	9753.87
900.644	9702.57
900.959	9669.12
901.273	9578.73
901.588	9606.75
901.902	9528.11
902.216	9474.55
902.531	9457.38
902.845	9442.92
903.159	9425.06
903.473	9440.2
903.787	9327.21
904.101	9305.74
904.415	9283.82
904.729	9234.33
905.042	9180.55
905.356	9101
905.67	9123.83
905.984	9112.53
906.297	9130.38
906.611	9042.25
906.924	8915.47
907.237	8947.11
907.551	8965.41
907.864	8917.51
908.177	8912.31
908.491	8847
908.804	8810.39
909.117	8714.8
909.43	8736.04
909.743	8685.42
910.056	8657.85
910.368	8569.94
910.681	8526.1
910.994	8528.36
911.307	8481.36
911.619	8404.75
911.932	8446.56
912.244	8304.87
912.557	8394.36
912.869	8282.27
913.181	8244.53
913.494	8248.82
913.806	8161.37
914.118	8177.86
914.43	8116.62
914.742	8165.21
915.054	8070.07
915.366	8044.31
915.678	7971.09
915.99	7924.99
916.302	7953.24
916.613	7825.78
916.925	7947.59
917.236	7880.92
917.548	7833.92
917.859	7813.13
918.171	7746.91
918.482	7671.21
918.794	7680.93
919.105	7647.71
919.416	7583.76
919.727	7633.25
920.038	7508.96
920.349	7515.06
920.66	7404.1
920.971	7408.17
921.282	7383.31
921.593	7414.04
921.903	7358
922.214	7334.72
922.525	7297.89
922.835	7252.46
923.146	7179.92
923.456	7165.91
923.767	7129.53
924.077	7131.79
924.387	7114.62
924.697	7071.9
925.008	7018.57
925.318	7012.02
925.628	7073.26
925.938	6947.16
926.248	6906.49
926.558	6840.05
926.867	6810.89
927.177	6791.91
927.487	6809.54
927.796	6726.83
928.106	6713.95
928.416	6674.4
928.725	6670.33
929.034	6634.85
929.344	6645.47
929.653	6621.75
929.962	6542.65
930.271	6504.46
930.581	6463.33
930.89	6474.86
931.199	6401.64
931.508	6382.21
931.817	6419.72
932.125	6359.83
932.434	6378.36
932.743	6294.75
933.051	6208.2
933.36	6245.03
933.669	6194.19
933.977	6122.32
934.286	6162.1
934.594	6155.54
934.902	6081.2
935.21	6039.39
935.519	6057.92
935.827	6032.61
936.135	5953.97
936.443	5878.26
936.751	5954.87
937.059	5873.52
937.367	5870.13
937.674	5857.7
937.982	5831.26
938.29	5797.36
938.597	5780.41
938.905	5708.78
939.213	5726.4
939.52	5667.2
939.827	5726.4
940.135	5647.99
940.442	5575.9
940.749	5536.35
941.056	5585.84
941.363	5490.48
941.67	5511.95
941.977	5491.38
942.284	5423.36
942.591	5433.08
942.898	5338.39
943.205	5344.49
943.511	5297.71
943.818	5351.5
944.125	5296.81
944.431	5245.74
944.738	5269.47
945.044	5224.04
945.35	5184.27
945.657	5189.24
945.963	5179.3
946.269	5121.67
946.575	5158.51
946.881	5044.84
947.187	5059.53
947.493	5002.81
947.799	5013.2
948.105	4976.37
948.41	4959.19
948.716	4940.66
949.022	4921
949.327	4920.55
949.633	4845.52
949.938	4853.66
950.244	4822.02
950.549	4808.24
950.854	4749.71
951.16	4790.61
951.465	4737.95
951.77	4706.54
952.075	4676.71
952.38	4693.66
952.685	4701.57
952.99	4645.3
953.294	4641.01
953.599	4618.18
953.904	4584.29
954.209	4575.7
954.513	4571.41
954.818	4523.5
955.122	4487.57
955.426	4494.8
955.731	4469.49
956.035	4456.38
956.339	4421.58
956.643	4453.44
956.948	4387.91
957.252	4348.36
957.556	4361.24
957.86	4363.73
958.163	4323.05
958.467	4269.72
958.771	4299.32
959.075	4270.4
959.378	4239.21
959.682	4223.62
959.985	4186.56
960.289	4149.04
960.592	4177.29
960.896	4124.19
961.199	4144.07
961.502	4113.79
961.805	4089.61
962.108	4013
962.411	4036.5
962.714	4046.67
963.017	4027.69
963.32	3971.87
963.623	3980.01
963.926	3921.93
964.228	3896.62
964.531	3936.17
964.833	3884.87
965.136	3887.36
965.438	3866.11
965.741	3844.87
966.043	3833.57
966.345	3810.07
966.648	3838.09
966.95	3823.18
967.252	3764.87
967.554	3764.65
967.856	3661.6
968.158	3711.09
968.46	3686.68
968.761	3691.88
969.063	3637.19
969.365	3650.75
969.666	3610.3
969.968	3608.72
970.269	3628.38
970.571	3617.76
970.872	3566.46
971.174	3527.36
971.475	3564.88
971.776	3532.11
972.077	3528.72
972.378	3511.77
972.679	3512
972.98	3463.64
973.281	3467.25
973.582	3432
973.883	3408.95
974.183	3428.61
974.484	3378.44
974.785	3373.7
975.085	3380.25
975.386	3339.8
975.686	3326.01
975.986	3323.3
976.287	3310.65
976.587	3290.08
976.887	3278.11
977.187	3275.85
977.487	3236.07
977.787	3202.18
978.087	3212.8
978.387	3228.62
978.687	3208.73
978.987	3186.36
979.286	3138.45
979.586	3182.97
979.885	3139.8
980.185	3120.6
980.484	3069.98
980.784	3100.03
981.083	3055.29
981.382	3068.17
981.682	3052.8
981.981	3035.85
982.28	3046.7
982.579	3015.74
982.878	3001.5
983.177	2970.77
983.475	2964.22
983.774	2940.71
984.073	2940.04
984.372	2949.3
984.67	2908.85
984.969	2887.61
985.267	2851.45
985.566	2897.1
985.864	2837.44
986.162	2828.17
986.461	2843.09
986.759	2818.46
987.057	2802.41
987.355	2766.71
987.653	2777.33
987.951	2784.79
988.249	2740.72
988.547	2740.49
988.844	2691
989.142	2717.89
989.44	2697.56
989.737	2694.39
990.035	2648.74
990.332	2642.64
990.63	2626.15
990.927	2617.56
991.224	2643.09
991.521	2593.6
991.819	2586.6
992.116	2578.69
992.413	2567.84
992.71	2553.61
993.006	2549.54
993.303	2553.83
993.6	2546.6
993.897	2498.69
994.193	2490.1
994.49	2510.44
994.787	2489.88
995.083	2460.95
995.379	2410.78
995.676	2468.18
995.972	2393.38
996.268	2397.68
996.565	2397.9
996.861	2370.56
997.157	2411.46
997.453	2363.1
997.749	2361.75
998.044	2340.5
998.34	2347.06
998.636	2303.67
998.932	2259.6
999.227	2289.88
999.523	2258.92
999.818	2225.7
1000.114	2232.71
1000.409	2239.94
1000.704	2232.03
1001	2203.11
1001.295	2220.51
1001.59	2185.71
1001.885	2178.47
1002.18	2208.98
1002.475	2128.76
1002.77	2123.56
1003.065	2118.36
1003.359	2116.55
1003.654	2113.84
1003.949	2091.47
1004.243	2069.1
1004.538	2078.82
1004.832	2056.44
1005.127	2019.38
1005.421	2040.85
1005.715	2018.03
1006.009	2019.61
1006.304	1986.61
1006.598	1950.23
1006.892	1942.32
1007.186	1964.92
1007.48	1975.54
1007.773	1942.77
1008.067	1926.28
1008.361	1897.35
1008.655	1859.39
1008.948	1871.82
1009.242	1875.66
1009.535	1853.51
1009.829	1836.56
1010.122	1868.88
1010.415	1856.67
1010.708	1842.44
1011.001	1800.18
1011.295	1795.21
1011.588	1796.34
1011.881	1787.3
1012.173	1776
1012.466	1762.67
1012.759	1761.08
1013.052	1749.78
1013.344	1732.16
1013.637	1724.47
1013.93	1693.74
1014.222	1697.36
1014.514	1660.97
1014.807	1688.77
1015.099	1673.18
1015.391	1673.18
1015.683	1645.38
1015.976	1666.62
1016.268	1612.39
1016.56	1602.44
1016.851	1604.7
1017.143	1612.39
1017.435	1597.92
1017.727	1570.35
1018.018	1564.93
1018.31	1542.56
1018.602	1496.46
1018.893	1536.23
1019.185	1550.92
1019.476	1498.94
1019.767	1514.99
1020.058	1479.51
1020.35	1480.41
1020.641	1509.34
1020.932	1451.71
1021.223	1458.27
1021.514	1448.1
1021.804	1427.53
1022.095	1413.97
1022.386	1409.68
1022.677	1402
1022.967	1416.23
1023.258	1378.72
1023.548	1366.07
1023.839	1365.61
1024.129	1354.31
1024.419	1364.71
1024.709	1355.9
1025	1357.25
1025.29	1310.7
1025.58	1312.96
1025.87	1292.62
1026.16	1284.26
1026.449	1294.66
1026.739	1288.33
1027.029	1281.77
1027.319	1238.39
1027.608	1238.61
1027.898	1233.41
1028.187	1227.99
1028.477	1231.83
1028.766	1221.44
1029.055	1207.65
1029.344	1211.49
1029.634	1189.12
1029.923	1195.45
1030.212	1171.72
1030.501	1196.58
1030.79	1150.48
1031.078	1161.1
1031.367	1147.54
1031.656	1121.33
1031.945	1117.48
1032.233	1127.43
1032.522	1122.68
1032.81	1101.89
1033.099	1082.91
1033.387	1070.71
1033.675	1099.63
1033.963	1075.9
1034.251	1079.07
1034.54	1059.63
1034.828	1070.93
1035.116	1049.92
1035.403	1046.53
1035.691	1048.33
1035.979	1032.74
1036.267	1037.49
1036.554	1018.5
1036.842	971.73
1037.129	1029.58
1037.417	1014.21
1037.704	966.3
1037.992	1010.59
1038.279	973.53
1038.566	992.06
1038.853	992.06
1039.14	992.06
