Data from whiteboard_FLMS001491_00078.txt Node
Date: Wed Feb 08 11:28:03 GMT 2017
User: dcchb
Spectrometer: FLMS00149
Trigger mode: 0
Integration Time (sec): 2.000000E-2
Scans to average: 10
Electric dark correction enabled: true
Nonlinearity correction enabled: false
Boxcar width: 0
XAxis mode: Wavelengths
Number of Pixels in Spectrum: 2048
>>>>>Begin Spectral Data<<<<<
341.393	3.38
341.776	3.38
342.16	3.38
342.543	-52.44
342.927	-51.31
343.31	-55.61
343.693	-63.74
344.077	-69.84
344.46	-75.49
344.843	-45.44
345.226	-28.04
345.61	-24.19
345.993	-25.55
346.376	-12.67
346.759	7.22
347.142	29.59
347.525	33.66
347.908	61.68
348.291	75.24
348.674	88.12
349.057	105.07
349.44	131.96
349.823	135.35
350.206	155.46
350.588	252.41
350.971	240.66
351.354	266.42
351.737	253.09
352.119	292.41
352.502	308.23
352.884	322.69
353.267	315.23
353.65	316.14
354.032	352.29
354.414	328.11
354.797	335.34
355.179	354.55
355.562	351.16
355.944	351.84
356.326	378.51
356.709	365.63
357.091	376.25
357.473	377.83
357.855	362.24
358.238	386.19
358.62	385.29
359.002	360.43
359.384	397.26
359.766	365.4
360.148	394.33
360.53	392.97
360.912	383.48
361.294	378.73
361.676	352.74
362.057	354.1
362.439	369.47
362.821	355.91
363.203	369.92
363.584	366.08
363.966	359.3
364.348	374.44
364.729	366.08
365.111	362.01
365.493	366.08
365.874	362.69
366.256	365.85
366.637	375.12
367.019	367.66
367.4	345.74
367.781	364.95
368.163	383.25
368.544	355.23
368.925	355.46
369.306	376.02
369.688	386.64
370.069	382.8
370.45	370.6
370.831	361.33
371.212	375.12
371.593	356.59
371.974	368.56
372.355	402.46
372.736	379.18
373.117	362.91
373.498	395
373.879	368.11
374.26	371.73
374.641	378.06
375.021	385.06
375.402	384.16
375.783	402.01
376.163	397.49
376.544	404.27
376.925	398.62
377.305	386.42
377.686	406.75
378.066	389.35
378.447	405.17
378.827	390.48
379.208	412.63
379.588	392.29
379.968	413.99
380.349	411.73
380.729	408.34
381.109	404.04
381.489	418.73
381.87	427.32
382.25	422.35
382.63	421.9
383.01	434.1
383.39	411.5
383.77	438.62
384.15	421.22
384.53	441.33
384.91	444.95
385.29	434.55
385.67	470.71
386.049	464.38
386.429	454.44
386.809	445.4
387.189	444.72
387.568	456.25
387.948	466.19
388.328	487.2
388.707	479.97
389.087	482.01
389.466	498.05
389.846	491.5
390.225	487.2
390.605	500.99
390.984	498.96
391.363	517.03
391.743	515.68
392.122	517.94
392.501	525.85
392.881	556.36
393.26	526.07
393.639	562.91
394.018	540.99
394.397	548.22
394.776	579.41
395.155	580.76
395.534	610.37
395.913	598.39
396.292	606.98
396.671	611.5
397.05	638.84
397.429	612.85
397.808	625.96
398.186	650.14
398.565	650.59
398.944	642.91
399.323	677.71
399.701	669.35
400.08	676.35
400.458	701.44
400.837	715.67
401.215	733.07
401.594	724.03
401.972	750.7
402.351	759.74
402.729	754.77
403.107	786.18
403.486	812.62
403.864	808.78
404.242	824.82
404.62	847.87
404.999	838.16
405.377	833.64
405.755	876.8
406.133	922.9
406.511	925.16
406.889	937.14
407.267	980.53
407.645	983.91
408.023	980.98
408.401	1002.45
408.779	1016.68
409.156	1058.26
409.534	1059.17
409.912	1092.39
410.29	1133.74
410.667	1172.38
411.045	1174.64
411.422	1180.75
411.8	1203.12
412.178	1217.81
412.555	1244.02
412.933	1278.6
413.31	1288.99
413.687	1301.87
414.065	1359.5
414.442	1337.58
414.819	1383.68
415.197	1421.64
415.574	1412.6
415.951	1436.78
416.328	1481.08
416.705	1498.03
417.082	1511.58
417.46	1509.55
417.837	1526.95
418.214	1562.2
418.591	1584.13
418.967	1583.45
419.344	1631.13
419.721	1636.55
420.098	1646.95
420.475	1671.13
420.852	1700.28
421.228	1695.76
421.605	1755.19
421.982	1707.96
422.358	1777.57
422.735	1804.46
423.111	1801.97
423.488	1831.12
423.864	1833.61
424.241	1858.69
424.617	1911.57
424.994	1919.94
425.37	1924.68
425.746	1960.16
426.123	1994.96
426.499	1970.1
426.875	2048.29
427.251	2101.17
427.627	2097.78
428.003	2093.49
428.379	2153.38
428.756	2180.49
429.132	2220.94
429.507	2247.61
429.883	2291.45
430.259	2286.48
430.635	2354.27
431.011	2341.62
431.387	2389.08
431.763	2467.49
432.138	2433.59
432.514	2500.49
432.89	2520.6
433.265	2578.45
433.641	2615.51
434.016	2633.36
434.392	2678.79
434.767	2721.95
435.143	2742.96
435.518	2750.2
435.894	2821.38
436.269	2825.67
436.644	2940.7
437.02	2937.31
437.395	2925.56
437.77	2964.65
438.145	3023.86
438.52	3063.41
438.895	3112.22
439.271	3092.33
439.646	3158.32
440.021	3184.76
440.395	3187.47
440.77	3163.52
441.145	3195.61
441.52	3272.44
441.895	3290.97
442.27	3325.77
442.645	3288.94
443.019	3387.24
443.394	3395.38
443.769	3459.33
444.143	3442.16
444.518	3513.57
444.892	3491.19
445.267	3509.27
445.641	3560.12
446.016	3611.19
446.39	3589.27
446.764	3631.08
447.139	3587.46
447.513	3670.62
447.887	3676.73
448.262	3669.27
448.636	3755.14
449.01	3766.44
449.384	3860.22
449.758	3823.61
450.132	3917.17
450.506	3905.42
450.88	3966.66
451.254	3970.5
451.628	4038.75
452.002	4069.03
452.376	4096.38
452.75	4122.59
453.123	4206.2
453.497	4240.55
453.871	4276.94
454.244	4388.8
454.618	4337.95
454.992	4490.72
455.365	4437.61
455.739	4581.56
456.112	4636.7
456.486	4692.74
456.859	4755.12
457.232	4757.15
457.606	4807.77
457.979	4827.2
458.352	4994.43
458.725	5049.34
459.099	5089.8
459.472	5179.06
459.845	5223.35
460.218	5283.69
460.591	5331.15
460.964	5298.6
461.337	5480.29
461.71	5584.47
462.083	5614.08
462.456	5650.46
462.829	5647.52
463.201	5749.44
463.574	5774.75
463.947	5891.36
464.32	6044.57
464.692	6076.44
465.065	6106.94
465.438	6230.56
465.81	6251.8
466.183	6380.61
466.555	6476.65
466.928	6543.32
467.3	6544.9
467.672	6661.73
468.045	6781.73
468.417	6827.83
468.789	6900.37
469.161	7044.09
469.534	7165
469.906	7285.44
470.278	7332.22
470.65	7427.81
471.022	7558.43
471.394	7748.26
471.766	7794.13
472.138	7827.8
472.51	8008.81
472.882	8160
473.253	8199.54
473.625	8369.71
473.997	8532.64
474.369	8596.6
474.74	8744.39
475.112	8877.04
475.484	8971.28
475.855	9150.71
476.227	9253.75
476.598	9525.16
476.97	9560.86
477.341	9780.75
477.713	9990.23
478.084	10024.58
478.455	10256.21
478.827	10389.09
479.198	10605.81
479.569	10680.16
479.94	11017.78
480.311	11111.56
480.682	11339.12
481.053	11598.1
481.424	11833.57
481.795	11865.66
482.166	12033.79
482.537	12197.41
482.908	12406.89
483.279	12617.51
483.65	12797.84
484.021	13091.17
484.391	13238.28
484.762	13302.91
485.133	13528.44
485.503	13712.62
485.874	14010.46
486.244	14098.6
486.615	14384.69
486.985	14494.75
487.356	14772.93
487.726	14945.13
488.097	15237.1
488.467	15310.77
488.837	15616.3
489.207	15798.89
489.578	16095.16
489.948	16205.66
490.318	16365.21
490.688	16444.3
491.058	16688.59
491.428	16909.6
491.798	17069.59
492.168	17447.21
492.538	17572.18
492.908	17672.52
493.278	17958.61
493.648	17952.73
494.017	18184.59
494.387	18369.9
494.757	18474.98
495.126	18694.41
495.496	18724.01
495.866	18827.51
496.235	19134.17
496.605	19349.99
496.974	19439.47
497.344	19635.18
497.713	19631.33
498.082	19782.52
498.452	20042.85
498.821	20143.86
499.19	20162.39
499.559	20479.67
499.928	20616.62
500.298	20637.41
500.667	20964.86
501.036	20843.73
501.405	21135.02
501.774	21152.88
502.143	21354.9
502.512	21386.09
502.88	21667.44
503.249	21633.32
503.618	21931.39
503.987	22055.9
504.356	22153.53
504.724	22387.65
505.093	22405.72
505.462	22574.53
505.83	22737.69
506.199	22944.47
506.567	23076.44
506.936	23191.69
507.304	23492.02
507.672	23560.27
508.041	23611.12
508.409	23802.75
508.777	24085.91
509.145	24188.05
509.514	24256.07
509.882	24495.16
510.25	24527.25
510.618	24796.4
510.986	24788.71
511.354	25069.61
511.722	25206.33
512.09	25461.24
512.458	25389.15
512.826	25749.14
513.193	25917.04
513.561	26018.51
513.929	26298.28
514.297	26425.51
514.664	26663.47
515.032	26696.91
515.4	27048.99
515.767	27117.69
516.135	27223.22
516.502	27158.82
516.869	27663.89
517.237	27717
517.604	27714.06
517.972	28098.46
518.339	28192.46
518.706	28428.39
519.073	28587.93
519.44	28787.48
519.808	28998.55
520.175	28939.79
520.542	29300.46
520.909	29498.87
521.276	29577.29
521.643	29912.19
522.009	30037.16
522.376	30258.63
522.743	30606.19
523.11	30815.45
523.477	31145.16
523.843	31170.69
524.21	31670.79
524.577	31831.47
524.943	31946.94
525.31	32126.37
525.676	32448.62
526.043	32633.48
526.409	32823.98
526.776	33085.44
527.142	33212.67
527.508	33436.62
527.874	33668.48
528.241	33859.21
528.607	33958.42
528.973	34412.64
529.339	34431.4
529.705	34711.16
530.071	34952.29
530.437	34999.52
530.803	35275.67
531.169	35460.75
531.535	35586.17
531.901	35654.64
532.267	35856.44
532.632	36142.99
532.998	36223.89
533.364	36474.51
533.73	36408.29
534.095	36956.3
534.461	37025.23
534.826	37200.36
535.192	37288.27
535.557	37477.19
535.923	37522.62
536.288	37605.55
536.653	37855.04
537.019	37783.17
537.384	38059.1
537.749	38176.84
538.114	38215.48
538.479	38386.32
538.845	38676.94
539.21	38503.38
539.575	38773.66
539.94	38903.14
540.305	39188.33
540.67	39135.23
541.034	39359.18
541.399	39437.37
541.764	39564.6
542.129	39650.69
542.494	39788.09
542.858	39960.74
543.223	39991.48
543.587	40206.84
543.952	40232.15
544.316	40363.22
544.681	40452.26
545.045	40605.25
545.41	40858.35
545.774	40952.13
546.138	41096.08
546.503	41230.99
546.867	41216.76
547.231	41640.92
547.595	41717.31
547.959	41866.23
548.324	41770.41
548.688	42012.44
549.052	42008.37
549.416	42233.9
549.779	42221.25
550.143	42358.65
550.507	42692.65
550.871	42810.84
551.235	42881.57
551.599	43220.77
551.962	43322.46
552.326	43408.34
552.689	43683.81
553.053	43504.6
553.417	43683.58
553.78	44167.86
554.143	44039.51
554.507	44134.64
554.87	44452.38
555.234	44790.9
555.597	44552.49
555.96	44829.09
556.323	44986.15
556.686	45039.71
557.05	45378.45
557.413	45392.92
557.776	45461.39
558.139	45799.91
558.502	45825.22
558.865	45787.48
559.228	46241.48
559.59	46424.75
559.953	46427.24
560.316	46851.86
560.679	46900.22
561.041	47143.15
561.404	47238.07
561.767	47556.25
562.129	47537.04
562.492	47860.87
562.854	47935.22
563.217	47816.81
563.579	48084.82
563.941	48316.68
564.304	48459.73
564.666	48639.61
565.028	48701.3
565.39	48873.28
565.753	48988.53
566.115	49110.33
566.477	49248.18
566.839	49381.51
567.201	49651.11
567.563	49664.89
567.925	49921.16
568.287	50026.02
568.648	49999.58
569.01	50271.66
569.372	50384.42
569.734	50369.96
570.095	50499.67
570.457	50832.1
570.819	50816.5
571.18	50759.33
571.542	51052.43
571.903	51086.1
572.265	51164.06
572.626	51226.89
572.987	51444.96
573.349	51473.89
573.71	51594.56
574.071	51622.58
574.432	51754.78
574.794	51964.95
575.155	51992.52
575.516	51891.5
575.877	52124.27
576.238	52190.48
576.599	52195
576.96	52223.47
577.32	52284.71
577.681	52411.04
578.042	52443.58
578.403	52580.07
578.763	52580.3
579.124	52599.05
579.485	52684.93
579.845	52792.95
580.206	52714.76
580.566	52772.38
580.927	52719.96
581.287	52964.24
581.648	52814.19
582.008	52978.03
582.368	52964.69
582.728	53070.91
583.089	52946.16
583.449	52999.04
583.809	52994.52
584.169	53048.08
584.529	53037.46
584.889	53283.78
585.249	53042.43
585.609	53068.87
585.969	53296.21
586.329	53132.83
586.688	53201.98
587.048	53165.59
587.408	53074.75
587.768	53159.49
588.127	53143.9
588.487	53113.84
588.846	53308.64
589.206	53073.39
589.565	53142.32
589.925	53218.02
590.284	53221.19
590.643	53229.77
591.003	53366.49
591.362	53404.23
591.721	53357.68
592.08	53329.88
592.44	53321.97
592.799	53385.7
593.158	53358.81
593.517	53295.08
593.876	53428.86
594.235	53366.72
594.593	53344.35
594.952	53450.33
595.311	53346.15
595.67	53391.12
596.029	53518.58
596.387	53497.56
596.746	53522.65
597.104	53378.02
597.463	53331.92
597.822	53417.11
598.18	53399.26
598.538	53423.44
598.897	53650.33
599.255	53321.07
599.613	53821.85
599.972	53578.69
600.33	53677.22
600.688	53529.43
601.046	53669.99
601.404	53738.91
601.762	53678.35
602.12	53843.77
602.478	53840.38
602.836	53685.13
603.194	53654.85
603.552	53694.62
603.91	53622.08
604.268	53769.87
604.625	53735.52
604.983	53780.72
605.341	53585.7
605.698	53836.54
606.056	53796.54
606.413	53869.53
606.771	53879.25
607.128	53938.91
607.485	53843.32
607.843	53922.41
608.2	54019.36
608.557	54198.79
608.914	53971
609.272	54151.56
609.629	54227.03
609.986	54263.64
610.343	54126.7
610.7	54347.94
611.057	54321.27
611.414	54328.27
611.771	54281.27
612.127	54473.81
612.484	54361.72
612.841	54436.07
613.198	54335.96
613.554	54350.87
613.911	54485.78
614.267	54499.34
614.624	54384.32
614.98	54522.85
615.337	54597.42
615.693	54533.47
616.05	54527.82
616.406	54674.03
616.762	54651.43
617.118	54734.59
617.475	54596.74
617.831	54689.85
618.187	54700.92
618.543	54660.47
618.899	54896.85
619.255	54802.61
619.611	54723.74
619.967	54885.55
620.323	54856.85
620.678	54711.54
621.034	54749.28
621.39	54756.96
621.746	54730.3
622.101	54881.93
622.457	54698.21
622.812	54748.83
623.168	54738.89
623.523	54713.58
623.879	54884.42
624.234	54630.64
624.589	54715.38
624.945	54694.82
625.3	54755.61
625.655	54713.12
626.01	54715.16
626.365	54848.26
626.72	54750.64
627.075	54755.61
627.43	54744.76
627.785	54618.66
628.14	54729.39
628.495	54654.37
628.85	54689.4
629.205	54558.55
629.559	54762.16
629.914	54538.89
630.269	54487.59
630.623	54403.53
630.978	54415.96
631.332	54582.05
631.687	54549.96
632.041	54425.45
632.396	54427.48
632.75	54260.93
633.104	54351.33
633.459	54217.32
633.813	54167.6
634.167	54098.9
634.521	54154.04
634.875	54248.73
635.229	54082.63
635.583	53974.16
635.937	54026.14
636.291	53952.47
636.645	53935.06
636.999	53883.77
637.352	53961.73
637.706	53749.08
638.06	53816.42
638.413	53775.52
638.767	53707.05
639.121	53794.28
639.474	53547.5
639.828	53633.83
640.181	53672.7
640.534	53583.89
640.888	53550.67
641.241	53399.71
641.594	53563.55
641.947	53515.64
642.301	53464.34
642.654	53346.15
643.007	53387.96
643.36	53494.62
643.713	53305.48
644.066	53487.85
644.419	53252.6
644.771	52968.54
645.124	52670.01
645.477	52583.24
645.83	52430.7
646.182	52296.46
646.535	52297.82
646.888	52383.69
647.24	52155.22
647.593	52363.35
647.945	52143.7
648.298	52078.39
648.65	52082.68
649.002	51914.1
649.355	52008.11
649.707	51970.37
650.059	52033.87
650.411	52337.59
650.763	52452.62
651.115	52742.55
651.467	52694.19
651.819	52534.2
652.171	52529.45
652.523	52434.99
652.875	52525.84
653.227	52384.6
653.578	52531.94
653.93	52520.41
654.282	52372.17
654.633	52224.6
654.985	52303.47
655.337	52294.66
655.688	52110.25
656.039	52371.49
656.391	51967.43
656.742	52063.25
657.094	52021.44
657.445	52127.2
657.796	52018.96
658.147	51902.8
658.498	51922.24
658.849	52090.82
659.2	52034.32
659.551	51804.95
659.902	51917.04
660.253	51867.77
660.604	51914.78
660.955	51663.49
661.306	51807.66
661.656	51684.95
662.007	51723.6
662.358	51789.81
662.708	51719.76
663.059	51709.59
663.409	51458.07
663.76	51752.52
664.11	51694.45
664.461	51580.55
664.811	51579.42
665.161	51644.05
665.511	51491.97
665.862	51509.82
666.212	51603.37
666.562	51481.12
666.912	51554.34
667.262	51474.11
667.612	51484.96
667.962	51449.25
668.312	51346.43
668.662	51494.23
669.011	51291.29
669.361	51287.9
669.711	51252.42
670.06	51221.01
670.41	51270.05
670.76	51051.3
671.109	51232.99
671.459	51045.2
671.808	51109.38
672.157	51195.93
672.507	51000.68
672.856	50811.98
673.205	51035.48
673.554	50969.04
673.904	50823.96
674.253	51058.08
674.602	50844.98
674.951	50517.08
675.3	50276.4
675.649	50757.75
675.998	50779.44
676.346	50643.85
676.695	50780.8
677.044	50516.85
677.393	50756.17
677.741	50661.03
678.09	50521.82
678.438	50494.03
678.787	50520.92
679.135	50454.03
679.484	50249.29
679.832	50391.88
680.181	50247.03
680.529	50180.81
680.877	50160.02
681.225	50122.51
681.573	50272.79
681.922	49901.5
682.27	49930.2
682.618	49956.19
682.966	49762.52
683.314	49848.62
683.661	49661.73
684.009	49577.89
684.357	49475.75
684.705	49407.05
685.053	49417.22
685.4	49413.38
685.748	49197.34
686.095	49239.37
686.443	49007.51
686.79	48973.16
687.138	49100.39
687.485	49042.99
687.832	49004.8
688.18	48846.84
688.527	48751.25
688.874	48628.99
689.221	48539.5
689.568	48366.62
689.915	48268.77
690.262	48257.47
690.609	48220.41
690.956	48082.56
691.303	47948.78
691.65	47690.71
691.997	47715.34
692.344	47552.41
692.69	47548.79
693.037	47571.16
693.383	47051.4
693.73	47294.34
694.077	47035.13
694.423	47027.9
694.769	46658.87
695.116	46645.77
695.462	46688.93
695.808	46566.9
696.155	46585.65
696.501	46193.35
696.847	46229.28
697.193	46006.46
697.539	46166
697.885	45817.09
698.231	45743.19
698.577	45750.2
698.923	45556.3
699.269	45454.16
699.614	45119.93
699.96	45056.88
700.306	45106.6
700.651	44942.08
700.997	44757.91
701.342	44612.6
701.688	44778.02
702.033	44507.74
702.379	44454.86
702.724	44458.7
703.069	44336.9
703.415	43900.07
703.76	43941.88
704.105	43932.16
704.45	43807.65
704.795	43540.76
705.14	43474.77
705.485	43357.94
705.83	43198.17
706.175	43157.27
706.52	43113.43
706.865	43039.08
707.209	43057.16
707.554	42787.11
707.899	42901.91
708.243	42661.69
708.588	42608.81
708.932	42351.41
709.277	42315.26
709.621	42334.47
709.966	42119.56
710.31	42270.29
710.654	41988.49
710.998	41936.28
711.342	41950.3
711.687	41873.46
712.031	41454.04
712.375	41437.77
712.719	41629.17
713.063	41332.23
713.407	41513.92
713.75	41266.92
714.094	41221.95
714.438	41099.47
714.782	41027.38
715.125	40962.98
715.469	40893.6
715.812	40817.44
716.156	40612.93
716.499	40618.13
716.843	40687.05
717.186	40339.72
717.53	40387.17
717.873	40449.77
718.216	40221.53
718.559	40193.51
718.902	39894.53
719.246	39892.5
719.589	39774.31
719.932	39618.38
720.275	39808.88
720.617	39653.41
720.96	39568.44
721.303	39446.41
721.646	39416.8
721.989	39233.76
722.331	39341.32
722.674	39168.22
723.016	39207.32
723.359	39007.1
723.701	39045.51
724.044	38984.5
724.386	38736.82
724.729	38815.01
725.071	38618.63
725.413	38587.9
725.755	38605.75
726.097	38372.54
726.439	38138.42
726.782	38199.21
727.124	38533.44
727.465	38092.09
727.807	38017.07
728.149	37815.71
728.491	37862.72
728.833	37859.78
729.175	37711.76
729.516	37648.04
729.858	37512.9
730.199	37663.18
730.541	37366.01
730.882	37429.28
731.224	37507.02
731.565	37098.22
731.906	37110.87
732.248	37211.66
732.589	36895.06
732.93	36904.55
733.271	36866.81
733.612	36874.27
733.953	36976.87
734.294	36702.52
734.635	36595.18
734.976	36769.87
735.317	36531
735.658	36476.31
735.999	36390.22
736.339	36366.04
736.68	36522.87
737.021	36279.71
737.361	36150.67
737.702	36310.67
738.042	36184.8
738.383	35949.78
738.723	36057.12
739.063	35832.04
739.404	35864.58
739.744	35781.42
740.084	35583.91
740.424	35706.84
740.764	35492.39
741.104	35705.26
741.444	35261.43
741.784	35239.06
742.124	35243.58
742.464	35284.93
742.804	35100.31
743.143	35055.34
743.483	35168.78
743.823	34893.98
744.162	34901.22
744.502	34867.09
744.841	34842.23
745.181	34840.88
745.52	34677.94
745.86	34767.21
746.199	34640.43
746.538	34464.39
746.877	34655.12
747.216	34684.27
747.556	34388.69
747.895	34500.77
748.234	34237.5
748.573	34245.64
748.911	34136.26
749.25	34186.43
749.589	34087.45
749.928	34135.59
750.267	34098.07
750.605	33889.04
750.944	33784.86
751.283	33772.43
751.621	33829.15
751.96	33564.08
752.298	33489.05
752.636	33564.53
752.975	33421.25
753.313	33166.57
753.651	33322.73
753.989	33175.38
754.327	33181.03
754.666	32861.49
755.004	32936.75
755.342	32887.93
755.679	32852.68
756.017	32695.85
756.355	32701.72
756.693	32559.13
757.031	32520.26
757.368	32251.12
757.706	32288.63
758.044	32292.92
758.381	32166.82
758.719	32066.26
759.056	31991.24
759.394	31978.13
759.731	31675.54
760.068	31647.74
760.405	31536.33
760.743	31221.54
761.08	31505.6
761.417	31384.92
761.754	31274.64
762.091	31177.25
762.428	30938.83
762.765	30954.88
763.102	30901.55
763.438	30711.49
763.775	30667.65
764.112	30605.96
764.449	30700.87
764.785	30445.74
765.122	30368.68
765.458	30167.78
765.795	30152.64
766.131	30045.3
766.467	29863.38
766.804	29805.53
767.14	29693.89
767.476	29605.54
767.812	29368.93
768.148	29522.6
768.485	29278.54
768.821	29032.89
769.157	29166
769.492	29056.62
769.828	28934.82
770.164	28608.73
770.5	28654.15
770.836	28717.42
771.171	28552.23
771.507	28354.04
771.842	28104.33
772.178	28143.88
772.513	28112.69
772.849	28031.57
773.184	27855.3
773.519	27858.91
773.855	27646.94
774.19	27630.9
774.525	27488.75
774.86	27509.09
775.195	27446.5
775.53	27221.87
775.865	26968.99
776.2	26907.53
776.535	26810.13
776.87	26722
777.205	26638.83
777.539	26609.46
777.874	26590.7
778.209	26334.21
778.543	26343.25
778.878	26101.45
779.212	26038.85
779.547	25875.24
779.881	25952.75
780.215	25785.07
780.55	25833.2
780.884	25538.07
781.218	25414.01
781.552	25602.7
781.886	25232.32
782.22	25132.88
782.554	24997.75
782.888	24821.25
783.222	24883.4
783.556	24674.37
783.889	24654.25
784.223	24462.85
784.557	24425.33
784.89	24510.98
785.224	24299.69
785.557	24187.82
785.891	24136.3
786.224	24018.56
786.558	23948.96
786.891	23755.97
787.224	23679.36
787.557	23573.38
787.891	23473.72
788.224	23473.94
788.557	23395.08
788.89	23299.71
789.223	23285.93
789.556	23110.34
789.888	23068.08
790.221	22894.53
790.554	22712.16
790.887	22678.49
791.219	22665.38
791.552	22517.13
791.884	22520.98
792.217	22464.48
792.549	22338.83
792.882	22125.73
793.214	22068.11
793.546	22176.13
793.879	22024.04
794.211	21823.82
794.543	22049.8
794.875	21943.82
795.207	21915.12
795.539	21684.16
795.871	21742.92
796.203	21518.97
796.535	21469.25
796.867	21376.15
797.198	21356.03
797.53	21358.52
797.862	21095.02
798.193	21164.18
798.525	21091.41
798.856	21111.97
799.188	20845.31
799.519	20864.75
799.85	20702.49
800.182	20693.45
800.513	20666.11
800.844	20503.4
801.175	20658.88
801.506	20465.21
801.837	20332.78
802.168	20260.02
802.499	20234.03
802.83	20097.08
803.161	20123.52
803.491	20027.26
803.822	20057.09
804.153	19902.51
804.483	19747.04
804.814	19758.11
805.145	19726.92
805.475	19639.92
805.805	19640.6
806.136	19552.24
806.466	19617.32
806.796	19548.17
807.126	19324.22
807.457	19250.55
807.787	19221.4
808.117	19229.08
808.447	19088.98
808.777	19192.02
809.107	19148.18
809.436	19016.21
809.766	19098.47
810.096	18997.68
810.426	18886.27
810.755	18957.45
811.085	18840.39
811.414	18818.47
811.744	18638.14
812.073	18629.78
812.403	18685.82
812.732	18519.27
813.061	18635.88
813.39	18433.17
813.719	18344.36
814.049	18532.61
814.378	18362.67
814.707	18193.63
815.036	18347.53
815.365	18209.9
815.693	18031.38
816.022	18084.48
816.351	17959.74
816.68	17876.58
817.008	17836.35
817.337	17802.46
817.665	17723.59
817.994	17842.23
818.322	17783.02
818.651	17679.97
818.979	17593.87
819.307	17623.03
819.636	17663.93
819.964	17494.22
820.292	17543.71
820.62	17459.41
820.948	17369.47
821.276	17429.36
821.604	17427.78
821.932	17369.7
822.259	17446.08
822.587	17264.62
822.915	17336.48
823.243	17335.12
823.57	17281.11
823.898	17272.98
824.225	17216.26
824.553	17305.29
824.88	17351.62
825.207	17281.34
825.535	17218.52
825.862	17349.81
826.189	17211.06
826.516	17308.46
826.843	17325.86
827.17	17361.56
827.497	17321.34
827.824	17209.25
828.151	17301.23
828.478	17251.51
828.805	17217.61
829.131	17250.83
829.458	17137.61
829.785	17103.26
830.111	17131.96
830.438	17209.7
830.764	17112.98
831.09	17128.35
831.417	17017.39
831.743	17187.1
832.069	17053.1
832.395	17041.8
832.722	17077.5
833.048	17033.21
833.374	16953.89
833.7	16998.41
834.026	16922.93
834.351	17005.19
834.677	16978.3
835.003	17079.76
835.329	16890.62
835.654	16847.23
835.98	16741.47
836.306	16750.96
836.631	16662.15
836.956	16778.75
837.282	16864.18
837.607	16661.47
837.932	16625.31
838.258	16775.14
838.583	16623.96
838.908	16522.49
839.233	16599.55
839.558	16440.68
839.883	16396.62
840.208	16367.01
840.533	16333.79
840.858	16389.16
841.182	16308.71
841.507	16298.09
841.832	16225.77
842.156	16172.22
842.481	16133.12
842.805	16110.75
843.13	16071.65
843.454	16137.41
843.778	16025.55
844.103	15958.21
844.427	15911.66
844.751	15836.18
845.075	15826.69
845.399	15807.48
845.723	15669.63
846.047	15709.18
846.371	15635.05
846.695	15573.59
847.019	15421.73
847.343	15372.46
847.666	15212.02
847.99	15197.55
848.313	15252.47
848.637	15065.8
848.96	14992.81
849.284	15028.74
849.607	14962.3
849.931	14963.89
850.254	14762.76
850.577	14737
850.9	14587.4
851.223	14624.23
851.546	14506.95
851.869	14476.44
852.192	14465.59
852.515	14436.44
852.838	14336.11
853.161	14294.3
853.483	14248.88
853.806	14166.17
854.129	14155.55
854.451	14156
854.774	14099.95
855.096	13989.67
855.419	13947.42
855.741	13969.11
856.063	13866.74
856.385	13797.14
856.708	13777.7
857.03	13716.24
857.352	13819.06
857.674	13629.68
857.996	13654.32
858.318	13628.33
858.64	13596.01
858.961	13474.21
859.283	13413.87
859.605	13404.83
859.926	13459.29
860.248	13336.13
860.57	13328.9
860.891	13290.48
861.212	13226.76
861.534	13204.84
861.855	13254.1
862.176	13226.3
862.498	13137.95
862.819	13180.88
863.14	13088
863.461	13032.64
863.782	13019.08
864.103	13012.53
864.424	12955.8
864.745	12968.91
865.065	12866.99
865.386	12829.48
865.707	12841
866.027	12883.04
866.348	12855.92
866.668	12874.68
866.989	12805.52
867.309	12702.48
867.63	12693.44
867.95	12690.05
868.27	12608.92
868.59	12676.49
868.91	12605.98
869.23	12632.87
869.55	12600.33
869.87	12621.12
870.19	12526.66
870.51	12613.89
870.83	12549.26
871.15	12396.5
871.469	12453.44
871.789	12542.03
872.109	12475.59
872.428	12331.64
872.748	12325.99
873.067	12320.34
873.386	12300
873.706	12314.46
874.025	12261.13
874.344	12304.07
874.663	12199.89
874.982	12177.97
875.301	12204.41
875.62	12199.67
875.939	12116.28
876.258	12146.11
876.577	12102.49
876.896	12101.59
877.214	12000.12
877.533	12038.54
877.852	12043.96
878.17	12000.12
878.489	12041.25
878.807	11975.26
879.125	11953.12
879.444	11957.41
879.762	12031.76
880.08	11906.79
880.398	11822.5
880.716	11877.87
881.034	11811.65
881.352	11772.78
881.67	11683.07
881.988	11738.43
882.306	11743.63
882.624	11682.16
882.941	11590.87
883.259	11549.06
883.577	11537.76
883.894	11534.37
884.212	11475.39
884.529	11462.96
884.846	11450.76
885.164	11430.65
885.481	11315.39
885.798	11455.96
886.115	11352.46
886.432	11302.97
886.75	11262.51
887.067	11257.32
887.383	11238.79
887.7	11224.78
888.017	11157.43
888.334	11116.08
888.651	11156.75
888.967	11141.84
889.284	11032.69
889.6	11037.89
889.917	10950.88
890.233	11002.41
890.55	10800.38
890.866	10855.29
891.182	10867.5
891.498	10783.66
891.815	10796.54
892.131	10789.31
892.447	10699.14
892.763	10658.91
893.079	10636.54
893.395	10559.48
893.71	10474.29
894.026	10535.98
894.342	10479.71
894.657	10436.55
894.973	10416.44
895.289	10367.4
895.604	10377.34
895.92	10325.36
896.235	10234.07
896.55	10250.11
896.865	10215.99
897.181	10174.63
897.496	10200.17
897.811	10093.05
898.126	10106.16
898.441	10017.35
898.756	9942.78
899.071	9954.53
899.386	9996.56
899.7	9891.03
900.015	9775.1
900.33	9808.54
900.644	9715.66
900.959	9736.45
901.273	9656
901.588	9580.98
901.902	9592.73
902.216	9529.9
902.531	9564.93
902.845	9472.05
903.159	9493.97
903.473	9415.56
903.787	9380.08
904.101	9286.3
904.415	9337.37
904.729	9225.96
905.042	9166.07
905.356	9130.37
905.67	9260.53
905.984	9207.2
906.297	9086.3
906.611	9087.88
906.924	9084.94
907.237	9018.96
907.551	9043.82
907.864	8979.41
908.177	8936.47
908.491	8930.82
908.804	8800.21
909.117	8844.95
909.43	8798.17
909.743	8686.76
910.056	8668.91
910.368	8665.29
910.681	8590.27
910.994	8559.53
911.307	8522.25
911.619	8472.53
911.932	8488.35
912.244	8455.36
912.557	8382.82
912.869	8361.8
913.181	8349.37
913.494	8278.64
913.806	8256.72
914.118	8308.47
914.43	8157.29
914.742	8147.79
915.054	8068.25
915.366	8070.28
915.678	8021.7
915.99	7985.99
916.302	7943.51
916.613	7949.61
916.925	7930.85
917.236	7959.1
917.548	7858.54
917.859	7861.93
918.171	7775.83
918.482	7717.98
918.794	7723.4
919.105	7697.41
919.416	7585.1
919.727	7607.92
920.038	7630.75
920.349	7493.8
920.66	7489.73
920.971	7542.16
921.282	7436.4
921.593	7454.25
921.903	7428.72
922.214	7347.36
922.525	7330.87
922.835	7317.76
923.146	7184.66
923.456	7229.4
923.767	7154.15
924.077	7201.38
924.387	7160.25
924.697	7140.82
925.008	7124.54
925.318	7082.74
925.628	7027.82
925.938	6966.36
926.248	6868.96
926.558	6930.65
926.867	6880.03
927.177	6867.6
927.487	6828.05
927.796	6749.64
928.106	6812.91
928.416	6748.51
928.725	6750.09
929.034	6698.57
929.344	6658.34
929.653	6712.35
929.962	6565.69
930.271	6520.27
930.581	6510.55
930.89	6506.48
931.199	6450.89
931.508	6480.95
931.817	6469.42
932.125	6408.18
932.434	6393.04
932.743	6346.94
933.051	6295.87
933.36	6256.09
933.669	6190.11
933.977	6193.72
934.286	6204.57
934.594	6191.24
934.902	6147.62
935.21	6120.05
935.519	6052.71
935.827	6052.26
936.135	6006.83
936.443	5960.73
936.751	5924.35
937.059	5875.31
937.367	5903.79
937.674	5876.44
937.982	5945.37
938.29	5879.38
938.597	5807.29
938.905	5725.71
939.213	5754.18
939.52	5728.2
939.827	5681.87
940.135	5665.83
940.442	5623.79
940.749	5593.96
941.056	5587.64
941.363	5575.66
941.67	5546.05
941.977	5505.38
942.284	5485.72
942.591	5435.32
942.898	5439.62
943.205	5431.93
943.511	5387.41
943.818	5352.16
944.125	5330.47
944.431	5282.11
944.738	5240.07
945.044	5197.14
945.35	5242.79
945.657	5226.06
945.963	5209.79
946.269	5115.33
946.575	5148.78
946.881	5119.17
947.187	5075.56
947.493	5057.25
947.799	5015
948.105	4975.45
948.41	4954.88
948.716	4953.08
949.022	4955.79
949.327	4962.12
949.633	4862.46
949.938	4909.24
950.244	4845.06
950.549	4858.39
950.854	4809.58
951.16	4795.79
951.465	4774.55
951.77	4788.11
952.075	4721.67
952.38	4719.41
952.685	4739.3
952.99	4667.43
953.294	4633.99
953.599	4667.66
953.904	4638.06
954.209	4593.54
954.513	4566.87
954.818	4534.33
955.122	4542.47
955.426	4524.61
955.731	4460.66
956.035	4452.75
956.339	4464.28
956.643	4415.24
956.948	4342.47
957.252	4382.24
957.556	4353.54
957.86	4362.81
958.163	4365.29
958.467	4335.47
958.771	4299.99
959.075	4251.63
959.378	4231.29
959.682	4251.63
959.985	4216.82
960.289	4207.56
960.592	4167.11
960.896	4149.26
961.199	4144.06
961.502	4101.8
961.805	4160.78
962.108	4057.51
962.411	4034.23
962.714	4009.6
963.017	4023.61
963.32	4021.8
963.623	4003.04
963.926	3963.5
964.228	3923.27
964.531	3948.81
964.833	3952.65
965.136	3930.28
965.438	3917.62
965.741	3864.07
966.043	3864.97
966.345	3844.86
966.648	3839.88
966.95	3867.68
967.252	3823.61
967.554	3791.75
967.856	3730.28
968.158	3751.07
968.46	3720.79
968.761	3683.73
969.063	3696.39
969.365	3634.92
969.666	3655.03
969.968	3650.74
970.269	3631.3
970.571	3579.55
970.872	3561.93
971.174	3559.21
971.475	3548.82
971.776	3573.45
972.077	3559.67
972.378	3504.07
972.679	3482.61
972.98	3525.77
973.281	3478.99
973.582	3459.33
973.883	3412.78
974.183	3402.16
974.484	3396.51
974.785	3371.87
975.085	3405.55
975.386	3383.4
975.686	3371.2
975.986	3365.32
976.287	3373.68
976.587	3261.82
976.887	3303.4
977.187	3265.89
977.487	3264.76
977.787	3243.06
978.087	3256.85
978.387	3273.8
978.687	3241.93
978.987	3231.99
979.286	3184.53
979.586	3170.52
979.885	3163.52
980.185	3092.56
980.484	3145.67
980.784	3119.9
981.083	3121.71
981.382	3071.32
981.682	3063.18
981.981	3033.13
982.28	3068.61
982.579	3002.84
982.878	3009.85
983.177	3024.99
983.475	3032.22
983.774	2962.39
984.073	2943.86
984.372	2942.51
984.67	2942.73
984.969	2941.38
985.267	2872.45
985.566	2906.58
985.864	2895.95
986.162	2869.51
986.461	2867.03
986.759	2860.7
987.057	2845.11
987.355	2812.79
987.653	2795.17
987.951	2783.87
988.249	2757.65
988.547	2802.62
988.844	2769.18
989.142	2752.23
989.44	2718.33
989.737	2712.91
990.035	2678.33
990.332	2697.32
990.63	2669.52
990.927	2651.44
991.224	2672.68
991.521	2633.36
991.819	2607.83
992.116	2605.12
992.413	2558.79
992.71	2541.61
993.006	2593.59
993.303	2562.63
993.6	2502.07
993.897	2523.76
994.193	2544.1
994.49	2538.9
994.787	2512.91
995.083	2487.83
995.379	2475.18
995.676	2420.71
995.972	2443.09
996.268	2426.81
996.565	2399.7
996.861	2414.16
997.157	2392.69
997.453	2373.48
997.749	2377.55
998.044	2324.9
998.34	2357.21
998.636	2346.36
998.932	2288.29
999.227	2294.84
999.523	2270.89
999.818	2258.23
1000.114	2247.38
1000.409	2249.64
1000.704	2209.19
1001	2231.57
1001.295	2233.15
1001.59	2218.91
1001.885	2218.23
1002.18	2199.25
1002.475	2122.42
1002.77	2187.05
1003.065	2124.9
1003.359	2125.13
1003.654	2133.04
1003.949	2116.54
1004.243	2103.89
1004.538	2075.41
1004.832	2080.38
1005.127	2070.44
1005.421	2046.49
1005.715	2057.33
1006.009	2047.39
1006.304	2000.16
1006.598	2004.9
1006.892	1985.02
1007.186	1970.33
1007.48	1984.57
1007.773	1946.38
1008.067	1940.05
1008.361	1920.61
1008.655	1887.39
1008.948	1914.74
1009.242	1907.28
1009.535	1893.5
1009.829	1898.24
1010.122	1868.64
1010.415	1830.22
1010.708	1817.79
1011.001	1816.66
1011.295	1829.99
1011.588	1818.7
1011.881	1830.45
1012.173	1777.57
1012.466	1782.54
1012.759	1788.64
1013.052	1783.44
1013.344	1753.16
1013.637	1723.78
1013.93	1723.78
1014.222	1706.38
1014.514	1685.37
1014.807	1673.84
1015.099	1691.47
1015.391	1678.13
1015.683	1686.04
1015.976	1644.91
1016.268	1651.24
1016.56	1630.9
1016.851	1601.3
1017.143	1580.96
1017.435	1617.57
1017.727	1590.23
1018.018	1599.94
1018.31	1558.14
1018.602	1522.66
1018.893	1557.91
1019.185	1524.24
1019.476	1515.88
1019.767	1533.5
1020.058	1512.94
1020.35	1467.52
1020.641	1491.25
1020.932	1458.48
1021.223	1480.4
1021.514	1439.04
1021.804	1434.52
1022.095	1428.2
1022.386	1442.66
1022.677	1409.89
1022.967	1401.53
1023.258	1408.08
1023.548	1362.44
1023.839	1370.57
1024.129	1357.92
1024.419	1359.95
1024.709	1368.31
1025	1351.14
1025.29	1324.7
1025.58	1319.27
1025.87	1315.21
1026.16	1304.36
1026.449	1302.1
1026.739	1250.57
1027.029	1295.09
1027.319	1267.52
1027.608	1234.08
1027.898	1271.59
1028.187	1239.28
1028.477	1242.67
1028.766	1249.67
1029.055	1193.85
1029.344	1217.58
1029.634	1211.93
1029.923	1176.9
1030.212	1168.09
1030.501	1179.16
1030.79	1154.53
1031.078	1176.9
1031.367	1143.01
1031.656	1150.24
1031.945	1131.03
1032.233	1158.15
1032.522	1095.55
1032.81	1135.32
1033.099	1119.05
1033.387	1103.91
1033.675	1080.86
1033.963	1109.79
1034.251	1081.09
1034.54	1063.69
1034.828	1062.56
1035.116	1040.18
1035.403	1073.63
1035.691	1060.52
1035.979	1063.69
1036.267	1063.69
1036.554	1006.29
1036.842	1018.04
1037.129	1010.35
1037.417	1012.61
1037.704	1007.87
1037.992	960.19
1038.279	992.28
1038.566	999.06
1038.853	999.06
1039.14	999.06
