Data from whiteboard_FLMS001491_00062.txt Node
Date: Wed Feb 08 11:27:28 GMT 2017
User: dcchb
Spectrometer: FLMS00149
Trigger mode: 0
Integration Time (sec): 2.000000E-2
Scans to average: 10
Electric dark correction enabled: true
Nonlinearity correction enabled: false
Boxcar width: 0
XAxis mode: Wavelengths
Number of Pixels in Spectrum: 2048
>>>>>Begin Spectral Data<<<<<
341.393	-20.51
341.776	-20.51
342.16	-20.51
342.543	-45.82
342.927	-67.74
343.31	-51.69
343.693	-61.64
344.077	-76.55
344.46	-73.84
344.843	-39.49
345.226	-50.34
345.61	-37.46
345.993	-19.83
346.376	-5.59
346.759	18.36
347.142	31.92
347.525	45.48
347.908	61.07
348.291	64.01
348.674	96.55
349.057	99.04
349.44	128.64
349.823	143.1
350.206	183.78
350.588	222.42
350.971	239.82
351.354	258.81
351.737	280.05
352.119	296.77
352.502	302.87
352.884	308.97
353.267	314.85
353.65	329.31
354.032	332.25
354.414	345.36
354.797	349.2
355.179	378.35
355.562	360.72
355.944	346.94
356.326	357.11
356.709	369.54
357.091	370.89
357.473	382.19
357.855	366.37
358.238	381.29
358.62	388.75
359.002	385.58
359.384	388.07
359.766	381.29
360.148	392.36
360.53	386.26
360.912	364.79
361.294	382.65
361.676	374.96
362.057	383.78
362.439	375.64
362.821	382.87
363.203	379.48
363.584	381.29
363.966	365.02
364.348	375.41
364.729	375.87
365.111	379.26
365.493	372.25
365.874	363.44
366.256	369.99
366.637	349.65
367.019	382.42
367.4	367.05
367.781	364.11
368.163	369.31
368.544	381.29
368.925	383.55
369.306	370.67
369.688	375.19
370.069	364.11
370.45	363.21
370.831	358.92
371.212	358.47
371.593	399.14
371.974	376.09
372.355	380.61
372.736	397.56
373.117	397.11
373.498	400.05
373.879	391.23
374.26	379.71
374.641	380.16
375.021	373.61
375.402	379.48
375.783	364.34
376.163	427.39
376.544	406.6
376.925	416.77
377.305	412.02
377.686	424.23
378.066	398.69
378.447	415.64
378.827	411.35
379.208	413.83
379.588	415.41
379.968	402.76
380.349	412.02
380.729	431.91
381.109	419.48
381.489	443.89
381.87	449.99
382.25	426.94
382.63	442.53
383.01	444.56
383.39	451.8
383.77	459.25
384.15	464
384.53	464
384.91	490.21
385.29	472.13
385.67	494.28
386.049	484.34
386.429	507.84
386.809	484.79
387.189	505.81
387.568	527.95
387.948	503.09
388.328	516.88
388.707	528.63
389.087	516.2
389.466	534.51
389.846	553.26
390.225	551.23
390.605	560.04
390.984	552.58
391.363	557.56
391.743	575.18
392.122	572.92
392.501	603.66
392.881	593.71
393.26	600.27
393.639	624.45
394.018	614.05
394.397	608.18
394.776	624.45
395.155	661.06
395.534	645.92
395.913	669.87
396.292	659.02
396.671	679.36
397.05	675.74
397.429	688.17
397.808	695.86
398.186	714.16
398.565	701.96
398.944	715.52
399.323	753.03
399.701	746.03
400.08	760.26
400.458	772.24
400.837	788.06
401.215	793.93
401.594	801.39
401.972	807.04
402.351	847.72
402.729	867.83
403.107	876.64
403.486	876.19
403.864	909.86
404.242	920.71
404.62	926.13
404.999	939.92
405.377	958
405.755	983.99
406.133	973.59
406.511	1009.97
406.889	1016.98
407.267	1045
407.645	1083.19
408.023	1081.16
408.401	1137.43
408.779	1110.08
409.156	1197.99
409.534	1194.6
409.912	1184.66
410.29	1217.88
410.667	1239.57
411.045	1277.99
411.422	1297.42
411.8	1323.19
412.178	1354.82
412.555	1359.57
412.933	1380.81
413.31	1400.25
413.687	1420.58
414.065	1476.85
414.442	1481.6
414.819	1529.73
415.197	1518.43
415.574	1554.59
415.951	1560.02
416.328	1591.65
416.705	1588.72
417.082	1644.76
417.46	1652.89
417.837	1690.41
418.214	1688.37
418.591	1706
418.967	1705.77
419.344	1751.87
419.721	1792.78
420.098	1788.26
420.475	1804.08
420.852	1833.68
421.228	1887.92
421.605	1897.86
421.982	1928.37
422.358	1941.25
422.735	1961.81
423.111	1957.97
423.488	2059.44
423.864	2032.55
424.241	2091.07
424.617	2095.14
424.994	2136.05
425.37	2122.94
425.746	2141.92
426.123	2166.55
426.499	2201.58
426.875	2225.99
427.251	2283.61
427.627	2330.84
428.003	2358.64
428.379	2380.11
428.756	2400.9
429.132	2446.55
429.507	2515.7
429.883	2556.37
430.259	2568.58
430.635	2583.72
431.011	2640.44
431.387	2701.45
431.763	2732.64
432.138	2729.48
432.514	2787.78
432.89	2810.6
433.265	2879.75
433.641	2944.16
434.016	2939.19
434.392	3019.64
434.767	3064.16
435.143	3042.01
435.518	3124.72
435.894	3144.61
436.269	3164.27
436.644	3215.79
437.02	3286.52
437.395	3327.88
437.77	3342.57
438.145	3406.29
438.52	3429.34
438.895	3489.23
439.271	3521.55
439.646	3576.69
440.021	3616.23
440.395	3646.29
440.77	3606.06
441.145	3644.71
441.52	3726.96
441.895	3740.3
442.27	3810.13
442.645	3792.95
443.019	3844.93
443.394	3827.3
443.769	3892.38
444.143	3903.46
444.518	3961.99
444.892	3994.53
445.267	3989.33
445.641	4059.38
446.016	4078.59
446.39	4073.85
446.764	4119.72
447.139	4156.33
447.513	4189.55
447.887	4193.62
448.262	4213.96
448.636	4232.04
449.01	4317.91
449.384	4405.14
449.758	4385.03
450.132	4471.13
450.506	4538.02
450.88	4531.69
451.254	4549.09
451.628	4647.39
452.002	4653.27
452.376	4777.33
452.75	4818.23
453.123	4852.58
453.497	4938.91
453.871	4970.32
454.244	5097.55
454.618	5127.83
454.992	5215.74
455.365	5188.85
455.739	5349.75
456.112	5395.17
456.486	5462.96
456.859	5472.68
457.232	5641.26
457.606	5596.52
457.979	5712
458.352	5799.45
458.725	5864.99
459.099	5914.48
459.472	6020.69
459.845	6082.38
460.218	6116.73
460.591	6153.34
460.964	6194.02
461.337	6382.04
461.71	6473.56
462.083	6550.39
462.456	6565.53
462.829	6598.98
463.201	6727.34
463.574	6783.83
463.947	6926.65
464.32	7077.16
464.692	7165.52
465.065	7203.71
465.438	7366.64
465.81	7410.48
466.183	7521.21
466.555	7709.01
466.928	7801.21
467.3	7782.22
467.672	7966.4
468.045	8072.39
468.417	8140.41
468.789	8223.12
469.161	8329.1
469.534	8502.66
469.906	8717.12
470.278	8733.84
470.65	8837.11
471.022	8999.14
471.394	9212.47
471.766	9226.71
472.138	9310.32
472.51	9512.35
472.882	9698.33
473.253	9819.23
473.625	9916.63
473.997	10107.14
474.369	10208.6
474.74	10389.39
475.112	10534.02
475.484	10705.76
475.855	10921.35
476.227	11004.74
476.598	11335.8
476.97	11447.21
477.341	11718.39
477.713	11895.79
478.084	12007.2
478.455	12327.42
478.827	12408.09
479.198	12800.85
479.569	12849.66
479.94	13251.46
480.311	13314.06
480.682	13690.09
481.053	14078.33
481.424	14271.09
481.795	14341.83
482.166	14594.93
482.537	14889.16
482.908	15036.72
483.279	15269.26
483.65	15450.72
484.021	15843.93
484.391	16029.92
484.762	16279.18
485.133	16407.31
485.503	16538.6
485.874	16934.98
486.244	17143.79
486.615	17449.09
486.985	17679.59
487.356	18026.02
487.726	18177.21
488.097	18457.2
488.467	18663.52
488.837	19062.15
489.207	19263.73
489.578	19534.91
489.948	19657.62
490.318	20045.86
490.688	20049.25
491.058	20308.22
491.428	20703.01
491.798	20799.96
492.168	21220.52
492.538	21290.12
492.908	21592.03
493.278	21994.05
493.648	21958.8
494.017	22272.69
494.387	22422.52
494.757	22594.26
495.126	22846.91
495.496	23035.16
495.866	23168.94
496.235	23454.36
496.605	23715.59
496.974	23895.25
497.344	24154.9
497.713	24167.33
498.082	24416.14
498.452	24728.45
498.821	24806.41
499.19	24817.03
499.559	25198.26
499.928	25250.24
500.298	25557.8
500.667	25758.25
501.036	25797.8
501.405	26144
501.774	26117.34
502.143	26362.08
502.512	26569.53
502.88	26735.4
503.249	26778.56
503.618	27013.58
503.987	27107.59
504.356	27372.22
504.724	27460.58
505.093	27567.02
505.462	27701.7
505.83	28054.46
506.199	28297.62
506.567	28692.41
506.936	28647.21
507.304	29105.05
507.672	29079.97
508.041	29290.36
508.409	29442.22
508.777	29680.41
509.145	29956.33
509.514	30075.88
509.882	30279.03
510.25	30245.59
510.618	30533.04
510.986	30717.44
511.354	31044.66
511.722	31281.95
512.09	31563.52
512.458	31586.12
512.826	31826.79
513.193	32017.29
513.561	32196.95
513.929	32347.91
514.297	32787.44
514.664	32883.49
515.032	32927.1
515.4	33329.35
515.767	33518.72
516.135	33719.17
516.502	33656.8
516.869	34090.46
517.237	34249.1
517.604	34401.64
517.972	34831.68
518.339	35135.63
518.706	35236.64
519.073	35365.23
519.44	35677.54
519.808	36048.15
520.175	36142.61
520.542	36577.85
520.909	36758.41
521.276	36916.37
521.643	37252.86
522.009	37501.67
522.376	37804.94
522.743	37973.52
523.11	38409.44
523.477	38746.38
523.843	38941.86
524.21	39454.84
524.577	39685.79
524.943	39878.56
525.31	40082.17
525.676	40404.64
526.043	40620.23
526.409	40879.43
526.776	41300.21
527.142	41368.46
527.508	41543.6
527.874	41887.77
528.241	42046.63
528.607	42047.09
528.973	42495.66
529.339	42630.57
529.705	43028.53
530.071	43339.03
530.437	43506.03
530.803	43657.21
531.169	43943.76
531.535	43920.48
531.901	44070.76
532.267	44359.79
532.632	44526.8
532.998	44686.34
533.364	44924.3
533.73	45040.68
534.095	45394.8
534.461	45465.75
534.826	45787.78
535.192	45763.37
535.557	46231.61
535.923	46162.23
536.288	46348.67
536.653	46635.44
537.019	46396.8
537.384	46717.7
537.749	47009.44
538.114	47099.61
538.479	47081.08
538.845	47407.4
539.21	47333.73
539.575	47604.91
539.94	47779.37
540.305	47986.14
540.67	48034.05
541.034	48306.36
541.399	48381.84
541.764	48560.36
542.129	48693.92
542.494	48889.39
542.858	48880.35
543.223	48998.54
543.587	49274.69
543.952	49264.3
544.316	49440.79
544.681	49521.01
545.045	49699.31
545.41	49948.12
545.774	50069.25
546.138	50021.11
546.503	50149.47
546.867	50120.32
547.231	50492.06
547.595	50568.44
547.959	50680.08
548.324	50678.05
548.688	50848.44
549.052	50967.98
549.416	50935.21
549.779	50976.34
550.143	51105.61
550.507	51260.4
550.871	51386.05
551.235	51248.2
551.599	51576.1
551.962	51635.76
552.326	51664.23
552.689	51879.6
553.053	51800.28
553.417	51921.86
553.78	52303.09
554.143	52201.4
554.507	52259.47
554.87	52465.34
555.234	52737.43
555.597	52538.11
555.96	52753.47
556.323	52839.8
556.686	52870.08
557.05	53116.17
557.413	53075.5
557.776	53226
558.139	53393.91
558.502	53458.54
558.865	53503.73
559.228	53714.8
559.59	53892.88
559.953	53927.23
560.316	54203.83
560.679	54233.66
561.041	54415.57
561.404	54490.15
561.767	54692.63
562.129	54724.95
562.492	54988.67
562.854	55034.32
563.217	55080.42
563.579	55283.57
563.941	55490.12
564.304	55624.81
564.666	55779.83
565.028	55810.11
565.39	55935.76
565.753	56060.5
566.115	56220.05
566.477	56314.96
566.839	56311.8
567.201	56525.8
567.563	56592.69
567.925	56775.74
568.287	56763.08
568.648	56856.64
569.01	56945
569.372	57049.86
569.734	57112.23
570.095	57238.33
570.457	57284.65
570.819	57317.19
571.18	57340.92
571.542	57449.85
571.903	57456.17
572.265	57624.76
572.626	57596.51
572.987	57714.02
573.349	57796.73
573.71	57808.03
574.071	57872.21
574.432	57911.53
574.794	58091.86
575.155	58036.04
575.516	57909.95
575.877	58089.83
576.238	58130.73
576.599	58154.69
576.96	58177.06
577.32	58235.36
577.681	58293.66
578.042	58283.04
578.403	58303.16
578.763	58332.53
579.124	58368.47
579.485	58352.42
579.845	58488.01
580.206	58442.14
580.566	58442.36
580.927	58414.79
581.287	58564.84
581.648	58523.94
582.008	58617.95
582.368	58599.42
582.728	58622.02
583.089	58635.35
583.449	58666.54
583.809	58714.9
584.169	58769.58
584.529	58765.97
584.889	58975
585.249	58843.71
585.609	58770.94
585.969	58984.27
586.329	58911.73
586.688	58984.04
587.048	58996.25
587.408	59030.14
587.768	59007.54
588.127	59071.27
588.487	59099.29
588.846	59204.6
589.206	59065.62
589.565	59184.94
589.925	59264.49
590.284	59230.14
590.643	59299.97
591.003	59345.39
591.362	59444.37
591.721	59292.96
592.08	59379.06
592.44	59396.69
592.799	59427.65
593.158	59374.99
593.517	59349.23
593.876	59415.9
594.235	59269.01
594.593	59332.73
594.952	59390.59
595.311	59289.57
595.67	59398.04
596.029	59450.92
596.387	59378.61
596.746	59369.57
597.104	59272.62
597.463	59245.5
597.822	59390.13
598.18	59158.95
598.538	59165.51
598.897	59278.27
599.255	59108.33
599.613	59403.24
599.972	59221.1
600.33	59254.09
600.688	59146.75
601.046	59153.98
601.404	59285.5
601.762	59233.08
602.12	59245.05
602.478	59224.26
602.836	59204.15
603.194	59211.15
603.552	59179.07
603.91	59119.41
604.268	59248.89
604.625	59237.59
604.983	59303.36
605.341	59169.12
605.698	59273.53
606.056	59383.35
606.413	59384.48
606.771	59450.24
607.128	59505.61
607.485	59386.74
607.843	59481.43
608.2	59601.65
608.557	59720.52
608.914	59674.87
609.272	59744.02
609.629	59785.83
609.986	59915.77
610.343	59816.34
610.7	60017.24
611.057	59927.75
611.414	59951.25
611.771	60019.27
612.127	60150.34
612.484	60131.36
612.841	60297
613.198	60182.88
613.554	60275.08
613.911	60420.39
614.267	60388.07
614.624	60376.55
614.98	60459.94
615.337	60524.79
615.693	60509.88
616.05	60512.36
616.406	60650.67
616.762	60535.19
617.118	60636.43
617.475	60602.3
617.831	60707.39
618.187	60624.23
618.543	60679.36
618.899	60788.06
619.255	60693.6
619.611	60634.39
619.967	60755.07
620.323	60749.65
620.678	60651.12
621.034	60569.54
621.39	60562.76
621.746	60530.22
622.101	60745.8
622.457	60462.2
622.812	60539.48
623.168	60577.9
623.523	60503.1
623.879	60595.75
624.234	60314.4
624.589	60362.54
624.945	60398.47
625.3	60363.89
625.655	60274.86
626.01	60268.98
626.365	60291.35
626.72	60259.71
627.075	60186.04
627.43	60172.03
627.785	60091.36
628.14	60176.33
628.495	60125.71
628.85	60108.31
629.205	60069.44
629.559	60154.41
629.914	60103.56
630.269	60019.72
630.623	60017.91
630.978	59936.56
631.332	60078.48
631.687	60101.53
632.041	59998.25
632.396	60040.29
632.75	59850.69
633.104	59951.02
633.459	59853.62
633.813	59880.06
634.167	59832.61
634.521	59878.71
634.875	59950.57
635.229	59849.1
635.583	59843
635.937	59890.01
636.291	59883.68
636.645	59927.97
636.999	59793.74
637.352	59898.59
637.706	59821.31
638.06	59946.28
638.413	59879.39
638.767	59814.08
639.121	59823.34
639.474	59713.06
639.828	59758.94
640.181	59736.79
640.534	59782.21
640.888	59744.93
641.241	59685.49
641.594	59786.73
641.947	59808.43
642.301	59678.49
642.654	59745.15
643.007	59757.58
643.36	59671.48
643.713	59649.79
644.066	59669.9
644.419	59577.02
644.771	59476.23
645.124	59226.75
645.477	59229.01
645.83	59015.91
646.182	58873.08
646.535	58712.86
646.888	58825.4
647.24	58555.58
647.593	58739.08
647.945	58625.86
648.298	58519.42
648.65	58437.16
649.002	58362.36
649.355	58471.51
649.707	58419.31
650.059	58478.52
650.411	58704.73
650.763	58770.04
651.115	58844.16
651.467	58772.07
651.819	58759.87
652.171	58688.46
652.523	58601.23
652.875	58571.62
653.227	58464.28
653.578	58592.87
653.93	58500.67
654.282	58377.5
654.633	58335.25
654.985	58334.79
655.337	58362.59
655.688	58276.94
656.039	58382.93
656.391	58138.87
656.742	58148.81
657.094	58170.5
657.445	58300.44
657.796	58137.51
658.147	58072.88
658.498	58054.35
658.849	58142.48
659.2	58099.09
659.551	57962.83
659.902	58072.65
660.253	57983.84
660.604	58061.81
660.955	57860
661.306	58034.24
661.656	57989.27
662.007	58062.48
662.358	58051.64
662.708	57998.76
663.059	57988.36
663.409	57844.64
663.76	58021.13
664.11	57987.91
664.461	58036.04
664.811	58043.95
665.161	58031.52
665.511	57996.05
665.862	58031.75
666.212	58099.77
666.562	58020.9
666.912	57985.65
667.262	58080.79
667.612	57989.94
667.962	58038.53
668.312	58054.35
668.662	58196.49
669.011	58117.85
669.361	58068.59
669.711	58020
670.06	58033.78
670.41	57939.55
670.76	57911.08
671.109	57949.95
671.459	57891.42
671.808	57864.98
672.157	57901.81
672.507	57781.14
672.856	57709.27
673.205	57804.64
673.554	57767.8
673.904	57813
674.253	57883.51
674.602	57806.67
674.951	57408.49
675.3	57274.03
675.649	57642.16
675.998	57678.54
676.346	57641.7
676.695	57683.96
677.044	57448.94
677.393	57633.8
677.741	57571.65
678.09	57439.45
678.438	57359.23
678.787	57410.07
679.135	57350.41
679.484	57133.24
679.832	57217.54
680.181	57053.25
680.529	57207.59
680.877	57021.16
681.225	56984.77
681.573	57056.18
681.922	56875.4
682.27	56724.67
682.618	56787.94
682.966	56573.94
683.314	56669.07
683.661	56605.57
684.009	56375.07
684.357	56272.48
684.705	56316.54
685.053	56352.47
685.4	56329.87
685.748	56109.54
686.095	56195.19
686.443	56032.93
686.79	55940.96
687.138	55983.44
687.485	56018.24
687.832	55899.6
688.18	55891.92
688.527	55806.95
688.874	55761.3
689.221	55740.74
689.568	55589.56
689.915	55548.88
690.262	55554.75
690.609	55493.06
690.956	55376.91
691.303	55448.99
691.65	55182.56
691.997	55266.4
692.344	55150.24
692.69	55089.46
693.037	55150.02
693.383	54821.89
693.73	54934.43
694.077	54807.43
694.423	54793.42
694.769	54657.6
695.116	54719.52
695.462	54616.02
695.808	54516.59
696.155	54561.33
696.501	54458.06
696.847	54367.44
697.193	54232.53
697.539	54291.28
697.885	54175.36
698.231	54062.82
698.577	54021.23
698.923	54011.52
699.269	53893.1
699.614	53757.29
699.96	53692.88
700.306	53660.34
700.651	53461.25
700.997	53372.21
701.342	53402.72
701.688	53353.91
702.033	53311.42
702.379	53219.45
702.724	53203.63
703.069	53214.48
703.415	52818.33
703.76	52883.86
704.105	52775.62
704.45	52757.31
704.795	52593.93
705.14	52402.97
705.485	52502.4
705.83	52314.16
706.175	52286.14
706.52	52259.02
706.865	52010.44
707.209	52008.41
707.554	51907.17
707.899	51932.93
708.243	51687.06
708.588	51551.7
708.932	51414.07
709.277	51481.19
709.621	51403
709.966	51200.52
710.31	51274.64
710.654	50879.62
710.998	50913.52
711.342	50879.62
711.687	50623.13
712.031	50493.87
712.375	50334.55
712.719	50396.47
713.063	50323.03
713.407	50431.05
713.75	50117.61
714.094	50137.04
714.438	49933.88
714.782	49961.23
715.125	49724.85
715.469	49878.52
715.812	49736.38
716.156	49592.42
716.499	49499.09
716.843	49607.79
717.186	49249.61
717.53	49390.85
717.873	49434.01
718.216	49164.64
718.559	49082.83
718.902	48799.45
719.246	48762.16
719.589	48768.94
719.932	48615.5
720.275	48506.35
720.617	48510.65
720.96	48348.16
721.303	48498.89
721.646	48501.38
721.989	48232.69
722.331	48373.25
722.674	48238.11
723.016	48186.36
723.359	48064.33
723.701	48069.53
724.044	47880.83
724.386	47793.6
724.729	47832.92
725.071	47762.42
725.413	47740.72
725.755	47792.92
726.097	47512.03
726.439	47394.74
726.782	47411.24
727.124	47649.88
727.465	47370.34
727.807	47429.54
728.149	47201.08
728.491	47279.72
728.833	47378.7
729.175	47201.08
729.516	47105.71
729.858	47126.27
730.199	47114.75
730.541	47037.46
730.882	46950.23
731.224	47071.14
731.565	46823.46
731.906	46833.85
732.248	46847.64
732.589	46634.08
732.93	46561.32
733.271	46656.46
733.612	46708.21
733.953	46677.7
734.294	46447.65
734.635	46421.66
734.976	46379.63
735.317	46234.32
735.658	46225.51
735.999	46240.65
736.339	45976.25
736.68	46104.38
737.021	45935.35
737.361	45833.88
737.702	45837.72
738.042	45694.9
738.383	45684.28
738.723	45607.44
739.063	45455.13
739.404	45534.68
739.744	45237.29
740.084	45192.77
740.424	45251.07
740.764	45013.79
741.104	45119.1
741.444	44830.52
741.784	44678.88
742.124	44780.57
742.464	44600.92
742.804	44489.96
743.143	44332.68
743.483	44492.9
743.823	44109.41
744.162	44072.8
744.502	44110.99
744.841	43810.66
745.181	43885.23
745.52	43741.51
745.86	43733.37
746.199	43583.09
746.538	43431.68
746.877	43436.43
747.216	43442.3
747.556	43207.06
747.895	43122.54
748.234	42945.37
748.573	42817.24
748.911	42643.46
749.25	42633.74
749.589	42444.82
749.928	42476
750.267	42539.73
750.605	42311.94
750.944	42250.92
751.283	42033.53
751.621	42185.84
751.96	41776.36
752.298	41790.37
752.636	41777.26
752.975	41652.75
753.313	41388.12
753.651	41538.4
753.989	41298.41
754.327	41341.12
754.666	41061.12
755.004	41091.18
755.342	41017.28
755.679	40970.28
756.017	40762.37
756.355	40987.23
756.693	40666.56
757.031	40810.06
757.368	40557.18
757.706	40436.28
758.044	40492.78
758.381	40285.32
758.719	40250.52
759.056	40426.34
759.394	40016.86
759.731	39893.47
760.068	39855.96
760.405	39860.25
760.743	39712.68
761.08	39694.38
761.417	39614.16
761.754	39518.79
762.091	39631.78
762.428	39451.22
762.765	39155.64
763.102	39327.16
763.438	39174.62
763.775	39046.26
764.112	39209.65
764.449	39224.79
764.785	39010.56
765.122	38676.55
765.458	38721.52
765.795	38566.27
766.131	38585.03
766.467	38441.31
766.804	38284.02
767.14	38104.59
767.476	38231.59
767.812	38026.63
768.148	38010.13
768.485	37918.61
768.821	37650.14
769.157	37674.32
769.492	37504.16
769.828	37479.3
770.164	37118.18
770.5	36915.02
770.836	37136.93
771.171	36782.14
771.507	36798.86
771.842	36384.41
772.178	36368.59
772.513	36387.35
772.849	36260.8
773.184	36094.7
773.519	35994.59
773.855	35869.62
774.19	35737.42
774.525	35785.56
774.86	35705.56
775.195	35605.9
775.53	35370.65
775.865	35088.85
776.2	34798.01
776.535	34643.89
776.87	34473.5
777.205	34456.33
777.539	34250
777.874	34384.69
778.209	33864.93
778.543	33812.05
778.878	33587.2
779.212	33595.78
779.547	33299.75
779.881	33486.18
780.215	33100.2
780.55	33179.52
780.884	33003.26
781.218	32818.18
781.552	32655.92
781.886	32459.32
782.22	32108.36
782.554	32129.61
782.888	31804.19
783.222	31771.88
783.556	31587.02
783.889	31523.97
784.223	31189.74
784.557	31165.11
784.89	31036.53
785.224	30944.33
785.557	30853.48
785.891	30704.56
786.224	30616.65
786.558	30512.25
786.891	30184.57
787.224	30119.94
787.557	29949.55
787.891	29750.91
788.224	29836.56
788.557	29725.15
788.89	29509.79
789.223	29490.81
789.556	29203.36
789.888	29157.71
790.221	29043.36
790.554	28743.26
790.887	28646.08
791.219	28617.84
791.552	28659.87
791.884	28381.23
792.217	28261.46
792.549	28221.46
792.882	28077.51
793.214	27927.01
793.546	27934.46
793.879	27659.67
794.211	27660.8
794.543	27724.75
794.875	27519.11
795.207	27578.09
795.539	27357.76
795.871	27466
796.203	27128.38
796.535	26992.12
796.867	27087.71
797.198	27007.93
797.53	26966.35
797.862	26756.64
798.193	26725
798.525	26576.08
798.856	26689.52
799.188	26405.46
799.519	26428.29
799.85	26167.28
800.182	26325.47
800.513	26192.59
800.844	25983.78
801.175	26206.37
801.506	26137.9
801.837	25978.36
802.168	25927.74
802.499	25988.3
802.83	25811.58
803.161	25634.64
803.491	25629.89
803.822	25678.25
804.153	25774.52
804.483	25570.91
804.814	25435.09
805.145	25440.29
805.475	25334.31
805.805	25371.14
806.136	25464.7
806.466	25392.16
806.796	25401.65
807.126	25197.59
807.457	25182.9
807.787	25153.75
808.117	25025.16
808.447	25090.47
808.777	24986.74
809.107	24956.01
809.436	24829.69
809.766	24962.34
810.096	24860.65
810.426	24828.78
810.755	24735.45
811.085	24756.69
811.414	24776.35
811.744	24543.14
812.073	24542.01
812.403	24604.61
812.732	24488.9
813.061	24319.87
813.39	24222.02
813.719	24208.46
814.049	24271.51
814.378	24150.16
814.707	24088.24
815.036	24157.16
815.365	23909.48
815.693	23725.08
816.022	23872.88
816.351	23711.75
816.68	23590.62
817.008	23620
817.337	23403.96
817.665	23382.72
817.994	23320.8
818.322	23361.02
818.651	23234.93
818.979	23167.36
819.307	23220.01
819.636	23268.37
819.964	23033.35
820.292	23018.66
820.62	23006.91
820.948	22930.98
821.276	22984.08
821.604	22888.72
821.932	22829.96
822.259	22832.68
822.587	22720.82
822.915	22606.02
823.243	22729.63
823.57	22613.7
823.898	22726.69
824.225	22519.69
824.553	22441.27
824.88	22557.43
825.207	22551.1
825.535	22472.46
825.862	22467.94
826.189	22348.4
826.516	22333.25
826.843	22386.59
827.17	22397.21
827.497	22378.68
827.824	22229.53
828.151	22120.6
828.478	22166.71
828.805	22185.69
829.131	22026.6
829.458	21944.11
829.785	21941.17
830.111	21957.45
830.438	22013.26
830.764	21994.28
831.09	21907.05
831.417	21764
831.743	21833.61
832.069	21681.29
832.395	21605.36
832.722	21728.98
833.048	21567.62
833.374	21586.83
833.7	21465.48
834.026	21539.6
834.351	21431.13
834.677	21415.09
835.003	21596.32
835.329	21501.64
835.654	21337.57
835.98	21251.7
836.306	21289.67
836.631	21030.01
836.956	21132.83
837.282	21207.41
837.607	20980.97
837.932	20952.27
838.258	21040.86
838.583	20911.6
838.908	20724.48
839.233	20813.52
839.558	20759.96
839.883	20698.27
840.208	20677.48
840.533	20604.49
840.858	20686.29
841.182	20638.84
841.507	20538.27
841.832	20458.73
842.156	20465.51
842.481	20397.94
842.805	20333.53
843.13	20315
843.454	20385.28
843.778	20161.79
844.103	20195.46
844.427	20151.17
844.751	20235.91
845.075	20145.06
845.399	20029.36
845.723	20024.84
846.047	20150.26
846.371	19851.96
846.695	19899.19
847.019	19834.79
847.343	19662.59
847.666	19604.74
847.99	19493.78
848.313	19502.82
848.637	19435.03
848.96	19440.45
849.284	19438.19
849.607	19321.58
849.931	19248.59
850.254	19247.69
850.577	19098.54
850.9	18973.79
851.223	18986.68
851.546	18969.28
851.869	18872.1
852.192	18969.05
852.515	18787.36
852.838	18714.82
853.161	18839.79
853.483	18608.83
853.806	18660.13
854.129	18598.66
854.451	18539.46
854.774	18532
855.096	18464.66
855.419	18469.63
855.741	18447.93
856.063	18234.83
856.385	18317.99
856.708	18302.17
857.03	18207.94
857.352	18243.19
857.674	18208.39
857.996	18123.2
858.318	18007.27
858.64	18052.69
858.961	17955.97
859.283	17972.24
859.605	17938.57
859.926	17953.71
860.248	17807.27
860.57	17792.36
860.891	17753.94
861.212	17759.59
861.534	17726.6
861.855	17708.52
862.176	17671
862.498	17643.89
862.819	17645.47
863.14	17567.05
863.461	17572.02
863.782	17487.51
864.103	17511.46
864.424	17409.32
864.745	17398.47
865.065	17379.03
865.386	17310.11
865.707	17247.96
866.027	17318.7
866.348	17232.15
866.668	17238.02
866.989	17241.41
867.309	17077.8
867.63	17041.87
867.95	16976.56
868.27	16915.32
868.59	16899.5
868.91	16899.5
869.23	16882.55
869.55	16760.52
869.87	16888.65
870.19	16837.35
870.51	16709.45
870.83	16816.79
871.15	16625.83
871.469	16586.96
871.789	16589.22
872.109	16521.88
872.428	16391.94
872.748	16489.34
873.067	16443.92
873.386	16423.58
873.706	16384.48
874.025	16287.76
874.344	16187.65
874.663	16192.85
874.982	16146.75
875.301	16058.84
875.62	16000.77
875.939	15907.89
876.258	15954.89
876.577	15916.93
876.896	15876.48
877.214	15772.52
877.533	15773.43
877.852	15725.97
878.17	15626.09
878.489	15704.28
878.807	15597.39
879.125	15529.37
879.444	15492.08
879.762	15410.05
880.08	15468.12
880.398	15287.56
880.716	15297.06
881.034	15327.11
881.352	15166.44
881.67	15109.94
881.988	15182.26
882.306	15091.41
882.624	15098.64
882.941	14962.83
883.259	14869.5
883.577	14853
883.894	14841.25
884.212	14820.46
884.529	14758.09
884.846	14680.12
885.164	14618.2
885.481	14629.5
885.798	14564.65
886.115	14512.9
886.432	14460.69
886.75	14305.67
887.067	14276.74
887.383	14290.3
887.7	14344.31
888.017	14227.25
888.334	14204.65
888.651	14145.9
888.967	14002.4
889.284	13948.84
889.6	14020.7
889.917	13840.6
890.233	13867.04
890.55	13835.62
890.866	13726.02
891.182	13776.42
891.498	13720.6
891.815	13689.19
892.131	13647.61
892.447	13609.19
892.763	13556.76
893.079	13588.17
893.395	13568.97
893.71	13625.69
894.026	13491.23
894.342	13433.6
894.657	13396.77
894.973	13323.55
895.289	13307.28
895.604	13282.65
895.92	13268.86
896.235	13130.78
896.55	13126.72
896.865	13188.64
897.181	13044.46
897.496	13033.84
897.811	13015.31
898.126	12985.93
898.441	12900.51
898.756	12877.01
899.071	12901.19
899.386	12899.15
899.7	12807.18
900.015	12767.63
900.33	12695.09
900.644	12661.87
900.959	12719.27
901.273	12671.81
901.588	12656.9
901.902	12563.57
902.216	12559.73
902.531	12552.04
902.845	12475.89
903.159	12439.96
903.473	12374.65
903.787	12249.23
904.101	12280.19
904.415	12319.73
904.729	12258.27
905.042	12167.87
905.356	12174.88
905.67	12212.84
905.984	12155.67
906.297	12163.58
906.611	12054.88
906.924	11962.68
907.237	12019.18
907.551	11987.99
907.864	11887.88
908.177	11938.27
908.491	11842.68
908.804	11728.11
909.117	11665.96
909.43	11699.86
909.743	11681.33
910.056	11689.92
910.368	11602.01
910.681	11536.93
910.994	11554.1
911.307	11519.3
911.619	11401.56
911.932	11401.79
912.244	11320.89
912.557	11239.99
912.869	11252.87
913.181	11229.37
913.494	11156.37
913.806	11089.71
914.118	11089.03
914.43	10985.76
914.742	11043.38
915.054	10974.46
915.366	10894.69
915.678	10929.94
915.99	10845.42
916.302	10767.01
916.613	10784.41
916.925	10714.13
917.236	10737.85
917.548	10604.52
917.859	10667.8
918.171	10527.01
918.482	10511.87
918.794	10446.56
919.105	10483.62
919.416	10360.01
919.727	10350.97
920.038	10289.5
920.349	10131.54
920.66	10093.12
920.971	10181.94
921.282	10117.76
921.593	10034.59
921.903	10002.51
922.214	9993.01
922.525	9940.81
922.835	9906.69
923.146	9797.31
923.456	9800.7
923.767	9748.95
924.077	9716.41
924.387	9691.33
924.697	9674.83
925.008	9576.3
925.318	9557.09
925.628	9475.97
925.938	9427.83
926.248	9336.53
926.558	9310.55
926.867	9318.23
927.177	9293.37
927.487	9177.22
927.796	9162.08
928.106	9065.58
928.416	9077.78
928.725	9057.67
929.034	8979.48
929.344	8991.91
929.653	8879.15
929.962	8741.3
930.271	8765.25
930.581	8734.06
930.89	8732.71
931.199	8668.08
931.508	8644.12
931.817	8653.61
932.125	8639.6
932.434	8537.91
932.743	8346.05
933.051	8362.1
933.36	8358.03
933.669	8266.05
933.977	8218.15
934.286	8229.67
934.594	8158.03
934.902	8133.4
935.21	8059.73
935.519	8097.7
935.827	8021.09
936.135	7995.1
936.443	7857.7
936.751	7847.76
937.059	7843.92
937.367	7801.66
937.674	7763.69
937.982	7743.36
938.29	7687.76
938.597	7748.33
938.905	7567.99
939.213	7549.91
939.52	7547.43
939.827	7589.69
940.135	7472.18
940.442	7436.47
940.749	7420.43
941.056	7357.83
941.363	7302.69
941.67	7323.71
941.977	7257.49
942.284	7147.44
942.591	7204.39
942.898	7149.02
943.205	7149.47
943.511	7086.42
943.818	7044.84
944.125	7047.33
944.431	7007.56
944.738	6987.9
945.044	6885.98
945.35	6811.4
945.657	6798.75
945.963	6805.53
946.269	6825.19
946.575	6755.36
946.881	6692.08
947.187	6726.66
947.493	6693.21
947.799	6610.73
948.105	6578.64
948.41	6564.63
948.716	6580.45
949.022	6474.01
949.327	6472.43
949.633	6423.62
949.938	6389.49
950.244	6464.75
950.549	6332.09
950.854	6328.25
951.16	6292.77
951.465	6266.33
951.77	6165.54
952.075	6192.66
952.38	6209.16
952.685	6150.63
952.99	6088.48
953.294	6104.98
953.599	6069.73
953.904	6031.31
954.209	5968.71
954.513	5983.85
954.818	5943.4
955.122	5857.98
955.426	5853.24
955.731	5865.66
956.035	5813.46
956.339	5807.14
956.643	5821.15
956.948	5846.46
957.252	5775.72
957.556	5723.75
957.86	5730.08
958.163	5684.43
958.467	5671.55
958.771	5636.52
959.075	5653.24
959.378	5610.08
959.682	5638.78
959.985	5603.07
960.289	5521.04
960.592	5492.79
960.896	5453.02
961.199	5486.69
961.502	5480.14
961.805	5406.24
962.108	5347.49
962.411	5381.38
962.714	5366.24
963.017	5374.6
963.32	5316.07
963.623	5300.03
963.926	5288.51
964.228	5233.82
964.531	5236.08
964.833	5241.73
965.136	5171.45
965.438	5117.89
965.741	5134.61
966.043	5131.45
966.345	5120.15
966.648	5113.82
966.95	5092.58
967.252	5019.81
967.554	5035.63
967.856	5008.96
968.158	4951.56
968.46	4981.17
968.761	4958.34
969.063	4883.54
969.365	4903.88
969.666	4880.61
969.968	4872.24
970.269	4846.93
970.571	4852.81
970.872	4878.35
971.174	4791.79
971.475	4759.25
971.776	4781.17
972.077	4780.95
972.378	4766.26
972.679	4750.67
972.98	4664.11
973.281	4667.73
973.582	4680.84
973.883	4598.58
974.183	4588.64
974.484	4629.31
974.785	4610.33
975.085	4525.59
975.386	4528.52
975.686	4517.9
975.986	4496.89
976.287	4507.28
976.587	4433.16
976.887	4402.43
977.187	4432.48
977.487	4435.19
977.787	4341.41
978.087	4380.28
978.387	4374.4
978.687	4330.56
978.987	4336.67
979.286	4272.03
979.586	4255.31
979.885	4232.94
980.185	4205.14
980.484	4215.31
980.784	4175.09
981.083	4199.04
981.382	4160.17
981.682	4132.38
981.981	4085.15
982.28	4111.59
982.579	4074.98
982.878	4014.19
983.177	4027.97
983.475	4004.7
983.774	3977.81
984.073	3934.87
984.372	3899.84
984.67	3890.12
984.969	3912.27
985.267	3866.85
985.566	3849.9
985.864	3874.3
986.162	3808.77
986.461	3855.77
986.759	3783.23
987.057	3773.52
987.355	3731.26
987.653	3749.56
987.951	3727.19
988.249	3704.37
988.547	3693.29
988.844	3679.51
989.142	3667.08
989.44	3602
989.737	3597.02
990.035	3569.23
990.332	3562.45
990.63	3577.14
990.927	3548.21
991.224	3518.83
991.521	3529.68
991.819	3484.03
992.116	3424.83
992.413	3422.11
992.71	3424.15
993.006	3421.21
993.303	3376.24
993.6	3371.04
993.897	3376.69
994.193	3367.2
994.49	3327.88
994.787	3318.84
995.083	3282.23
995.379	3274.09
995.676	3267.32
995.972	3249.01
996.268	3230.71
996.565	3205.85
996.861	3226.64
997.157	3191.61
997.453	3143.02
997.749	3174.21
998.044	3136.47
998.34	3125.17
998.636	3123.82
998.932	3070.94
999.227	3016.47
999.523	3009.02
999.818	3002.92
1000.114	2956.36
1000.409	3003.37
1000.704	2963.37
1001	2969.47
1001.295	2948.45
1001.59	2915.91
1001.885	2905.52
1002.18	2890.6
1002.475	2830.72
1002.77	2845.41
1003.065	2825.07
1003.359	2813.09
1003.654	2824.39
1003.949	2745.07
1004.243	2755.46
1004.538	2736.03
1004.832	2699.19
1005.127	2698.29
1005.421	2693.09
1005.715	2682.02
1006.009	2655.13
1006.304	2668.01
1006.598	2633.89
1006.892	2632.3
1007.186	2625.52
1007.48	2568.35
1007.773	2588.46
1008.067	2521.35
1008.361	2527.9
1008.655	2557.05
1008.948	2505.75
1009.242	2495.13
1009.535	2464.4
1009.829	2441.8
1010.122	2429.82
1010.415	2429.15
1010.708	2437.96
1011.001	2371.07
1011.295	2400.45
1011.588	2362.93
1011.881	2351.41
1012.173	2340.11
1012.466	2331.29
1012.759	2305.08
1013.052	2320
1013.344	2247.23
1013.637	2254.23
1013.93	2221.24
1014.222	2245.2
1014.514	2240.9
1014.807	2244.97
1015.099	2187.12
1015.391	2188.02
1015.683	2188.47
1015.976	2176.95
1016.268	2164.97
1016.56	2154.12
1016.851	2121.36
1017.143	2112.09
1017.435	2082.49
1017.727	2078.65
1018.018	2101.47
1018.31	2070.06
1018.602	2046.56
1018.893	2018.31
1019.185	1976.95
1019.476	1984.64
1019.767	1973.56
1020.058	1933.11
1020.35	1945.32
1020.641	1956.16
1020.932	1922.27
1021.223	1923.62
1021.514	1925.43
1021.804	1892.21
1022.095	1895.83
1022.386	1846.34
1022.677	1845.21
1022.967	1844.3
1023.258	1837.07
1023.548	1790.52
1023.839	1775.83
1024.129	1798.43
1024.419	1762.27
1024.709	1770.41
1025	1724.08
1025.29	1757.52
1025.58	1725.43
1025.87	1707.36
1026.16	1732.67
1026.449	1676.17
1026.739	1699.22
1027.029	1687.7
1027.319	1645.44
1027.608	1646.79
1027.898	1639.56
1028.187	1612.67
1028.477	1629.39
1028.766	1597.08
1029.055	1571.77
1029.344	1570.41
1029.634	1578.32
1029.923	1561.37
1030.212	1542.61
1030.501	1541.71
1030.79	1526.8
1031.078	1504.42
1031.367	1516.4
1031.656	1485.67
1031.945	1485.22
1032.233	1476.4
1032.522	1470.07
1032.81	1455.61
1033.099	1456.06
1033.387	1462.16
1033.675	1417.19
1033.963	1387.36
1034.251	1384.88
1034.54	1405.67
1034.828	1372.22
1035.116	1396.86
1035.403	1358.21
1035.691	1325.22
1035.979	1336.07
1036.267	1312.34
1036.554	1325.67
1036.842	1328.61
1037.129	1323.86
1037.417	1292.68
1037.704	1228.72
1037.992	1265.33
1038.279	1260.14
1038.566	1276.41
1038.853	1276.41
1039.14	1276.41
