Data from white_steel_sheet_FLMS001491_067.txt Node
Date: Tue Feb 07 10:58:16 GMT 2017
User: dcchb
Spectrometer: FLMS00149
Trigger mode: 0
Integration Time (sec): 2.000000E-2
Scans to average: 10
Electric dark correction enabled: true
Nonlinearity correction enabled: false
Boxcar width: 0
XAxis mode: Wavelengths
Number of Pixels in Spectrum: 2048
>>>>>Begin Spectral Data<<<<<
341.393	-23.43
341.776	-23.43
342.16	-23.43
342.543	-53.49
342.927	-80.15
343.31	-70.44
343.693	-60.04
344.077	-79.93
344.46	-70.89
344.843	-46.93
345.226	-36.99
345.61	-33.83
345.993	-22.08
346.376	-10.1
346.759	12.73
347.142	35.1
347.525	36.91
347.908	65.38
348.291	74.19
348.674	98.83
349.057	108.09
349.44	125.94
349.823	140.63
350.206	134.08
350.588	208.88
350.971	206.39
351.354	231.7
351.737	239.39
352.119	256.56
352.502	251.59
352.884	273.06
353.267	279.84
353.65	313.73
354.032	323.23
354.414	310.12
354.797	303.11
355.179	299.72
355.562	319.84
355.944	333.17
356.326	323.9
356.709	332.49
357.091	330.46
357.473	351.93
357.855	348.31
358.238	345.15
358.62	346.5
359.002	333.85
359.384	335.2
359.766	344.02
360.148	355.54
360.53	345.37
360.912	342.66
361.294	338.37
361.676	331.14
362.057	352.83
362.439	349.44
362.821	348.54
363.203	340.63
363.584	324.58
363.966	332.49
364.348	340.63
364.729	352.38
365.111	321.87
365.493	325.03
365.874	308.31
366.256	326.39
366.637	324.81
367.019	330.91
367.4	321.42
367.781	343.11
368.163	328.88
368.544	309.22
368.925	304.02
369.306	349.89
369.688	321.42
370.069	327.07
370.45	311.25
370.831	332.94
371.212	313.96
371.593	319.61
371.974	299.72
372.355	328.42
372.736	330.46
373.117	332.49
373.498	321.64
373.879	314.86
374.26	324.81
374.641	336.78
375.021	324.81
375.402	320.51
375.783	336.33
376.163	363.22
376.544	337.91
376.925	322.32
377.305	333.85
377.686	342.89
378.066	349.44
378.447	343.11
378.827	349.67
379.208	357.35
379.588	339.04
379.968	346.05
380.349	354.19
380.729	355.77
381.109	348.99
381.489	342.89
381.87	369.78
382.25	355.09
382.63	351.7
383.01	352.38
383.39	365.26
383.77	381.3
384.15	354.41
384.53	371.13
384.91	387.18
385.29	392.38
385.67	378.82
386.049	390.12
386.429	363
386.809	386.73
387.189	386.5
387.568	380.4
387.948	405.94
388.328	403.68
388.707	407.29
389.087	404.58
389.466	403
389.846	390.12
390.225	422.21
390.605	399.38
390.984	421.98
391.363	436.44
391.743	412.04
392.122	417.91
392.501	418.82
392.881	441.64
393.26	447.06
393.639	442.09
394.018	427.63
394.397	456.78
394.776	444.8
395.155	450.45
395.534	463.79
395.913	475.31
396.292	479.83
396.671	488.19
397.05	486.61
397.429	518.93
397.808	497.91
398.186	504.01
398.565	509.89
398.944	524.35
399.323	524.12
399.701	517.8
400.08	543.33
400.458	553.28
400.837	531.13
401.215	540.85
401.594	568.87
401.972	560.28
402.351	555.99
402.729	573.84
403.107	588.08
403.486	598.25
403.864	598.25
404.242	614.97
404.62	625.14
404.999	626.95
405.377	645.03
405.755	637.12
406.133	657.45
406.511	680.5
406.889	674.86
407.267	693.16
407.645	706.72
408.023	683.22
408.401	722.31
408.779	721.63
409.156	747.85
409.534	747.85
409.912	762.76
410.29	766.83
410.667	766.38
411.045	792.37
411.422	807.06
411.8	831.91
412.178	832.59
412.555	821.97
412.933	826.49
413.31	849.99
413.687	872.59
414.065	902.87
414.442	900.16
414.819	897.9
415.197	886.6
415.574	963.21
415.951	946.49
416.328	979.71
416.705	958.92
417.082	990.33
417.46	985.81
417.837	989.2
418.214	993.04
418.591	1003.43
418.967	1010.21
419.344	1006.37
419.721	1039.59
420.098	1054.05
420.475	1075.75
420.852	1089.76
421.228	1091.57
421.605	1084.11
421.982	1113.71
422.358	1115.97
422.735	1144
423.111	1115.07
423.488	1130.89
423.864	1156.42
424.241	1185.8
424.617	1151.23
424.994	1186.25
425.37	1194.62
425.746	1223.32
426.123	1235.74
426.499	1217.67
426.875	1259.7
427.251	1241.39
427.627	1274.39
428.003	1300.83
428.379	1333.82
428.756	1342.18
429.132	1359.58
429.507	1379.47
429.883	1399.58
430.259	1407.94
430.635	1412.91
431.011	1426.25
431.387	1483.42
431.763	1474.83
432.138	1495.85
432.514	1517.54
432.89	1519.13
433.265	1566.13
433.641	1581.72
434.016	1615.17
434.392	1625.56
434.767	1659.24
435.143	1657.65
435.518	1698.78
435.894	1689.29
436.269	1707.6
436.644	1701.04
437.02	1779.46
437.395	1750.99
437.77	1775.84
438.145	1821.94
438.52	1830.98
438.895	1845.45
439.271	1871.66
439.646	1904.2
440.021	1901.94
440.395	1950.3
440.77	1926.12
441.145	1938.55
441.52	1988.49
441.895	1981.49
442.27	2010.19
442.645	1995.27
443.019	2042.73
443.394	2043.41
443.769	2067.81
444.143	2040.02
444.518	2118.21
444.892	2162.73
445.267	2136.29
445.641	2151.88
446.016	2131.77
446.39	2180.35
446.764	2192.56
447.139	2215.61
447.513	2230.07
447.887	2227.36
448.262	2251.31
448.636	2207.02
449.01	2266
449.384	2333.12
449.758	2344.64
450.132	2343.74
450.506	2378.09
450.88	2374.7
451.254	2367.69
451.628	2407.46
452.002	2454.92
452.376	2454.24
452.75	2462.6
453.123	2529.27
453.497	2561.81
453.871	2590.96
454.244	2649.27
454.618	2615.37
454.992	2658.53
455.365	2705.76
455.739	2732.2
456.112	2763.39
456.486	2805.42
456.859	2834.35
457.232	2849.49
457.606	2893.55
457.979	2912.76
458.352	2943.72
458.725	2977.85
459.099	3037.5
459.472	3066.66
459.845	3099.2
460.218	3114.34
460.591	3152.76
460.964	3154.79
461.337	3244.51
461.71	3316.14
462.083	3374.45
462.456	3342.13
462.829	3373.32
463.201	3456.02
463.574	3454.44
463.947	3480.88
464.32	3538.96
464.692	3543.71
465.065	3604.5
465.438	3639.97
465.81	3715.23
466.183	3744.38
466.555	3801.78
466.928	3848.33
467.3	3824.6
467.672	3919.06
468.045	4016.01
468.417	4051.04
468.789	4072.51
469.161	4152.28
469.534	4194.76
469.906	4254.65
470.278	4289.68
470.65	4356.57
471.022	4392.95
471.394	4524.02
471.766	4547.52
472.138	4616.9
472.51	4716.1
472.882	4849.43
473.253	4774.86
473.625	4920.85
473.997	4969.66
474.369	4959.26
474.74	5062.08
475.112	5164.91
475.484	5184.34
475.855	5314.51
476.227	5395.63
476.598	5481.06
476.97	5564.44
477.341	5652.58
477.713	5770.31
478.084	5765.79
478.455	5915.4
478.827	6009.86
479.198	6197.42
479.569	6147.93
479.94	6340.92
480.311	6412.33
480.682	6557.19
481.053	6715.37
481.424	6807.8
481.795	6866.33
482.166	7009.15
482.537	7067
482.908	7248.02
483.279	7250.95
483.65	7358.52
484.021	7542.25
484.391	7631.28
484.762	7734.78
485.133	7795.57
485.503	7921.9
485.874	8086.19
486.244	8160.53
486.615	8378.38
486.985	8501.09
487.356	8571.14
487.726	8630.13
488.097	8829.89
488.467	8843.91
488.837	9059.04
489.207	9113.28
489.578	9296.1
489.948	9354.4
490.318	9617.44
490.688	9562.53
491.058	9673.71
491.428	9868.29
491.798	9923.43
492.168	10075.29
492.538	10146.02
492.908	10297.88
493.278	10457.42
493.648	10445.45
494.017	10591.2
494.387	10688.83
494.757	10799.33
495.126	10898.77
495.496	10928.82
495.866	11043.85
496.235	11155.71
496.605	11242.94
496.974	11333.56
497.344	11481.35
497.713	11540.78
498.082	11573.78
498.452	11749.14
498.821	11825.97
499.19	11840.44
499.559	11993.43
499.928	12075.91
500.298	12191.61
500.667	12280.65
501.036	12332.63
501.405	12421.21
501.774	12448.78
502.143	12573.75
502.512	12672.28
502.88	12812.84
503.249	12859.62
503.618	12879.28
503.987	12964.7
504.356	13120.4
504.724	13143.68
505.093	13257.58
505.462	13347.29
505.83	13431.13
506.199	13574.18
506.567	13693.04
506.936	13670.22
507.304	13902.08
507.672	13880.61
508.041	14006.03
508.409	14165.57
508.777	14276.53
509.145	14338.68
509.514	14430.43
509.882	14525.34
510.25	14540.03
510.618	14756.07
510.986	14770.53
511.354	15038.55
511.722	15014.82
512.09	15209.16
512.458	15246.22
512.826	15356.05
513.193	15488.02
513.561	15510.62
513.929	15714.46
514.297	15798.3
514.664	15978.41
515.032	16017.73
515.4	16169.36
515.767	16136.14
516.135	16299.3
516.502	16243.71
516.869	16602.57
517.237	16682.57
517.604	16707.43
517.972	16838.27
518.339	17002.34
518.706	16997.36
519.073	17149.22
519.44	17354.64
519.808	17492.27
520.175	17624.69
520.542	17758.47
520.909	17906.94
521.276	17934.06
521.643	18063.78
522.009	18295.63
522.376	18437.78
522.743	18469.64
523.11	18745.79
523.477	18988.95
523.843	19020.14
524.21	19243.86
524.577	19389.62
524.943	19462.16
525.31	19621.25
525.676	19840.9
526.043	19974.46
526.409	19999.32
526.776	20243.38
527.142	20341.23
527.508	20376.26
527.874	20699.64
528.241	20804.5
528.607	20783.93
528.973	21009.91
529.339	21066.86
529.705	21301.88
530.071	21483.8
530.437	21509.34
530.803	21627.07
531.169	21864.81
531.535	21729.89
531.901	21994.07
532.267	22087.17
532.632	22172.37
532.998	22281.52
533.364	22401.74
533.73	22373.95
534.095	22618.01
534.461	22811.45
534.826	22882.86
535.192	22955.63
535.557	23075.62
535.923	23143.19
536.288	23183.19
536.653	23340.93
537.019	23295.5
537.384	23584.31
537.749	23629.28
538.114	23736.62
538.479	23811.42
538.845	23878.09
539.21	23866.11
539.575	24022.49
539.94	24142.71
540.305	24344.29
540.67	24315.82
541.034	24364.18
541.399	24520.56
541.764	24639.42
542.129	24622.47
542.494	24630.61
542.858	24851.39
543.223	24997.38
543.587	25075.34
543.952	25094.1
544.316	25092.52
544.681	25196.7
545.045	25290.71
545.41	25477.59
545.774	25473.3
546.138	25537.03
546.503	25709
546.867	25567.08
547.231	25995.55
547.595	25818.6
547.959	26073.28
548.324	26142.66
548.688	26305.37
549.052	26230.34
549.416	26351.02
549.779	26348.3
550.143	26488.19
550.507	26615.64
550.871	26767.73
551.235	26666.26
551.599	27017.67
551.962	26967.5
552.326	27033.71
552.689	27317.54
553.053	27064.22
553.417	27290.2
553.78	27621.04
554.143	27551.44
554.507	27693.81
554.87	27743.3
555.234	28015.83
555.597	27877.08
555.96	28089.73
556.323	28127.47
556.686	28195.49
557.05	28368.36
557.413	28572.43
557.776	28550.28
558.139	28752.08
558.502	28845.64
558.865	28911.85
559.228	29152.75
559.59	29181
559.953	29252.18
560.316	29512.06
560.679	29572.85
561.041	29743.02
561.404	29886.52
561.767	30080.86
562.129	29998.83
562.492	30283.57
562.854	30322.66
563.217	30288.77
563.579	30366.05
563.941	30633.62
564.304	30613.5
564.666	30988.86
565.028	31001.06
565.39	31236.54
565.753	31279.25
566.115	31381.84
566.477	31659.13
566.839	31660.71
567.201	31832.68
567.563	32007.82
567.925	32215.72
568.287	32008.27
568.648	32175.95
569.01	32250.07
569.372	32490.29
569.734	32385.66
570.095	32668.59
570.457	32929.15
570.819	32877.85
571.18	32984.74
571.542	33180.89
571.903	33168.46
572.265	33255.47
572.626	33385.41
572.987	33389.48
573.349	33481.45
573.71	33617.49
574.071	33654.55
574.432	33818.84
574.794	34031.27
575.155	33980.42
575.516	33831.72
575.877	34061.1
576.238	34222.67
576.599	34179.96
576.96	34332.28
577.32	34351.48
577.681	34477.36
578.042	34482.33
578.403	34549.22
578.763	34534.76
579.124	34484.81
579.485	34631.02
579.845	34813.62
580.206	34740.85
580.566	34829.66
580.927	34637.8
581.287	34890.9
581.648	34735.65
582.008	34851.36
582.368	34724.36
582.728	34948.53
583.089	34863.33
583.449	34956.67
583.809	34985.37
584.169	34969.55
584.529	34892.94
584.889	35189.65
585.249	34985.82
585.609	34772.04
585.969	35139.03
586.329	35026.72
586.688	34966.38
587.048	35099.94
587.408	34984.91
587.768	34960.51
588.127	35022.2
588.487	34942.65
588.846	35239.82
589.206	34948.76
589.565	34980.85
589.925	35338.12
590.284	35043.89
590.643	35096.55
591.003	35129.77
591.362	35300.84
591.721	35241.4
592.08	35191.01
592.44	35258.8
592.799	35141.29
593.158	35114.63
593.517	35019.04
593.876	35165.25
594.235	35170.45
594.593	35166.6
594.952	35075.53
595.311	35065.59
595.67	35152.14
596.029	35403.89
596.387	35285.24
596.746	35332.93
597.104	35185.36
597.463	35209.77
597.822	35417.22
598.18	35078.24
598.538	35241.63
598.897	35401.63
599.255	35075.08
599.613	35666.25
599.972	35405.47
600.33	35396.2
600.688	35251.8
601.046	35451.34
601.404	35410.44
601.762	35402.98
602.12	35560.04
602.478	35666.7
602.836	35534.73
603.194	35378.12
603.552	35585.12
603.91	35337.67
604.268	35584.67
604.625	35358.24
604.983	35584.45
605.341	35347.39
605.698	35629.64
606.056	35712.13
606.413	35748.96
606.771	35767.94
607.128	35752.8
607.485	35684.33
607.843	35669.87
608.2	35816.3
608.557	35926.81
608.914	35762.97
609.272	35901.73
609.629	35890.43
609.986	36051.33
610.343	35929.52
610.7	36242.96
611.057	36139.46
611.414	36146.69
611.771	36070.53
612.127	36131.55
612.484	36285.22
612.841	36323.18
613.198	36226.01
613.554	36325.22
613.911	36404.76
614.267	36449.06
614.624	36343.97
614.98	36421.71
615.337	36744.87
615.693	36499.9
616.05	36588.71
616.406	36778.09
616.762	36532.9
617.118	36577.19
617.475	36695.38
617.831	36758.43
618.187	36748.26
618.543	36761.59
618.899	36860.57
619.255	36907.35
619.611	36988.25
619.967	36976.95
620.323	37132.88
620.678	36870.51
621.034	36862.83
621.39	36954.81
621.746	36894.24
622.101	37259.43
622.457	36911.87
622.812	37078.19
623.168	37258.53
623.523	37126.78
623.879	37179.88
624.234	36930.4
624.589	37097.85
624.945	37069.6
625.3	37195.93
625.655	37057.18
626.01	37141.01
626.365	36975.14
626.72	37110.06
627.075	37076.16
627.43	37062.82
627.785	36957.06
628.14	36997.52
628.495	37067.34
628.85	37072.32
629.205	36778.31
629.559	37103.05
629.914	36835.94
630.269	36817.63
630.623	36879.1
630.978	36845.66
631.332	36844.53
631.687	36867.8
632.041	36674.36
632.396	36908.48
632.75	36791.42
633.104	36804.3
633.459	36699.22
633.813	36673.91
634.167	36477.53
634.521	36473.24
634.875	36508.26
635.229	36390.98
635.583	36355.95
635.937	36339
636.291	36226.01
636.645	36249.96
636.999	36114.38
637.352	36300.13
637.706	36008.62
638.06	36283.86
638.413	36129.97
638.767	35875.96
639.121	36096.07
639.474	35773.59
639.828	35779.02
640.181	35903.53
640.534	35746.48
640.888	35599.36
641.241	35566.14
641.594	35702.63
641.947	35727.49
642.301	35509.65
642.654	35488.18
643.007	35529.76
643.36	35452.02
643.713	35399.14
644.066	35489.31
644.419	35265.81
644.771	35059.94
645.124	34650.91
645.477	34572.72
645.83	34334.54
646.182	34276.46
646.535	34176.12
646.888	34283.69
647.24	34214.09
647.593	34400.75
647.945	34219.74
648.298	34075.56
648.65	34052.28
649.002	33866.52
649.355	34043.92
649.707	33853.87
650.059	33958.05
650.411	34348.77
650.763	34386.29
651.115	34858.59
651.467	34645.94
651.819	34666.96
652.171	34593.96
652.523	34415.21
652.875	34354.87
653.227	34276.91
653.578	34498.6
653.93	34413.86
654.282	34255.67
654.633	34198.72
654.985	34223.35
655.337	34280.3
655.688	34336.57
656.039	34321.65
656.391	34005.96
656.742	34075.33
657.094	34043.92
657.445	34191.26
657.796	34161.21
658.147	34009.8
658.498	33881.21
658.849	34073.52
659.2	33901.33
659.551	33819.29
659.902	33900.42
660.253	33849.35
660.604	33877.37
660.955	33564.61
661.306	33636.93
661.656	33782.91
662.007	33512.41
662.358	33424.95
662.708	33533.88
663.059	33472.41
663.409	33174.34
663.76	33481.45
664.11	33459.08
664.461	33390.83
664.811	33362.58
665.161	33387.22
665.511	33157.62
665.862	33089.6
666.212	33113.32
666.562	33082.14
666.912	32938.87
667.262	32921.24
667.612	32808.25
667.962	32712.88
668.312	32659.78
668.662	32870.17
669.011	32607.57
669.361	32544.3
669.711	32497.52
670.06	32326
670.41	32263.63
670.76	32221.82
671.109	32295.04
671.459	32259.56
671.808	32074.48
672.157	32145.67
672.507	31796.3
672.856	31953.13
673.205	31912
673.554	31890.76
673.904	31804.88
674.253	31840.59
674.602	31766.69
674.951	31289.64
675.3	31052.36
675.649	31538.68
675.998	31565.57
676.346	31476.76
676.695	31667.94
677.044	31326.03
677.393	31506.36
677.741	31420.26
678.09	31168.97
678.438	31295.52
678.787	31293.03
679.135	31216.42
679.484	31189.76
679.832	31255.07
680.181	31089.87
680.529	31092.81
680.877	31061.85
681.225	31114.73
681.573	31323.09
681.922	31129.2
682.27	31208.06
682.618	31114.28
682.966	31096.2
683.314	31209.87
683.661	31073.83
684.009	31053.27
684.357	31045.58
684.705	31049.65
685.053	31142.98
685.4	31061.4
685.748	30903.89
686.095	30842.88
686.443	30869.99
686.79	30843.55
687.138	31021.63
687.485	30963.78
687.832	30831.35
688.18	30921.07
688.527	30832.93
688.874	30872.03
689.221	30669.77
689.568	30839.94
689.915	30708.19
690.262	30643.78
690.609	30522.21
690.956	30587.74
691.303	30630.45
691.65	30495.54
691.997	30394.53
692.344	30383.23
692.69	30432.04
693.037	30404.24
693.383	30146.4
693.73	30272.27
694.077	30239.95
694.423	30233.63
694.769	30141.88
695.116	30086.74
695.462	30035.89
695.808	30003.12
696.155	30059.17
696.501	29765.16
696.847	29928.32
697.193	29644.26
697.539	29793.41
697.885	29594.55
698.231	29349.36
698.577	29519.52
698.923	29444.04
699.269	29395
699.614	29234.78
699.96	29216.93
700.306	29169.7
700.651	29155.24
700.997	28928.58
701.342	29092.86
701.688	28903.49
702.033	28802.03
702.379	28707.34
702.724	28752.31
703.069	28799.99
703.415	28339.21
703.76	28424.63
704.105	28418.31
704.45	28335.82
704.795	28181.93
705.14	28135.15
705.485	28040.24
705.83	27971.09
706.175	28011.99
706.52	27802.73
706.865	27747.59
707.209	27764.31
707.554	27668.27
707.899	27667.82
708.243	27614.26
708.588	27560.48
708.932	27387.83
709.277	27332.69
709.621	27443.87
709.966	27236.87
710.31	27391.21
710.654	27141.28
710.998	27064.9
711.342	27122.52
711.687	27054.5
712.031	26939.25
712.375	26760.04
712.719	26985.35
713.063	26873.04
713.407	26915.3
713.75	26685.24
714.094	26675.3
714.438	26545.59
714.782	26529.09
715.125	26554.63
715.469	26520.28
715.812	26364.58
716.156	26287.52
716.499	26317.8
716.843	26248.42
717.186	26170.23
717.53	26234.41
717.873	26211.13
718.216	26082.32
718.559	25991.03
718.902	25899.73
719.246	25906.28
719.589	25804.59
719.932	25766.17
720.275	25786.06
720.617	25773.18
720.96	25664.71
721.303	25645.5
721.646	25613.63
721.989	25488.67
722.331	25521.89
722.674	25482.79
723.016	25371.15
723.359	25301.1
723.701	25299.74
724.044	25193.53
724.386	25015.46
724.729	25163.93
725.071	25078.51
725.413	25065.85
725.755	25085.29
726.097	25048.23
726.439	24878.06
726.782	24850.72
727.124	25152.63
727.465	24895.46
727.807	24840.55
728.149	24734.11
728.491	24551.97
728.833	24683.26
729.175	24477.17
729.516	24564.62
729.858	24490.5
730.199	24514.45
730.541	24467.22
730.882	24450.28
731.224	24435.13
731.565	24268.36
731.906	24319.43
732.248	24284.4
732.589	24151.07
732.93	24119.44
733.271	24129.15
733.612	24133.22
733.953	24091.41
734.294	24060.91
734.635	23924.41
734.976	24094.13
735.317	23888.48
735.658	23821.37
735.999	23848.03
736.339	23716.06
736.68	23836.05
737.021	23707.47
737.361	23747.02
737.702	23646.68
738.042	23581.6
738.383	23462.05
738.723	23583.41
739.063	23442.17
739.404	23590.64
739.744	23379.57
740.084	23364.65
740.424	23300.02
740.764	23236.3
741.104	23350.64
741.444	23290.31
741.784	23095.96
742.124	23214.38
742.464	23070.2
742.804	23033.82
743.143	23048.5
743.483	23092.57
743.823	22950.2
744.162	22890.99
744.502	23069.29
744.841	22824.56
745.181	22945.91
745.52	22746.82
745.86	22835.85
746.199	22742.98
746.538	22763.09
746.877	22699.36
747.216	22622.3
747.556	22643.77
747.895	22615.07
748.234	22528.74
748.573	22446.94
748.911	22405.13
749.25	22484.68
749.589	22251.01
749.928	22282.42
750.267	22340.5
750.605	22153.16
750.944	22231.12
751.283	22046.04
751.621	22154.74
751.96	21997.46
752.298	22032.94
752.636	21880.4
752.975	21812.15
753.313	21815.09
753.651	21900.06
753.989	21881.98
754.327	21752.27
754.666	21625.26
755.004	21552.05
755.342	21698.71
755.679	21498.71
756.017	21421.65
756.355	21461.88
756.693	21333.52
757.031	21376.91
757.368	21284.26
757.706	21252.39
758.044	21174.88
758.381	21131.49
758.719	21023.02
759.056	21144.15
759.394	20863.7
759.731	20744.84
760.068	20843.36
760.405	20663.93
760.743	20640.43
761.08	20654.22
761.417	20581
761.754	20550.94
762.091	20481.79
762.428	20355.24
762.765	20244.28
763.102	20362.93
763.438	20172.42
763.775	20093.55
764.112	20178.75
764.449	20176.72
764.785	20102.14
765.122	19829.38
765.458	19820.57
765.795	19860.34
766.131	19758.42
766.467	19604.98
766.804	19574.92
767.14	19519.78
767.476	19376.06
767.812	19321.6
768.148	19347.81
768.485	19304.2
768.821	19049.29
769.157	19143.07
769.492	19095.84
769.828	19034.37
770.164	18863.53
770.5	18804.1
770.836	18667.83
771.171	18731.56
771.507	18714.83
771.842	18528.62
772.178	18576.31
772.513	18483.65
772.849	18453.37
773.184	18349.42
773.519	18314.62
773.855	18249.53
774.19	18158.46
774.525	18033.95
774.86	18055.87
775.195	18063.1
775.53	17938.36
775.865	17869.88
776.2	17681.19
776.535	17646.16
776.87	17606.84
777.205	17558.93
777.539	17444.36
777.874	17508.99
778.209	17348.77
778.543	17336.11
778.878	17241.88
779.212	17154.42
779.547	17099.51
779.881	17108.55
780.215	16882.11
780.55	16911.26
780.884	16836.24
781.218	16753.53
781.552	16783.13
781.886	16751.27
782.22	16609.58
782.554	16592.63
782.888	16522.8
783.222	16378.17
783.556	16237.84
783.889	16206.42
784.223	16114
784.557	16113.32
784.89	16223.15
785.224	16000.33
785.557	15964.85
785.891	15954.68
786.224	15813.89
786.558	15842.82
786.891	15747.23
787.224	15721.24
787.557	15722.82
787.891	15575.93
788.224	15623.84
788.557	15573.22
788.89	15462.04
789.223	15495.71
789.556	15358.54
789.888	15322.38
790.221	15269.05
790.554	15141.82
790.887	15152.67
791.219	15086.68
791.552	15002.84
791.884	14942.73
792.217	14965.1
792.549	14859.57
792.882	14748.38
793.214	14707.93
793.546	14640.82
793.879	14635.62
794.211	14537.99
794.543	14580.93
794.875	14467.71
795.207	14465.68
795.539	14443.31
795.871	14382.07
796.203	14242.41
796.535	14277.44
796.867	14239.7
797.198	14165.57
797.53	14123.32
797.862	14108.85
798.193	14057.78
798.525	13985.92
798.856	13958.35
799.188	13856.66
799.519	13744.79
799.85	13716.77
800.182	13704.57
800.513	13686.49
800.844	13609.66
801.175	13674.06
801.506	13594.29
801.837	13583.67
802.168	13562.43
802.499	13495.31
802.83	13377.12
803.161	13350
803.491	13357.91
803.822	13240.4
804.153	13209.67
804.483	13141.42
804.814	13082.66
805.145	13128.54
805.475	13071.14
805.805	13040.18
806.136	12985.04
806.466	13080.4
806.796	13007.86
807.126	12884.48
807.457	12847.87
807.787	12795.67
808.117	12763.12
808.447	12759.74
808.777	12759.51
809.107	12677.48
809.436	12641.09
809.766	12622.11
810.096	12573.75
810.426	12544.83
810.755	12529.91
811.085	12523.81
811.414	12551.38
811.744	12325.62
812.073	12406.98
812.403	12337.15
812.732	12343.93
813.061	12302.12
813.39	12313.19
813.719	12177.15
814.049	12262.12
814.378	12108.9
814.707	12176.7
815.036	12109.36
815.365	12089.92
815.693	11900.77
816.022	11959.98
816.351	11964.28
816.68	11854
817.008	11828.91
817.337	11726.54
817.665	11734.9
817.994	11802.25
818.322	11778.07
818.651	11658.3
818.979	11622.36
819.307	11661.46
819.636	11599.77
819.964	11541.24
820.292	11626.88
820.62	11611.06
820.948	11585.3
821.276	11612.19
821.604	11565.87
821.932	11595.25
822.259	11522.48
822.587	11479.54
822.915	11480.22
823.243	11546.66
823.57	11447
823.898	11446.78
824.225	11421.24
824.553	11452.42
824.88	11441.8
825.207	11487.68
825.535	11445.19
825.862	11444.06
826.189	11397.29
826.516	11380.56
826.843	11474.8
827.17	11484.29
827.497	11499.66
827.824	11522.48
828.151	11444.06
828.478	11415.59
828.805	11469.6
829.131	11434.8
829.458	11423.27
829.785	11376.49
830.111	11388.02
830.438	11460.79
830.764	11381.01
831.09	11418.08
831.417	11362.71
831.743	11374.23
832.069	11372.88
832.395	11349.38
832.722	11357.06
833.048	11312.32
833.374	11342.6
833.7	11332.2
834.026	11244.97
834.351	11345.99
834.677	11323.39
835.003	11353.67
835.329	11305.54
835.654	11261.24
835.98	11197.06
836.306	11223.96
836.631	11212.88
836.956	11182.15
837.282	11256.5
837.607	11161.36
837.932	11136.95
838.258	11068.03
838.583	11018.99
838.908	10993.68
839.233	11036.16
839.558	11094.24
839.883	10984.19
840.208	10886.11
840.533	10986.9
840.858	10906.9
841.182	10988.26
841.507	10941.48
841.832	10827.13
842.156	10911.65
842.481	10874.13
842.805	10802.72
843.13	10784.19
843.454	10793.69
843.778	10741.48
844.103	10677.3
844.427	10718.88
844.751	10644.31
845.075	10628.49
845.399	10613.58
845.723	10480.7
846.047	10492
846.371	10451.55
846.695	10406.8
847.019	10372.68
847.343	10383.98
847.666	10280.25
847.99	10244.32
848.313	10217.66
848.637	10207.49
848.96	10154.61
849.284	10123.42
849.607	10074.38
849.931	9993.03
850.254	9986.25
850.577	9928.4
850.9	9945.8
851.223	9873.03
851.546	9839.13
851.869	9789.64
852.192	9836.65
852.515	9692.02
852.838	9629.65
853.161	9579.03
853.483	9593.72
853.806	9491.57
854.129	9510.78
854.451	9535.41
854.774	9482.76
855.096	9422.2
855.419	9457
855.741	9356.21
856.063	9332.93
856.385	9332.93
856.708	9286.83
857.03	9263.33
857.352	9232.14
857.674	9259.04
857.996	9197.34
858.318	9101.53
858.64	9163.9
858.961	9017.46
859.283	9112.83
859.605	9122.32
859.926	9043.45
860.248	9022.21
860.57	8974.52
860.891	8958.71
861.212	8937.24
861.534	8907.86
861.855	8875.54
862.176	8967.52
862.498	8869.22
862.819	8855.43
863.14	8875.09
863.461	8761.2
863.782	8832.15
864.103	8784.92
864.424	8793.96
864.745	8795.55
865.065	8716.68
865.386	8705.83
865.707	8736.79
866.027	8706.73
866.348	8636.23
866.668	8687.3
866.989	8550.13
867.309	8606.62
867.63	8600.97
867.95	8592.61
868.27	8569.34
868.59	8636
868.91	8481.66
869.23	8481.2
869.55	8438.49
869.87	8486.4
870.19	8467.42
870.51	8464.03
870.83	8488.21
871.15	8388.32
871.469	8393.75
871.789	8390.36
872.109	8393.07
872.428	8332.96
872.748	8357.82
873.067	8376.35
873.386	8320.3
873.706	8290.7
874.025	8294.77
874.344	8252.73
874.663	8257.93
874.982	8225.84
875.301	8258.61
875.62	8215.67
875.939	8222.91
876.258	8180.19
876.577	8183.81
876.896	8218.84
877.214	8104.94
877.533	8142
877.852	8124.6
878.17	8122.34
878.489	8204.83
878.807	8180.42
879.125	8134.32
879.444	8129.8
879.762	8097.48
880.08	8071.72
880.398	8055.9
880.716	8024.94
881.034	7996.92
881.352	7975.68
881.67	7981.1
881.988	7991.5
882.306	7904.95
882.624	7908.79
882.941	7865.85
883.259	7877.6
883.577	7839.64
883.894	7811.84
884.212	7846.42
884.529	7773.65
884.846	7783.14
885.164	7776.82
885.481	7763.03
885.798	7812.52
886.115	7734.78
886.432	7687.1
886.75	7599.19
887.067	7627.67
887.383	7618.63
887.7	7681.45
888.017	7544.96
888.334	7601
888.651	7532.53
888.967	7565.52
889.284	7453.66
889.6	7447.56
889.917	7425.41
890.233	7408.46
890.55	7424.51
890.866	7417.5
891.182	7405.98
891.498	7374.79
891.815	7291.86
892.131	7322.36
892.447	7225.42
892.763	7210.28
893.079	7314.68
893.395	7204.4
893.71	7207.56
894.026	7220.67
894.342	7150.39
894.657	7208.02
894.973	7099.09
895.289	7101.35
895.604	7024.74
895.92	7025.2
896.235	7035.37
896.55	7031.3
896.865	7004.63
897.181	6955.82
897.496	6944.52
897.811	6872.43
898.126	6889.61
898.441	6830.17
898.756	6909.72
899.071	6804.41
899.386	6825.88
899.7	6773.45
900.015	6741.14
900.33	6735.49
900.644	6720.8
900.959	6682.38
901.273	6667.69
901.588	6598.32
901.902	6619.56
902.216	6616.62
902.531	6575.94
902.845	6559.67
903.159	6555.38
903.473	6435.83
903.787	6455.27
904.101	6482.61
904.415	6377.3
904.729	6336.85
905.042	6366.23
905.356	6253.92
905.67	6288.49
905.984	6283.07
906.297	6241.49
906.611	6235.16
906.924	6228.61
907.237	6192.45
907.551	6181.38
907.864	6112.45
908.177	6120.59
908.491	6065.9
908.804	6042.4
909.117	6044.21
909.43	6011.89
909.743	6005.11
910.056	5914.72
910.368	5925.34
910.681	5956.07
910.994	5921.27
911.307	5883.53
911.619	5842.18
911.932	5839.24
912.244	5790.65
912.557	5808.73
912.869	5791.1
913.181	5785.91
913.494	5740.03
913.806	5719.47
914.118	5676.98
914.43	5602.18
914.742	5596.76
915.054	5631.11
915.366	5571.22
915.678	5578.68
915.99	5537.1
916.302	5492.58
916.613	5487.61
916.925	5480.38
917.236	5479.93
917.548	5456.42
917.859	5410.78
918.171	5399.93
918.482	5400.61
918.794	5371.91
919.105	5320.83
919.416	5250.55
919.727	5250.78
920.038	5247.16
920.349	5192.25
920.66	5176.66
920.971	5199.93
921.282	5126.26
921.593	5103.44
921.903	5083.1
922.214	5116.09
922.525	5091.01
922.835	5072.48
923.146	4988.41
923.456	5039.71
923.767	4991.35
924.077	4938.7
924.387	4938.25
924.697	4915.2
925.008	4926.04
925.318	4878.36
925.628	4863.67
925.938	4816.67
926.248	4839.72
926.558	4794.52
926.867	4766.95
927.177	4758.82
927.487	4748.42
927.796	4728.31
928.106	4735.77
928.416	4681.08
928.725	4657.8
929.034	4648.76
929.344	4660.51
929.653	4670.46
929.962	4552.04
930.271	4548.88
930.581	4521.76
930.89	4536.45
931.199	4501.87
931.508	4498.26
931.817	4492.61
932.125	4450.8
932.434	4428.43
932.743	4383.23
933.051	4340.97
933.36	4324.48
933.669	4337.13
933.977	4326.28
934.286	4289.22
934.594	4320.63
934.902	4285.61
935.21	4249
935.519	4240.86
935.827	4248.77
936.135	4240.19
936.443	4178.94
936.751	4156.8
937.059	4197.93
937.367	4121.54
937.674	4119.06
937.982	4133.3
938.29	4089.91
938.597	4074.99
938.905	4027.08
939.213	4006.52
939.52	3988.67
939.827	4036.12
940.135	3927.2
940.442	3934.43
940.749	3943.24
941.056	3987.31
941.363	3892.17
941.67	3921.32
941.977	3867.54
942.284	3856.01
942.591	3852.85
942.898	3847.88
943.205	3839.52
943.511	3779.63
943.818	3826.64
944.125	3739.18
944.431	3745.28
944.738	3765.4
945.044	3725.62
945.35	3714.55
945.657	3677.71
945.963	3644.95
946.269	3632.52
946.575	3642.01
946.881	3667.54
947.187	3617.6
947.493	3610.6
947.799	3560.2
948.105	3567.21
948.41	3538.73
948.716	3537.15
949.022	3530.83
949.327	3525.63
949.633	3490.83
949.938	3446.53
950.244	3441.79
950.549	3452.18
950.854	3429.58
951.16	3434.1
951.465	3406.76
951.77	3352.75
952.075	3377.61
952.38	3314.33
952.685	3346.2
952.99	3315.92
953.294	3284.96
953.599	3275.01
953.904	3280.44
954.209	3266.65
954.513	3279.31
954.818	3206.54
955.122	3234.34
955.426	3238.4
955.731	3167.67
956.035	3198.63
956.339	3160.89
956.643	3185.75
956.948	3141
957.252	3070.5
957.556	3092.19
957.86	3089.71
958.163	3122.02
958.467	3087.9
958.771	3072.53
959.075	3032.53
959.378	3010.39
959.682	3012.19
959.985	2973.1
960.289	2977.39
960.592	2985.08
960.896	2938.98
961.199	2995.92
961.502	2944.85
961.805	2905.53
962.108	2894.68
962.411	2901.24
962.714	2882.71
963.017	2874.35
963.32	2858.75
963.623	2857.62
963.926	2858.75
964.228	2842.48
964.531	2815.59
964.833	2829.83
965.136	2812.43
965.438	2803.61
965.741	2753.9
966.043	2728.81
966.345	2759.55
966.648	2751.86
966.95	2701.92
967.252	2738.98
967.554	2708.93
967.856	2705.54
968.158	2692.43
968.46	2669.83
968.761	2660.34
969.063	2657.4
969.365	2631.64
969.666	2629.15
969.968	2595.71
970.269	2608.59
970.571	2614.47
970.872	2575.37
971.174	2590.74
971.475	2539.66
971.776	2558.87
972.077	2534.02
972.378	2528.37
972.679	2535.15
972.98	2545.77
973.281	2477.52
973.582	2471.64
973.883	2472.55
974.183	2456.05
974.484	2450.63
974.785	2428.48
975.085	2439.55
975.386	2450.63
975.686	2402.49
975.986	2408.82
976.287	2388.71
976.587	2356.39
976.887	2368.82
977.187	2363.62
977.487	2354.36
977.787	2341.03
978.087	2346.45
978.387	2317.98
978.687	2293.57
978.987	2277.52
979.286	2298.99
979.586	2271.2
979.885	2228.94
980.185	2265.1
980.484	2242.27
980.784	2229.39
981.083	2241.14
981.382	2203.18
981.682	2230.75
981.981	2192.1
982.28	2215.38
982.579	2176.74
982.878	2166.34
983.177	2175.38
983.475	2124.99
983.774	2104.65
984.073	2148.04
984.372	2125.89
984.67	2094.03
984.969	2106.91
985.267	2090.41
985.566	2102.39
985.864	2085.44
986.162	2090.19
986.461	2063.52
986.759	2037.98
987.057	2029.4
987.355	2026.68
987.653	2009.51
987.951	2002.05
988.249	2009.06
988.547	2003.86
988.844	1967.48
989.142	2003.86
989.44	1962.96
989.737	1945.1
990.035	1975.39
990.332	1972.22
990.63	1922.96
990.927	1932.22
991.224	1934.71
991.521	1898.78
991.819	1908.95
992.116	1900.36
992.413	1886.35
992.71	1861.94
993.006	1854.94
993.303	1856.74
993.6	1845.22
993.897	1861.94
994.193	1836.41
994.49	1847.48
994.787	1827.82
995.083	1825.33
995.379	1783.75
995.676	1800.48
995.972	1781.94
996.268	1771.1
996.565	1750.53
996.861	1758.44
997.157	1764.09
997.453	1751.21
997.749	1746.47
998.044	1727.71
998.34	1710.99
998.636	1709.86
998.932	1709.18
999.227	1705.79
999.523	1713.7
999.818	1688.39
1000.114	1661.04
1000.409	1646.36
1000.704	1670.54
1001	1653.81
1001.295	1640.48
1001.59	1630.08
1001.885	1622.17
1002.18	1622.4
1002.475	1602.29
1002.77	1577.88
1003.065	1597.09
1003.359	1550.31
1003.654	1595.73
1003.949	1582.18
1004.243	1577.66
1004.538	1550.54
1004.832	1542.18
1005.127	1511.44
1005.421	1525.45
1005.715	1511.22
1006.009	1479.13
1006.304	1481.61
1006.598	1468.05
1006.892	1493.36
1007.186	1447.04
1007.48	1460.82
1007.773	1441.39
1008.067	1421.73
1008.361	1453.14
1008.655	1431.45
1008.948	1433.03
1009.242	1415.63
1009.535	1434.61
1009.829	1397.55
1010.122	1368.4
1010.415	1374.05
1010.708	1378.79
1011.001	1363.2
1011.295	1360.71
1011.588	1369.3
1011.881	1352.58
1012.173	1330.43
1012.466	1316.87
1012.759	1343.31
1013.052	1345.35
1013.344	1305.57
1013.637	1316.42
1013.93	1308.51
1014.222	1268.29
1014.514	1296.31
1014.807	1281.39
1015.099	1306.25
1015.391	1224.45
1015.683	1260.6
1015.976	1277.33
1016.268	1248.63
1016.56	1223.32
1016.851	1219.47
1017.143	1250.89
1017.435	1245.01
1017.727	1206.59
1018.018	1167.5
1018.31	1183.54
1018.602	1153.03
1018.893	1158.46
1019.185	1160.49
1019.476	1164.33
1019.767	1174.73
1020.058	1161.85
1020.35	1134.73
1020.641	1123.43
1020.932	1151.45
1021.223	1124.56
1021.514	1109.19
1021.804	1094.28
1022.095	1095.64
1022.386	1105.58
1022.677	1062.87
1022.967	1079.59
1023.258	1091.57
1023.548	1090.21
1023.839	1051.79
1024.129	1048.4
1024.419	1040.27
1024.709	1031.91
1025	1043.43
1025.29	1027.39
1025.58	1021.06
1025.87	983.1
1026.16	1029.65
1026.449	1012.02
1026.739	987.84
1027.029	981.97
1027.319	982.64
1027.608	984.68
1027.898	1010.44
1028.187	995.52
1028.477	984
1028.766	969.08
1029.055	964.34
1029.344	927.28
1029.634	944.68
1029.923	926.83
1030.212	928.18
1030.501	944.9
1030.79	909.2
1031.078	907.62
1031.367	890.44
1031.656	886.6
1031.945	912.59
1032.233	902.87
1032.522	895.41
1032.81	872.82
1033.099	843.21
1033.387	878.47
1033.675	859.26
1033.963	839.82
1034.251	861.06
1034.54	876.21
1034.828	868.52
1035.116	837.79
1035.403	841.18
1035.691	819.71
1035.979	822.65
1036.267	819.03
1036.554	805.02
1036.842	824.23
1037.129	801.86
1037.417	800.73
1037.704	819.26
1037.992	789.2
1038.279	805.93
1038.566	792.14
1038.853	792.14
1039.14	792.14
