Data from whiteboard_FLMS001491_00028.txt Node
Date: Wed Feb 08 11:25:50 GMT 2017
User: dcchb
Spectrometer: FLMS00149
Trigger mode: 0
Integration Time (sec): 2.000000E-2
Scans to average: 10
Electric dark correction enabled: true
Nonlinearity correction enabled: false
Boxcar width: 0
XAxis mode: Wavelengths
Number of Pixels in Spectrum: 2048
>>>>>Begin Spectral Data<<<<<
341.393	-11.92
341.776	-11.92
342.16	-11.92
342.543	-61.64
342.927	-67.96
343.31	-68.64
343.693	-57.57
344.077	-51.69
344.46	-50.56
344.843	-56.89
345.226	-53.5
345.61	-47.17
345.993	-26.16
346.376	-20.96
346.759	6.61
347.142	39.83
347.525	33.73
347.908	59.49
348.291	76.66
348.674	87.51
349.057	129.32
349.44	117.57
349.823	141.3
350.206	175.87
350.588	236.66
350.971	257.22
351.354	259.26
351.737	273.95
352.119	295.64
352.502	295.19
352.884	297.45
353.267	320.27
353.65	314.17
354.032	330.22
354.414	317.34
354.797	355.75
355.179	361.63
355.562	366.15
355.944	371.57
356.326	357.11
356.709	372.7
357.091	386.04
357.473	364.11
357.855	388.97
358.238	391.46
358.62	381.97
359.002	397.11
359.384	377.22
359.766	371.8
360.148	403.89
360.53	362.08
360.912	378.58
361.294	369.76
361.676	391.23
362.057	377.45
362.439	414.28
362.821	399.82
363.203	389.2
363.584	379.93
363.966	389.2
364.348	364.34
364.729	366.6
365.111	366.83
365.493	382.42
365.874	381.74
366.256	369.76
366.637	380.16
367.019	366.37
367.4	365.7
367.781	384.45
368.163	398.01
368.544	354.85
368.925	360.05
369.306	375.19
369.688	398.92
370.069	379.03
370.45	390.33
370.831	387.16
371.212	366.15
371.593	380.61
371.974	385.13
372.355	369.99
372.736	395.53
373.117	393.49
373.498	398.46
373.879	410.89
374.26	402.53
374.641	375.87
375.021	382.87
375.402	389.65
375.783	395.98
376.163	424.68
376.544	442.08
376.925	428.07
377.305	420.38
377.686	403.44
378.066	440.95
378.447	440.72
378.827	419.25
379.208	440.72
379.588	442.76
379.968	438.69
380.349	433.72
380.729	436.43
381.109	444.79
381.489	464.45
381.87	458.35
382.25	456.54
382.63	471.91
383.01	456.54
383.39	463.32
383.77	444.11
384.15	476.2
384.53	473.49
384.91	466.48
385.29	496.31
385.67	490.21
386.049	486.15
386.429	512.81
386.809	487.73
387.189	495.41
387.568	486.15
387.948	531.79
388.328	532.02
388.707	534.51
389.087	536.09
389.466	522.3
389.846	554.62
390.225	574.73
390.605	572.24
390.984	583.32
391.363	560.49
391.743	559.14
392.122	579.7
392.501	604.11
392.881	608.18
393.26	602.75
393.639	626.71
394.018	628.74
394.397	650.66
394.776	637.1
395.155	638.01
395.534	634.84
395.913	663.09
396.292	671
396.671	675.74
397.05	686.59
397.429	695.41
397.808	698.12
398.186	715.74
398.565	700.83
398.944	734.73
399.323	748.74
399.701	777.66
400.08	773.82
400.458	787.38
400.837	779.47
401.215	780.83
401.594	817.66
401.972	817.66
402.351	830.54
402.729	857.89
403.107	856.08
403.486	859.92
403.864	864.67
404.242	902.86
404.62	931.56
404.999	938.11
405.377	958.22
405.755	955.06
406.133	957.55
406.511	1002.29
406.889	1005.23
407.267	1026.92
407.645	1045.45
408.023	1042.29
408.401	1083.19
408.779	1095.39
409.156	1110.54
409.534	1128.39
409.912	1153.02
410.29	1196.18
410.667	1189.18
411.045	1195.51
411.422	1220.36
411.8	1256.97
412.178	1263.3
412.555	1303.3
412.933	1357.99
413.31	1369.74
413.687	1379.23
414.065	1398.89
414.442	1433.24
414.819	1427.14
415.197	1423.3
415.574	1472.33
415.951	1500.36
416.328	1512.79
416.705	1546
417.082	1536.97
417.46	1576.51
417.837	1623.97
418.214	1611.54
418.591	1663.06
418.967	1656.28
419.344	1673.68
419.721	1680.69
420.098	1688.6
420.475	1734.25
420.852	1743.97
421.228	1786
421.605	1793.23
421.982	1794.36
422.358	1811.31
422.735	1861.02
423.111	1882.94
423.488	1937.18
423.864	1908.03
424.241	1988.7
424.617	1981.02
424.994	1980.57
425.37	2010.85
425.746	2004.98
426.123	2059.44
426.499	2073.67
426.875	2125.42
427.251	2154.35
427.627	2240.22
428.003	2204.74
428.379	2231.64
428.756	2289.71
429.132	2339.88
429.507	2379.43
429.883	2376.27
430.259	2428.24
430.635	2444.74
431.011	2445.19
431.387	2498.97
431.763	2571.51
432.138	2597.05
432.514	2630.04
432.89	2642.25
433.265	2697.61
433.641	2760.66
434.016	2776.93
434.392	2805.18
434.767	2860.55
435.143	2878.85
435.518	2922.92
435.894	2943.03
436.269	2989.58
436.644	3064.38
437.02	3057.83
437.395	3076.59
437.77	3117.71
438.145	3192.51
438.52	3191.61
438.895	3244.94
439.271	3239.07
439.646	3353.87
440.021	3322.23
440.395	3361.32
440.77	3326.97
441.145	3381.89
441.52	3489.46
441.895	3516.35
442.27	3562
442.645	3543.92
443.019	3571.94
443.394	3582.56
443.769	3610.13
444.143	3571.26
444.518	3705.72
444.892	3696.68
445.267	3706.17
445.641	3738.49
446.016	3757.7
446.39	3795.21
446.764	3858.26
447.139	3869.11
447.513	3903.23
447.887	3937.13
448.262	3919.05
448.636	4000.63
449.01	4081.53
449.384	4105.71
449.758	4127.63
450.132	4139.16
450.506	4188.65
450.88	4222.54
451.254	4240.85
451.628	4266.38
452.002	4376.66
452.376	4337.8
452.75	4437.68
453.123	4510.45
453.497	4537.11
453.871	4557.45
454.244	4679.26
454.618	4716.77
454.992	4742.53
455.365	4759.03
455.739	4874.5
456.112	4981.39
456.486	4974.61
456.859	5005.35
457.232	5131
457.606	5112.69
457.979	5208.51
458.352	5380.48
458.725	5478.56
459.099	5475.17
459.472	5560.59
459.845	5606.69
460.218	5710.19
460.591	5716.29
460.964	5786.57
461.337	5952.89
461.71	6024.76
462.083	6104.3
462.456	6121.25
462.829	6091.42
463.201	6283.06
463.574	6283.06
463.947	6345.2
464.32	6530.73
464.692	6611.41
465.065	6648.24
465.438	6744.29
465.81	6817.73
466.183	6901.8
466.555	7104.05
466.928	7182.01
467.3	7049.81
467.672	7203.71
468.045	7425.17
468.417	7450.71
468.789	7525.96
469.161	7633.3
469.534	7754.88
469.906	7872.17
470.278	8012.95
470.65	8024.48
471.022	8233.29
471.394	8353.06
471.766	8431.93
472.138	8550.11
472.51	8779.03
472.882	8930.22
473.253	9021.97
473.625	9181.51
473.997	9357.78
474.369	9447.04
474.74	9536.53
475.112	9704.21
475.484	9907.37
475.855	10049.74
476.227	10083.86
476.598	10426
476.97	10486.56
477.341	10720
477.713	10956.15
478.084	10952.54
478.455	11291.51
478.827	11360.44
479.198	11741.67
479.569	11783.48
479.94	12121.09
480.311	12176.46
480.682	12513.4
481.053	12710.91
481.424	12980.51
481.795	13080.62
482.166	13309.09
482.537	13504.56
482.908	13714.72
483.279	13878.79
483.65	14148.16
484.021	14468.6
484.391	14593.57
484.762	14667.92
485.133	14865.43
485.503	15125.31
485.874	15465.41
486.244	15586.99
486.615	15885.97
486.985	16140.88
487.356	16403.24
487.726	16496.12
488.097	16969.1
488.467	16847.98
488.837	17321.63
489.207	17619.48
489.578	17834.16
489.948	17936.76
490.318	18256.07
490.688	18347.37
491.058	18682.96
491.428	18974.7
491.798	19064.41
492.168	19611.74
492.538	19563.16
492.908	19700.33
493.278	20008.12
493.648	20157.04
494.017	20389.35
494.387	20409.69
494.757	20653.98
495.126	20934.42
495.496	21031.37
495.866	21179.61
496.235	21436.1
496.605	21636.55
496.974	21713.61
497.344	21972.36
497.713	22048.74
498.082	22186.14
498.452	22448.05
498.821	22594.94
499.19	22604.66
499.559	22799.91
499.928	22940.7
500.298	23156.96
500.667	23459.33
501.036	23344.08
501.405	23696.16
501.774	23728.7
502.143	23998.75
502.512	24109.93
502.88	24355.35
503.249	24568.9
503.618	24635.57
503.987	24829.69
504.356	24893.87
504.724	25156.91
505.093	25281.43
505.462	25445.94
505.83	25630.12
506.199	25855.87
506.567	26168.63
506.936	26194.4
507.304	26509.64
507.672	26740.37
508.041	26743.76
508.409	26852.68
508.777	27115.73
509.145	27377.19
509.514	27471.88
509.882	27479.11
510.25	27657.86
510.618	27929.49
510.986	27996.83
511.354	28372.42
511.722	28487.44
512.09	28647.66
512.458	28728.34
512.826	29022.8
513.193	29109.57
513.561	29296.69
513.929	29555.44
514.297	29729.44
514.664	30008.76
515.032	30101.64
515.4	30385.02
515.767	30541.63
516.135	30829.3
516.502	30519.03
516.869	31367.59
517.237	31430.87
517.604	31342.06
517.972	31647.59
518.339	32007.8
518.706	32162.6
519.073	32193.79
519.44	32500.44
519.808	32883.94
520.175	32823.15
520.542	33245.96
520.909	33630.58
521.276	33577.48
521.643	33909.45
522.009	34311.7
522.376	34505.59
522.743	34655.19
523.11	35028.51
523.477	35362.06
523.843	35668.72
524.21	35969.28
524.577	36260.57
524.943	36471.64
525.31	36640.9
525.676	36957.28
526.043	37026.65
526.409	37377.38
526.776	37700.99
527.142	37860.08
527.508	38033.41
527.874	38483.11
528.241	38565.6
528.607	38647.4
528.973	39039.93
529.339	39001.52
529.705	39395.18
530.071	39627.04
530.437	39760.14
530.803	40116.52
531.169	40336.17
531.535	40263.86
531.901	40387.47
532.267	40629.27
532.632	40985.65
532.998	41048.69
533.364	41311.51
533.73	41467.67
534.095	41745.85
534.461	41645.74
534.826	42152.39
535.192	42239.4
535.557	42600.74
535.923	42508.09
536.288	42635.77
536.653	42980.4
537.019	42948.08
537.384	43264.68
537.749	43530.44
538.114	43568.18
538.479	43637.1
538.845	44000.71
539.21	43870.09
539.575	44062.85
539.94	44197.99
540.305	44621.48
540.67	44499.68
541.034	44655.61
541.399	44997.07
541.764	44860.12
542.129	45077.06
542.494	45164.29
542.858	45519.31
543.223	45356.6
543.587	45680.66
543.952	45472.31
544.316	45738.51
544.681	45826.2
545.045	46036.13
545.41	46267.54
545.774	46279.97
546.138	46399.29
546.503	46655.1
546.867	46601.54
547.231	47041.08
547.595	46849.9
547.959	47099.61
548.324	47123.11
548.688	47139.83
549.052	47381.18
549.416	47497.56
549.779	47538.92
550.143	47671.8
550.507	47985.24
550.871	48035.63
551.235	48143.65
551.599	48412.57
551.962	48536.63
552.326	48573.69
552.689	48770.75
553.053	48752.9
553.417	48799.45
553.78	49407.12
554.143	49245.09
554.507	49390.17
554.87	49509.94
555.234	50032.64
555.597	49698.64
555.96	49885.3
556.323	50071.28
556.686	50130.49
557.05	50447.09
557.413	50475.34
557.776	50500.42
558.139	50770.25
558.502	50943.35
558.865	50974.99
559.228	51235.32
559.59	51312.38
559.953	51321.42
560.316	51619.26
560.679	51586.27
561.041	51887.73
561.404	51940.16
561.767	52172.7
562.129	52164.56
562.492	52327.72
562.854	52400.71
563.217	52416.98
563.579	52592.8
563.941	52743.3
564.304	52908.72
564.666	53107.13
565.028	53220.8
565.39	53257.87
565.753	53431.19
566.115	53553.9
566.477	53682.03
566.839	53840.45
567.201	53897.4
567.563	53941.91
567.925	54215.35
568.287	54223.04
568.648	54269.36
569.01	54439.76
569.372	54726.3
569.734	54585.97
570.095	54782.12
570.457	54916.8
570.819	54889.69
571.18	54981.89
571.542	55180.3
571.903	55121.77
572.265	55284.03
572.626	55364.93
572.987	55417.58
573.349	55512.5
573.71	55599.05
574.071	55591.82
574.432	55769.21
574.794	55947.74
575.155	55893.28
575.516	55843.56
575.877	56017.79
576.238	56109.09
576.599	56198.13
576.96	56190.44
577.32	56250.1
577.681	56320.16
578.042	56393.38
578.403	56396.99
578.763	56359.25
579.124	56450.55
579.485	56458.23
579.845	56655.97
580.206	56496.42
580.566	56613.94
580.927	56534.84
581.287	56646.02
581.648	56617.78
582.008	56700.26
582.368	56706.36
582.728	56759.47
583.089	56720.37
583.449	56754.5
583.809	56734.84
584.169	56769.41
584.529	56764.89
584.889	56951.78
585.249	56782.74
585.609	56706.36
585.969	56860.48
586.329	56826.58
586.688	56845.34
587.048	56847.15
587.408	56806.02
587.768	56859.35
588.127	56796.98
588.487	56815.96
588.846	56943.19
589.206	56802.63
589.565	56860.26
589.925	56968.5
590.284	56916.3
590.643	56947.94
591.003	56927.15
591.362	57048.27
591.721	56989.52
592.08	57045.56
592.44	57053.02
592.799	57056.64
593.158	57004.43
593.517	57043.3
593.876	57159.23
594.235	57057.99
594.593	57093.02
594.952	57137.76
595.311	57092.11
595.67	57167.82
596.029	57274.48
596.387	57290.3
596.746	57354.25
597.104	57241.72
597.463	57179.12
597.822	57333.24
598.18	57224.54
598.538	57269.51
598.897	57356.51
599.255	57121.72
599.613	57547.02
599.972	57356.74
600.33	57468.15
600.688	57271.54
601.046	57364.42
601.404	57455.95
601.762	57410.52
602.12	57499.79
602.478	57488.26
602.836	57429.28
603.194	57313.58
603.552	57397.19
603.91	57317.65
604.268	57455.04
604.625	57386.8
604.983	57500.24
605.341	57389.28
605.698	57446
606.056	57519
606.413	57478.77
606.771	57554.93
607.128	57568.94
607.485	57507.24
607.843	57519.67
608.2	57625.89
608.557	57737.97
608.914	57611.2
609.272	57807.8
609.629	57851.42
609.986	57908.36
610.343	57766.45
610.7	57987.91
611.057	57919.44
611.414	57874.47
611.771	57945.65
612.127	58107.91
612.484	58011.64
612.841	58124.63
613.198	57938.65
613.554	58098.42
613.911	58188.13
614.267	58176.61
614.624	58157.62
614.98	58221.58
615.337	58327.56
615.693	58258.41
616.05	58252.08
616.406	58358.07
616.762	58298.86
617.118	58375.24
617.475	58387.67
617.831	58463.83
618.187	58463.83
618.543	58522.81
618.899	58570.95
619.255	58511.96
619.611	58557.39
619.967	58652.07
620.323	58688.91
620.678	58537.27
621.034	58439.88
621.39	58554.9
621.746	58438.52
622.101	58772.97
622.457	58560.32
622.812	58594.22
623.168	58662.02
623.523	58596.03
623.879	58724.16
624.234	58542.92
624.589	58550.16
624.945	58667.21
625.3	58559.19
625.655	58527.78
626.01	58564.39
626.365	58565.75
626.72	58427.9
627.075	58453.43
627.43	58454.34
627.785	58436.26
628.14	58369.37
628.495	58423.61
628.85	58378.86
629.205	58314.23
629.559	58392.42
629.914	58286.89
630.269	58281.46
630.623	58208.02
630.978	58113.56
631.332	58222.25
631.687	58325.98
632.041	58075.14
632.396	58194.01
632.75	58050.06
633.104	58094.8
633.459	58021.81
633.813	58003.28
634.167	58056.16
634.521	57978.65
634.875	58041.69
635.229	57897.97
635.583	57842.83
635.937	57887.35
636.291	57857.97
636.645	57883.28
636.999	57831.3
637.352	57876.95
637.706	57754.24
638.06	57842.38
638.413	57779.78
638.767	57687.35
639.121	57740.46
639.474	57591.31
639.828	57711.08
640.181	57669.73
640.534	57701.82
640.888	57634.02
641.241	57508.15
641.594	57518.77
641.947	57671.99
642.301	57576.17
642.654	57642.38
643.007	57520.35
643.36	57583.85
643.713	57476.29
644.066	57669.73
644.419	57427.93
644.771	57255.5
645.124	57035.39
645.477	56935.73
645.83	56833.59
646.182	56681.05
646.535	56536.42
646.888	56701.16
647.24	56504.33
647.593	56603.09
647.945	56488.74
648.298	56418.69
648.65	56302.98
649.002	56265.47
649.355	56358.35
649.707	56380.49
650.059	56472.02
650.411	56756.76
650.763	56687.61
651.115	57024.09
651.467	56877.88
651.819	56854.38
652.171	56745.68
652.523	56786.13
652.875	56661.39
653.227	56576.65
653.578	56727.83
653.93	56632.69
654.282	56453.04
654.633	56402.64
654.985	56421.62
655.337	56474.28
655.688	56462.3
656.039	56493.71
656.391	56234.51
656.742	56359.7
657.094	56344.11
657.445	56379.82
657.796	56279.25
658.147	56176.88
658.498	56236.54
658.849	56268.18
659.2	56173.49
659.551	56152.25
659.902	56197.45
660.253	56053.72
660.604	56156.77
660.955	56017.57
661.306	56069.99
661.656	56047.62
662.007	56049.43
662.358	56088.3
662.708	56021.18
663.059	55976.44
663.409	55808.76
663.76	56031.35
664.11	55945.48
664.461	55971.01
664.811	55945.25
665.161	55969.43
665.511	55952.03
665.862	56003.1
666.212	56060.5
666.562	56036.78
666.912	55992.03
667.262	55978.02
667.612	55934.63
667.962	56014.85
668.312	55960.62
668.662	56081.29
669.011	55988.19
669.361	55908.87
669.711	55883.11
670.06	55870
670.41	55845.59
670.76	55755.2
671.109	55919.26
671.459	55793.17
671.808	55766.05
672.157	55833.62
672.507	55654.86
672.856	55651.47
673.205	55665.03
673.554	55760.85
673.904	55602.89
674.253	55695.99
674.602	55691.93
674.951	55223.24
675.3	55079.74
675.649	55471.37
675.998	55478.15
676.346	55496.22
676.695	55553.4
677.044	55359.73
677.393	55386.85
677.741	55443.34
678.09	55385.27
678.438	55241.54
678.787	55234.31
679.135	55249.68
679.484	55075.22
679.832	55140.53
680.181	54931.49
680.529	55022.56
680.877	54934.21
681.225	54932.62
681.573	55034.77
681.922	54861.66
682.27	54654.21
682.618	54719.52
682.966	54602.24
683.314	54678.84
683.661	54601.11
684.009	54501.45
684.357	54432.3
684.705	54343.94
685.053	54238.63
685.4	54254.68
685.748	54080.22
686.095	54119.54
686.443	53919.32
686.79	53972.42
687.138	54026.21
687.485	53980.33
687.832	53770.85
688.18	53795.48
688.527	53743.05
688.874	53753.45
689.221	53586.44
689.568	53589.83
689.915	53403.85
690.262	53409.95
690.609	53298.54
690.956	53209.28
691.303	53133.57
691.65	53066.23
691.997	53024.42
692.344	52818.55
692.69	52793.92
693.037	52978.1
693.383	52696.75
693.73	52741.49
694.077	52590.31
694.423	52555.28
694.769	52398.45
695.116	52387.38
695.462	52350.77
695.808	52227.16
696.155	52292.01
696.501	51932.93
696.847	52013.83
697.193	51779.49
697.539	51965.47
697.885	51725.93
698.231	51673.05
698.577	51612.94
698.923	51696.1
699.269	51367.75
699.614	51245.26
699.96	51337.46
700.306	51218.37
700.651	51165.94
700.997	51028.09
701.342	50954.2
701.688	50895.44
702.033	50714.2
702.379	50723.24
702.724	50630.14
703.069	50781.32
703.415	50358.51
703.76	50304.27
704.105	50219.08
704.45	50194.89
704.795	49878.07
705.14	49878.52
705.485	49829.71
705.83	49769.37
706.175	49770.5
706.52	49471.75
706.865	49380.23
707.209	49376.61
707.554	49253.68
707.899	49297.97
708.243	49027.24
708.588	48979.33
708.932	48817.98
709.277	48674.26
709.621	48731.2
709.966	48441.72
710.31	48491.89
710.654	48227.26
710.998	48262.29
711.342	48241.5
711.687	48187.72
712.031	47896.65
712.375	47819.36
712.719	47794.28
713.063	47714.96
713.407	47689.88
713.75	47512.03
714.094	47469.09
714.438	47281.98
714.782	47406.49
715.125	47175.54
715.469	47267.51
715.812	46959.73
716.156	46745.49
716.499	46872.04
716.843	46728.32
717.186	46562.45
717.53	46728.55
717.873	46752.95
718.216	46446.74
718.559	46312.51
718.902	46055.79
719.246	45984.61
719.589	45991.16
719.932	45849.25
720.275	45772.19
720.617	45668.01
720.96	45612.64
721.303	45719.76
721.646	45613.32
721.989	45433.21
722.331	45514.11
722.674	45335.14
723.016	45464.17
723.359	45233.44
723.701	45212.2
724.044	45024.86
724.386	44822.83
724.729	44907.35
725.071	44951.42
725.413	44846.56
725.755	44763.17
726.097	44530.64
726.439	44407.25
726.782	44478.66
727.124	44650.63
727.465	44289.06
727.807	44369.96
728.149	44303.98
728.491	44178.56
728.833	44260.59
729.175	44194.15
729.516	43966.36
729.858	43878.22
730.199	43881.16
730.541	43844.55
730.882	43805.46
731.224	43891.33
731.565	43597.55
731.906	43707.16
732.248	43819.7
732.589	43530.89
732.93	43422.42
733.271	43534.28
733.612	43560.95
733.953	43457.44
734.294	43304
734.635	43300.84
734.976	43341.97
735.317	43201.41
735.658	43200.28
735.999	43010.23
736.339	43047.06
736.68	42974.75
737.021	42720.97
737.361	42749.21
737.702	42767.52
738.042	42733.62
738.383	42474.87
738.723	42588.09
739.063	42408.66
739.404	42461.99
739.744	42217.03
740.084	42327.31
740.424	42177.03
740.764	41999.18
741.104	42146.97
741.444	42004.6
741.784	41754.66
742.124	41766.42
742.464	41729.35
742.804	41622.46
743.143	41544.05
743.483	41501.34
743.823	41328.46
744.162	41189.48
744.502	41306.54
744.841	41119.88
745.181	41176.6
745.52	40964.4
745.86	41049.37
746.199	40893.9
746.538	40699.55
746.877	40756.72
747.216	40779.55
747.556	40589.72
747.895	40649.61
748.234	40373.68
748.573	40314.48
748.911	40262.27
749.25	40154.48
749.589	39979.57
749.928	40025.22
750.267	40017.31
750.605	39865.67
750.944	39728.5
751.283	39504.78
751.621	39463.2
751.96	39347.72
752.298	39284.67
752.636	39387.72
752.975	39205.81
753.313	38968.52
753.651	39149.54
753.989	39040.84
754.327	38934.85
754.666	38693.73
755.004	38765.14
755.342	38743.9
755.679	38528.31
756.017	38424.36
756.355	38595.65
756.693	38328.09
757.031	38345.26
757.368	38206.28
757.706	38129
758.044	37934.43
758.381	37936.01
758.719	37846.29
759.056	37835.67
759.394	37696.47
759.731	37350.49
760.068	37385.29
760.405	37277.27
760.743	37171.28
761.08	37211.28
761.417	37028.69
761.754	36918.63
762.091	36858.97
762.428	36758.86
762.765	36596.83
763.102	36670.28
763.438	36519.77
763.775	36319.1
764.112	36446.56
764.449	36454.24
764.785	36263.74
765.122	35987.58
765.458	35791.21
765.795	35726.57
766.131	35857.42
766.467	35668.95
766.804	35451.33
767.14	35318.45
767.476	35233.71
767.812	35109.87
768.148	35229.19
768.485	34913.04
768.821	34931.12
769.157	34848.86
769.492	34658.35
769.828	34667.62
770.164	34323.22
770.5	34221.76
770.836	34327.29
771.171	33933.85
771.507	33973.4
771.842	33760.07
772.178	33775.67
772.513	33576.8
772.849	33553.52
773.184	33458.39
773.519	33450.93
773.855	33242.8
774.19	33088.45
774.525	33048.91
774.86	33020.66
775.195	32884.39
775.53	32651.18
775.865	32319.88
776.2	32186.1
776.535	31958.76
776.87	32029.27
777.205	31951.76
777.539	31902.04
777.874	31806.68
778.209	31660.24
778.543	31499.57
778.878	31279.01
779.212	31210.08
779.547	31051.9
779.881	31140.71
780.215	30787.04
780.55	30849.41
780.884	30683.77
781.218	30574.85
781.552	30511.12
781.886	30365.13
782.22	30123.78
782.554	30091.69
782.888	29804.92
783.222	29635.21
783.556	29528.77
783.889	29426.63
784.223	29234.09
784.557	29190.93
784.89	29261.43
785.224	29110.93
785.557	28848.56
785.891	28831.61
786.224	28640.89
786.558	28604.95
786.891	28374.23
787.224	28178.3
787.557	28065.31
787.891	28063.95
788.224	28058.53
788.557	28114.8
788.89	27938.53
789.223	27898.08
789.556	27728.59
789.888	27686.56
790.221	27451.31
790.554	27221.49
790.887	27414.7
791.219	27157.76
791.552	27047.25
791.884	26960.93
792.217	26810.42
792.549	26765.23
792.882	26495.86
793.214	26473.03
793.546	26558
793.879	26267.39
794.211	26260.16
794.543	26194.4
794.875	26173.83
795.207	26079.6
795.539	26005.25
795.871	26024.46
796.203	25820.17
796.535	25668.53
796.867	25582.89
797.198	25624.02
797.53	25610.46
797.862	25389.22
798.193	25443.68
798.525	25226.74
798.856	25324.36
799.188	25005.05
799.519	24960.08
799.85	24851.83
800.182	24890.7
800.513	24841.66
800.844	24654.1
801.175	24793.3
801.506	24801.21
801.837	24605.74
802.168	24567.09
802.499	24359.42
802.83	24339.98
803.161	24427.66
803.491	24317.16
803.822	24309.02
804.153	24183.83
804.483	24020.67
804.814	23952.65
805.145	23983.83
805.475	23962.82
805.805	23843.5
806.136	23922.37
806.466	23793.56
806.796	23771.18
807.126	23530.51
807.457	23611.64
807.787	23494.58
808.117	23557.18
808.447	23375.49
808.777	23353.34
809.107	23233.8
809.436	23241.71
809.766	23226.34
810.096	23130.3
810.426	22950.19
810.755	22973.69
811.085	22935.72
811.414	22888.72
811.744	22684.66
812.073	22731.89
812.403	22713.81
812.732	22526.47
813.061	22655.51
813.39	22387.26
813.719	22327.83
814.049	22427.49
814.378	22307.27
814.707	22317.44
815.036	22187.5
815.365	22159.02
815.693	21916.99
816.022	21969.42
816.351	21842.87
816.68	21831.8
817.008	21928.07
817.337	21720.16
817.665	21655.98
817.994	21609.43
818.322	21597
818.651	21618.47
818.979	21284.69
819.307	21411.47
819.636	21370.34
819.964	21180.52
820.292	21242.44
820.62	21229.55
820.948	21194.75
821.276	21230.01
821.604	21090.12
821.932	21148.43
822.259	21026.4
822.587	21115.43
822.915	21031.82
823.243	21117.47
823.57	20984.14
823.898	21104.36
824.225	20880.19
824.553	21032.5
824.88	20958.6
825.207	21028.2
825.535	20963.8
825.862	21057.13
826.189	20854.88
826.516	20980.97
826.843	20913.4
827.17	20877.02
827.497	20801.77
827.824	20886.51
828.151	20781.66
828.478	20738.72
828.805	20810.58
829.131	20644.71
829.458	20697.14
829.785	20639.51
830.111	20671.15
830.438	20814.65
830.764	20785.27
831.09	20617.14
831.417	20504.83
831.743	20603.81
832.069	20613.98
832.395	20439.52
832.722	20541.89
833.048	20409.46
833.374	20454.89
833.7	20396.36
834.026	20397.26
834.351	20412.18
834.677	20385.74
835.003	20354.1
835.329	20460.08
835.654	20318.39
835.98	20311.39
836.306	20299.18
836.631	20307.77
836.956	20312.52
837.282	20202.24
837.607	20060.55
837.932	20079.75
838.258	20102.35
838.583	20148.45
838.908	19948.68
839.233	20059.19
839.558	19960.89
839.883	19909.14
840.208	19941.91
840.533	19905.52
840.858	19922.24
841.182	19910.49
841.507	19848.35
841.832	19738.97
842.156	19764.73
842.481	19779.88
842.805	19678.64
843.13	19591.63
843.454	19590.95
843.778	19595.25
844.103	19517.06
844.427	19531.52
844.751	19548.02
845.075	19453.56
845.399	19350.06
845.723	19314.12
846.047	19348.7
846.371	19148.71
846.695	19245.65
847.019	19084.53
847.343	19028.48
847.666	18949.84
847.99	18803.63
848.313	18924.08
848.637	18754.14
848.96	18794.82
849.284	18652
849.607	18505.56
849.931	18465.79
850.254	18375.62
850.577	18364.77
850.9	18190.99
851.223	18145.12
851.546	18071.67
851.869	18002.07
852.192	18082.52
852.515	17904.44
852.838	17759.82
853.161	17845.91
853.483	17685.69
853.806	17623.32
854.129	17643.66
854.451	17590.1
854.774	17546.94
855.096	17418.13
855.419	17306.72
855.741	17403.44
856.063	17254.07
856.385	17239.38
856.708	17127.29
857.03	17043.22
857.352	17132.04
857.674	16953.06
857.996	16944.7
858.318	16901.31
858.64	16829.67
858.961	16774.76
859.283	16762.78
859.605	16692.05
859.926	16671.71
860.248	16654.31
860.57	16495.44
860.891	16579.96
861.212	16454.09
861.534	16414.77
861.855	16392.39
862.176	16335.45
862.498	16302.45
862.819	16270.14
863.14	16210.7
863.461	16066.98
863.782	16166.41
864.103	16073.98
864.424	16079.41
864.745	16145.39
865.065	16024.04
865.386	15936.13
865.707	15897.94
866.027	15863.14
866.348	15745.41
866.668	15798.29
866.989	15802.58
867.309	15617.27
867.63	15701.34
867.95	15662.92
868.27	15546.31
868.59	15591.74
868.91	15555.35
869.23	15481.91
869.55	15495.92
869.87	15416.37
870.19	15418.41
870.51	15289.15
870.83	15358.52
871.15	15304.29
871.469	15245.08
871.789	15308.81
872.109	15267.23
872.428	15126.89
872.748	15131.18
873.067	15055.93
873.386	15109.72
873.706	15094.57
874.025	15053.67
874.344	14993.79
874.663	15093.67
874.982	15047.8
875.301	14971.87
875.62	14839.67
875.939	14750.4
876.258	14836.05
876.577	14745.88
876.896	14755.6
877.214	14667.47
877.533	14696.39
877.852	14694.81
878.17	14758.31
878.489	14685.09
878.807	14637.41
879.125	14573.23
879.444	14524.65
879.762	14584.08
880.08	14606.9
880.398	14466.12
880.716	14444.42
881.034	14383.86
881.352	14495.27
881.67	14371.66
881.988	14336.4
882.306	14256.18
882.624	14250.53
882.941	14255.5
883.259	14198.78
883.577	14181.15
883.894	14099.35
884.212	14130.31
884.529	14165.33
884.846	14112.45
885.164	14077.43
885.481	13980.71
885.798	14061.16
886.115	13892.35
886.432	13980.25
886.75	13948.16
887.067	13964.66
887.383	13864.78
887.7	13874.04
888.017	13853.48
888.334	13872.91
888.651	13819.35
888.967	13782.29
889.284	13754.72
889.6	13604.67
889.917	13622.3
890.233	13625.91
890.55	13472.02
890.866	13598.57
891.182	13510.89
891.498	13536.88
891.815	13412.13
892.131	13397.22
892.447	13423.66
892.763	13335.98
893.079	13316.09
893.395	13274.74
893.71	13214.17
894.026	13142.76
894.342	13139.37
894.657	13073.16
894.973	13080.84
895.289	13189.77
895.604	13140.5
895.92	12949.55
896.235	13001.97
896.55	12928.98
896.865	12869.32
897.181	12865.71
897.496	12856.44
897.811	12781.87
898.126	12733.06
898.441	12783.68
898.756	12720.85
899.071	12637.69
899.386	12664.81
899.7	12552.27
900.015	12503.46
900.33	12371.48
900.644	12303.69
900.959	12444.7
901.273	12352.05
901.588	12223.01
901.902	12301.65
902.216	12256.23
902.531	12267.76
902.845	12077.25
903.159	12139.62
903.473	12020.08
903.787	11946.18
904.101	11933.53
904.415	11954.32
904.729	11930.36
905.042	11761.78
905.356	11832.97
905.67	11796.81
905.984	11820.31
906.297	11629.13
906.611	11668.45
906.924	11587.1
907.237	11544.16
907.551	11378.29
907.864	11469.13
908.177	11428
908.491	11396.59
908.804	11365.86
909.117	11242.7
909.43	11244.51
909.743	11201.34
910.056	11166.77
910.368	11028.02
910.681	11001.35
910.994	10987.34
911.307	10903.5
911.619	10861.69
911.932	11015.36
912.244	10756.61
912.557	10708.7
912.869	10642.26
913.181	10634.35
913.494	10683.17
913.806	10559.33
914.118	10481.59
914.43	10467.13
914.742	10359.56
915.054	10389.84
915.366	10362.5
915.678	10268.04
915.99	10228.49
916.302	10145.1
916.613	10091.09
916.925	10121.82
917.236	10081.15
917.548	9970.64
917.859	10026.91
918.171	9884.32
918.482	9845.67
918.794	9767.48
919.105	9729.97
919.416	9637.54
919.727	9623.53
920.038	9600.48
920.349	9538.11
920.66	9522.74
920.971	9479.58
921.282	9413.59
921.593	9322.75
921.903	9270.32
922.214	9245.24
922.525	9182.41
922.835	9185.35
923.146	9141.96
923.456	9073.04
923.767	9014.51
924.077	8963.21
924.387	8950.1
924.697	8812.03
925.008	8845.7
925.318	8816.32
925.628	8769.54
925.938	8663.56
926.248	8680.73
926.558	8639.6
926.867	8576.33
927.177	8548.08
927.487	8493.84
927.796	8446.61
928.106	8451.59
928.416	8426.73
928.725	8346.05
929.034	8312.38
929.344	8273.51
929.653	8240.74
929.962	8209.78
930.271	8143.57
930.581	8116.45
930.89	8107.64
931.199	7925.72
931.508	7955.55
931.817	7895.89
932.125	7938.38
932.434	7901.32
932.743	7832.62
933.051	7800.98
933.36	7780.42
933.669	7758.95
933.977	7704.94
934.286	7683.24
934.594	7668.1
934.902	7596.47
935.21	7565.28
935.519	7583.81
935.827	7519.41
936.135	7504.04
936.443	7433.53
936.751	7414.55
937.059	7371.39
937.367	7298.4
937.674	7309.69
937.982	7277.15
938.29	7236.93
938.597	7197.83
938.905	7197.61
939.213	7152.41
939.52	7095.01
939.827	7151.05
940.135	7013.43
940.442	7081.45
940.749	7043.26
941.056	7105.41
941.363	7000.1
941.67	6995.58
941.977	6885.75
942.284	6876.49
942.591	6838.52
942.898	6843.04
943.205	6819.09
943.511	6818.86
943.818	6804.17
944.125	6729.37
944.431	6761.91
944.738	6721.91
945.044	6704.96
945.35	6677.17
945.657	6603.27
945.963	6576.15
946.269	6553.78
946.575	6559.43
946.881	6503.61
947.187	6488.02
947.493	6442.6
947.799	6494.12
948.105	6429.72
948.41	6442.15
948.716	6370.06
949.022	6385.65
949.327	6314.69
949.633	6335.94
949.938	6289.16
950.244	6273.11
950.549	6253
950.854	6257.75
951.16	6233.11
951.465	6228.14
951.77	6173.91
952.075	6123.96
952.38	6111.76
952.685	6129.16
952.99	6031.08
953.294	6093.91
953.599	6024.08
953.904	5975.72
954.209	5963.97
954.513	5980.01
954.818	5945.66
955.122	5945.66
955.426	5979.79
955.731	5845.55
956.035	5867.02
956.339	5755.16
956.643	5782.73
956.948	5758.55
957.252	5745.22
957.556	5762.39
957.86	5712.22
958.163	5699.79
958.467	5645.78
958.771	5695.05
959.075	5664.77
959.378	5591.77
959.682	5592.9
959.985	5563.53
960.289	5531.89
960.592	5498.89
960.896	5490.31
961.199	5497.99
961.502	5421.61
961.805	5351.55
962.108	5373.7
962.411	5363.76
962.714	5349.97
963.017	5336.87
963.32	5271.33
963.623	5263.65
963.926	5254.16
964.228	5233.82
964.531	5145.01
964.833	5200.6
965.136	5128.51
965.438	5101.39
965.741	5081.28
966.043	5107.04
966.345	5075.18
966.648	4994.73
966.95	4994.5
967.252	4947.72
967.554	4944.56
967.856	4935.07
968.158	4883.09
968.46	4874.05
968.761	4813.04
969.063	4865.01
969.365	4823.21
969.666	4800.16
969.968	4754.51
970.269	4701.4
970.571	4684.68
970.872	4704.57
971.174	4692.14
971.475	4653.72
971.776	4591.12
972.077	4588.64
972.378	4563.1
972.679	4548.41
972.98	4518.36
973.281	4520.84
973.582	4475.42
973.883	4420.73
974.183	4425.25
974.484	4421.86
974.785	4353.39
975.085	4327.17
975.386	4322.2
975.686	4295.54
975.986	4294.41
976.287	4260.06
976.587	4199.95
976.887	4232.94
977.187	4202.21
977.487	4207.63
977.787	4097.8
978.087	4122.21
978.387	4124.69
978.687	4107.52
978.987	4058.93
979.286	4065.26
979.586	4026.39
979.885	4002.44
980.185	4031.36
980.484	3952.95
980.784	3927.41
981.083	3899.84
981.382	3903.68
981.682	3874.76
981.981	3845.61
982.28	3847.19
982.579	3810.8
982.878	3828.88
983.177	3798.6
983.475	3759.96
983.774	3759.96
984.073	3708.43
984.372	3698.49
984.67	3676.8
984.969	3653.07
985.267	3658.04
985.566	3602.22
985.864	3596.12
986.162	3597.93
986.461	3566.06
986.759	3560.64
987.057	3524.71
987.355	3471.6
987.653	3555.67
987.951	3478.38
988.249	3436.58
988.547	3421.89
988.844	3411.94
989.142	3411.72
989.44	3375.33
989.737	3384.6
990.035	3351.61
990.332	3333.98
990.63	3297.82
990.927	3308.44
991.224	3243.81
991.521	3250.82
991.819	3263.93
992.116	3212.63
992.413	3232.06
992.71	3200.88
993.006	3171.95
993.303	3209.69
993.6	3166.07
993.897	3171.05
994.193	3137.15
994.49	3112.97
994.787	3088.11
995.083	3063.93
995.379	3077.49
995.676	3061.22
995.972	3051.28
996.268	2985.51
996.565	2959.98
996.861	2985.06
997.157	2995.23
997.453	2991.84
997.749	2951.17
998.044	2922.47
998.34	2908.23
998.636	2895.35
998.932	2905.52
999.227	2890.15
999.523	2913.88
999.818	2875.69
1000.114	2858.74
1000.409	2806.76
1000.704	2821.45
1001	2788.01
1001.295	2788.46
1001.59	2763.83
1001.885	2785.75
1002.18	2722.47
1002.475	2711.85
1002.77	2700.32
1003.065	2682.02
1003.359	2698.97
1003.654	2679.08
1003.949	2656.48
1004.243	2686.99
1004.538	2619.65
1004.832	2668.01
1005.127	2631.17
1005.421	2593.21
1005.715	2579.88
1006.009	2586.66
1006.304	2587.56
1006.598	2583.72
1006.892	2545.07
1007.186	2555.47
1007.48	2538.52
1007.773	2510.05
1008.067	2451.74
1008.361	2467.34
1008.655	2444.29
1008.948	2411.29
1009.242	2398.19
1009.535	2416.49
1009.829	2406.09
1010.122	2382.82
1010.415	2360.45
1010.708	2336.94
1011.001	2354.12
1011.295	2320.67
1011.588	2339.2
1011.881	2322.48
1012.173	2303.72
1012.466	2280
1012.759	2255.14
1013.052	2287.23
1013.344	2274.8
1013.637	2240
1013.93	2226.44
1014.222	2185.54
1014.514	2189.6
1014.807	2195.93
1015.099	2172.43
1015.391	2144.86
1015.683	2162.26
1015.976	2150.73
1016.268	2143.95
1016.56	2100.34
1016.851	2127.01
1017.143	2111.64
1017.435	2049.04
1017.727	2045.65
1018.018	2044.3
1018.31	2031.19
1018.602	2042.71
1018.893	1989.61
1019.185	2015.82
1019.476	1993.9
1019.767	1978.08
1020.058	1927.01
1020.35	1944.64
1020.641	1954.58
1020.932	1921.59
1021.223	1906.67
1021.514	1897.41
1021.804	1830.97
1022.095	1887.69
1022.386	1833.68
1022.677	1857.63
1022.967	1798.43
1023.258	1795.94
1023.548	1801.37
1023.839	1760.24
1024.129	1774.47
1024.419	1774.47
1024.709	1765.21
1025	1739.9
1025.29	1728.37
1025.58	1714.36
1025.87	1713.01
1026.16	1691.99
1026.449	1696.51
1026.739	1676.85
1027.029	1647.92
1027.319	1633.91
1027.608	1611.31
1027.898	1613.35
1028.187	1600.24
1028.477	1590.07
1028.766	1575.16
1029.055	1551.2
1029.344	1589.39
1029.634	1555.04
1029.923	1555.95
1030.212	1530.19
1030.501	1513.01
1030.79	1489.96
1031.078	1494.25
1031.367	1479.11
1031.656	1464.88
1031.945	1449.74
1032.233	1442.05
1032.522	1448.38
1032.81	1414.93
1033.099	1418.32
1033.387	1398.66
1033.675	1397.76
1033.963	1424.2
1034.251	1387.82
1034.54	1362.51
1034.828	1331.55
1035.116	1335.84
1035.403	1337.65
1035.691	1345.33
1035.979	1322.73
1036.267	1299.68
1036.554	1333.35
1036.842	1284.54
1037.129	1278.67
1037.417	1233.24
1037.704	1253.36
1037.992	1251.77
1038.279	1261.27
1038.566	1228.05
1038.853	1228.05
1039.14	1228.05
