Data from white_wall_FLMS001491_032.txt Node
Date: Tue Feb 07 11:04:17 GMT 2017
User: dcchb
Spectrometer: FLMS00149
Trigger mode: 0
Integration Time (sec): 2.000000E-2
Scans to average: 10
Electric dark correction enabled: true
Nonlinearity correction enabled: false
Boxcar width: 0
XAxis mode: Wavelengths
Number of Pixels in Spectrum: 2048
>>>>>Begin Spectral Data<<<<<
341.393	-10.61
341.776	-10.61
342.16	-10.61
342.543	-54.9
342.927	-52.64
343.31	-73.43
343.693	-75.46
344.077	-49.25
344.46	-68.01
344.843	-56.48
345.226	-50.38
345.61	-21
345.993	-27.78
346.376	3.4
346.759	0.92
347.142	19.9
347.525	47.92
347.908	50.41
348.291	69.62
348.674	102.38
349.057	127.24
349.44	131.31
349.823	132.21
350.206	165.43
350.588	207.92
350.971	211.53
351.354	230.06
351.737	248.82
352.119	271.87
352.502	282.27
352.884	278.42
353.267	301.93
353.65	308.48
354.032	325.88
354.414	331.53
354.797	332.21
355.179	333.34
355.562	341.02
355.944	354.13
356.326	340.12
356.709	379.21
357.091	344.64
357.473	353.45
357.855	333.79
358.238	357.52
358.62	373.11
359.002	357.74
359.384	371.76
359.766	361.13
360.148	353.23
360.53	343.73
360.912	355.49
361.294	360
361.676	357.74
362.057	338.54
362.439	334.92
362.821	319.78
363.203	343.73
363.584	342.83
363.966	346.22
364.348	329.72
364.729	318.2
365.111	337.41
365.493	333.56
365.874	342.83
366.256	335.6
366.637	337.86
367.019	334.24
367.4	338.99
367.781	337.41
368.163	338.76
368.544	335.82
368.925	320.46
369.306	330.63
369.688	333.56
370.069	357.07
370.45	328.37
370.831	339.67
371.212	327.69
371.593	351.87
371.974	344.19
372.355	343.28
372.736	349.38
373.117	340.12
373.498	310.29
373.879	333.79
374.26	341.02
374.641	359.78
375.021	344.64
375.402	365.2
375.783	341.02
376.163	341.7
376.544	343.51
376.925	344.86
377.305	354.13
377.686	333.11
378.066	360.23
378.447	371.53
378.827	362.49
379.208	353.68
379.588	368.37
379.968	343.51
380.349	367.91
380.729	360.46
381.109	375.37
381.489	376.5
381.87	385.99
382.25	374.47
382.63	377.41
383.01	383.05
383.39	381.02
383.77	422.38
384.15	391.19
384.53	383.96
384.91	395.48
385.29	402.49
385.67	374.47
386.049	405.88
386.429	394.58
386.809	405.65
387.189	395.48
387.568	421.47
387.948	407.24
388.328	447.46
388.707	408.36
389.087	425.09
389.466	445.43
389.846	415.37
390.225	431.87
390.605	427.57
390.984	445.2
391.363	452.21
391.743	470.28
392.122	459.44
392.501	468.7
392.881	453.56
393.26	471.19
393.639	457.86
394.018	479.1
394.397	474.58
394.776	509.61
395.155	523.84
395.534	508.02
395.913	514.58
396.292	518.64
396.671	515.71
397.05	524.29
397.429	560.68
397.808	544.86
398.186	553.9
398.565	556.84
398.944	591.86
399.323	591.19
399.701	598.42
400.08	592.77
400.458	618.53
400.837	598.64
401.215	604.74
401.594	644.97
401.972	659.43
402.351	665.53
402.729	685.87
403.107	665.53
403.486	668.92
403.864	699.66
404.242	712.31
404.62	709.83
404.999	717.74
405.377	763.61
405.755	759.32
406.133	773.1
406.511	790.28
406.889	791.18
407.267	787.34
407.645	811.97
408.023	832.99
408.401	847.45
408.779	834.57
409.156	879.77
409.534	882.48
409.912	921.35
410.29	939.88
410.667	934
411.045	945.75
411.422	955.24
411.8	988.24
412.178	985.07
412.555	1006.32
412.933	1023.94
413.31	1018.29
413.687	1064.62
414.065	1053.32
414.442	1078.63
414.819	1117.27
415.197	1117.95
415.574	1144.16
415.951	1147.55
416.328	1135.13
416.705	1158.4
417.082	1166.54
417.46	1175.8
417.837	1215.58
418.214	1210.83
418.591	1218.06
418.967	1235.69
419.344	1259.64
419.721	1283.6
420.098	1248.79
420.475	1311.62
420.852	1306.65
421.228	1336.93
421.605	1342.13
421.982	1348.68
422.358	1364.95
422.735	1364.72
423.111	1387.77
423.488	1397.49
423.864	1392.52
424.241	1442.24
424.617	1441.78
424.994	1482.69
425.37	1484.72
425.746	1507.32
426.123	1503.03
426.499	1505.06
426.875	1531.05
427.251	1555.91
427.627	1627.99
428.003	1599.97
428.379	1631.16
428.756	1659.63
429.132	1678.16
429.507	1673.19
429.883	1708.22
430.259	1732.85
430.635	1762.68
431.011	1759.52
431.387	1820.31
431.763	1826.86
432.138	1836.12
432.514	1846.07
432.89	1900.53
433.265	1934.2
433.641	1954.31
434.016	1963.35
434.392	2035.21
434.767	2037.47
435.143	2023.24
435.518	2061.88
435.894	2119.73
436.269	2102.33
436.644	2138.04
437.02	2175.32
437.395	2152.27
437.77	2200.18
438.145	2237.02
438.52	2275.21
438.895	2299.16
439.271	2291.71
439.646	2370.8
440.021	2349.78
440.395	2378.03
440.77	2371.03
441.145	2390.46
441.52	2426.17
441.895	2444.47
442.27	2488.08
442.645	2460.29
443.019	2518.82
443.394	2527.63
443.769	2541.87
444.143	2554.52
444.518	2605.6
444.892	2604.01
445.267	2606.95
445.641	2646.95
446.016	2652.83
446.39	2690.34
446.764	2688.31
447.139	2682.43
447.513	2757
447.887	2723.78
448.262	2724.46
448.636	2778.7
449.01	2842.2
449.384	2896.66
449.758	2832.26
450.132	2894.63
450.506	2922.88
450.88	2924.91
451.254	2972.82
451.628	3012.59
452.002	3019.82
452.376	3073.38
452.75	3098.92
453.123	3118.8
453.497	3175.98
453.871	3236.31
454.244	3244.67
454.618	3298.23
454.992	3342.07
455.365	3384.56
455.739	3405.8
456.112	3433.37
456.486	3480.6
456.859	3483.76
457.232	3613.03
457.606	3608.05
457.979	3664.32
458.352	3728.28
458.725	3771.67
459.099	3786.13
459.472	3851.21
459.845	3881.27
460.218	3943.87
460.591	4006.01
460.964	4019.8
461.337	4083.97
461.71	4156.29
462.083	4252.56
462.456	4234.71
462.829	4240.13
463.201	4293.23
463.574	4312.44
463.947	4407.58
464.32	4517.86
464.692	4551.98
465.065	4563.28
465.438	4674.47
465.81	4713.56
466.183	4793.79
466.555	4883.5
466.928	4906.1
467.3	4950.62
467.672	5005.98
468.045	5111.07
468.417	5148.35
468.789	5188.8
469.161	5233.1
469.534	5295.24
469.906	5456.82
470.278	5476.93
470.65	5570.72
471.022	5663.82
471.394	5803.25
471.766	5874.21
472.138	5899.29
472.51	6022.45
472.882	6125.95
473.253	6185.84
473.625	6256.35
473.997	6429.45
474.369	6496.11
474.74	6554.19
475.112	6652.49
475.484	6758.25
475.855	6868.08
476.227	7001.64
476.598	7145.36
476.97	7227.62
477.341	7384.23
477.713	7488.18
478.084	7507.16
478.455	7790.32
478.827	7863.54
479.198	8105.11
479.569	8068.95
479.94	8364.77
480.311	8412.45
480.682	8629.84
481.053	8807.92
481.424	8914.58
481.795	9073.9
482.166	9180.56
482.537	9350.95
482.908	9560.89
483.279	9605.86
483.65	9814.9
484.021	9952.52
484.391	10122.01
484.762	10176.7
485.133	10358.84
485.503	10477.25
485.874	10691.94
486.244	10840.63
486.615	11028.2
486.985	11167.86
487.356	11393.16
487.726	11494.18
488.097	11675.19
488.467	11741.63
488.837	11975.29
489.207	12151.33
489.578	12369.86
489.948	12489.4
490.318	12659.34
490.688	12676.97
491.058	12972.1
491.428	13064.98
491.798	13260.91
492.168	13487.34
492.538	13547.23
492.908	13630.62
493.278	13837.84
493.648	13856.37
494.017	14112.19
494.387	14279.41
494.757	14376.59
495.126	14517.15
495.496	14554.89
495.866	14669.46
496.235	14900.64
496.605	14982.22
496.974	15096.79
497.344	15328.2
497.713	15445.48
498.082	15546.95
498.452	15661.07
498.821	15798.69
499.19	15855.42
499.559	16029.65
499.928	16225.12
500.298	16213.37
500.667	16514.38
501.036	16385.57
501.405	16650.65
501.774	16688.39
502.143	16923.18
502.512	16912.11
502.88	17184.65
503.249	17180.13
503.618	17293.8
503.987	17410.18
504.356	17630.96
504.724	17720.9
505.093	17849.71
505.462	17896.04
505.83	18038.41
506.199	18194.79
506.567	18409.25
506.936	18428.68
507.304	18692.18
507.672	18778.5
508.041	18863.47
508.409	19055.78
508.777	19281.09
509.145	19353.18
509.514	19414.42
509.882	19557.01
510.25	19679.72
510.618	19838.36
510.986	19920.85
511.354	20087.85
511.722	20178.69
512.09	20365.13
512.458	20529.42
512.826	20674.72
513.193	20806.47
513.561	20872.91
513.929	21056.41
514.297	21315.84
514.664	21440.13
515.032	21596.51
515.4	21752.89
515.767	21868.37
516.135	22137.29
516.502	21980.68
516.869	22296.83
517.237	22429.03
517.604	22455.24
517.972	22691.17
518.339	22927.55
518.706	22948.56
519.073	23119.86
519.44	23333.19
519.808	23554.2
520.175	23511.26
520.542	23885.04
520.909	24024.02
521.276	24011.81
521.643	24365.93
522.009	24355.76
522.376	24665.58
522.743	24868.51
523.11	25136.98
523.477	25314.6
523.843	25453.58
524.21	25689.06
524.577	25985.32
524.943	25966.34
525.31	26223.73
525.676	26425.99
526.043	26466.89
526.409	26768.58
526.776	26987.55
527.142	27048.57
527.508	27130.83
527.874	27400.88
528.241	27630.47
528.607	27666.63
528.973	27939.39
529.339	27983.23
529.705	28262.77
530.071	28570.56
530.437	28630
530.803	28753.61
531.169	28928.75
531.535	28980.95
531.901	29112.24
532.267	29246.93
532.632	29444.66
532.998	29499.13
533.364	29707.26
533.73	29827.03
534.095	30105.21
534.461	30183.4
534.826	30276.96
535.192	30471.98
535.557	30688.25
535.923	30742.48
536.288	30907
536.653	31036.71
537.019	30930.5
537.384	31264.5
537.749	31415.23
538.114	31448.9
538.479	31510.15
538.845	31705.85
539.21	31580.88
539.575	31732.74
539.94	31862
540.305	32125.72
540.67	32082.79
541.034	32311.93
541.399	32483
541.764	32680.28
542.129	32712.37
542.494	32869.43
542.858	32867.17
543.223	33008.64
543.587	33125.02
543.952	33330.21
544.316	33532.47
544.681	33391.68
545.045	33651.56
545.41	33851.33
545.774	33882.74
546.138	33908.28
546.503	33989.85
546.867	34201.6
547.231	34488.15
547.595	34644.75
547.959	34751.42
548.324	34789.38
548.688	34873.45
549.052	35073.67
549.416	35194.34
549.779	35152.08
550.143	35356.37
550.507	35623.48
550.871	35828
551.235	35680.21
551.599	36221.66
551.962	36010.14
552.326	36273.86
552.689	36582.1
553.053	36476.8
553.417	36503.24
553.78	37129.21
554.143	36846.05
554.507	37204.69
554.87	37466.37
555.234	37787.95
555.597	37510.89
555.96	37706.82
556.323	37892.58
556.686	38011.22
557.05	38213.25
557.413	38441.94
557.776	38563.29
558.139	38762.16
558.502	38939.33
558.865	38935.26
559.228	39396.27
559.59	39458.19
559.953	39514
560.316	40015.46
560.679	40008.23
561.041	40285.28
561.404	40423.13
561.767	40612.51
562.129	40590.59
562.492	40953.06
562.854	41042.1
563.217	40926.85
563.579	41243.45
563.941	41485.48
564.304	41659.71
564.666	42021.96
565.028	41964.33
565.39	42093.6
565.753	42379.69
566.115	42363.42
566.477	42620.14
566.839	42625.33
567.201	42968.38
567.563	43007.24
567.925	43341.47
568.287	43280.68
568.648	43397.74
569.01	43698.98
569.372	43999.31
569.734	43785.08
570.095	44195.69
570.457	44366.98
570.819	44325.85
571.18	44523.59
571.542	44706.86
571.903	44758.61
572.265	44850.13
572.626	44900.75
572.987	45098.26
573.349	45183.01
573.71	45356.34
574.071	45394.07
574.432	45510.68
574.794	45726.04
575.155	45704.8
575.516	45698.47
575.877	45863.89
576.238	46143.43
576.599	46099.59
576.96	46025.02
577.32	46275.41
577.681	46278.57
578.042	46533.48
578.403	46455.97
578.763	46510.2
579.124	46546.36
579.485	46627.04
579.845	46854.6
580.206	46855.96
580.566	46780.25
580.927	46883.98
581.287	46986.12
581.648	46876.97
582.008	47070.19
582.368	46917.2
582.728	47065.44
583.089	46981.15
583.449	46951.32
583.809	47048.27
584.169	47156.97
584.529	47088.72
584.889	47425.89
585.249	47059.12
585.609	47098.44
585.969	47354.7
586.329	47151.09
586.688	47269.51
587.048	47112.22
587.408	47161.49
587.768	47099.79
588.127	47380.01
588.487	47135.5
588.846	47505.21
589.206	47050.98
589.565	47296.85
589.925	47420.24
590.284	47181.37
590.643	47358.77
591.003	47360.58
591.362	47365.32
591.721	47271.54
592.08	47329.39
592.44	47509.27
592.799	47436.73
593.158	47264.99
593.517	47342.27
593.876	47461.14
594.235	47497.3
594.593	47272.22
594.952	47481.48
595.311	47314.48
595.67	47458.43
596.029	47677.18
596.387	47620.23
596.746	47674.24
597.104	47608.71
597.463	47503.85
597.822	47737.06
598.18	47604.86
598.538	47640.8
598.897	47904.74
599.255	47493.45
599.613	48084.17
599.972	47798.08
600.33	47985.87
600.688	47762.15
601.046	47848.47
601.404	47978.64
601.762	47918.3
602.12	48156.49
602.478	48055.7
602.836	47990.16
603.194	47907.68
603.552	48056.15
603.91	47912.43
604.268	48100.67
604.625	48080.78
604.983	48329.82
605.341	48109.26
605.698	48167.79
606.056	48331.17
606.413	48202.59
606.771	48463.37
607.128	48419.31
607.485	48312.42
607.843	48274.9
608.2	48679.64
608.557	48724.38
608.914	48585.18
609.272	48666.31
609.629	48803.93
609.986	48846.87
610.343	48711.73
610.7	49067.65
611.057	48963.02
611.414	48895.9
611.771	48997.6
612.127	49030.14
612.484	49055.67
612.841	49122.11
613.198	49010.25
613.554	49066.52
613.911	49399.39
614.267	49284.37
614.624	49220.41
614.98	49335.21
615.337	49521.42
615.693	49374.99
616.05	49286.4
616.406	49582.21
616.762	49384.25
617.118	49321.43
617.475	49458.6
617.831	49613.62
618.187	49511.25
618.543	49692.04
618.899	49709.44
619.255	49745.37
619.611	49724.36
619.967	49829.89
620.323	49948.31
620.678	49706.05
621.034	49607.3
621.39	49600.52
621.746	49595.32
622.101	50015.2
622.457	49779.27
622.812	49924.58
623.168	49866.5
623.523	49896.56
623.879	49980.62
624.234	49743.56
624.589	49916.22
624.945	49940.17
625.3	49904.01
625.655	49926.61
626.01	49882.09
626.365	49949.21
626.72	49858.14
627.075	49829.66
627.43	49791.47
627.785	49665.37
628.14	49720.74
628.495	49836.67
628.85	49919.83
629.205	49839.38
629.559	49906.05
629.914	49753.06
630.269	49811.81
630.623	49736.79
630.978	49684.58
631.332	49768.42
631.687	49875.31
632.041	49696.79
632.396	49834.41
632.75	49655.88
633.104	49615.43
633.459	49444.14
633.813	49537.47
634.167	49397.59
634.521	49484.59
634.875	49514.19
635.229	49346.06
635.583	49304.71
635.937	49245.27
636.291	49250.24
636.645	49196.91
636.999	49180.87
637.352	49221.09
637.706	48967.77
638.06	49212.73
638.413	49104.03
638.767	49081.44
639.121	49030.59
639.474	48835.11
639.828	48807.32
640.181	48926.19
640.534	48893.42
640.888	48748.56
641.241	48586.99
641.594	48634.67
641.947	48800.09
642.301	48636.7
642.654	48723.93
643.007	48607.1
643.36	48547.44
643.713	48432.64
644.066	48513.99
644.419	48291.4
644.771	48078.07
645.124	47667.69
645.477	47667.91
645.83	47399.67
646.182	47219.56
646.535	47213.46
646.888	47249.39
647.24	47128.27
647.593	47218.43
647.945	47265.66
648.298	47015.28
648.65	46990.87
649.002	46764.66
649.355	46864.09
649.707	46825
650.059	46915.39
650.411	47452.55
650.763	47487.13
651.115	47846.21
651.467	47519.89
651.819	47658.87
652.171	47674.47
652.523	47552.44
652.875	47551.98
653.227	47330.97
653.578	47626.78
653.93	47401.93
654.282	47274.48
654.633	47121.26
654.985	47332.1
655.337	47270.64
655.688	47229.96
656.039	47333.91
656.391	47020.92
656.742	47074.71
657.094	47073.35
657.445	47134.59
657.796	47158.77
658.147	47038.33
658.498	46875.62
658.849	47044.43
659.2	46921.72
659.551	46832.23
659.902	46936.63
660.253	46736.41
660.604	46816.64
660.955	46617.09
661.306	46847.37
661.656	46678.56
662.007	46704.32
662.358	46708.62
662.708	46712.23
663.059	46644.89
663.409	46552.24
663.76	46737.77
664.11	46666.13
664.461	46734.83
664.811	46715.85
665.161	46628.17
665.511	46486.93
665.862	46519.69
666.212	46701.61
666.562	46594.5
666.912	46377.1
667.262	46388.4
667.612	46352.47
667.962	46574.16
668.312	46328.97
668.662	46519.92
669.011	46440.6
669.361	46246.26
669.711	46385.69
670.06	46287.61
670.41	46173.04
670.76	46221.85
671.109	46373.03
671.459	46247.16
671.808	46092.81
672.157	46261.85
672.507	46042.87
672.856	46064.34
673.205	46079.48
673.554	46163.77
673.904	45936.21
674.253	46213.04
674.602	45872.93
674.951	45528.76
675.3	45156.11
675.649	45944.12
675.998	45787.96
676.346	45907.73
676.695	45891.46
677.044	45592.94
677.393	45755.2
677.741	45627.97
678.09	45547.74
678.438	45483.34
678.787	45469.1
679.135	45639.94
679.484	45293.06
679.832	45415.32
680.181	45290.57
680.529	45378.26
680.877	45174.19
681.225	45215.77
681.573	45225.72
681.922	44895.78
682.27	44934.65
682.618	44995.67
682.966	44851.94
683.314	44901.21
683.661	44743.92
684.009	44566.98
684.357	44491.27
684.705	44424.38
685.053	44298.74
685.4	44203.15
685.748	44019.65
686.095	44010.38
686.443	43956.6
686.79	43776.04
687.138	43992.08
687.485	43932.42
687.832	43839.77
688.18	43716.6
688.527	43502.83
688.874	43432.32
689.221	43386.67
689.568	43282.94
689.915	43201.59
690.262	43068.26
690.609	43020.8
690.956	42849.06
691.303	42919.56
691.65	42572.68
691.997	42754.14
692.344	42465.34
692.69	42433.47
693.037	42503.98
693.383	42043.43
693.73	42163.43
694.077	41853.15
694.423	42081.62
694.769	41727.05
695.116	41764.11
695.462	41537
695.808	41456.78
696.155	41634.4
696.501	41400.73
696.847	41447.51
697.193	40975.89
697.539	41164.36
697.885	40793.74
698.231	40809.34
698.577	40679.62
698.923	40622.22
699.269	40552.85
699.614	40348.78
699.96	40229.46
700.306	40137.26
700.651	40104.04
700.997	39984.27
701.342	39936.82
701.688	39796.48
702.033	39610.05
702.379	39544.06
702.724	39553.32
703.069	39522.59
703.415	39200.34
703.76	39184.97
704.105	39276.5
704.45	39054.58
704.795	38853.23
705.14	38707.24
705.485	38702.95
705.83	38622.5
706.175	38605.78
706.52	38434.94
706.865	38437.2
707.209	38234.04
707.554	38305.9
707.899	38269.97
708.243	38003.31
708.588	38035.4
708.932	37830.66
709.277	38029.52
709.621	37853.48
709.966	37652.36
710.31	37560.61
710.654	37275.19
710.998	37506.15
711.342	37460.27
711.687	37267.06
712.031	37119.26
712.375	37061.19
712.719	37071.36
713.063	36981.19
713.407	37296.89
713.75	36942.09
714.094	36813.51
714.438	36684.7
714.782	36713.85
715.125	36564.7
715.469	36657.58
715.812	36368.55
716.156	36195.45
716.499	36381.88
716.843	36380.07
717.186	36152.51
717.53	36249.23
717.873	36180.53
718.216	36142.57
718.559	35983.47
718.902	35717.04
719.246	35864.38
719.589	35707.1
719.932	35616.25
720.275	35590.04
720.617	35554.56
720.96	35527.89
721.303	35344.17
721.646	35420.55
721.989	35172.65
722.331	35352.76
722.674	35100.33
723.016	35087.45
723.359	35115.93
723.701	35038.64
724.044	34893.56
724.386	34716.62
724.729	34802.71
725.071	34730.17
725.413	34703.51
725.755	34674.81
726.097	34566.34
726.439	34470.29
726.782	34565.21
727.124	34629.84
727.465	34455.61
727.807	34244.99
728.149	34282.28
728.491	34238.44
728.833	34123.86
729.175	33980.36
729.516	33901.5
729.858	33969.74
730.199	33932.46
730.541	33900.82
730.882	33858.11
731.224	33888.16
731.565	33551.22
731.906	33640.49
732.248	33670.99
732.589	33510.32
732.93	33441.39
733.271	33471.22
733.612	33382.41
733.953	33434.16
734.294	33288.86
734.635	33233.72
734.976	33175.41
735.317	32983.78
735.658	33074.85
735.999	33034.85
736.339	32904.46
736.68	33126.37
737.021	32898.36
737.361	32832.15
737.702	32981.29
738.042	32764.12
738.383	32672.15
738.723	32774.75
739.063	32590.12
739.404	32588.31
739.744	32464.92
740.084	32435.09
740.424	32549.44
740.764	32260.41
741.104	32442.1
741.444	32178.6
741.784	32184.25
742.124	32254.53
742.464	32176.57
742.804	32018.16
743.143	32042.34
743.483	31961.21
743.823	31893.64
744.162	31982.9
744.502	31869.91
744.841	31815.22
745.181	31826.52
745.52	31690.93
745.86	31775.45
746.199	31637.6
746.538	31507.89
746.877	31727.32
747.216	31612.06
747.556	31542.69
747.895	31510.6
748.234	31355.35
748.573	31223.83
748.911	31223.83
749.25	31260.44
749.589	31111.51
749.928	31097.28
750.267	31070.16
750.605	30987.9
750.944	30912.42
751.283	30835.14
751.621	30819.32
751.96	30550.62
752.298	30695.93
752.636	30723.27
752.975	30362.15
753.313	30370.74
753.651	30469.72
753.989	30300.69
754.327	30209.62
754.666	30101.6
755.004	30183.18
755.342	30151.31
755.679	29912
756.017	29749.97
756.355	29889.62
756.693	29808.95
757.031	29795.16
757.368	29663.41
757.706	29614.6
758.044	29545.68
758.381	29545.9
758.719	29380.03
759.056	29614.15
759.394	29280.83
759.731	29123.77
760.068	29007.39
760.405	28979.14
760.743	28923.77
761.08	28962.42
761.417	28725.13
761.754	28644.01
762.091	28660.28
762.428	28458.93
762.765	28289.89
763.102	28492.6
763.438	28383.22
763.775	28124.02
764.112	28154.75
764.449	28229.78
764.785	27978.26
765.122	27833.41
765.458	27794.54
765.795	27579.4
766.131	27591.15
766.467	27543.02
766.804	27448.11
767.14	27243.59
767.476	27344.61
767.812	27092.86
768.148	27124.5
768.485	26937.38
768.821	26918.63
769.157	26870.72
769.492	26795.02
769.828	26820.55
770.164	26498.98
770.5	26359.55
770.836	26409.49
771.171	26169.27
771.507	26133.79
771.842	25985.55
772.178	25924.53
772.513	25921.14
772.849	25847.92
773.184	25721.6
773.519	25713.24
773.855	25524.09
774.19	25446.8
774.525	25241.38
774.86	25259.01
775.195	25272.57
775.53	25030.54
775.865	24907.38
776.2	24871.9
776.535	24719.59
776.87	24642.53
777.205	24589.2
777.539	24515.3
777.874	24582.19
778.209	24305.59
778.543	24285.7
778.878	24193.05
779.212	24196.89
779.547	23979.27
779.881	24047.07
780.215	23868.54
780.55	23867.41
780.884	23725.94
781.218	23767.3
781.552	23565.5
781.886	23560.98
782.22	23470.81
782.554	23219.97
782.888	23143.59
783.222	22963.93
783.556	22945.17
783.889	22952.18
784.223	22769.13
784.557	22735.91
784.89	22783.14
785.224	22555.13
785.557	22442.14
785.891	22428.35
786.224	22446.88
786.558	22322.82
786.891	22194.23
787.224	22063.16
787.557	21951.3
787.891	21920.12
788.224	21954.92
788.557	21864.3
788.89	21835.82
789.223	21733.68
789.556	21620.69
789.888	21573.91
790.221	21397.19
790.554	21218.21
790.887	21316.97
791.219	21278.32
791.552	21099.12
791.884	21024.55
792.217	20980.71
792.549	20838.56
792.882	20819.81
793.214	20743.42
793.546	20757.66
793.879	20699.13
794.211	20486.71
794.543	20533.26
794.875	20420.27
795.207	20411.91
795.539	20322.87
795.871	20291.23
796.203	20194.96
796.535	19976.66
796.867	19999.49
797.198	19970.34
797.53	19931.47
797.862	19874.97
798.193	19899.38
798.525	19772.6
798.856	19796.78
799.188	19494.19
799.519	19564.92
799.85	19395.44
800.182	19341.88
800.513	19366.74
800.844	19207.19
801.175	19358.6
801.506	19277.25
801.837	19115.22
802.168	19069.8
802.499	19029.8
802.83	18851.27
803.161	18847.65
803.491	18836.13
803.822	18854.66
804.153	18625.74
804.483	18514.78
804.814	18553.65
805.145	18520.43
805.475	18526.53
805.805	18491.05
806.136	18408.57
806.466	18431.85
806.796	18311.62
807.126	18101.23
807.457	18051.06
807.787	18230.72
808.117	18105.53
808.447	17930.39
808.777	18047.9
809.107	18001.12
809.436	17793.9
809.766	17897.62
810.096	17820.56
810.426	17720.45
810.755	17726.78
811.085	17721.36
811.414	17680.45
811.744	17568.82
812.073	17479.33
812.403	17535.37
812.732	17428.71
813.061	17394.13
813.39	17217.41
813.719	17233.23
814.049	17290.41
814.378	17203.18
814.707	17141.48
815.036	17096.51
815.365	17003.18
815.693	16916.63
816.022	16921.83
816.351	16839.8
816.68	16796.86
817.008	16785.34
817.337	16732.46
817.665	16632.12
817.994	16622.85
818.322	16715.73
818.651	16451.78
818.979	16508.73
819.307	16569.75
819.636	16488.17
819.964	16370.66
820.292	16416.98
820.62	16408.85
820.948	16325.69
821.276	16456.3
821.604	16271
821.932	16376.08
822.259	16332.69
822.587	16366.82
822.915	16311.68
823.243	16324.78
823.57	16253.82
823.898	16324.56
824.225	16222.86
824.553	16256.99
824.88	16252.92
825.207	16339.7
825.535	16217.44
825.862	16337.21
826.189	16215.86
826.516	16278.46
826.843	16297.66
827.17	16301.28
827.497	16287.95
827.824	16251.11
828.151	16344.67
828.478	16207.05
828.805	16337.66
829.131	16162.08
829.458	16207.27
829.785	16151.45
830.111	16204.56
830.438	16174.73
830.764	16135.64
831.09	16247.04
831.417	16055.86
831.743	16188.06
832.069	16144.9
832.395	16030.55
832.722	16138.57
833.048	16094.28
833.374	16058.35
833.7	15971.12
834.026	16059.48
834.351	16047.95
834.677	16026.26
835.003	16009.08
835.329	16030.78
835.654	15978.35
835.98	15826.72
836.306	15884.34
836.631	15889.54
836.956	15857.22
837.282	15838.24
837.607	15796.66
837.932	15649.77
838.258	15728.87
838.583	15693.16
838.908	15574.75
839.233	15672.37
839.558	15620.39
839.883	15478.7
840.208	15506.05
840.533	15635.54
840.858	15519.38
841.182	15521.41
841.507	15507.4
841.832	15339.72
842.156	15434.86
842.481	15395.32
842.805	15371.81
843.13	15299.27
843.454	15337.92
843.778	15196.68
844.103	15143.34
844.427	15148.99
844.751	15159.62
845.075	15050.01
845.399	15021.54
845.723	15012.05
846.047	14946.97
846.371	14864.71
846.695	14876.91
847.019	14743.81
847.343	14660.87
847.666	14572.06
847.99	14535.68
848.313	14544.72
848.637	14420.2
848.96	14435.57
849.284	14345.17
849.607	14214.78
849.931	14240.54
850.254	14135.69
850.577	14101.79
850.9	14026.54
851.223	13959.87
851.546	13919.2
851.869	13725.3
852.192	13939.31
852.515	13680.56
852.838	13589.49
853.161	13598.3
853.483	13592.43
853.806	13555.36
854.129	13495.48
854.451	13392.66
854.774	13430.4
855.096	13298.42
855.419	13349.27
855.741	13279.66
856.063	13205.32
856.385	13187.69
856.708	13090.97
857.03	13094.13
857.352	13089.61
857.674	13131.42
857.996	12978.43
858.318	12901.37
858.64	12966.9
858.961	12866.34
859.283	12846.91
859.605	12759.9
859.926	12827.47
860.248	12768.27
860.57	12729.62
860.891	12683.75
861.212	12669.29
861.534	12607.14
861.855	12559.01
862.176	12595.39
862.498	12506.35
862.819	12616.86
863.14	12492.79
863.461	12497.09
863.782	12408.5
864.103	12468.39
864.424	12389.29
864.745	12399.91
865.065	12249.64
865.386	12339.35
865.707	12251.44
866.027	12266.81
866.348	12219.13
866.668	12263.19
866.989	12158.79
867.309	12130.77
867.63	12168.73
867.95	12172.8
868.27	12089.64
868.59	12116.76
868.91	12094.61
869.23	11968.74
869.55	11897.1
869.87	12053.03
870.19	12004.22
870.51	11961.06
870.83	11951.79
871.15	11889.42
871.469	11898.68
871.789	12016.87
872.109	11886.26
872.428	11772.13
872.748	11804.22
873.067	11733.04
873.386	11832.47
873.706	11714.51
874.025	11789.99
874.344	11749.54
874.663	11760.61
874.982	11693.27
875.301	11658.46
875.62	11604.23
875.939	11589.77
876.258	11581.4
876.577	11562.65
876.896	11455.98
877.214	11506.83
877.533	11528.07
877.852	11474.06
878.17	11539.6
878.489	11482.65
878.807	11483.1
879.125	11528.75
879.444	11422.09
879.762	11373.95
880.08	11416.66
880.398	11368.08
880.716	11370.34
881.034	11310
881.352	11318.36
881.67	11220.06
881.988	11268.87
882.306	11258.25
882.624	11194.3
882.941	11182.09
883.259	11122.66
883.577	11074.07
883.894	11162.66
884.212	11137.8
884.529	11064.36
884.846	11039.27
885.164	11011.48
885.481	10955.88
885.798	11016.67
886.115	10842.21
886.432	10946.62
886.75	10833.4
887.067	10913.63
887.383	10744.36
887.7	10787.08
888.017	10713.86
888.334	10764.48
888.651	10715.89
888.967	10625.72
889.284	10620.75
889.6	10571.94
889.917	10529.45
890.233	10560.64
890.55	10521.77
890.866	10523.13
891.182	10460.53
891.498	10400.42
891.815	10425.5
892.131	10418.05
892.447	10279.97
892.763	10337.82
893.079	10319.52
893.395	10251.72
893.71	10213.76
894.026	10170.14
894.342	10158.17
894.657	10054.21
894.973	10057.15
895.289	10074.55
895.604	10018.96
895.92	9968.57
896.235	9923.82
896.55	9962.46
896.865	9899.87
897.181	9936.93
897.496	9868.68
897.811	9752.98
898.126	9803.37
898.441	9763.15
898.756	9704.62
899.071	9681.57
899.386	9647.44
899.7	9592.53
900.015	9612.42
900.33	9507.33
900.644	9485.19
900.959	9447.22
901.273	9412.65
901.588	9326.77
901.902	9329.49
902.216	9288.36
902.531	9286.55
902.845	9265.31
903.159	9207.23
903.473	9145.08
903.787	9126.55
904.101	9125.2
904.415	9194.12
904.729	9070.06
905.042	9052.21
905.356	9016.5
905.67	8974.24
905.984	8988.48
906.297	8921.81
906.611	8811.08
906.924	8845.43
907.237	8815.15
907.551	8765.66
907.864	8650.86
908.177	8726.34
908.491	8723.17
908.804	8636.85
909.117	8508.26
909.43	8509.62
909.743	8503.29
910.056	8471.88
910.368	8423.3
910.681	8415.16
910.994	8356.18
911.307	8426.69
911.619	8257.88
911.932	8311.43
912.244	8255.16
912.557	8225.79
912.869	8230.76
913.181	8196.18
913.494	8108.73
913.806	8047.94
914.118	8050.88
914.43	7953.93
914.742	8046.58
915.054	7889.3
915.366	7927.49
915.678	7843.88
915.99	7835.06
916.302	7839.58
916.613	7784.44
916.925	7698.57
917.236	7746.7
917.548	7651.79
917.859	7687.04
918.171	7609.98
918.482	7631.45
918.794	7595.29
919.105	7568.4
919.416	7431.23
919.727	7450.89
920.038	7441.4
920.349	7375.19
920.66	7335.64
920.971	7308.52
921.282	7338.35
921.593	7259.48
921.903	7197.34
922.214	7192.82
922.525	7192.82
922.835	7209.32
923.146	7120.05
923.456	7067.17
923.767	7035.31
924.077	7010.68
924.387	6959.61
924.697	6975.42
925.008	6972.26
925.318	6930.45
925.628	6890.23
925.938	6845.94
926.248	6775.43
926.558	6786.95
926.867	6768.65
927.177	6692.27
927.487	6723.91
927.796	6610.46
928.106	6647.75
928.416	6587.64
928.725	6560.29
929.034	6519.62
929.344	6518.94
929.653	6506.74
929.962	6456.79
930.271	6397.13
930.581	6417.47
930.89	6454.08
931.199	6339.73
931.508	6304.26
931.817	6315.33
932.125	6273.97
932.434	6264.93
932.743	6210.7
933.051	6175.67
933.36	6214.31
933.669	6128.67
933.977	6098.38
934.286	6123.02
934.594	6097.03
934.902	5996.92
935.21	6059.29
935.519	6010.25
935.827	5902.46
936.135	5926.64
936.443	5887.99
936.751	5849.8
937.059	5850.03
937.367	5845.96
937.674	5831.27
937.982	5799.18
938.29	5728
938.597	5791.95
938.905	5644.39
939.213	5671.28
939.52	5663.82
939.827	5619.08
940.135	5567.78
940.442	5549.02
940.749	5543.37
941.056	5555.12
941.363	5520.77
941.67	5446.42
941.977	5424.05
942.284	5449.81
942.591	5398.29
942.898	5399.87
943.205	5403.94
943.511	5354.68
943.818	5352.87
944.125	5328.24
944.431	5272.64
944.738	5262.02
945.044	5248.24
945.35	5168.69
945.657	5153.1
945.963	5139.99
946.269	5150.39
946.575	5085.53
946.881	5125.76
947.187	5060.67
947.493	5018.87
947.799	4970.73
948.105	5016.15
948.41	4993.56
948.716	4964.86
949.022	4916.95
949.327	4926.21
949.633	4881.92
949.938	4885.99
950.244	4864.74
950.549	4852.77
950.854	4790.62
951.16	4856.61
951.465	4743.84
951.77	4773.67
952.075	4691.87
952.38	4686.44
952.685	4673.56
952.99	4678.99
953.294	4623.4
953.599	4623.4
953.904	4604.86
954.209	4605.32
954.513	4559.44
954.818	4560.12
955.122	4508.82
955.426	4535.04
955.731	4494.13
956.035	4470.41
956.339	4476.96
956.643	4470.63
956.948	4412.55
957.252	4375.27
957.556	4393.57
957.86	4402.61
958.163	4319.9
958.467	4303.86
958.771	4257.3
959.075	4280.13
959.378	4233.8
959.682	4276.29
959.985	4211.2
960.289	4175.27
960.592	4206.01
960.896	4164.88
961.199	4146.57
961.502	4128.27
961.805	4114.03
962.108	4101.15
962.411	4055.5
962.714	4015.28
963.017	4040.81
963.32	4003.07
963.623	3999.01
963.926	4016.18
964.228	3959.01
964.531	3960.14
964.833	3910.65
965.136	3905.67
965.438	3855.05
965.741	3874.71
966.043	3900.48
966.345	3862.06
966.648	3844.66
966.95	3817.99
967.252	3773.7
967.554	3762.4
967.856	3733.93
968.158	3700.26
968.46	3733.93
968.761	3705.91
969.063	3689.86
969.365	3685.11
969.666	3664.78
969.968	3673.14
970.269	3660.93
970.571	3624.1
970.872	3579.81
971.174	3546.14
971.475	3561.28
971.776	3540.26
972.077	3519.24
972.378	3545.46
972.679	3493.93
972.98	3449.64
973.281	3454.61
973.582	3483.09
973.883	3402.18
974.183	3448.51
974.484	3366.25
974.785	3428.4
975.085	3352.69
975.386	3379.81
975.686	3349.98
975.986	3363.54
976.287	3336.88
976.587	3325.12
976.887	3278.35
977.187	3235.18
977.487	3272.47
977.787	3275.41
978.087	3215.75
978.387	3247.16
978.687	3237.22
978.987	3221.17
979.286	3188.4
979.586	3161.51
979.885	3148.41
980.185	3161.06
980.484	3147.95
980.784	3080.84
981.083	3085.36
981.382	3092.36
981.682	3085.58
981.981	3022.31
982.28	3043.32
982.579	3042.65
982.878	3067.96
983.177	3032.7
983.475	2984.57
983.774	2999.71
984.073	2965.13
984.372	2979.6
984.67	2939.15
984.969	2915.64
985.267	2906.38
985.566	2883.1
985.864	2882.65
986.162	2869.77
986.461	2854.18
986.759	2848.98
987.057	2831.13
987.355	2805.59
987.653	2791.13
987.951	2771.47
988.249	2749.55
988.547	2773.95
988.844	2740.51
989.142	2724.01
989.44	2722.2
989.737	2722.88
990.035	2704.8
990.332	2690.56
990.63	2665.03
990.927	2642.66
991.224	2639.94
991.521	2641.07
991.819	2643.11
992.116	2654.86
992.413	2593.84
992.71	2588.87
993.006	2526.5
993.303	2571.47
993.6	2537.57
993.897	2555.2
994.193	2513.39
994.49	2545.48
994.787	2499.38
995.083	2533.28
995.379	2502.77
995.676	2463.9
995.972	2477.92
996.268	2425.71
996.565	2434.98
996.861	2433.85
997.157	2430.68
997.453	2390.23
997.749	2406.73
998.044	2356.56
998.34	2373.74
998.636	2340.74
998.932	2342.33
999.227	2345.26
999.523	2322.21
999.818	2331.93
1000.114	2298.48
1000.409	2281.76
1000.704	2250.58
1001	2234.31
1001.295	2220.75
1001.59	2210.13
1001.885	2234.31
1002.18	2227.98
1002.475	2192.27
1002.77	2187.3
1003.065	2136.46
1003.359	2182.78
1003.654	2129.68
1003.949	2152.27
1004.243	2120.64
1004.538	2077.7
1004.832	2097.36
1005.127	2103.91
1005.421	2054.88
1005.715	2056.46
1006.009	2025.27
1006.304	2013.97
1006.598	2013.29
1006.892	2015.55
1007.186	1981.88
1007.48	2007.19
1007.773	1948.44
1008.067	1979.85
1008.361	1968.78
1008.655	1956.57
1008.948	1916.57
1009.242	1918.16
1009.535	1903.01
1009.829	1909.12
1010.122	1905.73
1010.415	1888.33
1010.708	1864.15
1011.001	1851.26
1011.295	1851.49
1011.588	1832.28
1011.881	1803.13
1012.173	1804.94
1012.466	1824.15
1012.759	1779.63
1013.052	1787.76
1013.344	1783.7
1013.637	1791.15
1013.93	1768.33
1014.222	1738.05
1014.514	1764.26
1014.807	1683.59
1015.099	1732.85
1015.391	1740.53
1015.683	1700.31
1015.976	1692.4
1016.268	1658.5
1016.56	1657.6
1016.851	1667.54
1017.143	1649.91
1017.435	1649.91
1017.727	1618.28
1018.018	1604.27
1018.31	1593.42
1018.602	1610.37
1018.893	1599.97
1019.185	1575.57
1019.476	1580.99
1019.767	1547.77
1020.058	1540.09
1020.35	1551.61
1020.641	1526.75
1020.932	1516.58
1021.223	1525.62
1021.514	1498.96
1021.804	1462.35
1022.095	1485.17
1022.386	1473.2
1022.677	1445.17
1022.967	1446.98
1023.258	1415.12
1023.548	1412.86
1023.839	1388.9
1024.129	1394.78
1024.419	1375.35
1024.709	1391.16
1025	1375.12
1025.29	1384.61
1025.58	1338.51
1025.87	1362.24
1026.16	1319.53
1026.449	1346.65
1026.739	1311.17
1027.029	1336.7
1027.319	1313.88
1027.608	1316.36
1027.898	1302.8
1028.187	1308
1028.477	1271.62
1028.766	1235.69
1029.055	1268.68
1029.344	1265.29
1029.634	1227.33
1029.923	1224.16
1030.212	1225.52
1030.501	1204.05
1030.79	1219.42
1031.078	1192.75
1031.367	1210.6
1031.656	1173.09
1031.945	1161.34
1032.233	1175.35
1032.522	1174.67
1032.81	1131.28
1033.099	1130.38
1033.387	1137.16
1033.675	1133.77
1033.963	1148.23
1034.251	1127.67
1034.54	1125.41
1034.828	1084.73
1035.116	1084.96
1035.403	1068.01
1035.691	1064.39
1035.979	1077.27
1036.267	1049.25
1036.554	1045.41
1036.842	1046.54
1037.129	1061.46
1037.417	1043.38
1037.704	1013.55
1037.992	1015.35
1038.279	1015.81
1038.566	986.2
1038.853	986.2
1039.14	986.2
