Data from white_wall_FLMS001491_099.txt Node
Date: Tue Feb 07 11:06:17 GMT 2017
User: dcchb
Spectrometer: FLMS00149
Trigger mode: 0
Integration Time (sec): 2.000000E-2
Scans to average: 10
Electric dark correction enabled: true
Nonlinearity correction enabled: false
Boxcar width: 0
XAxis mode: Wavelengths
Number of Pixels in Spectrum: 2048
>>>>>Begin Spectral Data<<<<<
341.393	-4.94
341.776	-4.94
342.16	-4.94
342.543	-48.11
342.927	-50.82
343.31	-76.13
343.693	-69.57
344.077	-45.85
344.46	-52.4
344.843	-39.74
345.226	-58.05
345.61	-32.74
345.993	5.45
346.376	-9.24
346.759	12.23
347.142	17.88
347.525	42.06
347.908	56.07
348.291	58.78
348.674	84.32
349.057	106.92
349.44	111.21
349.823	121.38
350.206	168.16
350.588	226.01
350.971	213.58
351.354	252.45
351.737	272.11
352.119	289.51
352.502	298.33
352.884	277.76
353.267	305.1
353.65	306.46
354.032	313.92
354.414	327.7
354.797	336.74
355.179	346.46
355.562	334.26
355.944	330.19
356.326	368.83
356.709	325.22
357.091	346.46
357.473	347.82
357.855	344.88
358.238	378.32
358.62	338.78
359.002	361.15
359.384	386.01
359.766	367.7
360.148	375.61
360.53	345.33
360.912	373.13
361.294	357.76
361.676	354.14
362.057	355.27
362.439	357.53
362.821	345.78
363.203	336.74
363.584	364.76
363.966	337.42
364.348	352.79
364.729	361.83
365.111	332.22
365.493	356.18
365.874	353.24
366.256	352.34
366.637	356.86
367.019	335.84
367.4	335.84
367.781	358.44
368.163	334.03
368.544	341.26
368.925	336.29
369.306	347.59
369.688	349.17
370.069	340.13
370.45	346.01
370.831	353.24
371.212	336.06
371.593	341.71
371.974	350.3
372.355	347.36
372.736	341.49
373.117	340.13
373.498	344.2
373.879	355.05
374.26	364.76
374.641	341.04
375.021	361.37
375.402	355.05
375.783	366.8
376.163	364.99
376.544	354.37
376.925	364.31
377.305	367.93
377.686	355.27
378.066	372.67
378.447	379.91
378.827	363.18
379.208	388.27
379.588	390.98
379.968	379
380.349	383.07
380.729	373.8
381.109	373.13
381.489	372.67
381.87	390.07
382.25	383.3
382.63	380.81
383.01	375.61
383.39	400.02
383.77	397.98
384.15	399.11
384.53	400.47
384.91	407.93
385.29	401.6
385.67	406.57
386.049	418.1
386.429	424.65
386.809	450.41
387.189	422.39
387.568	449.06
387.948	430.07
388.328	431.66
388.707	436.85
389.087	450.64
389.466	463.29
389.846	476.4
390.225	457.42
390.605	464.42
390.984	476.85
391.363	478.66
391.743	479.11
392.122	481.82
392.501	498.55
392.881	510.75
393.26	503.52
393.639	539.45
394.018	516.4
394.397	537.64
394.776	528.83
395.155	536.06
395.534	551.65
395.913	557.75
396.292	569.96
396.671	586
397.05	578.54
397.429	612.22
397.808	622.38
398.186	636.17
398.565	630.52
398.944	631.65
399.323	668.49
399.701	668.03
400.08	679.56
400.458	688.37
400.837	695.15
401.215	716.85
401.594	715.49
401.972	727.01
402.351	754.58
402.729	765.43
403.107	786.22
403.486	797.52
403.864	788.26
404.242	831.64
404.62	821.7
404.999	830.74
405.377	850.63
405.755	846.33
406.133	894.69
406.511	899.21
406.889	911.87
407.267	945.31
407.645	943.05
408.023	978.08
408.401	974.01
408.779	1013.79
409.156	1048.59
409.534	1060.11
409.912	1063.05
410.29	1070.51
410.667	1108.02
411.045	1127.91
411.422	1182.82
411.8	1152.09
412.178	1205.19
412.555	1221.47
412.933	1237.28
413.31	1272.31
413.687	1265.53
414.065	1273.89
414.442	1315.47
414.819	1305.08
415.197	1345.98
415.574	1367.22
415.951	1385.75
416.328	1390.5
416.705	1400.44
417.082	1424.85
417.46	1441.8
417.837	1477.28
418.214	1472.08
418.591	1488.58
418.967	1484.73
419.344	1498.07
419.721	1555.47
420.098	1561.34
420.475	1575.13
420.852	1585.3
421.228	1602.47
421.605	1595.24
421.982	1641.79
422.358	1660.55
422.735	1703.71
423.111	1695.58
423.488	1721.34
423.864	1716.37
424.241	1742.58
424.617	1759.3
424.994	1749.36
425.37	1787.33
425.746	1824.84
426.123	1872.97
426.499	1864.61
426.875	1875.91
427.251	1886.76
427.627	1954.55
428.003	1983.25
428.379	1989.81
428.756	2035
429.132	2040.2
429.507	2088.11
429.883	2065.28
430.259	2149.58
430.635	2187.77
431.011	2171.27
431.387	2276.13
431.763	2304.37
432.138	2272.06
432.514	2297.37
432.89	2324.49
433.265	2406.29
433.641	2430.7
434.016	2475.44
434.392	2484.26
434.767	2543.24
435.143	2566.74
435.518	2606.74
435.894	2597.02
436.269	2633.86
436.644	2687.87
437.02	2664.82
437.395	2703.23
437.77	2753.63
438.145	2757.47
438.52	2823.46
438.895	2841.76
439.271	2832.27
439.646	2923.34
440.021	2964.02
440.395	2946.84
440.77	2927.41
441.145	2997.69
441.52	3040.85
441.895	3052.15
442.27	3058.48
442.645	3120.17
443.019	3165.59
443.394	3140.28
443.769	3237.91
444.143	3198.59
444.518	3236.33
444.892	3233.62
445.267	3260.96
445.641	3307.29
446.016	3315.87
446.39	3352.26
446.764	3372.59
447.139	3383.44
447.513	3431.12
447.887	3451.69
448.262	3464.57
448.636	3477.68
449.01	3526.72
449.384	3562.19
449.758	3609.42
450.132	3658.24
450.506	3677.45
450.88	3713.15
451.254	3734.17
451.628	3719.7
452.002	3825.69
452.376	3862.98
452.75	3877.21
453.123	3916.08
453.497	3986.82
453.871	4036.98
454.244	4135.06
454.618	4120.15
454.992	4193.59
455.365	4166.92
455.739	4307.49
456.112	4326.24
456.486	4374.83
456.859	4389.52
457.232	4488.05
457.606	4551.77
457.979	4553.81
458.352	4674.71
458.725	4743.41
459.099	4810.07
459.472	4868.6
459.845	4913.12
460.218	5001.03
460.591	5049.84
460.964	5020.24
461.337	5163.28
461.71	5236.95
462.083	5365.99
462.456	5323.96
462.829	5387.46
463.201	5452.77
463.574	5512.43
463.947	5634.91
464.32	5707.22
464.692	5766.66
465.065	5791.29
465.438	5894.11
465.81	5981.11
466.183	6031.73
466.555	6236.7
466.928	6243.93
467.3	6255.68
467.672	6364.15
468.045	6517.15
468.417	6564.15
468.789	6587.88
469.161	6723.92
469.534	6783.58
469.906	6984.7
470.278	6972.5
470.65	7085.27
471.022	7203.91
471.394	7385.6
471.766	7416.78
472.138	7484.8
472.51	7686.61
472.882	7879.82
473.253	7931.12
473.625	8001.85
473.997	8214.73
474.369	8304.89
474.74	8420.15
475.112	8580.37
475.484	8666.24
475.855	8817.88
476.227	8914.82
476.598	9253.34
476.97	9309.16
477.341	9481.59
477.713	9589.15
478.084	9713.67
478.455	9988.47
478.827	10101.68
479.198	10344.16
479.569	10399.75
479.94	10643.59
480.311	10820.76
480.682	11041.09
481.053	11308.43
481.424	11435.89
481.795	11583.68
482.166	11778.7
482.537	11902.54
482.908	12251.23
483.279	12337.78
483.65	12511.56
484.021	12861.61
484.391	12990.87
484.762	13126.91
485.133	13259.34
485.503	13403.07
485.874	13797.63
486.244	13902.49
486.615	14149.03
486.985	14298.86
487.356	14676.7
487.726	14729.13
488.097	15052.74
488.467	15109.91
488.837	15407.53
489.207	15627.64
489.578	15862.66
489.948	16036.44
490.318	16190.11
490.688	16287.28
491.058	16609.76
491.428	16793.26
491.798	17010.88
492.168	17292.91
492.538	17379.01
492.908	17717.3
493.278	17899.22
493.648	17947.13
494.017	18206.56
494.387	18365.2
494.757	18581.01
495.126	18691.51
495.496	18731.74
495.866	18885.18
496.235	19150.26
496.605	19385.06
496.974	19520.87
497.344	19729.23
497.713	19831.6
498.082	20054.42
498.452	20206.28
498.821	20320.17
499.19	20355.43
499.559	20622.54
499.928	20710.44
500.298	20926.71
500.667	21089.64
501.036	21152.47
501.405	21448.28
501.774	21468.39
502.143	21676.52
502.512	21791.55
502.88	22048.94
503.249	22116.96
503.618	22250.29
503.987	22365.99
504.356	22579.77
504.724	22740.9
505.093	22817.73
505.462	22983.38
505.83	23242.81
506.199	23550.37
506.567	23741.1
506.936	23626.98
507.304	24001.21
507.672	24036.46
508.041	24216.11
508.409	24517.8
508.777	24538.37
509.145	24832.82
509.514	24854.52
509.882	25079.59
510.25	25220.83
510.618	25420.15
510.986	25590.99
511.354	25840.93
511.722	26095.61
512.09	26373.8
512.458	26250.64
512.826	26576.28
513.193	26685.2
513.561	26909.15
513.929	27223.49
514.297	27277.5
514.664	27643.82
515.032	27774.21
515.4	27886.07
515.767	28152.73
516.135	28389.11
516.502	28152.51
516.869	28537.81
517.237	28687.86
517.604	28747.75
517.972	29022.77
518.339	29377.11
518.706	29506.82
519.073	29585.47
519.44	29901.61
519.808	30204.21
520.175	30180.48
520.542	30608.71
520.909	30779.11
521.276	30797.86
521.643	31137.29
522.009	31420.67
522.376	31593.55
522.743	31935.69
523.11	32118.73
523.477	32441.89
523.843	32625.61
524.21	33023.11
524.577	33262.2
524.943	33256.1
525.31	33562.99
525.676	33835.97
526.043	34020.38
526.409	34178.11
526.776	34607.25
527.142	34643.64
527.508	34904.2
527.874	35233.45
528.241	35400.91
528.607	35569.94
528.973	35727.9
529.339	35935.35
529.705	36146.2
530.071	36385.74
530.437	36712.96
530.803	36814.65
531.169	37024.82
531.535	37016
531.901	37230.01
532.267	37384.36
532.632	37717
532.998	37922.65
533.364	38070.67
533.73	38142.98
534.095	38560.37
534.461	38615.51
534.826	38781.61
535.192	38979.79
535.557	39251.65
535.923	39160.35
536.288	39256.17
536.653	39440.8
537.019	39454.36
537.384	39782.71
537.749	39984.51
538.114	39982.03
538.479	40183.6
538.845	40566.65
539.21	40336.59
539.575	40636.47
539.94	40675.12
540.305	40920.31
540.67	41021.32
541.034	41183.8
541.399	41273.75
541.764	41470.8
542.129	41691.14
542.494	41755.54
542.858	41890
543.223	42017.91
543.587	42210.22
543.952	42251.12
544.316	42448.4
544.681	42514.39
545.045	42648.62
545.41	42807.94
545.774	43173.13
546.138	43096.97
546.503	43354.37
546.867	43470.07
547.231	43757.3
547.595	43781.48
547.959	44005.2
548.324	43993.67
548.688	44263.05
549.052	44393.21
549.416	44423.27
549.779	44548.69
550.143	44822.58
550.507	45046.08
550.871	45163.81
551.235	45160.42
551.599	45499.4
551.962	45632.73
552.326	45850.35
552.689	45965.37
553.053	45972.83
553.417	46107.06
553.78	46499.37
554.143	46452.59
554.507	46740.04
554.87	46976.87
555.234	47322.63
555.597	47184.78
555.96	47424.32
556.323	47565.33
556.686	47622.96
557.05	48034.7
557.413	48087.13
557.776	48234.24
558.139	48648.69
558.502	48559.66
558.865	48736.37
559.228	48928.23
559.59	49098.4
559.953	49241.45
560.316	49500.42
560.679	49617.71
561.041	49885.95
561.404	49955.78
561.767	50247.97
562.129	50095.66
562.492	50472.15
562.854	50592.82
563.217	50601.18
563.579	50866.04
563.941	51023.77
564.304	51171.56
564.666	51336.31
565.028	51433.03
565.39	51496.3
565.753	51763.41
566.115	51771.55
566.477	51985.78
566.839	52002.73
567.201	52294.92
567.563	52264.42
567.925	52536.73
568.287	52675.25
568.648	52601.58
569.01	52751.64
569.372	53015.81
569.734	52963.83
570.095	53195.01
570.457	53285.63
570.819	53317.95
571.18	53351.62
571.542	53532.86
571.903	53466.87
572.265	53528.56
572.626	53722.23
572.987	53823.92
573.349	53826.64
573.71	53998.61
574.071	53976.01
574.432	54178.94
574.794	54306.17
575.155	54263.46
575.516	54237.02
575.877	54406.96
576.238	54474.75
576.599	54699.15
576.96	54551.14
577.32	54639.27
577.681	54703.45
578.042	54777.35
578.403	54748.87
578.763	54864.8
579.124	54891.01
579.485	54884.01
579.845	55067.28
580.206	54973.72
580.566	55030.45
580.927	55082.87
581.287	55175.3
581.648	55000.39
582.008	55162.19
582.368	55156.77
582.728	55222.31
583.089	55069.77
583.449	55215.53
583.809	55229.31
584.169	55323.09
584.529	55282.87
584.889	55457.1
585.249	55196.77
585.609	55117
585.969	55413.03
586.329	55264.34
586.688	55363.54
587.048	55240.38
587.408	55298.01
587.768	55312.92
588.127	55293.49
588.487	55304.79
588.846	55506.14
589.206	55263.21
589.565	55335.75
589.925	55489.87
590.284	55362.19
590.643	55432.7
591.003	55483.09
591.362	55476.99
591.721	55492.13
592.08	55475.86
592.44	55549.3
592.799	55561.96
593.158	55476.76
593.517	55508.63
593.876	55513.37
594.235	55481.73
594.593	55554.5
594.952	55614.84
595.311	55508.4
595.67	55589.08
596.029	55747.04
596.387	55688.06
596.746	55786.81
597.104	55628.85
597.463	55647.15
597.822	55694.38
598.18	55643.76
598.538	55560.38
598.897	55752.23
599.255	55556.08
599.613	56000.59
599.972	55746.36
600.33	55809.63
600.688	55706.81
601.046	55872.01
601.404	55921.27
601.762	55896.19
602.12	56041.04
602.478	55980.25
602.836	56003.3
603.194	55928.5
603.552	55982.51
603.91	55826.13
604.268	56015.5
604.625	55917.43
604.983	56072.45
605.341	55956.75
605.698	56054.83
606.056	56189.29
606.413	56011.66
606.771	56233.58
607.128	56308.15
607.485	56143.64
607.843	56166.24
608.2	56304.54
608.557	56412.1
608.914	56278.77
609.272	56394.93
609.629	56441.93
609.986	56488.03
610.343	56481.03
610.7	56596.05
611.057	56539.56
611.414	56467.24
611.771	56554.93
612.127	56606.68
612.484	56585.66
612.841	56728.93
613.198	56692.77
613.554	56665.2
613.911	56822.71
614.267	56795.15
614.624	56787.01
614.98	56838.31
615.337	56952.66
615.693	56942.71
616.05	56795.82
616.406	57046.21
616.762	56918.76
617.118	56997.4
617.475	56940.9
617.831	56989.72
618.187	57034.69
618.543	57005.99
618.899	57217.51
619.255	57113.78
619.611	57193.55
619.967	57253.44
620.323	57320.55
620.678	57188.58
621.034	57168.92
621.39	57126.66
621.746	57126.44
622.101	57361.01
622.457	57174.8
622.812	57221.35
623.168	57355.13
623.523	57263.38
623.879	57354.45
624.234	57145.64
624.589	57303.38
624.945	57288.47
625.3	57337.73
625.655	57316.04
626.01	57311.74
626.365	57396.03
626.72	57315.13
627.075	57240.56
627.43	57281.69
627.785	57221.35
628.14	57295.92
628.495	57248.69
628.85	57273.55
629.205	57198.07
629.559	57330.72
629.914	57130.28
630.269	57187.45
630.623	57170.95
630.978	57132.54
631.332	57259.99
631.687	57235.36
632.041	57116.94
632.396	57173.89
632.75	56981.58
633.104	57001.47
633.459	56916.95
633.813	56962.37
634.167	56915.59
634.521	56977.51
634.875	56989.49
635.229	56929.6
635.583	56778.42
635.937	56736.39
636.291	56797.63
636.645	56891.41
636.999	56744.98
637.352	56795.15
637.706	56577.07
638.06	56702.04
638.413	56690.29
638.767	56579.33
639.121	56684.41
639.474	56550.18
639.828	56538.88
640.181	56574.13
640.534	56580.01
640.888	56472.89
641.241	56278.1
641.594	56329.62
641.947	56404.87
642.301	56309.96
642.654	56357.87
643.007	56335.27
643.36	56285.78
643.713	56257.53
644.066	56278.77
644.419	56128.27
644.771	55963.3
645.124	55708.17
645.477	55642.63
645.83	55582.3
646.182	55423.2
646.535	55312.02
646.888	55337.78
647.24	55262.3
647.593	55454.16
647.945	55314.73
648.298	55131.23
648.65	55143.89
649.002	55014.63
649.355	55184.11
649.707	55071.8
650.059	55138.24
650.411	55432.47
650.763	55547.04
651.115	55839.69
651.467	55678.56
651.819	55673.14
652.171	55632.69
652.523	55587.72
652.875	55538.23
653.227	55480.83
653.578	55710.2
653.93	55526.48
654.282	55509.3
654.633	55347.73
654.985	55421.85
655.337	55393.6
655.688	55398.8
656.039	55495.97
656.391	55194.74
656.742	55298.01
657.094	55337.78
657.445	55297.78
657.796	55241.74
658.147	55179.82
658.498	55214.17
658.849	55235.64
659.2	55211.46
659.551	55147.5
659.902	55175.53
660.253	55156.09
660.604	55224.11
660.955	55031.35
661.306	55214.85
661.656	55034.51
662.007	55112.25
662.358	55083.78
662.708	55021.63
663.059	55015.98
663.409	54807.17
663.76	54982.99
664.11	54980.28
664.461	54911.58
664.811	54994.29
665.161	54950
665.511	54829.1
665.862	54890.56
666.212	54943.67
666.562	54898.25
666.912	54866.83
667.262	54862.99
667.612	54858.25
667.962	54806.5
668.312	54749.55
668.662	54912.93
669.011	54882.65
669.361	54729.66
669.711	54614.64
670.06	54663
670.41	54559.27
670.76	54642.21
671.109	54705.93
671.459	54610.34
671.808	54564.92
672.157	54605.6
672.507	54443.34
672.856	54390.01
673.205	54468.88
673.554	54573.28
673.904	54438.82
674.253	54571.25
674.602	54434.98
674.951	54085.61
675.3	53809.01
675.649	54276.79
675.998	54380.07
676.346	54346.17
676.695	54485.6
677.044	54216
677.393	54252.61
677.741	54305.04
678.09	54194.76
678.438	54157.25
678.787	54185.72
679.135	54152.28
679.484	53936.24
679.832	54050.13
680.181	53873.64
680.529	53897.37
680.877	53943.24
681.225	53889.91
681.573	54068.66
681.922	53750.25
682.27	53698.96
682.618	53768.33
682.966	53559.52
683.314	53645.62
683.661	53546.42
684.009	53347.1
684.357	53369.47
684.705	53293.54
685.053	53264.62
685.4	53342.13
685.748	53198.18
686.095	53173.32
686.443	53061.23
686.79	52923.83
687.138	52935.13
687.485	52900.78
687.832	52717.96
688.18	52822.59
688.527	52484.3
688.874	52557.29
689.221	52442.04
689.568	52366.56
689.915	52318.43
690.262	52325.66
690.609	52311.42
690.956	52168.6
691.303	52127.47
691.65	51896.52
691.997	51957.08
692.344	51777.88
692.69	51748.95
693.037	51655.85
693.383	51441.39
693.73	51557.09
694.077	51316.42
694.423	51378.56
694.769	51394.38
695.116	51150.77
695.462	51187.61
695.808	50980.83
696.155	51036.2
696.501	50753.72
696.847	50819.03
697.193	50561.64
697.539	50724.34
697.885	50404.35
698.231	50318.25
698.577	50240.29
698.923	50325.26
699.269	50115.77
699.614	49934.08
699.96	49889.11
700.306	49767.99
700.651	49760.3
700.997	49605.73
701.342	49572.28
701.688	49409.8
702.033	49400.31
702.379	49339.75
702.724	49206.64
703.069	49274.44
703.415	48750.38
703.76	48958.97
704.105	48818.63
704.45	48768.01
704.795	48428.13
705.14	48403.28
705.485	48353.33
705.83	48282.37
706.175	48248.7
706.52	48184.52
706.865	48090.52
707.209	48065.43
707.554	47878.54
707.899	47927.13
708.243	47668.15
708.588	47706.34
708.932	47409.4
709.277	47447.59
709.621	47433.13
709.966	47189.07
710.31	47230.2
710.654	47033.59
710.998	46950.21
711.342	46910.89
711.687	46875.41
712.031	46769.42
712.375	46712.7
712.719	46671.34
713.063	46514.74
713.407	46654.39
713.75	46377.57
714.094	46397.68
714.438	46223.67
714.782	46247.17
715.125	46115.88
715.469	46134.63
715.812	45936.45
716.156	45659.39
716.499	45804.7
716.843	45827.07
717.186	45534.42
717.53	45740.52
717.873	45692.84
718.216	45484.48
718.559	45273.19
718.902	45081.55
719.246	45229.57
719.589	45092.18
719.932	44823.03
720.275	44945.06
720.617	44856.48
720.96	44844.5
721.303	44793.88
721.646	44737.83
721.989	44621.23
722.331	44628.69
722.674	44588.46
723.016	44557.5
723.359	44296.49
723.701	44431.85
724.044	44224.4
724.386	43969.04
724.729	44224.18
725.071	44055.82
725.413	43903.05
725.755	43743.74
726.097	43744.87
726.439	43566.57
726.782	43675.72
727.124	43752.78
727.465	43602.05
727.807	43602.72
728.149	43429.62
728.491	43355.05
728.833	43385.33
729.175	43123.19
729.516	43066.47
729.858	43061.72
730.199	43045.9
730.541	42823.31
730.882	42849.07
731.224	42898.56
731.565	42745.57
731.906	42702.86
732.248	42748.06
732.589	42516.42
732.93	42376.77
733.271	42400.27
733.612	42297.22
733.953	42339.93
734.294	42146.04
734.635	42128.41
734.976	42312.36
735.317	42072.82
735.658	41968.19
735.999	41930.45
736.339	41857.91
736.68	41957.34
737.021	41776.33
737.361	41563.23
737.702	41652.72
738.042	41725.03
738.383	41560.29
738.723	41665.37
739.063	41361.2
739.404	41404.82
739.744	41292.95
740.084	41136.57
740.424	41339.73
740.764	41138.61
741.104	41213.86
741.444	41022.45
741.784	40949.23
742.124	40974.09
742.464	40873.08
742.804	40913.3
743.143	40727.32
743.483	40633.08
743.823	40630.15
744.162	40535.46
744.502	40583.37
744.841	40284.62
745.181	40502.92
745.52	40289.82
745.86	40348.57
746.199	40233.55
746.538	40209.14
746.877	40233.09
747.216	40112.42
747.556	40163.04
747.895	40088.47
748.234	39822.94
748.573	39759.89
748.911	39755.82
749.25	39604.41
749.589	39622.26
749.928	39624.98
750.267	39662.94
750.605	39576.39
750.944	39444.87
751.283	39224.08
751.621	39196.06
751.96	39100.92
752.298	39071.32
752.636	38999.23
752.975	38843.53
753.313	38781.61
753.651	38781.83
753.989	38603.08
754.327	38554.27
754.666	38334.39
755.004	38386.36
755.342	38402.63
755.679	38217.55
756.017	38079.48
756.355	38159.48
756.693	37844.23
757.031	37919.26
757.368	37674.74
757.706	37536.89
758.044	37513.39
758.381	37594.29
758.719	37322.89
759.056	37324.02
759.394	37204.02
759.731	36978.04
760.068	36975.1
760.405	36868.44
760.743	36809
761.08	36878.61
761.417	36675.67
761.754	36637.71
762.091	36529.69
762.428	36341.9
762.765	36092.41
763.102	36228.91
763.438	36037.05
763.775	35801.57
764.112	35844.51
764.449	35862.81
764.785	35652.2
765.122	35413.79
765.458	35360
765.795	35167.92
766.131	35219.67
766.467	35155.71
766.804	34845.44
767.14	34786.91
767.476	34857.42
767.812	34584.66
768.148	34706.46
768.485	34419.69
768.821	34312.57
769.157	34286.58
769.492	34150.54
769.828	34088.4
770.164	33857.9
770.5	33707.39
770.836	33696.09
771.171	33414.52
771.507	33426.27
771.842	33216.56
772.178	33225.14
772.513	32998.03
772.849	32951.7
773.184	32859.5
773.519	32793.06
773.855	32703.8
774.19	32423.81
774.525	32519.63
774.86	32424.49
775.195	32264.94
775.53	32214.32
775.865	31908.12
776.2	31845.52
776.535	31619.08
776.87	31547.9
777.205	31480.33
777.539	31329.15
777.874	31356.72
778.209	31105.2
778.543	31088.48
778.878	30816.39
779.212	30869.27
779.547	30716.06
779.881	30661.14
780.215	30458.44
780.55	30389.29
780.884	30248.5
781.218	30218.22
781.552	30039.46
781.886	30011.89
782.22	29683.32
782.554	29711.56
782.888	29464.34
783.222	29435.86
783.556	29422.53
783.889	29300.5
784.223	28971.02
784.557	29051.92
784.89	29090.56
785.224	28931.24
785.557	28718.37
785.891	28642.66
786.224	28489
786.558	28523.57
786.891	28240.64
787.224	28259.85
787.557	28092.4
787.891	28096.01
788.224	27917.94
788.557	27959.75
788.89	27837.49
789.223	27844.04
789.556	27510.49
789.888	27548.91
790.221	27340.55
790.554	27203.61
790.887	27209.48
791.219	27167.45
791.552	27021.92
791.884	26934.91
792.217	26809.94
792.549	26864.41
792.882	26660.12
793.214	26479.33
793.546	26621.93
793.879	26308.49
794.211	26162.73
794.543	26207.7
794.875	26008.38
795.207	26239.79
795.539	26089.96
795.871	25910.99
796.203	25819.01
796.535	25603.2
796.867	25650.88
797.198	25489.75
797.53	25483.65
797.862	25415.41
798.193	25353.94
798.525	25254.51
798.856	25250.44
799.188	24972.25
799.519	24985.13
799.85	24663.11
800.182	24904.68
800.513	24660.85
800.844	24560.06
801.175	24608.19
801.506	24626.05
801.837	24427.63
802.168	24281.42
802.499	24391.93
802.83	24156.46
803.161	24080.98
803.491	24177.92
803.822	24126.85
804.153	23914.2
804.483	23857.71
804.814	23696.35
805.145	23651.38
805.475	23600.54
805.805	23576.36
806.136	23522.57
806.466	23483.48
806.796	23405.06
807.126	23198.29
807.457	23187.44
807.787	23249.81
808.117	23078.29
808.447	23018.63
808.777	23005.07
809.107	22823.83
809.436	22844.63
809.766	22827.9
810.096	22752.88
810.426	22602.15
810.755	22718.75
811.085	22580
811.414	22567.57
811.744	22296.17
812.073	22396.95
812.403	22291.19
812.732	22248.93
813.061	22180.01
813.39	22058.21
813.719	21994.93
814.049	22108.83
814.378	22038.54
814.707	21894.14
815.036	21945.44
815.365	21755.61
815.693	21641.72
816.022	21541.38
816.351	21605.34
816.68	21456.19
817.008	21456.19
817.337	21412.8
817.665	21305.46
817.994	21348.39
818.322	21352.91
818.651	21177.55
818.979	20995.18
819.307	21169.64
819.636	21075.41
819.964	20932.13
820.292	21021.4
820.62	20973.26
820.948	20894.39
821.276	20985.92
821.604	20844
821.932	20870.89
822.259	20870.21
822.587	20898.91
822.915	20759.93
823.243	20768.3
823.57	20830.44
823.898	20763.55
824.225	20731.46
824.553	20767.84
824.88	20658.69
825.207	20882.42
825.535	20825.47
825.862	20860.95
826.189	20702.08
826.516	20718.81
826.843	20759.26
827.17	20765.81
827.497	20789.09
827.824	20716.77
828.151	20791.57
828.478	20814.62
828.805	20927.39
829.131	20821.63
829.458	20743.44
829.785	20634.29
830.111	20749.99
830.438	20777.11
830.764	20699.37
831.09	20663.44
831.417	20608.53
831.743	20641.07
832.069	20656.21
832.395	20501.64
832.722	20647.85
833.048	20568.3
833.374	20546.38
833.7	20472.71
834.026	20469.55
834.351	20528.3
834.677	20505.03
835.003	20502.99
835.329	20409.89
835.654	20444.01
835.98	20280.62
836.306	20480.62
836.631	20236.11
836.956	20331.92
837.282	20316.56
837.607	20225.71
837.932	20177.12
838.258	20187.75
838.583	20159.05
838.908	20013.97
839.233	20113.4
839.558	20000.18
839.883	19922.22
840.208	19957.7
840.533	19846.29
840.858	19925.15
841.182	19978.03
841.507	19796.12
841.832	19719.96
842.156	19590.93
842.481	19715.67
842.805	19637.48
843.13	19619.85
843.454	19570.36
843.778	19543.02
844.103	19475.45
844.427	19425.51
844.751	19406.07
845.075	19300.09
845.399	19223.93
845.723	19101.67
846.047	19135.34
846.371	19039.3
846.695	18984.61
847.019	18885.41
847.343	18804.73
847.666	18707.11
847.99	18556.15
848.313	18703.72
848.637	18440.67
848.96	18465.08
849.284	18391.18
849.607	18189.38
849.931	18253.79
850.254	18145.09
850.577	17969.05
850.9	17882.04
851.223	17898.54
851.546	17812.67
851.869	17681.82
852.192	17802.05
852.515	17592.33
852.838	17560.92
853.161	17566.35
853.483	17402.73
853.806	17309.4
854.129	17234.83
854.451	17261.04
854.774	17177.43
855.096	17080.94
855.419	17029.86
855.741	16900.6
856.063	16964.33
856.385	16981.05
856.708	16800.49
857.03	16814.73
857.352	16758.68
857.674	16766.37
857.996	16669.65
858.318	16581.51
858.64	16637.33
858.961	16498.58
859.283	16446.83
859.605	16338.81
859.926	16446.38
860.248	16282.31
860.57	16184.24
860.891	16396.21
861.212	16211.35
861.534	16129.55
861.855	16146.95
862.176	16139.94
862.498	16103.79
862.819	16121.86
863.14	15949.44
863.461	15910.57
863.782	15854.3
864.103	15892.94
864.424	15857.69
864.745	15862.44
865.065	15723.46
865.386	15749.22
865.707	15648.2
866.027	15635.55
866.348	15631.26
866.668	15591.26
866.989	15597.58
867.309	15491.6
867.63	15575.66
867.95	15518.72
868.27	15451.83
868.59	15455.89
868.91	15394.65
869.23	15425.16
869.55	15296.8
869.87	15438.49
870.19	15278.5
870.51	15372.05
870.83	15376.35
871.15	15194.21
871.469	15230.81
871.789	15167.09
872.109	15135.9
872.428	15130.48
872.748	15119.63
873.067	15105.39
873.386	15110.14
873.706	15100.65
874.025	14951.05
874.344	15030.59
874.663	14954.44
874.982	14983.82
875.301	14964.61
875.62	14896.81
875.939	14869.47
876.258	14874.21
876.577	14803.25
876.896	14816.81
877.214	14688.68
877.533	14761.45
877.852	14751.05
878.17	14694.56
878.489	14733.43
878.807	14645.07
879.125	14651.85
879.444	14644.16
879.762	14555.58
880.08	14496.14
880.398	14505.86
880.716	14448.91
881.034	14434.68
881.352	14447.11
881.67	14426.09
881.988	14304.06
882.306	14311.06
882.624	14299.54
882.941	14214.8
883.259	14237.39
883.577	14170.5
883.894	14140
884.212	14199.65
884.529	14073.1
884.846	14070.84
885.164	14089.6
885.481	14002.37
885.798	13986.33
886.115	13928.02
886.432	14032.43
886.75	13835.6
887.067	13855.71
887.383	13776.84
887.7	13753.79
888.017	13669.73
888.334	13740.23
888.651	13646.45
888.967	13565.32
889.284	13552.67
889.6	13518.32
889.917	13465.66
890.233	13537.75
890.55	13464.76
890.866	13435.83
891.182	13405.1
891.498	13353.12
891.815	13268.83
892.131	13111.77
892.447	13254.59
892.763	13195.61
893.079	13125.78
893.395	13033.13
893.71	13092.79
894.026	13005.34
894.342	12942.29
894.657	12868.39
894.973	12805.79
895.289	12800.14
895.604	12818.45
895.92	12759.92
896.235	12674.95
896.55	12667.94
896.865	12648.51
897.181	12613.48
897.496	12629.07
897.811	12531.68
898.126	12415.75
898.441	12365.35
898.756	12284.23
899.071	12356.77
899.386	12319.25
899.7	12228.41
900.015	12114.06
900.33	12107.28
900.644	12106.15
900.959	12137.34
901.273	12125.36
901.588	11956.55
901.902	11848.98
902.216	11834.97
902.531	11854.86
902.845	11786.61
903.159	11754.75
903.473	11722.21
903.787	11638.37
904.101	11610.57
904.415	11652.15
904.729	11534.87
905.042	11434.08
905.356	11447.18
905.67	11402.89
905.984	11398.82
906.297	11360.18
906.611	11221.65
906.924	11222.78
907.237	11204.71
907.551	11146.18
907.864	11037.7
908.177	11117.93
908.491	11023.47
908.804	10891.95
909.117	10897.59
909.43	10840.42
909.743	10796.58
910.056	10846.52
910.368	10692.85
910.681	10704.38
910.994	10669.13
911.307	10541.22
911.619	10478.85
911.932	10653.53
912.244	10504.84
912.557	10484.72
912.869	10317.95
913.181	10379.19
913.494	10366.76
913.806	10244.05
914.118	10168.35
914.43	10142.59
914.742	10117.95
915.054	10077.5
915.366	10088.58
915.678	10023.49
915.99	9966.55
916.302	9869.6
916.613	9863.72
916.925	9779.66
917.236	9749.15
917.548	9748.47
917.859	9743.27
918.171	9664.63
918.482	9663.05
918.794	9576.95
919.105	9524.52
919.416	9418.99
919.727	9444.07
920.038	9390.52
920.349	9428.93
920.66	9270.97
920.971	9243.4
921.282	9257.19
921.593	9159.11
921.903	9223.29
922.214	9198.66
922.525	9090.86
922.835	9070.75
923.146	9025.1
923.456	8939.68
923.767	8885.44
924.077	8933.35
924.387	8893.81
924.697	8841.15
925.008	8817.42
925.318	8791.66
925.628	8661.04
925.938	8738.33
926.248	8613.59
926.558	8549.86
926.867	8560.03
927.177	8521.39
927.487	8518.22
927.796	8424.44
928.106	8433.7
928.416	8370.2
928.725	8335.85
929.034	8341.73
929.344	8311.22
929.653	8260.83
929.962	8158.91
930.271	8190.77
930.581	8155.29
930.89	8138.57
931.199	8028.07
931.508	8037.78
931.817	8043.88
932.125	8006.15
932.434	7890.22
932.743	7887.73
933.051	7809.09
933.36	7805.02
933.669	7738.36
933.977	7725.02
934.286	7671.24
934.594	7720.05
934.902	7602.54
935.21	7529.1
935.519	7603.9
935.827	7570.22
936.135	7455.88
936.443	7389.66
936.751	7386.27
937.059	7323.9
937.367	7325.71
937.674	7340.85
937.982	7278.93
938.29	7223.34
938.597	7255.2
938.905	7143.57
939.213	7131.37
939.52	7104.25
939.827	7125.26
940.135	7064.02
940.442	7081.65
940.749	6996
941.056	7047.53
941.363	6881.43
941.67	6925.5
941.977	6816.35
942.284	6831.49
942.591	6819.06
942.898	6761.88
943.205	6816.57
943.511	6758.27
943.818	6686.41
944.125	6645.96
944.431	6622.9
944.738	6620.65
945.044	6579.06
945.35	6573.19
945.657	6485.96
945.963	6467.88
946.269	6421.55
946.575	6440.76
946.881	6392.63
947.187	6390.37
947.493	6324.83
947.799	6352.63
948.105	6310.37
948.41	6262.46
948.716	6244.61
949.022	6185.85
949.327	6139.75
949.633	6056.59
949.938	6088.91
950.244	6099.53
950.549	6113.31
950.854	6029.93
951.16	5994.67
951.465	6004.16
951.77	5890.95
952.075	5969.14
952.38	5886.43
952.685	5909.03
952.99	5820.67
953.294	5827.22
953.599	5777.73
953.904	5769.82
954.209	5697.73
954.513	5774.11
954.818	5729.14
955.122	5692.53
955.426	5668.13
955.731	5578.86
956.035	5557.17
956.339	5571.41
956.643	5544.06
956.948	5527.11
957.252	5456.38
957.556	5443.27
957.86	5457.96
958.163	5414.8
958.467	5416.61
958.771	5407.57
959.075	5380.45
959.378	5325.09
959.682	5279.66
959.985	5289.83
960.289	5234.01
960.592	5233.11
960.896	5219.55
961.199	5169.61
961.502	5165.09
961.805	5107.01
962.108	5064.53
962.411	5113.34
962.714	5036.51
963.017	5018.65
963.32	5066.11
963.623	4983.17
963.926	4977.75
964.228	4940.46
964.531	4944.53
964.833	4937.3
965.136	4874.48
965.438	4876.96
965.741	4834.25
966.043	4819.56
966.345	4793.12
966.648	4813.69
966.95	4805.55
967.252	4700.92
967.554	4737.76
967.856	4740.47
968.158	4651.88
968.46	4668.83
968.761	4679
969.063	4609.85
969.365	4541.83
969.666	4584.99
969.968	4523.07
970.269	4474.94
970.571	4476.52
970.872	4478.1
971.174	4450.76
971.475	4473.36
971.776	4422.96
972.077	4380.7
972.378	4399.46
972.679	4403.75
972.98	4363.98
973.281	4339.58
973.582	4345.22
973.883	4248.05
974.183	4234.95
974.484	4251.22
974.785	4228.84
975.085	4222.06
975.386	4246.7
975.686	4176.64
975.986	4143.2
976.287	4121.05
976.587	4126.02
976.887	4106.59
977.187	4074.95
977.487	4055.74
977.787	4004.67
978.087	4062.29
978.387	4039.24
978.687	4013.48
978.987	3973.03
979.286	3986.14
979.586	3918.57
979.885	3893.49
980.185	3877.21
980.484	3873.15
980.784	3866.82
981.083	3843.54
981.382	3815.75
981.682	3873.15
981.981	3820.04
982.28	3803.09
982.579	3747.05
982.878	3740.04
983.177	3743.66
983.475	3714.73
983.774	3672.25
984.073	3651.23
984.372	3641.74
984.67	3656.43
984.969	3652.59
985.267	3645.81
985.566	3617.79
985.864	3573.49
986.162	3581.4
986.461	3562.87
986.759	3531.69
987.057	3470.9
987.355	3480.16
987.653	3453.72
987.951	3474.74
988.249	3423.67
988.547	3446.27
988.844	3412.37
989.142	3401.97
989.44	3348.19
989.737	3342.09
990.035	3353.39
990.332	3302.09
990.63	3322.2
990.927	3309.09
991.224	3293.05
991.521	3232.94
991.819	3259.6
992.116	3271.13
992.413	3221.19
992.71	3206.95
993.006	3202.88
993.303	3126.5
993.6	3188.87
993.897	3133.96
994.193	3162.66
994.49	3102.55
994.787	3089.66
995.083	3081.3
995.379	3122.21
995.676	3049.44
995.972	3008.76
996.268	3013.51
996.565	3014.86
996.861	3001.53
997.157	2982.1
997.453	2921.99
997.749	2965.83
998.044	2921.76
998.34	2867.07
998.636	2909.1
998.932	2901.19
999.227	2863.91
999.523	2879.95
999.818	2843.12
1000.114	2800.41
1000.409	2795.66
1000.704	2783.23
1001	2742.1
1001.295	2740.75
1001.59	2725.38
1001.885	2703.91
1002.18	2710.01
1002.475	2672.73
1002.77	2657.81
1003.065	2611.71
1003.359	2683.8
1003.654	2625.72
1003.949	2604.03
1004.243	2593.41
1004.538	2589.11
1004.832	2547.08
1005.127	2574.65
1005.421	2537.14
1005.715	2517.93
1006.009	2509.57
1006.304	2496.46
1006.598	2458.95
1006.892	2459.4
1007.186	2440.42
1007.48	2440.19
1007.773	2405.61
1008.067	2418.95
1008.361	2414.2
1008.655	2369.23
1008.948	2367.65
1009.242	2352.51
1009.535	2331.04
1009.829	2336.01
1010.122	2334.88
1010.415	2330.36
1010.708	2282.91
1011.001	2264.38
1011.295	2250.36
1011.588	2239.74
1011.881	2202.46
1012.173	2219.86
1012.466	2207.88
1012.759	2189.35
1013.052	2203.59
1013.344	2162.68
1013.637	2147.77
1013.93	2136.24
1014.222	2102.12
1014.514	2122.68
1014.807	2103.25
1015.099	2056.7
1015.391	2073.87
1015.683	2067.54
1015.976	2053.53
1016.268	2018.05
1016.56	1995.91
1016.851	2002.01
1017.143	2006.53
1017.435	1973.76
1017.727	1968.34
1018.018	1964.04
1018.31	1953.88
1018.602	1919.3
1018.893	1908
1019.185	1890.6
1019.476	1912.75
1019.767	1904.16
1020.058	1859.87
1020.35	1829.13
1020.641	1827.78
1020.932	1823.94
1021.223	1842.24
1021.514	1809.47
1021.804	1792.07
1022.095	1756.82
1022.386	1755.01
1022.677	1744.84
1022.967	1761.56
1023.258	1715.69
1023.548	1713.66
1023.839	1689.02
1024.129	1689.7
1024.419	1690.38
1024.709	1665.52
1025	1658.52
1025.29	1635.24
1025.58	1599.08
1025.87	1621
1026.16	1593.43
1026.449	1601.34
1026.739	1577.84
1027.029	1610.83
1027.319	1570.83
1027.608	1564.73
1027.898	1555.02
1028.187	1537.39
1028.477	1529.03
1028.766	1508.01
1029.055	1504.85
1029.344	1488.12
1029.634	1507.33
1029.923	1472.98
1030.212	1459.2
1030.501	1439.31
1030.79	1456.04
1031.078	1423.72
1031.367	1396.15
1031.656	1403.38
1031.945	1377.17
1032.233	1394.34
1032.522	1358.41
1032.81	1346.89
1033.099	1357.96
1033.387	1335.81
1033.675	1347.56
1033.963	1364.06
1034.251	1289.71
1034.54	1328.81
1034.828	1318.86
1035.116	1295.81
1035.403	1265.08
1035.691	1282.48
1035.979	1250.84
1036.267	1259.43
1036.554	1227.11
1036.842	1232.31
1037.129	1217.4
1037.417	1206.1
1037.704	1206.55
1037.992	1217.4
1038.279	1185.08
1038.566	1185.99
1038.853	1185.99
1039.14	1185.99
