Data from White_reflection_standard_FLMS001491_093.txt Node
Date: Tue Feb 07 10:32:13 GMT 2017
User: dcchb
Spectrometer: FLMS00149
Trigger mode: 0
Integration Time (sec): 2.000000E-2
Scans to average: 10
Electric dark correction enabled: true
Nonlinearity correction enabled: false
Boxcar width: 0
XAxis mode: Wavelengths
Number of Pixels in Spectrum: 2048
>>>>>Begin Spectral Data<<<<<
341.393	-1.58
341.776	-1.58
342.16	-1.58
342.543	-46.55
342.927	-65.76
343.31	-80.68
343.693	-56.72
344.077	-87.91
344.46	-76.38
344.843	-41.35
345.226	-37.97
345.61	-37.29
345.993	-18.08
346.376	-3.39
346.759	32.54
347.142	38.19
347.525	50.62
347.908	49.04
348.291	63.5
348.674	80.9
349.057	124.97
349.44	127.91
349.823	145.76
350.206	175.59
350.588	242.48
350.971	257.39
351.354	255.59
351.737	291.07
352.119	302.14
352.502	320.44
352.884	334.23
353.267	297.39
353.65	340.1
354.032	367.22
354.414	350.95
354.797	374.45
355.179	389.82
355.562	370.84
355.944	371.74
356.326	388.46
356.709	399.09
357.091	409.03
357.473	404.51
357.855	405.64
358.238	403.38
358.62	422.59
359.002	416.49
359.384	401.8
359.766	415.36
360.148	378.97
360.53	412.64
360.912	423.27
361.294	431.4
361.676	421.01
362.057	421.46
362.439	399.99
362.821	424.62
363.203	405.41
363.584	399.54
363.966	419.42
364.348	414.45
364.729	410.38
365.111	420.55
365.493	389.82
365.874	409.25
366.256	403.83
366.637	416.94
367.019	408.12
367.4	413.55
367.781	422.36
368.163	416.71
368.544	428.92
368.925	442.93
369.306	437.73
369.688	434.34
370.069	456.71
370.45	425.75
370.831	433.66
371.212	451.51
371.593	443.15
371.974	428.92
372.355	439.99
372.736	453.77
373.117	448.35
373.498	437.73
373.879	437.28
374.26	441.34
374.641	451.97
375.021	410.84
375.402	472.98
375.783	488.35
376.163	501.23
376.544	487.22
376.925	480.89
377.305	498.29
377.686	509.59
378.066	500.78
378.447	526.31
378.827	518.63
379.208	504.17
379.588	521.34
379.968	507.33
380.349	529.93
380.729	513.21
381.109	539.42
381.489	554.56
381.87	542.36
382.25	549.36
382.63	543.04
383.01	555.69
383.39	562.47
383.77	569.93
384.15	579.65
384.53	579.87
384.91	595.92
385.29	592.3
385.67	607.22
386.049	608.57
386.429	612.41
386.809	616.48
387.189	629.59
387.568	616.25
387.948	628.23
388.328	659.87
388.707	649.47
389.087	662.58
389.466	654.9
389.846	695.35
390.225	675.91
390.605	686.99
390.984	697.16
391.363	727.44
391.743	729.47
392.122	739.19
392.501	715.91
392.881	738.74
393.26	736.03
393.639	778.74
394.018	749.58
394.397	758.85
394.776	789.81
395.155	770.83
395.534	784.39
395.913	813.31
396.292	807.21
396.671	823.93
397.05	822.35
397.429	839.3
397.808	842.46
398.186	856.25
398.565	864.84
398.944	858.73
399.323	884.95
399.701	906.64
400.08	872.75
400.458	916.59
400.837	930.37
401.215	929.92
401.594	936.47
401.972	937.83
402.351	972.63
402.729	961.56
403.107	976.92
403.486	983.02
403.864	990.03
404.242	999.3
404.62	1000.43
404.999	1035.68
405.377	1044.94
405.755	1053.08
406.133	1060.31
406.511	1080.2
406.889	1095.34
407.267	1124.04
407.645	1126.07
408.023	1165.85
408.401	1147.54
408.779	1192.29
409.156	1190.25
409.534	1205.62
409.912	1209.46
410.29	1253.53
410.667	1262.57
411.045	1258.5
411.422	1289.68
411.8	1293.98
412.178	1322.9
412.555	1377.36
412.933	1352.96
413.31	1387.08
413.687	1417.36
414.065	1418.49
414.442	1443.8
414.819	1469.34
415.197	1460.98
415.574	1530.81
415.951	1538.26
416.328	1539.39
416.705	1526.29
417.082	1536.91
417.46	1568.77
417.837	1601.09
418.214	1584.59
418.591	1604.03
418.967	1624.36
419.344	1632.27
419.721	1633.4
420.098	1656.23
420.475	1709.11
420.852	1698.03
421.228	1728.09
421.605	1744.59
421.982	1752.5
422.358	1774.42
422.735	1790.46
423.111	1805.6
423.488	1849.89
423.864	1840.18
424.241	1863.23
424.617	1929.21
424.994	1913.17
425.37	1944.36
425.746	1962.43
426.123	1984.35
426.499	2028.65
426.875	2051.02
427.251	2079.72
427.627	2114.07
428.003	2130.57
428.379	2155.65
428.756	2168.98
429.132	2200.17
429.507	2257.12
429.883	2295.76
430.259	2286.72
430.635	2324.68
431.011	2360.39
431.387	2427.73
431.763	2461.86
432.138	2463.21
432.514	2546.6
432.89	2522.65
433.265	2569.2
433.641	2602.64
434.016	2619.37
434.392	2655.07
434.767	2676.77
435.143	2708.63
435.518	2777.78
435.894	2789.53
436.269	2819.36
436.644	2844.22
437.02	2906.82
437.395	2941.84
437.77	2967.38
438.145	3015.74
438.52	3004.89
438.895	3049.19
439.271	3063.87
439.646	3120.82
440.021	3146.81
440.395	3192.91
440.77	3152.91
441.145	3201.05
441.52	3261.61
441.895	3289.86
442.27	3316.52
442.645	3334.15
443.019	3395.62
443.394	3356.52
443.769	3422.96
444.143	3363.3
444.518	3453.02
444.892	3431.32
445.267	3500.25
445.641	3555.16
446.016	3566.23
446.39	3644.2
446.764	3665.21
447.139	3610.75
447.513	3661.15
447.887	3673.35
448.262	3696.63
448.636	3713.57
449.01	3795.61
449.384	3787.47
449.758	3795.15
450.132	3922.61
450.506	3935.04
450.88	3954.47
451.254	3960.12
451.628	4000.12
452.002	4076.95
452.376	4109.04
452.75	4143.85
453.123	4184.07
453.497	4258.42
453.871	4252.54
454.244	4365.76
454.618	4423.61
454.992	4419.54
455.365	4447.57
455.739	4547.45
456.112	4622.25
456.486	4666.09
456.859	4687.79
457.232	4844.84
457.606	4812.98
457.979	4885.52
458.352	4993.77
458.725	5046.87
459.099	5050.04
459.472	5215.23
459.845	5226.98
460.218	5257.26
460.591	5309.01
460.964	5309.69
461.337	5490.93
461.71	5592.4
462.083	5694.99
462.456	5678.95
462.829	5656.12
463.201	5790.36
463.574	5860.64
463.947	5913.06
464.32	6099.95
464.692	6077.81
465.065	6137.92
465.438	6235.09
465.81	6297.69
466.183	6406.39
466.555	6472.37
466.928	6609.77
467.3	6547.62
467.672	6672.82
468.045	6887.73
468.417	6876.88
468.789	6930.67
469.161	7056.99
469.534	7165.46
469.906	7329.98
470.278	7361.84
470.65	7439.8
471.022	7602.51
471.394	7776.07
471.766	7822.62
472.138	7919.57
472.51	8110.07
472.882	8254.47
473.253	8310.97
473.625	8440.46
473.997	8675.25
474.369	8670.51
474.74	8825.08
475.112	8945.98
475.484	9114.56
475.855	9209.93
476.227	9289.7
476.598	9627.54
476.97	9662.8
477.341	9971.04
477.713	10117.47
478.084	10134.65
478.455	10435.66
478.827	10566.05
479.198	10800.17
479.569	10835.65
479.94	11058.69
480.311	11232.47
480.682	11476.76
481.053	11744.1
481.424	11912.46
481.795	11996.97
482.166	12293.01
482.537	12456.85
482.908	12739.55
483.279	12777.07
483.65	13030.39
484.021	13297.05
484.391	13394.68
484.762	13573.43
485.133	13713.54
485.503	13928.9
485.874	14206.18
486.244	14363.01
486.615	14681.65
486.985	14762.78
487.356	15059.72
487.726	15194.18
488.097	15485.69
488.467	15530.67
488.837	15862.86
489.207	16112.34
489.578	16228.95
489.948	16466.46
490.318	16782.16
490.688	16727.92
491.058	17048.14
491.428	17254.24
491.798	17435.02
492.168	17837.5
492.538	17766.99
492.908	18024.61
493.278	18279.07
493.648	18335.79
494.017	18658.94
494.387	18844.7
494.757	18911.37
495.126	19086.73
495.496	19167.18
495.866	19451.69
496.235	19554.97
496.605	19744.57
496.974	19838.35
497.344	20087.38
497.713	20230.88
498.082	20333.7
498.452	20583.41
498.821	20633.58
499.19	20779.11
499.559	21072.21
499.928	21247.12
500.298	21250.29
500.667	21563.05
501.036	21562.6
501.405	21679.43
501.774	21808.01
502.143	21898.86
502.512	22098.18
502.88	22358.96
503.249	22332.29
503.618	22474.66
503.987	22697.93
504.356	22780.87
504.724	22917.14
505.093	23067.19
505.462	23203.46
505.83	23418.59
506.199	23598.48
506.567	23970.22
506.936	23875.98
507.304	24177.22
507.672	24377.44
508.041	24463.76
508.409	24621.05
508.777	24809.29
509.145	24955.73
509.514	25040.47
509.882	25274.82
510.25	25378.32
510.618	25468.48
510.986	25704.63
511.354	25849.26
511.722	26221.68
512.09	26413.77
512.458	26413.54
512.826	26701.22
513.193	26778.96
513.561	26917.26
513.929	27075.22
514.297	27450.8
514.664	27540.29
515.032	27729.44
515.4	28039.71
515.767	28094.63
516.135	28313.61
516.502	28220.27
516.869	28735.74
517.237	28916.08
517.604	28816.42
517.972	29174.83
518.339	29488.04
518.706	29490.75
519.073	29694.59
519.44	29983.84
519.808	30326.21
520.175	30239.2
520.542	30701.79
520.909	30788.34
521.276	30918.06
521.643	31282.57
522.009	31522.11
522.376	31724.59
522.743	32013.85
523.11	32278.7
523.477	32635.98
523.843	32688.63
524.21	33063.31
524.577	33353.47
524.943	33471.89
525.31	33549.85
525.676	33822.84
526.043	34191.87
526.409	34335.14
526.776	34752.53
527.142	34880.89
527.508	35097.83
527.874	35333.99
528.241	35450.82
528.607	35669.34
528.973	35874.08
529.339	35882.9
529.705	36411.25
530.071	36707.06
530.437	36902.76
530.803	37109.53
531.169	37307.95
531.535	37061.85
531.901	37510.43
532.267	37696.18
532.632	37946.35
532.998	38022.96
533.364	38288.03
533.73	38252.33
534.095	38725.31
534.461	38815.48
534.826	38972.08
535.192	39008.92
535.557	39315.35
535.923	39348.34
536.288	39548.34
536.653	39888.44
537.019	39659.52
537.384	39937.03
537.749	40237.36
538.114	40268.77
538.479	40343.57
538.845	40568.88
539.21	40500.4
539.575	40853.62
539.94	40784.01
540.305	41166.83
540.67	41145.58
541.034	41337.22
541.399	41616.31
541.764	41739.92
542.129	41752.12
542.494	41850.2
542.858	42019.01
543.223	42094.03
543.587	42299.45
543.952	42223.3
544.316	42551.88
544.681	42454.48
545.045	42705.54
545.41	42860.34
545.774	43199.77
546.138	42997.29
546.503	43287.68
546.867	43256.49
547.231	43717.49
547.595	43683.6
547.959	43798.17
548.324	43884.72
548.688	44098.73
549.052	44228.89
549.416	44301.89
549.779	44509.11
550.143	44514.08
550.507	44889.44
550.871	44995.65
551.235	44959.04
551.599	45313.61
551.962	45333.95
552.326	45499.82
552.689	45748.85
553.053	45643.55
553.417	45721.06
553.78	46364.88
554.143	46167.15
554.507	46446.01
554.87	46420.7
555.234	46917.41
555.597	46655.95
555.96	46935.94
556.323	47193.34
556.686	47159.21
557.05	47498.41
557.413	47516.49
557.776	47670.16
558.139	48027.21
558.502	48082.8
558.865	48205.96
559.228	48463.58
559.59	48519.18
559.953	48718.94
560.316	49013.63
560.679	49046.39
561.041	49206.84
561.404	49447.51
561.767	49592.82
562.129	49547.4
562.492	50011.34
562.854	49941.51
563.217	49862.19
563.579	50210.88
563.941	50328.62
564.304	50480.71
564.666	50857.19
565.028	50848.15
565.39	50935.61
565.753	51141.48
566.115	51285.88
566.477	51492.43
566.839	51466.44
567.201	51691.52
567.563	51742.59
567.925	51958.86
568.287	52004.51
568.648	52119.53
569.01	52346.87
569.372	52475.91
569.734	52428.9
570.095	52600.42
570.457	52743.7
570.819	52806.52
571.18	52864.82
571.542	52924.03
571.903	53029.79
572.265	53120.64
572.626	53242.44
572.987	53328.99
573.349	53363.34
573.71	53483.34
574.071	53590.68
574.432	53659.15
574.794	53927.17
575.155	53807.62
575.516	53791.35
575.877	54002.42
576.238	53927.85
576.599	54024.34
576.96	54100.05
577.32	54102.98
577.681	54266.82
578.042	54314.96
578.403	54333.71
578.763	54354.95
579.124	54392.69
579.485	54519.24
579.845	54575.29
580.206	54551.33
580.566	54594.04
580.927	54581.62
581.287	54634.95
581.648	54562.63
582.008	54750.2
582.368	54663.65
582.728	54777.77
583.089	54688.28
583.449	54709.75
583.809	54738.22
584.169	54807.15
584.529	54816.41
584.889	54958.1
585.249	54778.45
585.609	54709.75
585.969	54883.75
586.329	54768.05
586.688	54791.78
587.048	54815.73
587.408	54738.67
587.768	54852.12
588.127	54846.47
588.487	54718.34
588.846	54963.98
589.206	54823.87
589.565	54769.86
589.925	54928.73
590.284	54837.2
590.643	54869.07
591.003	54967.59
591.362	55059.34
591.721	55009.4
592.08	54924.66
592.44	55027.71
592.799	55086.69
593.158	54970.98
593.517	54935.05
593.876	55055.95
594.235	55015.95
594.593	55053.69
594.952	55045.56
595.311	54980.7
595.67	55110.64
596.029	55184.99
596.387	55178.66
596.746	55183.41
597.104	55074.26
597.463	55111.32
597.822	55301.14
598.18	55099.79
598.538	55033.36
598.897	55297.53
599.255	55061.83
599.613	55430.18
599.972	55207.14
600.33	55343.63
600.688	55165.56
601.046	55337.08
601.404	55427.7
601.762	55455.72
602.12	55506.11
602.478	55480.8
602.836	55530.74
603.194	55410.97
603.552	55528.48
603.91	55389.5
604.268	55539.33
604.625	55400.58
604.983	55566
605.341	55449.84
605.698	55606
606.056	55732.09
606.413	55600.12
606.771	55719.66
607.128	55771.64
607.485	55663.17
607.843	55613
608.2	55817.06
608.557	55950.85
608.914	55714.02
609.272	55955.59
609.629	55944.29
609.986	56036.04
610.343	55964.4
610.7	56098.86
611.057	56024.97
611.414	56099.09
611.771	56057.96
612.127	56240.78
612.484	56117.39
612.841	56152.87
613.198	56159.88
613.554	56095.47
613.911	56255.02
614.267	56249.59
614.624	56177.28
614.98	56280.78
615.337	56438.97
615.693	56318.97
616.05	56347.22
616.406	56518.51
616.762	56360.33
617.118	56416.37
617.475	56360.33
617.831	56474.67
618.187	56438.06
618.543	56514.67
618.899	56701.56
619.255	56593.77
619.611	56545.18
619.967	56627.44
620.323	56633.77
620.678	56597.38
621.034	56489.36
621.39	56517.16
621.746	56542.69
622.101	56780.2
622.457	56526.42
622.812	56560.77
623.168	56601
623.523	56639.64
623.879	56739.3
624.234	56513.32
624.589	56636.48
624.945	56625.4
625.3	56693.65
625.655	56567.55
626.01	56621.79
626.365	56700.2
626.72	56619.53
627.075	56601.22
627.43	56565.97
627.785	56523.26
628.14	56574.11
628.495	56607.55
628.85	56610.26
629.205	56494.79
629.559	56621.79
629.914	56489.14
630.269	56535.24
630.623	56392.19
630.978	56405.07
631.332	56507.21
631.687	56478.51
632.041	56443.26
632.396	56432.87
632.75	56316.26
633.104	56319.42
633.459	56158.3
633.813	56221.8
634.167	56154.68
634.521	56144.96
634.875	56206.21
635.229	56083.05
635.583	56003.95
635.937	55939.32
636.291	55961.01
636.645	55948.13
636.999	55948.59
637.352	55892.99
637.706	55733.22
638.06	55874.46
638.413	55839.89
638.767	55718.31
639.121	55829.94
639.474	55636.96
639.828	55628.59
640.181	55668.82
640.534	55645.09
640.888	55568.71
641.241	55478.54
641.594	55561.93
641.947	55538.65
642.301	55497.07
642.654	55424.76
643.007	55451.42
643.36	55321.03
643.713	55356.51
644.066	55387.47
644.419	55145.89
644.771	55040.13
645.124	54731.89
645.477	54643.31
645.83	54507.04
646.182	54381.62
646.535	54296.88
646.888	54330.55
647.24	54149.08
647.593	54349.98
647.945	54310.21
648.298	54124.68
648.65	54188.63
649.002	53995.87
649.355	54093.04
649.707	54020.05
650.059	54133.27
650.411	54568.73
650.763	54409.42
651.115	54777.99
651.467	54606.02
651.819	54666.36
652.171	54480.15
652.523	54554.95
652.875	54496.42
653.227	54314.5
653.578	54569.19
653.93	54455.52
654.282	54300.72
654.633	54266.37
654.985	54227.05
655.337	54227.95
655.688	54229.53
656.039	54397.21
656.391	54054.17
656.742	54125.36
657.094	54140.5
657.445	54223.66
657.796	54209.2
658.147	54080.16
658.498	54050.33
658.849	54200.83
659.2	54079.71
659.551	54020.05
659.902	53975.08
660.253	54031.57
660.604	54024.34
660.955	53851.01
661.306	53984.8
661.656	53940.5
662.007	53936.43
662.358	53873.39
662.708	54021.4
663.059	53795.65
663.409	53771.47
663.76	53938.69
664.11	53876.32
664.461	53804.01
664.811	53860.73
665.161	53841.75
665.511	53676.1
665.862	53703.22
666.212	53752.03
666.562	53780.96
666.912	53665.93
667.262	53593.62
667.612	53586.16
667.962	53669.78
668.312	53545.48
668.662	53648.98
669.011	53573.51
669.361	53481.31
669.711	53500.06
670.06	53356.11
670.41	53429.56
670.76	53387.3
671.109	53486.73
671.459	53377.13
671.808	53329.45
672.157	53420.06
672.507	53103.01
672.856	53264.81
673.205	53166.96
673.554	53254.42
673.904	53195.21
674.253	53300.75
674.602	53197.47
674.951	52743.25
675.3	52597.94
675.649	53204.25
675.998	52986.86
676.346	53106.85
676.695	53140.3
677.044	52925.61
677.393	52993.63
677.741	53056.23
678.09	52982.79
678.438	52786.63
678.787	52926.52
679.135	52876.8
679.484	52587.09
679.832	52730.14
680.181	52612.63
680.529	52611.05
680.877	52636.81
681.225	52537.38
681.573	52780.53
681.922	52510.71
682.27	52292.41
682.618	52408.11
682.966	52341.22
683.314	52271.17
683.661	52238.63
684.009	52080.44
684.357	51984.4
684.705	51925.19
685.053	51924.74
685.4	51926.77
685.748	51789.15
686.095	51793.44
686.443	51612.65
686.79	51613.33
687.138	51640
687.485	51572.66
687.832	51533.33
688.18	51474.35
688.527	51350.74
688.874	51212.44
689.221	51230.74
689.568	51060.35
689.915	50861.49
690.262	50940.13
690.609	50816.74
690.956	50820.36
691.303	50547.37
691.65	50543.76
691.997	50501.5
692.344	50368.62
692.69	50275.06
693.037	50296.3
693.383	49976.99
693.73	50129.98
694.077	49882.53
694.423	49937.67
694.769	49774.28
695.116	49673.5
695.462	49672.37
695.808	49554.18
696.155	49479.38
696.501	49197.8
696.847	49261.08
697.193	48986.96
697.539	49041.65
697.885	48697.02
698.231	48689.34
698.577	48664.94
698.923	48605.73
699.269	48391.95
699.614	48353.76
699.96	48259.3
700.306	48274.66
700.651	48018.62
700.997	47921.23
701.342	47940.43
701.688	47796.48
702.033	47646.2
702.379	47731.63
702.724	47454.35
703.069	47558.07
703.415	47004.87
703.76	47169.61
704.105	47144.52
704.45	47037.18
704.795	46801.71
705.14	46737.98
705.485	46621.15
705.83	46502.05
706.175	46436.07
706.52	46356.3
706.865	46188.62
707.209	46223.19
707.554	46168.96
707.899	46104.78
708.243	45853.48
708.588	45715.41
708.932	45461.18
709.277	45475.19
709.621	45565.58
709.966	45190.22
710.31	45366.04
710.654	44987.29
710.998	45164.01
711.342	44996.33
711.687	44855.32
712.031	44652.16
712.375	44636.57
712.719	44631.82
713.063	44554.08
713.407	44657.36
713.75	44417.36
714.094	44371.71
714.438	44197.93
714.782	44227.09
715.125	44021.22
715.469	44121.1
715.812	43923.36
716.156	43857.15
716.499	43706.87
716.843	43636.82
717.186	43425.52
717.53	43698.06
717.873	43562.92
718.216	43468.91
718.559	43230.05
718.902	42979.21
719.246	43036.61
719.589	42913
719.932	42855.37
720.275	42881.81
720.617	42647.01
720.96	42758.2
721.303	42736.28
721.646	42579.45
721.989	42402.27
722.331	42593.23
722.674	42333.12
723.016	42395.72
723.359	42120.93
723.701	42350.52
724.044	42086.35
724.386	41773.36
724.729	42077.99
725.071	42008.61
725.413	41644.33
725.755	41681.16
726.097	41623.09
726.439	41402.53
726.782	41465.8
727.124	41632.13
727.465	41334.96
727.807	41340.16
728.149	41130.44
728.491	40990.56
728.833	41119.82
729.175	41023.33
729.516	40901.3
729.858	40919.83
730.199	40790.34
730.541	40791.02
730.882	40715.77
731.224	40846.16
731.565	40425.38
731.906	40556.22
732.248	40563.91
732.589	40270.58
732.93	40127.53
733.271	40312.16
733.612	40208.21
733.953	40348.32
734.294	40041.21
734.635	39927.54
734.976	40099.51
735.317	39821.78
735.658	39702.46
735.999	39784.72
736.339	39494.33
736.68	39707.43
737.021	39506.08
737.361	39391.28
737.702	39654.32
738.042	39357.61
738.383	39329.36
738.723	39415.69
739.063	39165.07
739.404	39158.74
739.744	39120.1
740.084	38977.73
740.424	38997.17
740.764	38830.17
741.104	38946.77
741.444	38693.9
741.784	38707.91
742.124	38795.36
742.464	38606.67
742.804	38531.64
743.143	38405.77
743.483	38445.77
743.823	38362.16
744.162	38201.03
744.502	38280.8
744.841	38146.79
745.181	38136.17
745.52	38016.85
745.86	38042.84
746.199	38004.42
746.538	37917.2
746.877	37873.58
747.216	37844.88
747.556	37566.24
747.895	37747.93
748.234	37462.29
748.573	37509.75
748.911	37422.74
749.25	37497.09
749.589	37259.59
749.928	37227.04
750.267	37133.03
750.605	37264.1
750.944	37048.52
751.283	36865.92
751.621	37008.29
751.96	36692.82
752.298	36864.34
752.636	36690.79
752.975	36491.7
753.313	36311.81
753.651	36548.87
753.989	36334.19
754.327	36149.33
754.666	35977.36
755.004	35901.2
755.342	36111.14
755.679	36030.01
756.017	35685.84
756.355	35751.6
756.693	35566.07
757.031	35693.3
757.368	35355.45
757.706	35306.42
758.044	35119.08
758.381	35302.57
758.719	35071.17
759.056	35120.43
759.394	34960.89
759.731	34716.6
760.068	34636.15
760.405	34603.38
760.743	34431.86
761.08	34548.24
761.417	34256.5
761.754	34194.13
762.091	34072.55
762.428	34041.59
762.765	34008.82
763.102	33964.08
763.438	33739.45
763.775	33508.05
764.112	33561.38
764.449	33651.32
764.785	33277.54
765.122	33275.74
765.458	33075.51
765.795	32955.97
766.131	33013.14
766.467	32852.92
766.804	32714.62
767.14	32576.09
767.476	32562.08
767.812	32452.48
768.148	32432.59
768.485	32236.21
768.821	31967.3
769.157	31989.67
769.492	31899.95
769.828	31819.5
770.164	31643.01
770.5	31422.45
770.836	31517.59
771.171	31213.64
771.507	31240.31
771.842	30979.98
772.178	30974.1
772.513	30861.11
772.849	30801.45
773.184	30686.88
773.519	30563.72
773.855	30421.57
774.19	30391.07
774.525	30294.34
774.86	30162.14
775.195	30087.34
775.53	29966.9
775.865	29646.68
776.2	29625.66
776.535	29421.6
776.87	29464.54
777.205	29391.32
777.539	29264.77
777.874	29189.06
778.209	28876.53
778.543	28919.01
778.878	28732.8
779.212	28676.99
779.547	28633.82
779.881	28669.98
780.215	28331.01
780.55	28350.22
780.884	28112.71
781.218	28245.36
781.552	28071.8
781.886	28017.34
782.22	27908.42
782.554	27709.1
782.888	27413.74
783.222	27387.08
783.556	27350.47
783.889	27194.99
784.223	26960.2
784.557	27006.97
784.89	27032.06
785.224	26937.37
785.557	26739.64
785.891	26630.26
786.224	26682.46
786.558	26653.99
786.891	26325.64
787.224	26223.49
787.557	26193.44
787.891	26066.43
788.224	26103.27
788.557	26080.44
788.89	26009.71
789.223	26013.33
789.556	25721.58
789.888	25557.07
790.221	25497.86
790.554	25341.48
790.887	25346.9
791.219	25218.32
791.552	25191.43
791.884	24959.8
792.217	24971.32
792.549	24780.14
792.882	24617.43
793.214	24600.94
793.546	24651.1
793.879	24521.16
794.211	24372.24
794.543	24428.51
794.875	24378.57
795.207	24331.79
795.539	24162.08
795.871	24102.87
796.203	23903.78
796.535	23783.33
796.867	23734.52
797.198	23735.2
797.53	23649.32
797.862	23455.2
798.193	23692.48
798.525	23450.91
798.856	23527.97
799.188	23181.54
799.519	23069.9
799.85	22972.96
800.182	23001.66
800.513	23067.19
800.844	22801.43
801.175	22914.65
801.506	22896.57
801.837	22648.67
802.168	22723.7
802.499	22622.91
802.83	22510.37
803.161	22375.46
803.491	22448.68
803.822	22371.84
804.153	22314.44
804.483	22076.71
804.814	22020.44
805.145	21924.85
805.475	22002.36
805.805	21895.92
806.136	21791.97
806.466	21818.86
806.796	21863.38
807.126	21644.18
807.457	21558.3
807.787	21606.21
808.117	21400.79
808.447	21356.95
808.777	21333.9
809.107	21325.99
809.436	21112.44
809.766	21159.44
810.096	21132.55
810.426	21032.89
810.755	20980.92
811.085	20952.44
811.414	20831.99
811.744	20630.42
812.073	20727.82
812.403	20702.73
812.732	20600.81
813.061	20712.9
813.39	20474.04
813.719	20446.47
814.049	20486.69
814.378	20437.88
814.707	20379.35
815.036	20306.81
815.365	20192.69
815.693	19990.21
816.022	20077.44
816.351	20036.31
816.68	19815.07
817.008	19997.21
817.337	19652.82
817.665	19619.37
817.994	19751.35
818.322	19662.53
818.651	19562.2
818.979	19600.61
819.307	19566.49
819.636	19595.42
819.964	19374.63
820.292	19480.17
820.62	19485.14
820.948	19268.42
821.276	19392.26
821.604	19380.73
821.932	19509.32
822.259	19371.69
822.587	19373.28
822.915	19408.3
823.243	19458.25
823.57	19342.32
823.898	19340.28
824.225	19295.54
824.553	19168.54
824.88	19329.66
825.207	19344.58
825.535	19273.39
825.862	19312.71
826.189	19263
826.516	19247.18
826.843	19421.64
827.17	19295.31
827.497	19292.15
827.824	19215.31
828.151	19223.9
828.478	19259.83
828.805	19315.2
829.131	19280.85
829.458	19183
829.785	19110.23
830.111	19194.3
830.438	19192.94
830.764	19264.35
831.09	19269.32
831.417	19076.56
831.743	19152.72
832.069	19126.95
832.395	19113.4
832.722	19127.63
833.048	19043.34
833.374	18982.78
833.7	18955.89
834.026	19018.26
834.351	19010.35
834.677	19011.7
835.003	19055.54
835.329	18884.02
835.654	18924.93
835.98	18857.81
836.306	18860.52
836.631	18750.24
836.956	18844.93
837.282	18839.05
837.607	18735.78
837.932	18672.05
838.258	18691.03
838.583	18614.88
838.908	18601.54
839.233	18579.85
839.558	18491.94
839.883	18451.27
840.208	18365.17
840.533	18402.68
840.858	18361.1
841.182	18400.19
841.507	18310.03
841.832	18248.33
842.156	18213.08
842.481	18223.48
842.805	18172.63
843.13	18144.83
843.454	18118.39
843.778	18049.92
844.103	17974.89
844.427	17969.02
844.751	17931.73
845.075	17789.14
845.399	17809.02
845.723	17644.06
846.047	17738.29
846.371	17537.17
846.695	17629.82
847.019	17489.94
847.343	17351.86
847.666	17388.7
847.99	17068.25
848.313	17237.29
848.637	17108.25
848.96	17100.79
849.284	17027.8
849.607	16840.01
849.931	16955.26
850.254	16720.46
850.577	16682.27
850.9	16545.78
851.223	16529.73
851.546	16385.78
851.869	16300.36
852.192	16396.86
852.515	16333.13
852.838	16245.22
853.161	16232.12
853.483	16186.02
853.806	16023.31
854.129	15929.75
854.451	15897.44
854.774	15906.7
855.096	15845.46
855.419	15663.54
855.741	15768.4
856.063	15641.17
856.385	15656.31
856.708	15535.18
857.03	15499.71
857.352	15521.85
857.674	15486.15
857.996	15331.12
858.318	15371.35
858.64	15339.71
858.961	15361.86
859.283	15258.36
859.605	15155.08
859.926	15203.67
860.248	15101.75
860.57	15052.03
860.891	15017.46
861.212	15038.7
861.534	14941.75
861.855	14850.68
862.176	14955.76
862.498	14909.66
862.819	14840.29
863.14	14797.35
863.461	14712.83
863.782	14685.72
864.103	14742.21
864.424	14685.94
864.745	14665.15
865.065	14614.31
865.386	14492.27
865.707	14590.8
866.027	14577.24
866.348	14449.79
866.668	14508.77
866.989	14424.03
867.309	14338.83
867.63	14427.19
867.95	14393.29
868.27	14318.04
868.59	14290.25
868.91	14270.36
869.23	14213.19
869.55	14219.74
869.87	14257.25
870.19	14192.85
870.51	14130.48
870.83	14154.2
871.15	14051.16
871.469	14125.5
871.789	14132.28
872.109	14063.36
872.428	13986.75
872.748	14011.16
873.067	13976.58
873.386	14005.96
873.706	13980.88
874.025	13919.18
874.344	13914.89
874.663	13942.46
874.982	13890.26
875.301	13855.45
875.62	13724.38
875.939	13749.69
876.258	13822.01
876.577	13660.21
876.896	13661.56
877.214	13686.42
877.533	13632.86
877.852	13636.7
878.17	13504.96
878.489	13615.01
878.807	13613.88
879.125	13541.79
879.444	13516.03
879.762	13431.96
880.08	13553.99
880.398	13448.01
880.716	13448.69
881.034	13347.9
881.352	13410.49
881.67	13308.58
881.988	13389.03
882.306	13253.66
882.624	13274
882.941	13178.86
883.259	13098.41
883.577	13107.45
883.894	13107
884.212	13042.82
884.529	12977.06
884.846	13005.76
885.164	12946.78
885.481	12974.35
885.798	12952.65
886.115	12809.38
886.432	12819.55
886.75	12738.87
887.067	12826.33
887.383	12692.77
887.7	12825.43
888.017	12711.08
888.334	12696.16
888.651	12708.37
888.967	12589.5
889.284	12533
889.6	12501.14
889.917	12449.39
890.233	12473.12
890.55	12376.85
890.866	12351.31
891.182	12332.33
891.498	12302.28
891.815	12231.54
892.131	12247.14
892.447	12193.13
892.763	12195.61
893.079	12111.77
893.395	12060.47
893.71	12154.26
894.026	12018.89
894.342	11916.3
894.657	11894.15
894.973	11910.65
895.289	11889.63
895.604	11816.19
895.92	11795.85
896.235	11736.64
896.55	11629.3
896.865	11668.39
897.181	11638.34
897.496	11665.68
897.811	11560.37
898.126	11533.03
898.441	11421.62
898.756	11400.83
899.071	11330.1
899.386	11346.82
899.7	11244.22
900.015	11238.35
900.33	11185.02
900.644	11156.99
900.959	11228.86
901.273	11059.6
901.588	11039.03
901.902	10957.68
902.216	11004.91
902.531	10881.3
902.845	10936.66
903.159	10846.49
903.473	10891.24
903.787	10716.55
904.101	10693.73
904.415	10746.16
904.729	10669.55
905.042	10519.5
905.356	10516.33
905.67	10572.83
905.984	10455.77
906.297	10455.54
906.611	10371.93
906.924	10453.06
907.237	10312.05
907.551	10267.3
907.864	10292.16
908.177	10247.64
908.491	10209
908.804	10128.55
909.117	10064.37
909.43	9983.92
909.743	9973.3
910.056	9945.73
910.368	9931.94
910.681	9880.87
910.994	9819.4
911.307	9803.13
911.619	9747.09
911.932	9743.25
912.244	9670.03
912.557	9652.18
912.869	9602.46
913.181	9538.96
913.494	9528.11
913.806	9427.55
914.118	9404.72
914.43	9463.93
914.742	9372.86
915.054	9266.42
915.366	9295.57
915.678	9244.5
915.99	9172.41
916.302	9111.17
916.613	9050.84
916.925	9126.31
917.236	9075.47
917.548	8953.66
917.859	8974.91
918.171	8914.57
918.482	8809.26
918.794	8876.83
919.105	8822.14
919.416	8745.08
919.727	8751.63
920.038	8753.67
920.349	8640
920.66	8607.23
920.971	8563.39
921.282	8689.94
921.593	8533.56
921.903	8455.82
922.214	8435.26
922.525	8396.16
922.835	8370.85
923.146	8325.2
923.456	8324.53
923.767	8285.88
924.077	8235.26
924.387	8236.17
924.697	8096.96
925.008	8092.44
925.318	8095.83
925.628	8065.78
925.938	8008.6
926.248	7940.13
926.558	7953.24
926.867	7869.85
927.177	7885.67
927.487	7847.7
927.796	7792.34
928.106	7730.64
928.416	7731.77
928.725	7720.02
929.034	7664.21
929.344	7641.83
929.653	7591.21
929.962	7598.22
930.271	7519.58
930.581	7511.21
930.89	7484.1
931.199	7386.25
931.508	7376.08
931.817	7349.41
932.125	7300.82
932.434	7313.25
932.743	7219.02
933.051	7209.08
933.36	7202.07
933.669	7185.8
933.977	7134.95
934.286	7075.29
934.594	7109.64
934.902	7036.65
935.21	7015.63
935.519	6984.22
935.827	6944
936.135	6970.21
936.443	6904.68
936.751	6803.44
937.059	6805.47
937.367	6716.21
937.674	6795.98
937.982	6733.38
938.29	6708.52
938.597	6697.23
938.905	6612.71
939.213	6594.63
939.52	6533.84
939.827	6580.62
940.135	6534.07
940.442	6522.09
940.749	6431.02
941.056	6446.61
941.363	6366.16
941.67	6429.44
941.977	6308.08
942.284	6301.53
942.591	6281.87
942.898	6225.6
943.205	6282.32
943.511	6205.03
943.818	6164.58
944.125	6141.31
944.431	6154.19
944.738	6072.83
945.044	6064.47
945.35	6041.2
945.657	6011.14
945.963	5979.05
946.269	5958.49
946.575	6000.75
946.881	5873.29
947.187	5840.3
947.493	5879.62
947.799	5835.55
948.105	5835.33
948.41	5724.37
948.716	5765.95
949.022	5748.1
949.327	5752.39
949.633	5670.59
949.938	5695.44
950.244	5641.43
950.549	5665.84
950.854	5553.3
951.16	5549.46
951.465	5504.04
951.77	5487.77
952.075	5463.81
952.38	5492.06
952.685	5447.99
952.99	5429.46
953.294	5382.01
953.599	5341.33
953.904	5332.97
954.209	5286.19
954.513	5285.51
954.818	5266.75
955.122	5224.5
955.426	5243.25
955.731	5222.46
956.035	5198.06
956.339	5124.39
956.643	5171.16
956.948	5096.59
957.252	5070.38
957.556	5116.02
957.86	5045.52
958.163	5047.1
958.467	5054.33
958.771	5000.32
959.075	4974.11
959.378	4924.62
959.682	4912.41
959.985	4878.74
960.289	4849.59
960.592	4865.18
960.896	4820.66
961.199	4825.86
961.502	4788.35
961.805	4744.96
962.108	4746.77
962.411	4726.66
962.714	4646.43
963.017	4652.98
963.32	4635.13
963.623	4628.35
963.926	4623.38
964.228	4593.33
964.531	4573.89
964.833	4568.24
965.136	4499.99
965.438	4518.75
965.741	4468.36
966.043	4463.61
966.345	4483.72
966.648	4415.25
966.95	4398.08
967.252	4376.16
967.554	4302.03
967.856	4365.31
968.158	4268.36
968.46	4300.23
968.761	4270.17
969.063	4264.97
969.365	4219.55
969.666	4232.88
969.968	4231.08
970.269	4165.31
970.571	4155.14
970.872	4141.59
971.174	4144.75
971.475	4148.14
971.776	4088.71
972.077	4064.53
972.378	4035.6
972.679	4041.25
972.98	4006.45
973.281	4000.12
973.582	3988.14
973.883	3989.5
974.183	3946.79
974.484	3906.11
974.785	3872.21
975.085	3893.23
975.386	3856.85
975.686	3854.59
975.986	3820.69
976.287	3891.2
976.587	3795.61
976.887	3757.64
977.187	3790.63
977.487	3754.93
977.787	3714.48
978.087	3711.31
978.387	3714.7
978.687	3700.02
978.987	3688.94
979.286	3646.46
979.586	3610.53
979.885	3620.02
980.185	3647.59
980.484	3569.85
980.784	3575.05
981.083	3542.73
981.382	3535.95
981.682	3533.69
981.981	3524.43
982.28	3495.05
982.579	3468.61
982.878	3469.74
983.177	3422.51
983.475	3470.87
983.774	3395.84
984.073	3374.83
984.372	3395.84
984.67	3367.82
984.969	3392.91
985.267	3307.48
985.566	3300.48
985.864	3302.96
986.162	3255.06
986.461	3275.62
986.759	3256.64
987.057	3260.03
987.355	3216.41
987.653	3243.3
987.951	3226.13
988.249	3210.09
988.547	3157.21
988.844	3172.57
989.142	3113.14
989.44	3090.99
989.737	3127.38
990.035	3093.7
990.332	3076.76
990.63	3090.31
990.927	3053.93
991.224	3039.92
991.521	3037.21
991.819	2993.14
992.116	2963.99
992.413	3007.83
992.71	2961.73
993.006	2903.43
993.303	2927.61
993.6	2917.89
993.897	2913.37
994.193	2917.21
994.49	2884.44
994.787	2869.53
995.083	2854.39
995.379	2829.53
995.676	2848.06
995.972	2820.94
996.268	2789.08
996.565	2761.51
996.861	2781.62
997.157	2757.44
997.453	2707.73
997.749	2710.21
998.044	2704.79
998.34	2663.21
998.636	2673.38
998.932	2675.18
999.227	2649.2
999.523	2624.56
999.818	2633.83
1000.114	2551.8
1000.409	2584.79
1000.704	2574.4
1001	2536.88
1001.295	2507.05
1001.59	2533.27
1001.885	2492.36
1002.18	2476.09
1002.475	2466.38
1002.77	2527.17
1003.065	2479.71
1003.359	2424.8
1003.654	2427.51
1003.949	2398.13
1004.243	2392.25
1004.538	2376.66
1004.832	2365.36
1005.127	2368.53
1005.421	2341.86
1005.715	2331.69
1006.009	2312.71
1006.304	2308.41
1006.598	2284.01
1006.892	2275.19
1007.186	2240.17
1007.48	2266.16
1007.773	2238.13
1008.067	2229.55
1008.361	2217.12
1008.655	2224.35
1008.948	2194.74
1009.242	2195.2
1009.535	2163.11
1009.829	2166.72
1010.122	2163.78
1010.415	2116.78
1010.708	2130.11
1011.001	2124.46
1011.295	2085.59
1011.588	2101.41
1011.881	2065.48
1012.173	2059.38
1012.466	2036.33
1012.759	2035.65
1013.052	2025.94
1013.344	1984.13
1013.637	1997.24
1013.93	1971.7
1014.222	1990.91
1014.514	1937.35
1014.807	1925.6
1015.099	1931.93
1015.391	1892.38
1015.683	1912.04
1015.976	1862.78
1016.268	1876.56
1016.56	1872.72
1016.851	1880.4
1017.143	1846.28
1017.435	1849.44
1017.727	1829.56
1018.018	1805.38
1018.31	1789.11
1018.602	1783.46
1018.893	1774.87
1019.185	1763.12
1019.476	1748.2
1019.767	1735.77
1020.058	1744.59
1020.35	1712.95
1020.641	1689.45
1020.932	1733.97
1021.223	1676.79
1021.514	1663.01
1021.804	1642.67
1022.095	1632.05
1022.386	1656.45
1022.677	1641.99
1022.967	1618.04
1023.258	1589.56
1023.548	1559.73
1023.839	1583.46
1024.129	1545.04
1024.419	1601.54
1024.709	1563.57
1025	1541.65
1025.29	1525.61
1025.58	1500.75
1025.87	1497.36
1026.16	1493.07
1026.449	1481.99
1026.739	1486.51
1027.029	1472.73
1027.319	1460.07
1027.608	1416.91
1027.898	1445.61
1028.187	1418.27
1028.477	1420.98
1028.766	1430.7
1029.055	1392.28
1029.344	1373.98
1029.634	1361.77
1029.923	1370.81
1030.212	1376.91
1030.501	1352.96
1030.79	1336.24
1031.078	1332.39
1031.367	1319.51
1031.656	1323.81
1031.945	1293.53
1032.233	1282.68
1032.522	1276.35
1032.81	1248.55
1033.099	1247.42
1033.387	1266.86
1033.675	1239.97
1033.963	1225.73
1034.251	1223.92
1034.54	1226.86
1034.828	1224.83
1035.116	1212.17
1035.403	1189.8
1035.691	1185.96
1035.979	1184.83
1036.267	1171.72
1036.554	1190.7
1036.842	1152.29
1037.129	1138.73
1037.417	1131.95
1037.704	1133.08
1037.992	1097.15
1038.279	1131.27
1038.566	1108.45
1038.853	1108.45
1039.14	1108.45
