Data from white_wall_FLMS001491_061.txt Node
Date: Tue Feb 07 11:05:23 GMT 2017
User: dcchb
Spectrometer: FLMS00149
Trigger mode: 0
Integration Time (sec): 2.000000E-2
Scans to average: 10
Electric dark correction enabled: true
Nonlinearity correction enabled: false
Boxcar width: 0
XAxis mode: Wavelengths
Number of Pixels in Spectrum: 2048
>>>>>Begin Spectral Data<<<<<
341.393	4.21
341.776	4.21
342.16	4.21
342.543	-56.58
342.927	-72.63
343.31	-82.79
343.693	-82.57
344.077	-81.21
344.46	-41.21
344.843	-68.11
345.226	-26.07
345.61	-32.17
345.993	-16.58
346.376	-1.67
346.759	18.45
347.142	34.72
347.525	43.76
347.908	57.31
348.291	71.33
348.674	96.41
349.057	110.42
349.44	146.8
349.823	143.19
350.206	156.75
350.588	216.41
350.971	244.65
351.354	240.81
351.737	250.08
352.119	268.16
352.502	270.19
352.884	314.03
353.267	304.99
353.65	323.52
354.032	324.88
354.414	304.54
354.797	345.67
355.179	336.63
355.562	339.57
355.944	354.93
356.326	359.68
356.709	362.39
357.091	377.08
357.473	367.14
357.855	357.42
358.238	368.95
358.62	347.25
359.002	354.26
359.384	359.91
359.766	375.05
360.148	382.5
360.53	342.05
360.912	351.54
361.294	356.29
361.676	372.56
362.057	379.57
362.439	360.13
362.821	351.09
363.203	361.49
363.584	344.31
363.966	337.31
364.348	352.67
364.729	339.79
365.111	337.31
365.493	336.63
365.874	321.94
366.256	328.04
366.637	330.75
367.019	348.83
367.4	331.21
367.781	328.04
368.163	347.7
368.544	335.05
368.925	339.57
369.306	329.4
369.688	335.27
370.069	343.18
370.45	342.05
370.831	344.09
371.212	330.98
371.593	351.09
371.974	326.23
372.355	341.38
372.736	366.23
373.117	345.22
373.498	336.18
373.879	349.06
374.26	363.07
374.641	351.77
375.021	366.46
375.402	331.43
375.783	356.52
376.163	371.43
376.544	361.71
376.925	342.28
377.305	351.77
377.686	365.78
378.066	348.61
378.447	377.31
378.827	372.79
379.208	370.75
379.588	362.84
379.968	374.14
380.349	368.04
380.729	387.25
381.109	402.84
381.489	385.89
381.87	361.71
382.25	373.24
382.63	377.53
383.01	407.36
383.39	392.45
383.77	393.58
384.15	405.1
384.53	388.15
384.91	417.08
385.29	377.08
385.67	396.51
386.049	416.18
386.429	382.28
386.809	408.72
387.189	422.28
387.568	428.83
387.948	412.56
388.328	431.99
388.707	441.03
389.087	453.24
389.466	432.67
389.846	448.49
390.225	469.73
390.605	468.38
390.984	464.76
391.363	464.08
391.743	475.61
392.122	483.74
392.501	482.16
392.881	490.98
393.26	501.15
393.639	514.25
394.018	533.46
394.397	523.29
394.776	534.36
395.155	537.75
395.534	536.62
395.913	551.31
396.292	547.02
396.671	560.13
397.05	559.45
397.429	578.43
397.808	599.9
398.186	586.34
398.565	620.69
398.944	582.95
399.323	625.44
399.701	637.41
400.08	664.76
400.458	685.09
400.837	671.08
401.215	704.08
401.594	676.28
401.972	707.24
402.351	736.62
402.729	722.61
403.107	733.68
403.486	775.26
403.864	749.95
404.242	781.59
404.62	780.23
404.999	820.68
405.377	803.96
405.755	838.09
406.133	857.29
406.511	870.63
406.889	889.61
407.267	913.11
407.645	881.47
408.023	923.28
408.401	951.75
408.779	926.44
409.156	982.26
409.534	992.43
409.912	1005.76
410.29	1056.61
410.667	1073.33
411.045	1042.83
411.422	1094.35
411.8	1080.34
412.178	1133.22
412.555	1153.33
412.933	1152.43
413.31	1152.65
413.687	1205.99
414.065	1234.23
414.442	1231.97
414.819	1267.9
415.197	1263.16
415.574	1281.01
415.951	1298.41
416.328	1297.28
416.705	1318.98
417.082	1340.67
417.46	1330.28
417.837	1373.89
418.214	1370.05
418.591	1407.11
418.967	1413.66
419.344	1435.36
419.721	1449.59
420.098	1443.27
420.475	1487.79
420.852	1495.7
421.228	1512.42
421.605	1515.36
421.982	1572.53
422.358	1596.26
422.735	1626.77
423.111	1563.26
423.488	1654.11
423.864	1645.75
424.241	1643.04
424.617	1666.99
424.994	1682.58
425.37	1713.99
425.746	1725.07
426.123	1752.86
426.499	1734.11
426.875	1767.1
427.251	1795.12
427.627	1814.78
428.003	1874.22
428.379	1890.71
428.756	1907.21
429.132	1960.09
429.507	1932.07
429.883	1985.85
430.259	2043.25
430.635	2002.35
431.011	2058.39
431.387	2116.7
431.763	2162.12
432.138	2186.07
432.514	2168.22
432.89	2177.26
433.265	2263.58
433.641	2244.83
434.016	2292.06
434.392	2317.37
434.767	2363.92
435.143	2352.4
435.518	2412.73
435.894	2424.94
436.269	2473.97
436.644	2515.78
437.02	2549.23
437.395	2598.72
437.77	2583.58
438.145	2619.51
438.52	2643.46
438.895	2638.26
439.271	2636.91
439.646	2732.72
440.021	2755.77
440.395	2781.09
440.77	2742.44
441.145	2783.34
441.52	2864.7
441.895	2830.35
442.27	2875.32
442.645	2921.87
443.019	2961.87
443.394	2970.91
443.769	2981.08
444.143	2963.91
444.518	3020.4
444.892	3021.76
445.267	3063.79
445.641	3074.64
446.016	3103.56
446.39	3111.92
446.764	3141.98
447.139	3184.46
447.513	3208.19
447.887	3218.59
448.262	3253.16
448.636	3253.62
449.01	3297.68
449.384	3383.33
449.758	3353.5
450.132	3435.98
450.506	3473.5
450.88	3455.87
451.254	3477.34
451.628	3514.17
452.002	3552.36
452.376	3599.59
452.75	3649.76
453.123	3677.56
453.497	3750.78
453.871	3787.84
454.244	3869.19
454.618	3848.63
454.992	3920.72
455.365	4000.71
455.739	4046.81
456.112	4094.5
456.486	4101.95
456.859	4152.8
457.232	4244.78
457.606	4201.39
457.979	4260.14
458.352	4378.11
458.725	4459.23
459.099	4460.14
459.472	4555.05
459.845	4634.82
460.218	4677.98
460.591	4690.19
460.964	4729.28
461.337	4823.74
461.71	4888.15
462.083	4976.28
462.456	4972.89
462.829	5014.7
463.201	5165.43
463.574	5150.06
463.947	5188.71
464.32	5350.51
464.692	5374.69
465.065	5447.68
465.438	5491.52
465.81	5587.11
466.183	5631.18
466.555	5798.63
466.928	5836.37
467.3	5840.44
467.672	5931.74
468.045	6033.43
468.417	6090.6
468.789	6139.87
469.161	6235.23
469.534	6347.54
469.906	6494.21
470.278	6515.68
470.65	6675.45
471.022	6728.78
471.394	6850.58
471.766	6980.97
472.138	7019.39
472.51	7187.75
472.882	7248.99
473.253	7352.49
473.625	7498.02
473.997	7619.15
474.369	7770.11
474.74	7907.28
475.112	7973.72
475.484	8141.62
475.855	8251.22
476.227	8326.48
476.598	8545.45
476.97	8665.22
477.341	8890.75
477.713	8975.27
478.084	9042.39
478.455	9321.03
478.827	9326
479.198	9703.16
479.569	9673.33
479.94	9962.14
480.311	10052.08
480.682	10290.27
481.053	10618.85
481.424	10674.44
481.795	10870.36
482.166	10969.12
482.537	11128.66
482.908	11371.59
483.279	11503.12
483.65	11752.37
484.021	12032.14
484.391	12173.38
484.762	12253.83
485.133	12344
485.503	12527.72
485.874	12808.17
486.244	13015.84
486.615	13220.36
486.985	13377.19
487.356	13638.88
487.726	13810.85
488.097	14056.27
488.467	14126.55
488.837	14395.92
489.207	14567.22
489.578	14695.12
489.948	14912.29
490.318	15181.89
490.688	15270.47
491.058	15444.93
491.428	15705.04
491.798	15835.43
492.168	16209.43
492.538	16226.83
492.908	16442.65
493.278	16731.68
493.648	16672.47
494.017	16968.28
494.387	17099.8
494.757	17214.15
495.126	17468.38
495.496	17617.76
495.866	17643.07
496.235	17962.15
496.605	18074.47
496.974	18142.49
497.344	18341.81
497.713	18497.06
498.082	18638.3
498.452	18812.08
498.821	18943.6
499.19	19021.11
499.559	19329.8
499.928	19441.21
500.298	19605.5
500.667	19749.68
501.036	19706.74
501.405	19986.06
501.774	19937.47
502.143	20271.47
502.512	20414.52
502.88	20529.32
503.249	20633.72
503.618	20737
503.987	20881.63
504.356	21090.66
504.724	21297.21
505.093	21407.26
505.462	21491.78
505.83	21612
506.199	21862.84
506.567	22122.05
506.936	22121.82
507.304	22311.19
507.672	22464.18
508.041	22539.44
508.409	22794.8
508.777	22965.64
509.145	23161.11
509.514	23183.94
509.882	23522.69
510.25	23529.47
510.618	23711.38
510.986	23879.29
511.354	24133.74
511.722	24361.08
512.09	24515.2
512.458	24540.74
512.826	24870
513.193	24976.43
513.561	25134.4
513.929	25361.28
514.297	25512.92
514.664	25674.04
515.032	25824.32
515.4	25979.8
515.767	26163.3
516.135	26247.81
516.502	26261.82
516.869	26747.91
517.237	26861.81
517.604	26763.05
517.972	27255.92
518.339	27433.32
518.706	27496.14
519.073	27672.41
519.44	27919.18
519.808	28367.3
520.175	28285.73
520.542	28532.72
520.909	28685.71
521.276	28814.3
521.643	29000.96
522.009	29221.29
522.376	29683.2
522.743	29922.29
523.11	29919.81
523.477	30357.08
523.843	30416.97
524.21	30759.33
524.577	31055.82
524.943	31092.21
525.31	31315.02
525.676	31641.12
526.043	31844.95
526.409	31956.82
526.776	32272.51
527.142	32339.63
527.508	32710.92
527.874	32824.14
528.241	33139.83
528.607	33103.9
528.973	33502.99
529.339	33557.22
529.705	33870.66
530.071	34194.27
530.437	34250.54
530.803	34507.71
531.169	34618.89
531.535	34653.47
531.901	34721.04
532.267	35060.46
532.632	35167.35
532.998	35324.64
533.364	35718.98
533.73	35692.99
534.095	35922.36
534.461	36019.31
534.826	36336.13
535.192	36440.31
535.557	36628.33
535.923	36685.28
536.288	36819.06
536.653	37181.54
537.019	37029.9
537.384	37345.6
537.749	37344.24
538.114	37646.61
538.479	37640.51
538.845	37784.46
539.21	37836.43
539.575	38030.78
539.94	38040.04
540.305	38403.88
540.67	38355.97
541.034	38593.48
541.399	38701.27
541.764	38782.17
542.129	39063.07
542.494	39129.96
542.858	39361.59
543.223	39354.36
543.587	39541.7
543.952	39630.29
544.316	39911.63
544.681	39842.03
545.045	40134.68
545.41	40268.23
545.774	40456.25
546.138	40515.23
546.503	40658.96
546.867	40569.7
547.231	40974.66
547.595	41165.61
547.959	41340.52
548.324	41284.93
548.688	41447.19
549.052	41608.09
549.416	41693.73
549.779	41871.81
550.143	41987.96
550.507	42314.96
550.871	42375.3
551.235	42426.6
551.599	42825
551.962	42886.7
552.326	43038.33
552.689	43269.96
553.053	43164.43
553.417	43477.19
553.78	43933.68
554.143	44002.83
554.507	44072.2
554.87	44384.28
555.234	44888.9
555.597	44554.68
555.96	44892.52
556.323	44985.63
556.686	44997.6
557.05	45363.69
557.413	45509
557.776	45586.74
558.139	45907.63
558.502	46090.23
558.865	46169.55
559.228	46536.32
559.59	46537.22
559.953	46608.18
560.316	47116.19
560.679	47098.11
561.041	47311.89
561.404	47572.9
561.767	47756.17
562.129	47675.95
562.492	48121.81
562.854	48108.93
563.217	48116.84
563.579	48324.29
563.941	48626.66
564.304	48682.48
564.666	49010.15
565.028	49059.64
565.39	49215.8
565.753	49368.79
566.115	49491.27
566.477	49807.42
566.839	49733.07
567.201	49993.18
567.563	49997.24
567.925	50234.75
568.287	50241.76
568.648	50262.55
569.01	50592.03
569.372	50767.17
569.734	50849.65
570.095	50963.77
570.457	51116.54
570.819	51199.25
571.18	51163.99
571.542	51393.37
571.903	51533.25
572.265	51626.35
572.626	51524.21
572.987	51693.47
573.349	51778.89
573.71	51897.08
574.071	52024.31
574.432	52130.97
574.794	52330.29
575.155	52425.43
575.516	52227.69
575.877	52483.51
576.238	52430.63
576.599	52634.01
576.96	52595.82
577.32	52681.69
577.681	52731.64
578.042	52797.85
578.403	52834.23
578.763	52775.7
579.124	52924.17
579.485	53104.28
579.845	53044.85
580.206	53027.22
580.566	53069.93
580.927	53111.51
581.287	53273.32
581.648	53164.17
582.008	53229.25
582.368	53123.49
582.728	53286.42
583.089	53258.85
583.449	53303.37
583.809	53328.23
584.169	53400.32
584.529	53320.1
584.889	53471.28
585.249	53324.39
585.609	53275.35
585.969	53499.98
586.329	53365.97
586.688	53356.03
587.048	53400.77
587.408	53413.43
587.768	53351.51
588.127	53336.82
588.487	53292.53
588.846	53506.53
589.206	53351.96
589.565	53341.11
589.925	53478.51
590.284	53346.08
590.643	53445.97
591.003	53545.85
591.362	53574.1
591.721	53483.03
592.08	53470.6
592.44	53499.98
592.799	53610.48
593.158	53534.78
593.517	53566.87
593.876	53586.98
594.235	53533.87
594.593	53580.2
594.952	53702.23
595.311	53477.38
595.67	53666.75
596.029	53848.22
596.387	53832.4
596.746	53831.72
597.104	53695
597.463	53720.31
597.822	53843.02
598.18	53635.57
598.538	53671.27
598.897	53907.65
599.255	53644.83
599.613	54017.48
599.972	53817.03
600.33	53891.38
600.688	53858.84
601.046	53914.43
601.404	54053.18
601.762	53930.7
602.12	54080.3
602.478	54152.84
602.836	54073.97
603.194	54020.64
603.552	54034.88
603.91	54003.47
604.268	54202.11
604.625	54057.7
604.983	54197.36
605.341	54005.73
605.698	54274.65
606.056	54247.75
606.413	54261.31
606.771	54304.02
607.128	54470.57
607.485	54304.48
607.843	54319.62
608.2	54473.29
608.557	54581.08
608.914	54488.2
609.272	54619.5
609.629	54652.49
609.986	54664.69
610.343	54608.87
610.7	54763.22
611.057	54684.58
611.414	54740.17
611.771	54739.27
612.127	54815.42
612.484	54847.51
612.841	54882.99
613.198	54785.14
613.554	54756.44
613.911	55001.18
614.267	54941.52
614.624	54910.11
614.98	54960.28
615.337	55045.47
615.693	55050.45
616.05	54980.62
616.406	55193.94
616.762	55096.32
617.118	55119.6
617.475	55184.45
617.831	55279.14
618.187	55204.11
618.543	55257.22
618.899	55438.01
619.255	55406.14
619.611	55291.12
619.967	55462.64
620.323	55537.66
620.678	55307.39
621.034	55306.03
621.39	55346.48
621.746	55369.53
622.101	55640.94
622.457	55422.64
622.812	55496.99
623.168	55505.35
623.523	55481.17
623.879	55602.52
624.234	55379.93
624.589	55492.02
624.945	55534.05
625.3	55578.11
625.655	55427.38
626.01	55435.29
626.365	55508.06
626.72	55481.17
627.075	55453.82
627.43	55454.73
627.785	55419.7
628.14	55489.98
628.495	55476.42
628.85	55424.67
629.205	55339.93
629.559	55459.47
629.914	55308.74
630.269	55391.23
630.623	55280.72
630.978	55249.54
631.332	55395.29
631.687	55370.89
632.041	55310.78
632.396	55341.74
632.75	55158.46
633.104	55262.87
633.459	55110.33
633.813	55135.87
634.167	55008.64
634.521	55020.84
634.875	55132.02
635.229	55057.45
635.583	54891.58
635.937	54953.05
636.291	54977
636.645	54976.1
636.999	54861.75
637.352	54952.82
637.706	54798.7
638.06	54964.12
638.413	54803.22
638.767	54740.62
639.121	54860.39
639.474	54558.25
639.828	54632.83
640.181	54743.11
640.534	54642.09
640.888	54643.9
641.241	54439.16
641.594	54590.57
641.947	54617.91
642.301	54477.58
642.654	54503.11
643.007	54480.74
643.36	54442.78
643.713	54364.59
644.066	54497.01
644.419	54351.03
644.771	54158.94
645.124	53811.61
645.477	53747.88
645.83	53513.76
646.182	53372.52
646.535	53333.88
646.888	53379.08
647.24	53311.96
647.593	53371.85
647.945	53303.15
648.298	53075.36
648.65	53126.43
649.002	53040.55
649.355	53133.89
649.707	53102.93
650.059	53166.88
650.411	53511.5
650.763	53663.81
651.115	53820.42
651.467	53744.72
651.819	53788.33
652.171	53688.45
652.523	53606.19
652.875	53597.38
653.227	53490.71
653.578	53685.06
653.93	53690.48
654.282	53476.02
654.633	53371.62
654.985	53433.54
655.337	53476.48
655.688	53514.89
656.039	53607.77
656.391	53234.22
656.742	53333.65
657.094	53309.47
657.445	53468.34
657.796	53336.14
658.147	53243.04
658.498	53236.48
658.849	53288.46
659.2	53176.82
659.551	53174.34
659.902	53275.35
660.253	53217.72
660.604	53171.62
660.955	53076.26
661.306	53161.23
661.656	53023.61
662.007	53026.54
662.358	52976.38
662.708	52950.61
663.059	53002.36
663.409	52707.68
663.76	52948.35
664.11	52995.58
664.461	52972.08
664.811	52955.36
665.161	52902.48
665.511	52850.28
665.862	52806.66
666.212	52921.01
666.562	52909.94
666.912	52918.98
667.262	52817.74
667.612	52819.32
667.962	52779.32
668.312	52745.65
668.662	52866.1
669.011	52780
669.361	52758.08
669.711	52667.91
670.06	52579.78
670.41	52550.62
670.76	52496.39
671.109	52691.19
671.459	52555.82
671.808	52562.6
672.157	52569.83
672.507	52369.84
672.856	52491.19
673.205	52489.61
673.554	52553.11
673.904	52429.27
674.253	52491.64
674.602	52434.47
674.951	51981.6
675.3	51788.61
675.649	52244.87
675.998	52277.18
676.346	52259.56
676.695	52335.04
677.044	52107.25
677.393	52119
677.741	52291.42
678.09	52055.95
678.438	51964.42
678.787	52074.7
679.135	51995.61
679.484	51845.56
679.832	52029.96
680.181	51691.89
680.529	51895.5
680.877	51908.38
681.225	51837.87
681.573	51904.99
681.922	51675.17
682.27	51554.49
682.618	51619.57
682.966	51453.25
683.314	51638.11
683.661	51413.7
684.009	51254.61
684.357	51159.02
684.705	51067.95
685.053	51081.51
685.4	51089.87
685.748	50867.5
686.095	50886.26
686.443	50886.49
686.79	50693.5
687.138	50779.6
687.485	50677.45
687.832	50453.73
688.18	50638.36
688.527	50275.2
688.874	50348.87
689.221	50243.57
689.568	50277.01
689.915	49999.96
690.262	50055.77
690.609	49847.19
690.956	49783.01
691.303	49742.11
691.65	49489.01
691.997	49533.08
692.344	49344.15
692.69	49308.45
693.037	49406.98
693.383	48932.19
693.73	49095.12
694.077	48896.26
694.423	48940.55
694.769	48856.03
695.116	48607.22
695.462	48693.55
695.808	48532.65
696.155	48518.87
696.501	48230.51
696.847	48343.73
697.193	47994.13
697.539	48291.98
697.885	48033.23
698.231	47845.89
698.577	47633.92
698.923	47840.92
699.269	47692.45
699.614	47370.87
699.96	47226.47
700.306	47307.82
700.651	47093.82
700.997	46961.17
701.342	46904.44
701.688	46866.48
702.033	46625.36
702.379	46736.77
702.724	46473.04
703.069	46713.04
703.415	46162.09
703.76	46141.75
704.105	46228.08
704.45	46001.42
704.795	45901.99
705.14	45776.79
705.485	45864.47
705.83	45697.7
706.175	45619.96
706.52	45487.31
706.865	45362.56
707.209	45311.72
707.554	45070.14
707.899	45378.61
708.243	45057.26
708.588	44956.02
708.932	44723.94
709.277	44796.93
709.621	44832.18
709.966	44561.91
710.31	44543.6
710.654	44183.16
710.998	44393.1
711.342	44215.25
711.687	44198.08
712.031	44055.48
712.375	43921.25
712.719	44022.49
713.063	43829.72
713.407	43919.66
713.75	43639.9
714.094	43534.36
714.438	43473.8
714.782	43601.93
715.125	43199.68
715.469	43377.08
715.812	43066.81
716.156	42980.71
716.499	42878.11
716.843	43037.88
717.186	42826.36
717.53	42950.88
717.873	42813.48
718.216	42646.48
718.559	42482.64
718.902	42322.64
719.246	42321.06
719.589	42162.42
719.932	41993.16
720.275	42119.71
720.617	42095.76
720.96	41905.48
721.303	42004.01
721.646	41904.58
721.989	41589.1
722.331	41743.45
722.674	41479.28
723.016	41677.01
723.359	41522.89
723.701	41605.37
724.044	41310.47
724.386	41231.83
724.729	41441.31
725.071	41183.92
725.413	41159.28
725.755	41059.63
726.097	41058.72
726.439	40785.28
726.782	40772.18
727.124	40921.55
727.465	40644.72
727.807	40585.29
728.149	40659.41
728.491	40533.99
728.833	40622.58
729.175	40397.95
729.516	40270.95
729.858	40297.84
730.199	40374.9
730.541	40280.21
730.882	40251.06
731.224	40293.55
731.565	39996.15
731.906	39834.35
732.248	39977.62
732.589	39782.37
732.93	39637.07
733.271	39658.31
733.612	39713.22
733.953	39769.94
734.294	39326.79
734.635	39477.52
734.976	39443.4
735.317	39260.58
735.658	39206.57
735.999	39236.85
736.339	39206.34
736.68	39407.47
737.021	39204.76
737.361	38884.54
737.702	39107.14
738.042	39010.19
738.383	38931.55
738.723	38768.61
739.063	38787.37
739.404	38676.86
739.744	38723.87
740.084	38572.91
740.424	38517.09
740.764	38403.65
741.104	38508.73
741.444	38263.77
741.784	38264.9
742.124	38375.18
742.464	38228.29
742.804	38104
743.143	38010.89
743.483	38058.58
743.823	37857.45
744.162	37817.9
744.502	37829.88
744.841	37771.58
745.181	37782.65
745.52	37639.83
745.86	37647.74
746.199	37637.8
746.538	37560.51
746.877	37625.82
747.216	37475.99
747.556	37395.32
747.895	37330.23
748.234	37305.38
748.573	37210.69
748.911	37073.97
749.25	37069.68
749.589	36876.46
749.928	37023.35
750.267	37111.71
750.605	36727.99
750.944	36739.06
751.283	36640.53
751.621	36693.64
751.96	36514.66
752.298	36536.36
752.636	36371.39
752.975	36261.79
753.313	36237.61
753.651	36262.69
753.989	36123.94
754.327	36148.34
754.666	35876.94
755.004	35977.5
755.342	35854.34
755.679	35763.27
756.017	35633.55
756.355	35642.82
756.693	35372.32
757.031	35498.42
757.368	35296.16
757.706	35275.82
758.044	35242.15
758.381	35199.89
758.719	34978.66
759.056	35050.29
759.394	34891.88
759.731	34639.68
760.068	34523.3
760.405	34576.41
760.743	34490.31
761.08	34536.63
761.417	34346.58
761.754	34197.21
762.091	34042.64
762.428	33979.59
762.765	33940.49
763.102	33973.49
763.438	33605.36
763.775	33486.04
764.112	33617.56
764.449	33483.33
764.785	33355.87
765.122	33102.1
765.458	33010.12
765.795	32911.14
766.131	32869.79
766.467	32719.73
766.804	32614.88
767.14	32502.11
767.476	32586.18
767.812	32306.86
768.148	32373.98
768.485	32126.75
768.821	31995.23
769.157	31886.31
769.492	31825.97
769.828	31924.5
770.164	31617.61
770.5	31444.06
770.836	31472.08
771.171	31182.15
771.507	31193.45
771.842	30922.49
772.178	31040
772.513	30742.38
772.849	30904.87
773.184	30550.07
773.519	30598.43
773.855	30412.9
774.19	30261.04
774.525	30268.27
774.86	30208.61
775.195	30018.33
775.53	29980.37
775.865	29775.63
776.2	29629.19
776.535	29321.63
776.87	29465.13
777.205	29372.02
777.539	29224.23
777.874	29216.77
778.209	28964.58
778.543	28872.15
778.878	28687.75
779.212	28731.82
779.547	28562.55
779.881	28427.64
780.215	28264.48
780.55	28435.78
780.884	28260.64
781.218	28199.63
781.552	28150.81
781.886	27932.97
782.22	27828.79
782.554	27753.76
782.888	27589.7
783.222	27409.82
783.556	27318.97
783.889	27316.94
784.223	27006.66
784.557	26913.11
784.89	27001.47
785.224	26954.91
785.557	26808.93
785.891	26732.77
786.224	26637.63
786.558	26513.57
786.891	26275.83
787.224	26183.86
787.557	26259.56
787.891	26168.94
788.224	26064.99
788.557	26018.89
788.89	26025.22
789.223	25954.94
789.556	25671.33
789.888	25602.18
790.221	25653.7
790.554	25349.76
790.887	25347.05
791.219	25238.35
791.552	25163.55
791.884	25015.75
792.217	25057.79
792.549	24895.31
792.882	24718.14
793.214	24637.69
793.546	24747.29
793.879	24446.5
794.211	24434.53
794.543	24499.16
794.875	24410.57
795.207	24343.91
795.539	24267.75
795.871	24194.31
796.203	24034.99
796.535	23883.36
796.867	23898.04
797.198	23830.7
797.53	23855.79
797.862	23580.54
798.193	23743.25
798.525	23484.5
798.856	23600.2
799.188	23335.8
799.519	23241.56
799.85	23042.7
800.182	23185.07
800.513	23026.88
800.844	22893.1
801.175	22912.31
801.506	22867.79
801.837	22757.28
802.168	22740.33
802.499	22611.07
802.83	22511.87
803.161	22357.52
803.491	22431.19
803.822	22362.04
804.153	22237.75
804.483	22036.85
804.814	22071.2
805.145	22093.12
805.475	21983.29
805.805	21887.93
806.136	21963.86
806.466	21912.79
806.796	21765.44
807.126	21645.67
807.457	21578.33
807.787	21633.24
808.117	21516.64
808.447	21453.59
808.777	21480.48
809.107	21336.08
809.436	21327.49
809.766	21272.58
810.096	21215.63
810.426	21169.98
810.755	21157.78
811.085	21012.92
811.414	21037.55
811.744	20868.29
812.073	20778.8
812.403	20809.76
812.732	20702.42
813.061	20601.63
813.39	20549.88
813.719	20441.86
814.049	20581.97
814.378	20452.26
814.707	20338.36
815.036	20339.95
815.365	20334.52
815.693	20125.94
816.022	20169.78
816.351	19989.67
816.68	19952.38
817.008	20021.54
817.337	19890.24
817.665	19745.16
817.994	19948.77
818.322	19789
818.651	19679.4
818.979	19551.27
819.307	19733.63
819.636	19611.6
819.964	19629.68
820.292	19678.04
820.62	19566.86
820.948	19393.98
821.276	19594.2
821.604	19501.78
821.932	19479.63
822.259	19525.96
822.587	19398.95
822.915	19378.39
823.243	19427.88
823.57	19427.65
823.898	19444.83
824.225	19417.26
824.553	19301.1
824.88	19300.42
825.207	19428.1
825.535	19353.53
825.862	19472.17
826.189	19316.7
826.516	19318.05
826.843	19384.26
827.17	19369.12
827.497	19326.86
827.824	19369.35
828.151	19431.49
828.478	19372.74
828.805	19422.23
829.131	19353.76
829.458	19331.84
829.785	19247.09
830.111	19202.12
830.438	19338.62
830.764	19293.19
831.09	19260.43
831.417	19158.51
831.743	19273.98
832.069	19213.65
832.395	19054.78
832.722	19206.64
833.048	19217.04
833.374	19165.29
833.7	19055.91
834.026	19149.92
834.351	19190.82
834.677	19060.43
835.003	19166.42
835.329	19043.93
835.654	19018.85
835.98	19012.3
836.306	19015.91
836.631	18949.7
836.956	18942.02
837.282	18852.07
837.607	18798.52
837.932	18713.55
838.258	18808.01
838.583	18703.83
838.908	18634.23
839.233	18652.76
839.558	18659.09
839.883	18578.86
840.208	18542.48
840.533	18555.13
840.858	18504.51
841.182	18488.24
841.507	18424.06
841.832	18333.9
842.156	18343.61
842.481	18398.08
842.805	18227.23
843.13	18236.72
843.454	18165.31
843.778	18128.7
844.103	18187.23
844.427	18048.48
844.751	18021.81
845.075	17965.77
845.399	17858.2
845.723	17818.88
846.047	17808.49
846.371	17722.16
846.695	17692.11
847.019	17484.88
847.343	17546.12
847.666	17354.49
847.99	17339.35
848.313	17271.78
848.637	17173.25
848.96	17101.16
849.284	17097.32
849.607	17010.77
849.931	16929.64
850.254	16832.24
850.577	16787.27
850.9	16637.22
851.223	16680.38
851.546	16468.86
851.869	16389.77
852.192	16536.43
852.515	16388.64
852.838	16242.65
853.161	16368.3
853.483	16228.64
853.806	16138.47
854.129	16116.1
854.451	16128.53
854.774	15942.55
855.096	15967.86
855.419	15881.08
855.741	15957.91
856.063	15745.49
856.385	15721.08
856.708	15735.32
857.03	15714.08
857.352	15617.81
857.674	15605.15
857.996	15562.44
858.318	15500.98
858.64	15517.47
858.961	15354.31
859.283	15298.27
859.605	15292.85
859.926	15284.26
860.248	15269.12
860.57	15163.81
860.891	15192.06
861.212	15087.43
861.534	15047.88
861.855	15027.99
862.176	15102.79
862.498	14944.83
862.819	15054.43
863.14	14982.12
863.461	14855.12
863.782	14877.49
864.103	14852.18
864.424	14796.59
864.745	14841.56
865.065	14676.82
865.386	14637.95
865.707	14602.47
866.027	14555.24
866.348	14588.68
866.668	14532.41
866.989	14581.68
867.309	14483.38
867.63	14576.48
867.95	14452.87
868.27	14414.9
868.59	14457.61
868.91	14359.76
869.23	14417.62
869.55	14281.57
869.87	14349.14
870.19	14298.3
870.51	14322.02
870.83	14282.25
871.15	14174.68
871.469	14172.88
871.789	14200.45
872.109	14115.25
872.428	14067.34
872.748	14048.81
873.067	14028.02
873.386	14094.46
873.706	14078.64
874.025	14003.39
874.344	13895.6
874.663	13972.66
874.982	13936.27
875.301	13958.19
875.62	13964.29
875.939	13828.7
876.258	14005.42
876.577	13795.94
876.896	13743.96
877.214	13713.9
877.533	13830.29
877.852	13720.23
878.17	13731.76
878.489	13731.53
878.807	13675.94
879.125	13669.39
879.444	13587.58
879.762	13558.65
880.08	13568.37
880.398	13535.38
880.716	13529.5
881.034	13413.57
881.352	13507.36
881.67	13414.93
881.988	13440.69
882.306	13365.21
882.624	13344.88
882.941	13311.66
883.259	13243.63
883.577	13236.86
883.894	13187.14
884.212	13186.01
884.529	13114.6
884.846	13105.79
885.164	12996.86
885.481	12996.86
885.798	13040.02
886.115	12966.35
886.432	12915.96
886.75	12914.6
887.067	12957.99
887.383	12845.91
887.7	12845.45
888.017	12794.83
888.334	12850.2
888.651	12708.06
888.967	12755.74
889.284	12712.58
889.6	12622.86
889.917	12567.95
890.233	12584.44
890.55	12517.55
890.866	12452.7
891.182	12472.58
891.498	12355.52
891.815	12328.63
892.131	12303.09
892.447	12270.1
892.763	12340.61
893.079	12148.52
893.395	12208.86
893.71	12223.55
894.026	12180.16
894.342	12045.7
894.657	11991.46
894.973	11958.02
895.289	11987.17
895.604	11944.91
895.92	11878.25
896.235	11801.41
896.55	11838.02
896.865	11799.6
897.181	11832.15
897.496	11767.74
897.811	11661.98
898.126	11597.12
898.441	11570.01
898.756	11583.57
899.071	11469.9
899.386	11429.22
899.7	11330.01
900.015	11378.15
900.33	11275.32
900.644	11303.57
900.959	11232.16
901.273	11231.26
901.588	11156.01
901.902	11127.08
902.216	11075.1
902.531	11013.41
902.845	10989.68
903.159	10903.58
903.473	10862.68
903.787	10858.39
904.101	10748.56
904.415	10840.99
904.729	10723.93
905.042	10746.75
905.356	10657.94
905.67	10611.84
905.984	10558.06
906.297	10615.91
906.611	10465.63
906.924	10488.68
907.237	10441.45
907.551	10362.81
907.864	10349.02
908.177	10311.73
908.491	10303.15
908.804	10156.26
909.117	10169.82
909.43	10075.81
909.743	10103.15
910.056	10076.26
910.368	10000.78
910.681	9890.5
910.994	9916.94
911.307	9921.46
911.619	9876.04
911.932	9873.55
912.244	9752.43
912.557	9720.34
912.869	9647.8
913.181	9609.15
913.494	9692.09
913.806	9596.73
914.118	9473.56
914.43	9408.26
914.742	9455.03
915.054	9364.64
915.366	9395.37
915.678	9299.33
915.99	9347.92
916.302	9267.02
916.613	9175.95
916.925	9219.11
917.236	9123.74
917.548	9027.7
917.859	9081.94
918.171	9045.33
918.482	8963.3
918.794	8921.26
919.105	8990.87
919.416	8830.19
919.727	8848.72
920.038	8831.32
920.349	8777.76
920.66	8686.69
920.971	8694.83
921.282	8662.29
921.593	8596.98
921.903	8442.63
922.214	8503.87
922.525	8515.62
922.835	8463.87
923.146	8411.45
923.456	8410.54
923.767	8397.89
924.077	8372.12
924.387	8248.74
924.697	8251.68
925.008	8199.25
925.318	8177.55
925.628	8135.52
925.938	8147.72
926.248	8065.92
926.558	8018.91
926.867	8006.48
927.177	8001.06
927.487	7903.21
927.796	7846.94
928.106	7857.11
928.416	7821.86
928.725	7796.32
929.034	7769.88
929.344	7733.95
929.653	7727.62
929.962	7679.94
930.271	7659.6
930.581	7606.04
930.89	7592.48
931.199	7527.4
931.508	7507.74
931.817	7474.75
932.125	7466.16
932.434	7382.32
932.743	7364.69
933.051	7352.04
933.36	7263
933.669	7212.61
933.977	7206.73
934.286	7192.95
934.594	7134.19
934.902	7115.89
935.21	7046.51
935.519	7105.72
935.827	7038.37
936.135	6973.07
936.443	6923.12
936.751	6952.05
937.059	6932.84
937.367	6861.66
937.674	6832.96
937.982	6785.5
938.29	6750.7
938.597	6781.88
938.905	6680.19
939.213	6614.2
939.52	6619.18
939.827	6616.92
940.135	6599.52
940.442	6577.6
940.749	6507.54
941.056	6560.19
941.363	6459.18
941.67	6480.2
941.977	6387.54
942.284	6368.11
942.591	6354.32
942.898	6304.16
943.205	6300.77
943.511	6271.39
943.818	6260.99
944.125	6196.36
944.431	6212.41
944.738	6149.36
945.044	6172.18
945.35	6086.08
945.657	6053.54
945.963	6058.51
946.269	6034.11
946.575	6035.46
946.881	5989.59
947.187	5945.97
947.493	5969.48
947.799	5959.53
948.105	5931.51
948.41	5810.16
948.716	5822.14
949.022	5768.13
949.327	5799.76
949.633	5690.84
949.938	5678.41
950.244	5726.09
950.549	5599.99
950.854	5615.13
951.16	5593.67
951.465	5569.94
951.77	5543.5
952.075	5523.16
952.38	5472.31
952.685	5477.06
952.99	5441.58
953.294	5434.8
953.599	5422.37
953.904	5383.73
954.209	5362.49
954.513	5359.1
954.818	5322.26
955.122	5321.13
955.426	5305.09
955.731	5282.26
956.035	5219.67
956.339	5216.73
956.643	5278.19
956.948	5155.03
957.252	5122.94
957.556	5105.77
957.86	5088.14
958.163	5139.89
958.467	5052.66
958.771	5086.34
959.075	5055.6
959.378	5056.05
959.682	4950.97
959.985	4934.93
960.289	4878.43
960.592	4900.13
960.896	4888.37
961.199	4811.09
961.502	4783.52
961.805	4814.48
962.108	4789.62
962.411	4774.7
962.714	4743.52
963.017	4754.37
963.32	4722.95
963.623	4691.77
963.926	4647.25
964.228	4651.77
964.531	4604.54
964.833	4620.58
965.136	4552.79
965.438	4571.09
965.741	4549.17
966.043	4522.51
966.345	4482.28
966.648	4492
966.95	4459.46
967.252	4485
967.554	4375.39
967.856	4407.93
968.158	4410.65
968.46	4381.04
968.761	4317.32
969.063	4346.69
969.365	4325.68
969.666	4278.67
969.968	4261.72
970.269	4265.79
970.571	4223.08
970.872	4199.8
971.174	4146.25
971.475	4158.9
971.776	4173.82
972.077	4150.77
972.378	4060.83
972.679	4081.16
972.98	4091.79
973.281	4071.9
973.582	4048.85
973.883	3978.12
974.183	3993.48
974.484	3952.81
974.785	3964.33
975.085	3934.95
975.386	3960.26
975.686	3938.57
975.986	3896.54
976.287	3892.02
976.587	3881.4
976.887	3850.44
977.187	3837.55
977.487	3849.31
977.787	3797.1
978.087	3804.56
978.387	3770.44
978.687	3734.96
978.987	3709.65
979.286	3699.25
979.586	3750.1
979.885	3646.15
980.185	3636.66
980.484	3629.42
980.784	3602.31
981.083	3630.33
981.382	3612.7
981.682	3587.84
981.981	3575.64
982.28	3532.48
982.579	3579.48
982.878	3542.87
983.177	3513.27
983.475	3518.01
983.774	3485.7
984.073	3430.33
984.372	3436.21
984.67	3430.79
984.969	3401.18
985.267	3365.48
985.566	3367.96
985.864	3344.69
986.162	3319.38
986.461	3305.82
986.759	3272.82
987.057	3283.9
987.355	3234.63
987.653	3236.89
987.951	3261.75
988.249	3259.49
988.547	3186.27
988.844	3166.61
989.142	3196.89
989.44	3136.78
989.737	3149.44
990.035	3118.48
990.332	3113.28
990.63	3125.93
990.927	3132.94
991.224	3102.43
991.521	3077.12
991.819	3098.82
992.116	3087.29
992.413	3037.58
992.71	2983.79
993.006	2960.06
993.303	2983.34
993.6	2969.55
993.897	2975.43
994.193	2937.92
994.49	2949.89
994.787	2896.56
995.083	2890.23
995.379	2837.13
995.676	2866.96
995.972	2825.38
996.268	2850.91
996.565	2794.64
996.861	2788.09
997.157	2788.54
997.453	2765.49
997.749	2750.13
998.044	2731.59
998.34	2734.08
998.636	2709.67
998.932	2687.98
999.227	2711.48
999.523	2688.88
999.818	2679.62
1000.114	2690.69
1000.409	2629.45
1000.704	2602.11
1001	2606.17
1001.295	2599.85
1001.59	2593.52
1001.885	2572.28
1002.18	2533.86
1002.475	2512.17
1002.77	2548.77
1003.065	2484.82
1003.359	2495.89
1003.654	2495.67
1003.949	2485.95
1004.243	2437.82
1004.538	2419.74
1004.832	2429.46
1005.127	2395.56
1005.421	2432.17
1005.715	2366.41
1006.009	2358.72
1006.304	2360.76
1006.598	2365.5
1006.892	2308.33
1007.186	2305.62
1007.48	2311.27
1007.773	2276.24
1008.067	2277.82
1008.361	2254.32
1008.655	2253.42
1008.948	2217.26
1009.242	2216.35
1009.535	2221.55
1009.829	2174.32
1010.122	2146.53
1010.415	2162.8
1010.708	2150.59
1011.001	2103.81
1011.295	2119.63
1011.588	2080.54
1011.881	2104.49
1012.173	2056.58
1012.466	2080.99
1012.759	2091.61
1013.052	2048.67
1013.344	2018.17
1013.637	2035.57
1013.93	2035.57
1014.222	2010.71
1014.514	1975.68
1014.807	1993.54
1015.099	1968.9
1015.391	1925.74
1015.683	1949.69
1015.976	1899.75
1016.268	1878.28
1016.56	1892.07
1016.851	1879.19
1017.143	1891.16
1017.435	1855.46
1017.727	1838.28
1018.018	1855.69
1018.31	1844.16
1018.602	1818.85
1018.893	1808.23
1019.185	1792.64
1019.476	1763.71
1019.767	1763.03
1020.058	1752.64
1020.35	1741.34
1020.641	1713.54
1020.932	1730.72
1021.223	1693.88
1021.514	1685.07
1021.804	1683.71
1022.095	1694.33
1022.386	1684.39
1022.677	1642.81
1022.967	1635.8
1023.258	1621.79
1023.548	1638.52
1023.839	1604.84
1024.129	1600.55
1024.419	1567.11
1024.709	1577.73
1025	1568.69
1025.29	1587.22
1025.58	1536.15
1025.87	1518.07
1026.16	1517.16
1026.449	1542.25
1026.739	1479.42
1027.029	1499.31
1027.319	1492.53
1027.608	1468.8
1027.898	1469.26
1028.187	1433.1
1028.477	1445.75
1028.766	1428.8
1029.055	1418.86
1029.344	1426.09
1029.634	1407.56
1029.923	1412.08
1030.212	1357.85
1030.501	1358.98
1030.79	1367.11
1031.078	1354.46
1031.367	1324.85
1031.656	1323.5
1031.945	1329.15
1032.233	1327.79
1032.522	1298.41
1032.81	1315.36
1033.099	1288.24
1033.387	1277.4
1033.675	1278.98
1033.963	1265.19
1034.251	1260.67
1034.54	1228.13
1034.828	1234.69
1035.116	1238.53
1035.403	1224.06
1035.691	1201.92
1035.979	1199.88
1036.267	1199.88
1036.554	1197.17
1036.842	1196.49
1037.129	1174.8
1037.417	1136.38
1037.704	1158.53
1037.992	1130.51
1038.279	1123.5
1038.566	1148.13
1038.853	1148.13
1039.14	1148.13
