Data from white_poster_card_FLMS001491_00046.txt Node
Date: Wed Feb 08 11:51:34 GMT 2017
User: dcchb
Spectrometer: FLMS00149
Trigger mode: 0
Integration Time (sec): 2.000000E-2
Scans to average: 10
Electric dark correction enabled: true
Nonlinearity correction enabled: false
Boxcar width: 0
XAxis mode: Wavelengths
Number of Pixels in Spectrum: 2048
>>>>>Begin Spectral Data<<<<<
341.393	-3.46
341.776	-3.46
342.16	-3.46
342.543	-55.44
342.927	-53.85
343.31	-77.36
343.693	-58.83
344.077	-53.18
344.46	-74.42
344.843	-59.73
345.226	-45.72
345.61	-7.75
345.993	-16.79
346.376	-9.56
346.759	22.75
347.142	25.47
347.525	43.77
347.908	63.2
348.291	77.89
348.674	71.11
349.057	99.14
349.44	119.02
349.823	156.31
350.206	153.15
350.588	179.36
350.971	211.9
351.354	232.47
351.737	237.21
352.119	246.02
352.502	266.36
352.884	260.04
353.267	281.5
353.65	311.11
354.032	295.29
354.414	312.69
354.797	321.73
355.179	329.19
355.562	323.31
355.944	340.26
356.326	363.99
356.709	364.21
357.091	339.13
357.473	351.78
357.855	347.49
358.238	368.06
358.62	347.72
359.002	326.47
359.384	345.23
359.766	360.82
360.148	345.68
360.53	333.71
360.912	341.16
361.294	340.03
361.676	331.9
362.057	353.37
362.439	359.24
362.821	333.48
363.203	321.5
363.584	327.15
363.966	341.84
364.348	312.69
364.729	345.68
365.111	334.61
365.493	326.47
365.874	308.17
366.256	317.66
366.637	328.96
367.019	300.49
367.4	328.28
367.781	337.32
368.163	321.73
368.544	341.84
368.925	314.72
369.306	330.99
369.688	330.99
370.069	329.86
370.45	325.34
370.831	327.83
371.212	324.67
371.593	322.86
371.974	326.25
372.355	310.66
372.736	328.28
373.117	324.44
373.498	310.88
373.879	346.36
374.26	342.97
374.641	320.6
375.021	327.38
375.402	328.96
375.783	347.72
376.163	325.12
376.544	326.25
376.925	310.43
377.305	345.23
377.686	336.87
378.066	341.16
378.447	333.25
378.827	339.13
379.208	341.16
379.588	335.51
379.968	344.1
380.349	350.43
380.729	348.39
381.109	339.36
381.489	349.3
381.87	353.14
382.25	351.56
382.63	354.27
383.01	363.08
383.39	330.77
383.77	355.63
384.15	345.23
384.53	362.41
384.91	365.57
385.29	360.82
385.67	364.89
386.049	387.04
386.429	370.09
386.809	371.67
387.189	363.76
387.568	365.57
387.948	382.29
388.328	378.22
388.707	378
389.087	378.9
389.466	380.71
389.846	377.09
390.225	380.26
390.605	407.15
390.984	399.92
391.363	404.89
391.743	393.14
392.122	400.82
392.501	420.94
392.881	406.7
393.26	428.84
393.639	406.02
394.018	401.5
394.397	414.16
394.776	412.8
395.155	417.09
395.534	409.64
395.913	428.84
396.292	418.22
396.671	430.2
397.05	443.08
397.429	447.15
397.808	424.1
398.186	441.95
398.565	439.69
398.944	447.15
399.323	453.02
399.701	439.01
400.08	479.46
400.458	457.32
400.837	455.28
401.215	453.7
401.594	455.96
401.972	470.88
402.351	467.49
402.729	454.83
403.107	480.82
403.486	475.17
403.864	483.98
404.242	492.8
404.62	490.09
404.999	496.87
405.377	505.45
405.755	494.38
406.133	500.48
406.511	513.59
406.889	530.76
407.267	525.57
407.645	533.02
408.023	543.42
408.401	540.71
408.779	565.11
409.156	571.21
409.534	582.51
409.912	570.76
410.29	610.76
410.667	613.92
411.045	623.87
411.422	640.36
411.8	653.02
412.178	646.47
412.555	671.78
412.933	659.8
413.31	682.17
413.687	712.23
414.065	688.05
414.442	699.57
414.819	739.34
415.197	747.25
415.574	763.07
415.951	767.37
416.328	791.77
416.705	808.72
417.082	813.02
417.46	819.12
417.837	842.17
418.214	838.55
418.591	861.6
418.967	875.61
419.344	929.4
419.721	895.95
420.098	934.37
420.475	935.05
420.852	961.94
421.228	960.81
421.605	969.4
421.982	989.06
422.358	1003.97
422.735	1027.92
423.111	1043.07
423.488	1055.72
423.864	1070.86
424.241	1078.77
424.617	1114.25
424.994	1126.23
425.37	1121.26
425.746	1133.68
426.123	1154.25
426.499	1158.54
426.875	1168.71
427.251	1170.97
427.627	1223.4
428.003	1234.25
428.379	1236.06
428.756	1258.88
429.132	1303.85
429.507	1288.26
429.883	1322.83
430.259	1323.28
430.635	1336.17
431.011	1367.35
431.387	1403.96
431.763	1450.06
432.138	1436.73
432.514	1460.23
432.89	1485.31
433.265	1474.01
433.641	1531.64
434.016	1541.58
434.392	1563.73
434.767	1608.7
435.143	1600.57
435.518	1632.43
435.894	1629.94
436.269	1663.61
436.644	1689.83
437.02	1689.6
437.395	1716.49
437.77	1751.07
438.145	1747
438.52	1795.59
438.895	1796.49
439.271	1773.22
439.646	1810.73
440.021	1845.3
440.395	1881.24
440.77	1858.64
441.145	1855.25
441.52	1912.42
441.895	1897.73
442.27	1914.23
442.645	1890.73
443.019	1951.74
443.394	1943.16
443.769	1983.61
444.143	1950.16
444.518	2003.27
444.892	1982.7
445.267	1994.45
445.641	2013.89
446.016	2060.21
446.39	2055.02
446.764	2052.76
447.139	2066.09
447.513	2072.19
447.887	2108.57
448.262	2091.17
448.636	2108.8
449.01	2167.1
449.384	2161.68
449.758	2176.6
450.132	2232.41
450.506	2231.06
450.88	2185.63
451.254	2231.06
451.628	2252.07
452.002	2285.29
452.376	2319.64
452.75	2325.29
453.123	2320.32
453.497	2372.75
453.871	2394.67
454.244	2423.14
454.618	2424.27
454.992	2444.16
455.365	2487.1
455.739	2559.41
456.112	2544.72
456.486	2591.73
456.859	2602.35
457.232	2611.61
457.606	2679.18
457.979	2679.18
458.352	2739.52
458.725	2730.03
459.099	2795.79
459.472	2880.76
459.845	2857.93
460.218	2892.28
460.591	2923.24
460.964	2891.15
461.337	3009.34
461.71	3019.29
462.083	3059.96
462.456	3051.37
462.829	3114.42
463.201	3079.4
463.574	3125.95
463.947	3193.97
464.32	3275.1
464.692	3297.7
465.065	3359.84
465.438	3331.37
465.81	3379.05
466.183	3447.52
466.555	3503.11
466.928	3538.59
467.3	3524.36
467.672	3600.06
468.045	3657.69
468.417	3687.29
468.789	3688.87
469.161	3747.85
469.534	3809.55
469.906	3891.58
470.278	3887.96
470.65	3956.44
471.022	3997.79
471.394	4084.34
471.766	4152.59
472.138	4208.18
472.51	4229.87
472.882	4338.35
473.253	4359.14
473.625	4434.39
473.997	4485.24
474.369	4572.46
474.74	4528.62
475.112	4673.7
475.484	4718
475.855	4802.29
476.227	4876.86
476.598	4983.08
476.97	5053.58
477.341	5130.42
477.713	5192.79
478.084	5194.6
478.455	5378.32
478.827	5374.7
479.198	5536.06
479.569	5569.27
479.94	5706.45
480.311	5776.27
480.682	5894.01
481.053	5962.26
481.424	6087
481.795	6173.1
482.166	6210.84
482.537	6319.31
482.908	6416.26
483.279	6537.61
483.65	6633.43
484.021	6788.68
484.391	6854.66
484.762	6925.17
485.133	6957.94
485.503	7037.48
485.874	7204.26
486.244	7252.62
486.615	7426.85
486.985	7519.51
487.356	7616.68
487.726	7696.22
488.097	7894.86
488.467	7904.13
488.837	8041.53
489.207	8116.78
489.578	8210.11
489.948	8362.42
490.318	8468.41
490.688	8477.9
491.058	8702.53
491.428	8737.33
491.798	8871.11
492.168	9008.51
492.538	9095.96
492.908	9129.41
493.278	9203.53
493.648	9270.87
494.017	9372.56
494.387	9479.91
494.757	9551.99
495.126	9657.75
495.496	9718.77
495.866	9805.77
496.235	9879.22
496.605	10023.17
496.974	10112.66
497.344	10084.64
497.713	10221.13
498.082	10317.85
498.452	10487.79
498.821	10490.73
499.19	10498.41
499.559	10674
499.928	10779.31
500.298	10778.4
500.667	10899.76
501.036	10872.19
501.405	11068.79
501.774	11037.38
502.143	11177.94
502.512	11192.18
502.88	11311.72
503.249	11387.65
503.618	11438.5
503.987	11515.33
504.356	11482.11
504.724	11637.36
505.093	11774.99
505.462	11712.39
505.83	11812.05
506.199	11904.7
506.567	12125.71
506.936	12135.43
507.304	12238.03
507.672	12333.62
508.041	12390.34
508.409	12462.65
508.777	12634.4
509.145	12736.09
509.514	12695.41
509.882	12840.5
510.25	12938.57
510.618	12971.34
510.986	13065.35
511.354	13116.42
511.722	13259.24
512.09	13400.03
512.458	13457.65
512.826	13550.31
513.193	13668.95
513.561	13648.16
513.929	13850.64
514.297	13926.79
514.664	14028.71
515.032	14113.68
515.4	14258.31
515.767	14242.27
516.135	14329.5
516.502	14318.65
516.869	14579.66
517.237	14642.26
517.604	14707.79
517.972	14835.7
518.339	14995.69
518.706	14922.25
519.073	15059.65
519.44	15133.77
519.808	15399.75
520.175	15421.22
520.542	15638.84
520.909	15658.73
521.276	15755
521.643	15955.44
522.009	16009.68
522.376	16130.35
522.743	16234.08
523.11	16394.53
523.477	16646.95
523.843	16705.25
524.21	16804.23
524.577	16990.9
524.943	17098.01
525.31	17171.46
525.676	17403.31
526.043	17395.86
526.409	17627.49
526.776	17752.46
527.142	17772.8
527.508	17886.24
527.874	18098.21
528.241	18121.03
528.607	18225.66
528.973	18394.47
529.339	18395.15
529.705	18643.28
530.071	18844.86
530.437	18805.54
530.803	18919.88
531.169	19080.33
531.535	19093.66
531.901	19221.8
532.267	19308.57
532.632	19380.21
532.998	19495.01
533.364	19686.42
533.73	19681.45
534.095	19843.02
534.461	19965.96
534.826	20090.47
535.192	20181.55
535.557	20241.88
535.923	20219.51
536.288	20417.7
536.653	20445.95
537.019	20413.63
537.384	20584.47
537.749	20798.48
538.114	20702.44
538.479	20801.19
538.845	20905.14
539.21	20947.63
539.575	21021.52
539.94	21204.34
540.305	21328.18
540.67	21178.13
541.034	21392.59
541.399	21411.8
541.764	21427.84
542.129	21573.6
542.494	21703.09
542.858	21713.71
543.223	21855.63
543.587	21988.28
543.952	21935.4
544.316	22070.54
544.681	22009.52
545.045	22120.25
545.41	22328.83
545.774	22295.84
546.138	22384.43
546.503	22461.49
546.867	22498.77
547.231	22778.31
547.595	22854.24
547.959	22816.96
548.324	22719.33
548.688	22901.25
549.052	22978.08
549.416	23034.8
549.779	23254.23
550.143	23134.01
550.507	23339.65
550.871	23489.71
551.235	23482.25
551.599	23752.53
551.962	23713.88
552.326	23797.95
552.689	23842.92
553.053	23941.9
553.417	23941.67
553.78	24226.86
554.143	24120.65
554.507	24376.46
554.87	24463.01
555.234	24568.55
555.597	24508.66
555.96	24752.27
556.323	24710.01
556.686	24773.52
557.05	25014.64
557.413	25117.01
557.776	25263.45
558.139	25349.32
558.502	25402.88
558.865	25474.97
559.228	25673.15
559.59	25730.1
559.953	25819.82
560.316	26147.72
560.679	26142.97
561.041	26317.66
561.404	26330.08
561.767	26505.22
562.129	26496.63
562.492	26795.16
562.854	26769.62
563.217	26826.34
563.579	26954.02
563.941	27049.61
564.304	27277.4
564.666	27499.77
565.028	27493.22
565.39	27557.85
565.753	27634.91
566.115	27841.23
566.477	27928.01
566.839	28136.59
567.201	28324.83
567.563	28103.6
567.925	28397.83
568.287	28463.81
568.648	28468.11
569.01	28620.87
569.372	28831.49
569.734	28789.45
570.095	28950.58
570.457	29086.17
570.819	29282.32
571.18	29262.21
571.542	29343.56
571.903	29324.13
572.265	29562.99
572.626	29621.98
572.987	29699.71
573.349	29730.9
573.71	29869.88
574.071	29972.02
574.432	30108.97
574.794	30224.22
575.155	30265.35
575.516	30117.78
575.877	30255.86
576.238	30309.41
576.599	30520.48
576.96	30510.09
577.32	30595.96
577.681	30632.34
578.042	30751.89
578.403	30881.6
578.763	30849.51
579.124	30849.97
579.485	31021.26
579.845	30965.22
580.206	30986.46
580.566	30870.98
580.927	31090.64
581.287	31187.13
581.648	31038.44
582.008	31149.17
582.368	31116.63
582.728	31206.79
583.089	31176.96
583.449	31171.77
583.809	31348.71
584.169	31427.58
584.529	31362.72
584.889	31525.65
585.249	31324.76
585.609	31317.75
585.969	31358.2
586.329	31346.9
586.688	31328.15
587.048	31433.68
587.408	31338.77
587.768	31381.25
588.127	31281.82
588.487	31228.71
588.846	31520.68
589.206	31228.03
589.565	31278.88
589.925	31492.21
590.284	31315.26
590.643	31492.21
591.003	31494.92
591.362	31560.23
591.721	31485.2
592.08	31598.87
592.44	31613.79
592.799	31527.91
593.158	31506.67
593.517	31569.04
593.876	31583.96
594.235	31576.5
594.593	31555.26
594.952	31724.29
595.311	31672.32
595.67	31551.87
596.029	31788.47
596.387	31860.56
596.746	31837.96
597.104	31689.49
597.463	31708.47
597.822	31864.4
598.18	31707.12
598.538	31719.77
598.897	31834.57
599.255	31607.23
599.613	32040.89
599.972	31827.34
600.33	31852.88
600.688	31911.18
601.046	31929.49
601.404	32156.82
601.762	32061.91
602.12	32219.87
602.478	32334.22
602.836	32286.31
603.194	32070.95
603.552	32225.75
603.91	32005.87
604.268	32256.93
604.625	32101.68
604.983	32282.92
605.341	32118.18
605.698	32308.91
606.056	32387.78
606.413	32403.6
606.771	32344.84
607.128	32381.9
607.485	32332.86
607.843	32487.66
608.2	32517.27
608.557	32612.41
608.914	32633.65
609.272	32739.18
609.629	32828.67
609.986	32921.32
610.343	32662.35
610.7	32872.06
611.057	32859.4
611.414	32921.1
611.771	32942.11
612.127	33013.07
612.484	32881.1
612.841	33018.27
613.198	32875.45
613.554	33049.68
613.911	33124.93
614.267	33234.99
614.624	33167.64
614.98	33186.85
615.337	33366.96
615.693	33311.14
616.05	33245.83
616.406	33437.02
616.762	33229.79
617.118	33342.78
617.475	33415.77
617.831	33399.5
618.187	33326.51
618.543	33613.51
618.899	33550.23
619.255	33581.19
619.611	33579.61
619.967	33693.51
620.323	33669.78
620.678	33538.26
621.034	33517.01
621.39	33604.02
621.746	33459.39
622.101	33814.86
622.457	33599.05
622.812	33688.08
623.168	33804.69
623.523	33626.39
623.879	33746.16
624.234	33564.7
624.589	33593.17
624.945	33800.4
625.3	33743.67
625.655	33695.09
626.01	33703.9
626.365	33854.63
626.72	33699.16
627.075	33711.81
627.43	33640.63
627.785	33535.32
628.14	33604.47
628.495	33759.72
628.85	33598.82
629.205	33488.54
629.559	33767.86
629.914	33437.24
630.269	33403.34
630.623	33344.14
630.978	33362.44
631.332	33594.75
631.687	33448.77
632.041	33254.65
632.396	33443.8
632.75	33264.59
633.104	33470.69
633.459	33191.15
633.813	33032.96
634.167	33170.36
634.521	33110.02
634.875	33210.13
635.229	33167.19
635.583	32966.97
635.937	33083.13
636.291	32971.04
636.645	32938.5
636.999	32915
637.352	32962.68
637.706	32726.07
638.06	32762.23
638.413	32731.95
638.767	32678.17
639.121	32650.14
639.474	32341.45
639.828	32389.36
640.181	32640.43
640.534	32487.44
640.888	32279.76
641.241	32228.69
641.594	32260.1
641.947	32251.06
642.301	32203.15
642.654	32295.58
643.007	32262.58
643.36	32236.14
643.713	32095.36
644.066	32298.74
644.419	32032.53
644.771	31823.27
645.124	31535.15
645.477	31483.85
645.83	31264.19
646.182	31095.38
646.535	31093.35
646.888	31093.35
647.24	30917.99
647.593	31031.43
647.945	30882.06
648.298	30736.75
648.65	30808.84
649.002	30756.63
649.355	30910.3
649.707	30814.26
650.059	31014.48
650.411	31345.32
650.763	31341.25
651.115	31554.81
651.467	31426
651.819	31529.5
652.171	31391.42
652.523	31371.31
652.875	31179.9
653.227	31274.59
653.578	31303.51
653.93	31289.95
654.282	31154.36
654.633	30987.59
654.985	31128.38
655.337	31020.13
655.688	31131.99
656.039	31153.46
656.391	30865.78
656.742	30948.95
657.094	30972.22
657.445	31096.06
657.796	31000.47
658.147	30904.65
658.498	30807.71
658.849	30872.11
659.2	30901.49
659.551	30772.23
659.902	30894.26
660.253	30757.09
660.604	30779.01
660.955	30774.49
661.306	30841.6
661.656	30800.25
662.007	30690.65
662.358	30655.85
662.708	30657.43
663.059	30550.09
663.409	30324.78
663.76	30633.02
664.11	30556.64
664.461	30602.97
664.811	30603.87
665.161	30537.21
665.511	30579.92
665.862	30505.12
666.212	30565.91
666.562	30560.93
666.912	30531.56
667.262	30470.77
667.612	30510.77
667.962	30426.47
668.312	30345.35
668.662	30511.67
669.011	30297.44
669.361	30363.42
669.711	30386.7
670.06	30219.7
670.41	30195.75
670.76	30291.11
671.109	30413.37
671.459	30259.02
671.808	30213.6
672.157	30277.78
672.507	29983.55
672.856	30089.99
673.205	30059.7
673.554	30144.45
673.904	30054.05
674.253	30202.98
674.602	30015.19
674.951	29552.37
675.3	29553.95
675.649	29960.95
675.998	29833.5
676.346	29900.61
676.695	30032.36
677.044	29737
677.393	29830.78
677.741	29884.34
678.09	29753.27
678.438	29748.53
678.787	29695.65
679.135	29700.84
679.484	29567.74
679.832	29649.32
680.181	29410.46
680.529	29582.65
680.877	29481.41
681.225	29309.89
681.573	29567.74
681.922	29418.82
682.27	29231.7
682.618	29200.52
682.966	29199.16
683.314	29335.2
683.661	29249.33
684.009	29065.38
684.357	29104.7
684.705	28959.85
685.053	29015.44
685.4	28892.95
685.748	28755.78
686.095	28700.19
686.443	28596.01
686.79	28595.34
687.138	28679.85
687.485	28630.36
687.832	28453.19
688.18	28460.65
688.527	28388.11
688.874	28318.51
689.221	28257.27
689.568	28269.69
689.915	28142.47
690.262	28143.14
690.609	27986.09
690.956	27944.05
691.303	28052.07
691.65	27771.85
691.997	27905.64
692.344	27654.12
692.69	27659.99
693.037	27537.96
693.383	27381.13
693.73	27575.48
694.077	27268.36
694.423	27313.11
694.769	27149.5
695.116	27087.13
695.462	27163.28
695.808	26955.6
696.155	27116.96
696.501	26718.77
696.847	26823.18
697.193	26525.79
697.539	26665.22
697.885	26620.92
698.231	26531.44
698.577	26361.72
698.923	26486.69
699.269	26299.35
699.614	26098.68
699.96	26072.24
700.306	26015.74
700.651	26003.09
700.997	25832.92
701.342	25860.94
701.688	25862.98
702.033	25630.22
702.379	25746.37
702.724	25652.14
703.069	25675.86
703.415	25419.37
703.76	25437.9
704.105	25446.27
704.45	25278.36
704.795	25240.4
705.14	25133.96
705.485	25173.28
705.83	25051.25
706.175	25095.99
706.52	24999.95
706.865	24700.97
707.209	24801.99
707.554	24813.29
707.899	24811.25
708.243	24515.22
708.588	24625.95
708.932	24305.05
709.277	24397.03
709.621	24380.53
709.966	24244.04
710.31	24275.68
710.654	24048.56
710.998	24209.69
711.342	24148.9
711.687	24103.7
712.031	23902.13
712.375	23791.39
712.719	23931.96
713.063	23846.76
713.407	23882.92
713.75	23765.18
714.094	23586.43
714.438	23682.02
714.782	23591.4
715.125	23447.9
715.469	23602.92
715.812	23421.91
716.156	23315.25
716.499	23397.73
716.843	23330.16
717.186	23243.61
717.53	23350.28
717.873	23222.14
718.216	23211.75
718.559	23052.43
718.902	22898.08
719.246	22977.4
719.589	22927.91
719.932	22812.44
720.275	22782.16
720.617	22784.64
720.96	22741.7
721.303	22809.27
721.646	22769.5
721.989	22546.91
722.331	22687.47
722.674	22619.22
723.016	22613.57
723.359	22559.79
723.701	22548.72
724.044	22351.88
724.386	22143.98
724.729	22409.96
725.071	22419.68
725.413	22330.64
725.755	22294.26
726.097	22066.69
726.439	21971.33
726.782	22023.98
727.124	22056.98
727.465	22036.64
727.807	21857.89
728.149	21873.7
728.491	21786.25
728.833	21856.08
729.175	21703.09
729.516	21731.34
729.858	21652.92
730.199	21787.15
730.541	21575.18
730.882	21580.15
731.224	21645.91
731.565	21491.34
731.906	21491.79
732.248	21493.15
732.589	21426.71
732.93	21268.97
733.271	21360.27
733.612	21441.63
733.953	21356.66
734.294	21248.18
734.635	21217.22
734.976	21271.46
735.317	21127.28
735.658	21171.12
735.999	21152.82
736.339	21107.62
736.68	21103.33
737.021	21078.02
737.361	20912.15
737.702	21039.83
738.042	20985.82
738.383	20791.25
738.723	20941.53
739.063	20815.43
739.404	20838.93
739.744	20793.05
740.084	20709.44
740.424	20687.3
740.764	20647.97
741.104	20749.21
741.444	20618.6
741.784	20525.49
742.124	20612.04
742.464	20481.88
742.804	20477.81
743.143	20407.53
743.483	20383.8
743.823	20334.54
744.162	20290.47
744.502	20316.91
744.841	20218.38
745.181	20164.14
745.52	20103.81
745.86	20204.82
746.199	20142
746.538	20091.15
746.877	20167.31
747.216	20170.47
747.556	20002.34
747.895	19992.4
748.234	19938.39
748.573	19866.98
748.911	19855.68
749.25	19779.75
749.589	19814.78
749.928	19738.39
750.267	19787.66
750.605	19733.42
750.944	19591.73
751.283	19573.2
751.621	19642.8
751.96	19587.66
752.298	19574.56
752.636	19406.2
752.975	19290.5
753.313	19245.53
753.651	19413.2
753.989	19271.74
754.327	19321.91
754.666	19116.71
755.004	19239.42
755.342	19227.9
755.679	19136.38
756.017	18967.79
756.355	19012.54
756.693	19034.91
757.031	18993.55
757.368	18839.89
757.706	18842.6
758.044	18697.29
758.381	18875.59
758.719	18709.27
759.056	18617.52
759.394	18686.44
759.731	18482.16
760.068	18504.08
760.405	18363.97
760.743	18391.76
761.08	18348.15
761.417	18244.65
761.754	18129.62
762.091	18122.39
762.428	18072.9
762.765	18000.36
763.102	17996.52
763.438	17876.52
763.775	17857.76
764.112	17777.32
764.449	17771.21
764.785	17663.65
765.122	17578.45
765.458	17576.64
765.795	17543.42
766.131	17505.46
766.467	17410.32
766.804	17351.11
767.14	17365.12
767.476	17248.74
767.812	17207.39
768.148	17211.68
768.485	17051.68
768.821	17073.83
769.157	16935.98
769.492	16865.7
769.828	16826.61
770.164	16781.86
770.5	16731.92
770.836	16731.92
771.171	16603.11
771.507	16610.11
771.842	16474.98
772.178	16453.51
772.513	16401.76
772.849	16368.54
773.184	16304.59
773.519	16284.92
773.855	16224.14
774.19	16070.69
774.525	16067.53
774.86	16069.34
775.195	15922.22
775.53	15893.52
775.865	15862.11
776.2	15697.37
776.535	15653.3
776.87	15595.68
777.205	15587.32
777.539	15566.07
777.874	15503.25
778.209	15380.54
778.543	15424.38
778.878	15291.05
779.212	15224.61
779.547	15195.46
779.881	15262.35
780.215	15141.45
780.55	15117.95
780.884	15006.31
781.218	14975.13
781.552	14978.29
781.886	14891.29
782.22	14782.14
782.554	14709.83
782.888	14581.69
783.222	14595.03
783.556	14484.75
783.889	14526.33
784.223	14409.27
784.557	14450.4
784.89	14328.59
785.224	14275.03
785.557	14209.5
785.891	14129.05
786.224	14203.17
786.558	14207.01
786.891	14049.05
787.224	13995.27
787.557	14001.37
787.891	13914.82
788.224	13898.1
788.557	13916.85
788.89	13801.15
789.223	13783.75
789.556	13713.02
789.888	13637.08
790.221	13588.27
790.554	13419.24
790.887	13457.65
791.219	13376.07
791.552	13293.59
791.884	13303.53
792.217	13284.33
792.549	13186.48
792.882	13147.15
793.214	13043.88
793.546	13097.44
793.879	12984.67
794.211	12918.01
794.543	13007.5
794.875	12899.48
795.207	12893.15
795.539	12903.09
795.871	12886.82
796.203	12759.14
796.535	12623.33
796.867	12626.49
797.198	12640.5
797.53	12653.38
797.862	12549.66
798.193	12602.54
798.525	12445.03
798.856	12523.89
799.188	12355.31
799.519	12267.63
799.85	12294.75
800.182	12259.95
800.513	12353.5
800.844	12122.1
801.175	12240.29
801.506	12213.62
801.837	12057.01
802.168	12054.53
802.499	11977.92
802.83	11987.41
803.161	11873.52
803.491	11943.34
803.822	11844.14
804.153	11806.17
804.483	11787.87
804.814	11771.6
805.145	11675.1
805.475	11730.24
805.805	11645.27
806.136	11657.48
806.466	11635.78
806.796	11558.27
807.126	11514.2
807.457	11451.83
807.787	11553.98
808.117	11427.43
808.447	11389.23
808.777	11438.5
809.107	11339.74
809.436	11369.57
809.766	11305.62
810.096	11249.35
810.426	11208.45
810.755	11260.88
811.085	11211.39
811.414	11213.65
811.744	11116.02
812.073	11140.65
812.403	10990.83
812.732	11040.77
813.061	10922.35
813.39	10937.49
813.719	10918.51
814.049	10955.8
814.378	10895.91
814.707	10846.2
815.036	10839.64
815.365	10753.54
815.693	10687.33
816.022	10682.36
816.351	10690.72
816.68	10550.39
817.008	10624.28
817.337	10608.92
817.665	10515.13
817.994	10533.44
818.322	10474.68
818.651	10445.53
818.979	10469.94
819.307	10494.79
819.636	10433.1
819.964	10345.19
820.292	10368.92
820.62	10380.67
820.948	10330.73
821.276	10415.93
821.604	10318.75
821.932	10376.61
822.259	10340.45
822.587	10239.21
822.915	10337.51
823.243	10241.47
823.57	10202.6
823.898	10287.57
824.225	10281.01
824.553	10214.8
824.88	10313.33
825.207	10354.91
825.535	10288.92
825.862	10256.38
826.189	10243.95
826.516	10276.5
826.843	10263.39
827.17	10336.38
827.497	10295.03
827.824	10333.22
828.151	10290.73
828.478	10278.08
828.805	10274.46
829.131	10273.33
829.458	10234.69
829.785	10237.4
830.111	10194.69
830.438	10278.53
830.764	10246.89
831.09	10270.17
831.417	10248.02
831.743	10330.51
832.069	10226.55
832.395	10253.9
832.722	10246.89
833.048	10225.65
833.374	10228.14
833.7	10128.7
834.026	10242.15
834.351	10167.12
834.677	10158.31
835.003	10192.88
835.329	10192.66
835.654	10186.1
835.98	10075.14
836.306	10118.76
836.631	10063.85
836.956	10125.76
837.282	10036.28
837.607	10039.89
837.932	10010.51
838.258	9991.98
838.583	9970.51
838.908	9991.98
839.233	9977.29
839.558	9940.91
839.883	9874.47
840.208	9809.39
840.533	9793.12
840.858	9891.42
841.182	9829.05
841.507	9790.41
841.832	9805.1
842.156	9791.31
842.481	9803.74
842.805	9779.33
843.13	9726
843.454	9708.83
843.778	9684.87
844.103	9662.95
844.427	9609.39
844.751	9596.51
845.075	9531.43
845.399	9532.79
845.723	9510.87
846.047	9517.87
846.371	9521.71
846.695	9405.11
847.019	9365.11
847.343	9303.41
847.666	9270.19
847.99	9229.29
848.313	9281.27
848.637	9111.1
848.96	9116.07
849.284	9128.05
849.607	9099.58
849.931	9030.2
850.254	9010.54
850.577	8883.76
850.9	8816.87
851.223	8839.7
851.546	8830.43
851.869	8825.69
852.192	8735.97
852.515	8742.07
852.838	8707.27
853.161	8717.44
853.483	8654.39
853.806	8602.64
854.129	8599.93
854.451	8598.57
854.774	8509.76
855.096	8495.3
855.419	8466.15
855.741	8481.97
856.063	8408.07
856.385	8435.41
856.708	8380.5
857.03	8377.11
857.352	8370.33
857.674	8299.6
857.996	8319.26
858.318	8251.01
858.64	8261.86
858.961	8239.94
859.283	8190.22
859.605	8172.6
859.926	8135.76
860.248	8147.06
860.57	8157.91
860.891	8179.38
861.212	8102.77
861.534	8060.51
861.855	8013.05
862.176	8023.9
862.498	8028.19
862.819	8022.54
863.14	8065.71
863.461	7999.72
863.782	7910
864.103	7961.98
864.424	7885.82
864.745	7890.8
865.065	7883.11
865.386	7873.17
865.707	7880.63
866.027	7816.45
866.348	7877.46
866.668	7812.38
866.989	7825.49
867.309	7804.24
867.63	7735.09
867.95	7742.32
868.27	7728.99
868.59	7695.77
868.91	7707.3
869.23	7699.84
869.55	7647.41
869.87	7663.91
870.19	7665.49
870.51	7633.63
870.83	7716.79
871.15	7647.41
871.469	7642.21
871.789	7598.15
872.109	7603.12
872.428	7576.68
872.748	7588.66
873.067	7538.94
873.386	7493.29
873.706	7495.33
874.025	7434.76
874.344	7469.11
874.663	7484.93
874.982	7471.37
875.301	7430.47
875.62	7416.68
875.939	7448.1
876.258	7458.49
876.577	7362.45
876.896	7369.23
877.214	7356.12
877.533	7349.11
877.852	7375.55
878.17	7290.59
878.489	7331.71
878.807	7333.75
879.125	7342.56
879.444	7266.18
879.762	7258.5
880.08	7324.03
880.398	7264.6
880.716	7204.94
881.034	7182.79
881.352	7176.46
881.67	7200.64
881.988	7190.25
882.306	7151.61
882.624	7188.89
882.941	7111.38
883.259	7128.78
883.577	7026.64
883.894	7060.76
884.212	7094.66
884.529	7043.13
884.846	6986.41
885.164	7051.04
885.481	7006.52
885.798	7008.33
886.115	6900.99
886.432	6932.63
886.75	6924.72
887.067	6934.44
887.383	6929.69
887.7	6889.92
888.017	6804.04
888.334	6891.95
888.651	6807.21
888.967	6826.64
889.284	6758.62
889.6	6729.24
889.917	6701.45
890.233	6755.68
890.55	6696.25
890.866	6731.96
891.182	6695.57
891.498	6584.84
891.815	6672.97
892.131	6621.9
892.447	6597.27
892.763	6532.41
893.079	6595.46
893.395	6550.49
893.71	6532.19
894.026	6511.4
894.342	6499.42
894.657	6441.34
894.973	6418.52
895.289	6432.53
895.604	6389.82
895.92	6403.38
896.235	6346.88
896.55	6370.16
896.865	6363.15
897.181	6329.48
897.496	6289.93
897.811	6277.5
898.126	6211.29
898.441	6168.13
898.756	6207.9
899.071	6176.94
899.386	6173.55
899.7	6124.97
900.015	6066.89
900.33	6122.03
900.644	6060.56
900.959	6042.71
901.273	5993.9
901.588	6001.13
901.902	5956.61
902.216	5971.3
902.531	5910.73
902.845	5930.39
903.159	5903.73
903.473	5888.81
903.787	5854.24
904.101	5814.24
904.415	5827.35
904.729	5841.81
905.042	5766.33
905.356	5765.88
905.67	5760.68
905.984	5708.71
906.297	5725.43
906.611	5701.7
906.924	5689.05
907.237	5648.14
907.551	5586.9
907.864	5626.67
908.177	5623.96
908.491	5511.87
908.804	5537.64
909.117	5507.13
909.43	5460.12
909.743	5472.33
910.056	5426
910.368	5423.74
910.681	5412.44
910.994	5398.21
911.307	5408.6
911.619	5294.48
911.932	5338.55
912.244	5226.91
912.557	5282.28
912.869	5209.51
913.181	5224.42
913.494	5231.2
913.806	5198.21
914.118	5154.14
914.43	5139.23
914.742	5132.45
915.054	5087.93
915.366	5118.44
915.678	5075.05
915.99	5079.8
916.302	5024.66
916.613	4990.76
916.925	4991.66
917.236	4996.18
917.548	4942.85
917.859	4948.73
918.171	4946.92
918.482	4940.36
918.794	4854.04
919.105	4879.8
919.416	4814.72
919.727	4827.15
920.038	4837.09
920.349	4777.2
920.66	4745.12
920.971	4769.75
921.282	4692.91
921.593	4690.65
921.903	4679.81
922.214	4663.76
922.525	4623.54
922.835	4644.78
923.146	4592.58
923.456	4593.93
923.767	4597.77
924.077	4521.39
924.387	4535.86
924.697	4528.17
925.008	4525.46
925.318	4438.91
925.628	4459.7
925.938	4461.06
926.248	4419.7
926.558	4377.89
926.867	4389.64
927.177	4360.94
927.487	4360.72
927.796	4280.49
928.106	4338.12
928.416	4315.52
928.725	4290.89
929.034	4278.46
929.344	4301.51
929.653	4279.82
929.962	4202.98
930.271	4213.83
930.581	4150.33
930.89	4145.58
931.199	4153.72
931.508	4153.04
931.817	4111.46
932.125	4154.62
932.434	4060.61
932.743	4030.33
933.051	4027.62
933.36	4065.81
933.669	4025.59
933.977	4025.59
934.286	4009.32
934.594	3993.27
934.902	3957.11
935.21	3922.99
935.519	3927.96
935.827	3892.71
936.135	3891.8
936.443	3840.96
936.751	3871.01
937.059	3875.99
937.367	3810.68
937.674	3819.94
937.982	3798.25
938.29	3742.2
938.597	3766.38
938.905	3761.64
939.213	3741.07
939.52	3719.38
939.827	3703.33
940.135	3671.02
940.442	3645.71
940.749	3633.96
941.056	3669.44
941.363	3605.03
941.67	3644.81
941.977	3611.59
942.284	3558.48
942.591	3572.94
942.898	3571.36
943.205	3523.68
943.511	3529.33
943.818	3510.8
944.125	3488.65
944.431	3512.15
944.738	3450.69
945.044	3471.25
945.35	3398.94
945.657	3400.52
945.963	3406.17
946.269	3374.76
946.575	3369.78
946.881	3361.2
947.187	3352.16
947.493	3341.54
947.799	3283.68
948.105	3341.76
948.41	3293.85
948.716	3243.23
949.022	3249.56
949.327	3302.44
949.633	3181.77
949.938	3216.57
950.244	3217.25
950.549	3176.34
950.854	3129.11
951.16	3186.74
951.465	3143.35
951.77	3138.15
952.075	3102.9
952.38	3109
952.685	3094.54
952.99	3102.45
953.294	3106.74
953.599	3054.54
953.904	3038.04
954.209	3056.8
954.513	2993.52
954.818	3045.73
955.122	3022
955.426	2972.73
955.731	2955.33
956.035	2926.86
956.339	2960.76
956.643	2947.2
956.948	2890.02
957.252	2911.94
957.556	2876.46
957.86	2872.85
958.163	2879.4
958.467	2851.83
958.771	2836.69
959.075	2817.93
959.378	2809.57
959.682	2808.9
959.985	2794.43
960.289	2771.16
960.592	2770.7
960.896	2760.76
961.199	2768.22
961.502	2768.67
961.805	2746.07
962.108	2698.16
962.411	2713.08
962.714	2694.32
963.017	2669.46
963.32	2679.18
963.623	2663.14
963.926	2652.06
964.228	2645.06
964.531	2652.06
964.833	2659.75
965.136	2586.3
965.438	2570.71
965.741	2618.62
966.043	2594.44
966.345	2587.21
966.648	2566.19
966.95	2575.68
967.252	2545.63
967.554	2518.51
967.856	2507.66
968.158	2510.82
968.46	2484.61
968.761	2483.03
969.063	2492.97
969.365	2466.98
969.666	2459.75
969.968	2442.35
970.269	2436.93
970.571	2388.34
970.872	2437.61
971.174	2396.02
971.475	2404.39
971.776	2366.42
972.077	2379.53
972.378	2418.4
972.679	2337.5
972.98	2334.56
973.281	2337.95
973.582	2320.09
973.883	2325.29
974.183	2301.56
974.484	2321.45
974.785	2320.77
975.085	2295.46
975.386	2322.35
975.686	2263.15
975.986	2233.99
976.287	2238.29
976.587	2218.63
976.887	2233.77
977.187	2238.06
977.487	2207.1
977.787	2192.19
978.087	2213.43
978.387	2178.18
978.687	2170.95
978.987	2157.16
979.286	2170.72
979.586	2165.07
979.885	2131.85
980.185	2111.74
980.484	2113.09
980.784	2123.49
981.083	2118.74
981.382	2102.92
981.682	2144.73
981.981	2045.53
982.28	2063.38
982.579	2067.22
982.878	2060.89
983.177	2056.6
983.475	2055.24
983.774	2013.66
984.073	2007.33
984.372	2055.02
984.67	2013.21
984.969	1981.8
985.267	1979.54
985.566	2002.36
985.864	1972.98
986.162	1938.86
986.461	1952.87
986.759	1959.88
987.057	1940.67
987.355	1907.45
987.653	1902.03
987.951	1864.97
988.249	1905.42
988.547	1852.99
988.844	1889.37
989.142	1892.99
989.44	1855.7
989.737	1857.96
990.035	1856.83
990.332	1838.75
990.63	1859.77
990.927	1831.07
991.224	1840.78
991.521	1772.76
991.819	1804.63
992.116	1807.34
992.413	1789.49
992.71	1791.07
993.006	1792.2
993.303	1794.23
993.6	1756.72
993.897	1770.05
994.193	1755.82
994.49	1715.82
994.787	1753.78
995.083	1721.24
995.379	1702.03
995.676	1715.36
995.972	1683.05
996.268	1669.72
996.565	1637.85
996.861	1673.78
997.157	1669.49
997.453	1659.55
997.749	1662.03
998.044	1643.05
998.34	1620
998.636	1622.94
998.932	1646.89
999.227	1597.18
999.523	1621.81
999.818	1626.78
1000.114	1592.66
1000.409	1575.48
1000.704	1573.22
1001	1530.06
1001.295	1554.24
1001.59	1535.48
1001.885	1539.1
1002.18	1545.2
1002.475	1540.91
1002.77	1534.13
1003.065	1511.98
1003.359	1520.12
1003.654	1521.02
1003.949	1467.46
1004.243	1500
1004.538	1454.13
1004.832	1474.01
1005.127	1474.01
1005.421	1468.59
1005.715	1431.53
1006.009	1436.5
1006.304	1449.16
1006.598	1430.85
1006.892	1417.97
1007.186	1391.76
1007.48	1418.88
1007.773	1376.16
1008.067	1402.15
1008.361	1378.42
1008.655	1396.05
1008.948	1389.27
1009.242	1322.83
1009.535	1339.78
1009.829	1342.27
1010.122	1343.62
1010.415	1314.47
1010.708	1335.71
1011.001	1290.29
1011.295	1306.34
1011.588	1315.38
1011.881	1297.52
1012.173	1289.39
1012.466	1283.51
1012.759	1272.21
1013.052	1260.24
1013.344	1264.08
1013.637	1236.96
1013.93	1251.65
1014.222	1218.2
1014.514	1208.03
1014.807	1222.27
1015.099	1200.35
1015.391	1191.54
1015.683	1211.2
1015.976	1184.31
1016.268	1188.6
1016.56	1195.83
1016.851	1202.16
1017.143	1176.62
1017.435	1195.38
1017.727	1178.2
1018.018	1139.79
1018.31	1138.43
1018.602	1138.2
1018.893	1134.14
1019.185	1126.68
1019.476	1113.35
1019.767	1116.74
1020.058	1139.79
1020.35	1093.23
1020.641	1100.24
1020.932	1102.27
1021.223	1099.56
1021.514	1079
1021.804	1089.39
1022.095	1077.19
1022.386	1075.38
1022.677	1055.04
1022.967	1045.33
1023.258	1052.33
1023.548	1023.86
1023.839	1025.44
1024.129	1012.78
1024.419	1017.08
1024.709	1029.05
1025	1003.07
1025.29	981.82
1025.58	991.09
1025.87	987.93
1026.16	981.82
1026.449	975.72
1026.739	966.01
1027.029	966.46
1027.319	944.54
1027.608	945.89
1027.898	945.44
1028.187	949.73
1028.477	925.33
1028.766	930.53
1029.055	939.57
1029.344	930.75
1029.634	898.44
1029.923	885.33
1030.212	889.4
1030.501	908.61
1030.79	896.18
1031.078	876.74
1031.367	862.05
1031.656	872.22
1031.945	867.7
1032.233	877.87
1032.522	872.22
1032.81	874.03
1033.099	844.88
1033.387	862.73
1033.675	832
1033.963	824.09
1034.251	834.03
1034.54	847.59
1034.828	823.64
1035.116	819.79
1035.403	812.34
1035.691	811.66
1035.979	832.45
1036.267	780.02
1036.554	815.95
1036.842	765.33
1037.129	784.54
1037.417	805.78
1037.704	797.65
1037.992	791.77
1038.279	756.97
1038.566	748.38
1038.853	748.38
1039.14	748.38
