Data from white_steel_sheet_FLMS001491_072.txt Node
Date: Tue Feb 07 10:58:26 GMT 2017
User: dcchb
Spectrometer: FLMS00149
Trigger mode: 0
Integration Time (sec): 2.000000E-2
Scans to average: 10
Electric dark correction enabled: true
Nonlinearity correction enabled: false
Boxcar width: 0
XAxis mode: Wavelengths
Number of Pixels in Spectrum: 2048
>>>>>Begin Spectral Data<<<<<
341.393	-19.87
341.776	-19.87
342.16	-19.87
342.543	-60.1
342.927	-71.85
343.31	-69.36
343.693	-75.69
344.077	-56.48
344.46	-63.26
344.843	-50.15
345.226	-64.62
345.61	-29.82
345.993	-26.43
346.376	-10.16
346.759	37.53
347.142	27.36
347.525	44.08
347.908	63.97
348.291	73.91
348.674	95.38
349.057	103.74
349.44	143.97
349.823	144.87
350.206	184.64
350.588	199.33
350.971	219.22
351.354	247.47
351.737	240.46
352.119	249.73
352.502	271.65
352.884	289.95
353.267	297.18
353.65	305.54
354.032	309.61
354.414	342.38
354.797	317.97
355.179	327.24
355.562	316.39
355.944	337.18
356.326	313.45
356.709	358.42
357.091	352.77
357.473	358.42
357.855	329.95
358.238	342.83
358.62	356.61
359.002	341.47
359.384	351.87
359.766	353.9
360.148	344.86
360.53	355.94
360.912	356.84
361.294	334.69
361.676	330.85
362.057	368.82
362.439	341.93
362.821	348.03
363.203	356.84
363.584	355.71
363.966	349.16
364.348	337.41
364.729	356.39
365.111	352.1
365.493	340.57
365.874	333.34
366.256	357.97
366.637	335.37
367.019	341.25
367.4	322.94
367.781	327.69
368.163	353
368.544	309.38
368.925	338.99
369.306	326.11
369.688	329.72
370.069	329.72
370.45	331.53
370.831	336.28
371.212	321.81
371.593	327.92
371.974	334.24
372.355	337.41
372.736	349.38
373.117	355.49
373.498	334.69
373.879	347.12
374.26	329.05
374.641	332.21
375.021	339.67
375.402	325.66
375.783	342.38
376.163	374.24
376.544	350.29
376.925	355.71
377.305	357.07
377.686	353.68
378.066	357.07
378.447	347.8
378.827	337.63
379.208	356.39
379.588	360.46
379.968	371.08
380.349	366.78
380.729	357.74
381.109	387.57
381.489	370.17
381.87	383.73
382.25	383.73
382.63	378.54
383.01	386.22
383.39	382.6
383.77	363.17
384.15	388.48
384.53	388.93
384.91	392.09
385.29	394.35
385.67	408.59
386.049	391.64
386.429	395.94
386.809	402.94
387.189	399.33
387.568	403.39
387.948	404.52
388.328	426.67
388.707	418.53
389.087	425.31
389.466	430.51
389.846	426.44
390.225	441.36
390.605	445.88
390.984	442.71
391.363	441.36
391.743	459.89
392.122	470.96
392.501	447.91
392.881	471.41
393.26	470.06
393.639	473.67
394.018	478.87
394.397	494.92
394.776	488.81
395.155	493.79
395.534	521.13
395.913	503.73
396.292	528.59
396.671	496.05
397.05	508.7
397.429	538.31
397.808	531.75
398.186	535.82
398.565	537.63
398.944	556.38
399.323	546.89
399.701	575.82
400.08	564.52
400.458	547.57
400.837	601.81
401.215	587.8
401.594	583.05
401.972	604.29
402.351	614.01
402.729	640.9
403.107	638.42
403.486	650.84
403.864	644.06
404.242	635.48
404.62	693.33
404.999	684.06
405.377	708.24
405.755	699.43
406.133	699.66
406.511	707.79
406.889	737.4
407.267	745.08
407.645	743.72
408.023	733.33
408.401	780.11
408.779	780.33
409.156	796.15
409.534	798.86
409.912	829.14
410.29	831.4
410.667	844.29
411.045	869.6
411.422	879.31
411.8	876.15
412.178	898.97
412.555	910.5
412.933	942.81
413.31	937.62
413.687	956.37
414.065	985.98
414.442	951.63
414.819	1000.21
415.197	1034.11
415.574	1028.91
415.951	1035.24
416.328	1045.86
416.705	1042.02
417.082	1060.78
417.46	1053.09
417.837	1109.36
418.214	1078.86
418.591	1093.32
418.967	1122.02
419.344	1131.06
419.721	1139.87
420.098	1137.84
420.475	1157.95
420.852	1180.55
421.228	1215.58
421.605	1215.58
421.982	1224.16
422.358	1246.76
422.735	1228.91
423.111	1251.96
423.488	1246.31
423.864	1275.01
424.241	1309.58
424.617	1307.55
424.994	1327.44
425.37	1340.77
425.746	1371.73
426.123	1398.4
426.499	1359.07
426.875	1416.02
427.251	1431.39
427.627	1433.42
428.003	1459.86
428.379	1473.42
428.756	1496.25
429.132	1535.34
429.507	1515
429.883	1578.96
430.259	1569.92
430.635	1602.68
431.011	1635
431.387	1687.88
431.763	1673.64
432.138	1686.3
432.514	1710.03
432.89	1749.35
433.265	1732.4
433.641	1800.64
434.016	1778.5
434.392	1829.12
434.767	1866.86
435.143	1860.3
435.518	1892.85
435.894	1912.96
436.269	1925.39
436.644	1957.48
437.02	1966.06
437.395	1966.06
437.77	2006.74
438.145	2025.72
438.52	2065.27
438.895	2113.86
439.271	2098.49
439.646	2133.29
440.021	2166.74
440.395	2170.58
440.77	2140.52
441.145	2183.69
441.52	2217.36
441.895	2250.58
442.27	2236.11
442.645	2242.67
443.019	2281.31
443.394	2291.48
443.769	2323.57
444.143	2316.79
444.518	2357.01
444.892	2362.89
445.267	2404.7
445.641	2422.1
446.016	2432.94
446.39	2444.24
446.764	2464.81
447.139	2477.24
447.513	2501.64
447.887	2519.95
448.262	2532.83
448.636	2557.91
449.01	2601.98
449.384	2619.83
449.758	2631.13
450.132	2688.53
450.506	2661.64
450.88	2698.25
451.254	2698.7
451.628	2752.71
452.002	2779.6
452.376	2827.74
452.75	2823.89
453.123	2837.45
453.497	2937.11
453.871	2959.03
454.244	2959.94
454.618	3001.74
454.992	3032.48
455.365	3034.96
455.739	3072.48
456.112	3152.02
456.486	3151.57
456.859	3175.3
457.232	3246.71
457.606	3254.84
457.979	3291.23
458.352	3382.3
458.725	3441.96
459.099	3441.05
459.472	3467.72
459.845	3543.65
460.218	3564.21
460.591	3612.8
460.964	3626.81
461.337	3659.58
461.71	3794.26
462.083	3834.04
462.456	3837.65
462.829	3829.97
463.201	3882.17
463.574	3920.36
463.947	3981.6
464.32	4102.28
464.692	4051.43
465.065	4137.98
465.438	4196.29
465.81	4239.68
466.183	4330.52
466.555	4383.18
466.928	4409.39
467.3	4420.01
467.672	4476.28
468.045	4585.66
468.417	4590.4
468.789	4619.55
469.161	4787.68
469.534	4796.27
469.906	4867.91
470.278	4924.86
470.65	5010.05
471.022	5062.03
471.394	5125.98
471.766	5219.76
472.138	5294.11
472.51	5396.48
472.882	5424.96
473.253	5501.34
473.625	5620.66
473.997	5718.06
474.369	5757.15
474.74	5807.55
475.112	5906.07
475.484	6021.55
475.855	6116.01
476.227	6124.6
476.598	6344.71
476.97	6399.85
477.341	6557.13
477.713	6680.74
478.084	6757.12
478.455	6879.16
478.827	6962.54
479.198	7113.73
479.569	7164.12
479.94	7319.6
480.311	7417.9
480.682	7609.98
481.053	7753.48
481.424	7903.76
481.795	7948.28
482.166	8089.97
482.537	8199.12
482.908	8325.44
483.279	8463.07
483.65	8644.31
484.021	8776.05
484.391	8870.52
484.762	8937.63
485.133	9051.53
485.503	9193.9
485.874	9359.09
486.244	9467.11
486.615	9628.46
486.985	9742.36
487.356	9930.6
487.726	9988.23
488.097	10298.5
488.467	10284.04
488.837	10482.22
489.207	10647.87
489.578	10732.84
489.948	10827.07
490.318	11037.69
490.688	11116.78
491.058	11257.35
491.428	11390.68
491.798	11501.18
492.168	11736.65
492.538	11823.66
492.908	11952.24
493.278	12072.69
493.648	12225.91
494.017	12313.59
494.387	12388.61
494.757	12474.94
495.126	12632.45
495.496	12766.91
495.866	12851.65
496.235	12998.77
496.605	13094.36
496.974	13234.02
497.344	13287.8
497.713	13462.26
498.082	13474.91
498.452	13644.63
498.821	13714.68
499.19	13860.89
499.559	13874
499.928	14046.88
500.298	14196.48
500.667	14315.57
501.036	14300.2
501.405	14495.68
501.774	14476.92
502.143	14704.49
502.512	14678.95
502.88	14847.08
503.249	14959.85
503.618	15122.78
503.987	15150.58
504.356	15240.97
504.724	15284.81
505.093	15419.27
505.462	15504.92
505.83	15599.6
506.199	15790.33
506.567	15988.97
506.936	15971.35
507.304	16181.28
507.672	16306.25
508.041	16371.11
508.409	16516.42
508.777	16705.11
509.145	16771.32
509.514	16824.88
509.882	16973.58
510.25	16982.84
510.618	17170.41
510.986	17266.9
511.354	17390.29
511.722	17502.38
512.09	17712.77
512.458	17823.73
512.826	17818.98
513.193	18056.71
513.561	18080.89
513.929	18314.33
514.297	18527.44
514.664	18605.17
515.032	18771.27
515.4	18918.39
515.767	18894.43
516.135	19105.73
516.502	19024.37
516.869	19446.06
517.237	19381.88
517.604	19442.89
517.972	19793.39
518.339	19831.81
518.706	20002.88
519.073	20024.8
519.44	20216.21
519.808	20549.76
520.175	20467.5
520.542	20774.61
520.909	20926.7
521.276	20900.26
521.643	21210.3
522.009	21359
522.376	21456.4
522.743	21588.15
523.11	21904.97
523.477	22185.19
523.843	22272.42
524.21	22469.03
524.577	22611.17
524.943	22618.85
525.31	22860.43
525.676	23165.05
526.043	23307.2
526.409	23316.69
526.776	23628.32
527.142	23636.91
527.508	23867.64
527.874	24021.53
528.241	24234.18
528.607	24278.92
528.973	24509.2
529.339	24563.66
529.705	24825.58
530.071	24979.92
530.437	25044.55
530.803	25305.56
531.169	25471.89
531.535	25455.84
531.901	25535.16
532.267	25814.48
532.632	25959.33
532.998	26080.91
533.364	26214.92
533.73	26286.1
534.095	26411.52
534.461	26541.46
534.826	26644.74
535.192	26798.63
535.557	26953.43
535.923	27065.52
536.288	27146.19
536.653	27313.65
537.019	27253.08
537.384	27450.14
537.749	27633.41
538.114	27614.88
538.479	27758.38
538.845	27830.24
539.21	27845.38
539.575	28039.95
539.94	28045.38
540.305	28315.2
540.67	28255.99
541.034	28273.85
541.399	28678.13
541.764	28641.97
542.129	28680.16
542.494	28838.35
542.858	29018.69
543.223	29006.94
543.587	29248.74
543.952	29198.79
544.316	29323.99
544.681	29291.45
545.045	29484.89
545.41	29592.23
545.774	29782.06
546.138	29730.98
546.503	29754.26
546.867	29886.01
547.231	30157.41
547.595	30156.51
547.959	30291.65
548.324	30450.96
548.688	30539.78
549.052	30646.67
549.416	30717.85
549.779	30798.75
550.143	30829.03
550.507	31069.25
550.871	31220.21
551.235	31214.11
551.599	31380.43
551.962	31526.19
552.326	31434.89
552.689	31776.13
553.053	31709.01
553.417	31754.89
553.78	32191.48
554.143	31973.18
554.507	32314.42
554.87	32312.84
555.234	32611.81
555.597	32455.66
555.96	32690.91
556.323	32863.56
556.686	32913.5
557.05	33094.06
557.413	33174.06
557.776	33294.05
558.139	33514.84
558.502	33570.43
558.865	33694.27
559.228	33827.83
559.59	34042.28
559.953	34024.88
560.316	34407.02
560.679	34334.7
561.041	34811.98
561.404	34650.85
561.767	35001.58
562.129	34842.26
562.492	35206.77
562.854	35221.46
563.217	35213.1
563.579	35512.98
563.941	35710.04
564.304	35766.31
564.666	35963.36
565.028	36074.09
565.39	36219.17
565.753	36416.68
566.115	36635.44
566.477	36704.59
566.839	36829.55
567.201	37090.34
567.563	37008.31
567.925	37287.85
568.287	37234.52
568.648	37348.18
569.01	37531
569.372	37734.84
569.734	37772.81
570.095	38091.22
570.457	38151.78
570.819	38204.89
571.18	38348.61
571.542	38539.34
571.903	38419.79
572.265	38692.78
572.626	38723.29
572.987	38779.33
573.349	38862.27
573.71	39019.1
574.071	39129.83
574.432	39254.12
574.794	39583.83
575.155	39412.99
575.516	39375.7
575.877	39671.74
576.238	39768.01
576.599	39635.58
576.96	39718.29
577.32	39777.05
577.681	39947.66
578.042	40050.71
578.403	40106.3
578.763	40107.43
579.124	40145.63
579.485	40238.73
579.845	40357.15
580.206	40264.04
580.566	40322.57
580.927	40289.8
581.287	40575.67
581.648	40353.98
582.008	40523.02
582.368	40492.06
582.728	40587.2
583.089	40577.7
583.449	40516.46
583.809	40592.62
584.169	40743.12
584.529	40574.31
584.889	40854.53
585.249	40509.68
585.609	40453.41
585.969	40752.16
586.329	40694.31
586.688	40692.05
587.048	40698.61
587.408	40683.24
587.768	40658.15
588.127	40732.5
588.487	40513.98
588.846	40878.94
589.206	40558.72
589.565	40644.14
589.925	40797.13
590.284	40676.91
590.643	40609.57
591.003	40738.38
591.362	40916.45
591.721	40796.68
592.08	40789.9
592.44	40859.05
592.799	40821.31
593.158	40831.26
593.517	40803.69
593.876	40843.91
594.235	40694.31
594.593	40770.47
594.952	40907.19
595.311	40757.13
595.67	40942.67
596.029	40978.82
596.387	41038.71
596.746	41147.18
597.104	40978.15
597.463	40996.45
597.822	40950.35
598.18	40830.35
598.538	40813.18
598.897	41067.41
599.255	40715.33
599.613	41257.69
599.972	41011.37
600.33	41074.64
600.688	40975.43
601.046	41127.75
601.404	41169.78
601.762	41180.4
602.12	41324.58
602.478	41272.83
602.836	41264.92
603.194	41091.82
603.552	41169.1
603.91	40942.89
604.268	41244.58
604.625	41046.39
604.983	41326.16
605.341	41139.05
605.698	41246.61
606.056	41480.51
606.413	41361.41
606.771	41541.07
607.128	41565.25
607.485	41418.36
607.843	41449.77
608.2	41638.69
608.557	41685.02
608.914	41553.95
609.272	41713.49
609.629	41928.63
609.986	42068.29
610.343	41734.96
610.7	42158.45
611.057	42010.21
611.414	41922.75
611.771	42152.35
612.127	41944.67
612.484	41994.62
612.841	42238.45
613.198	42070.55
613.554	42207.72
613.911	42468.73
614.267	42359.58
614.624	42411.33
614.98	42409.52
615.337	42549.86
615.693	42516.41
616.05	42560.48
616.406	42717.53
616.762	42488.61
617.118	42582.62
617.475	42503.3
617.831	42736.52
618.187	42717.31
618.543	42682.06
618.899	42981.26
619.255	42942.39
619.611	42858.32
619.967	43077.3
620.323	43090.86
620.678	42831.2
621.034	42903.07
621.39	42786.01
621.746	42767.48
622.101	43298.99
622.457	42982.16
622.812	43093.57
623.168	43182.16
623.523	43053.57
623.879	43259.89
624.234	43043.4
624.589	43102.38
624.945	43108.94
625.3	43157.3
625.655	43065.77
626.01	43196.62
626.365	43118.65
626.72	43084.76
627.075	43050.63
627.43	43042.95
627.785	43052.67
628.14	43087.47
628.495	42971.99
628.85	43188.26
629.205	42936.51
629.559	43204.3
629.914	42914.59
630.269	42901.94
630.623	42880.02
630.978	42864.2
631.332	42905.55
631.687	43112.1
632.041	42836.4
632.396	42869.4
632.75	42728.83
633.104	42833.24
633.459	42572
633.813	42623.98
634.167	42546.92
634.521	42566.13
634.875	42554.83
635.229	42395.51
635.583	42332.01
635.937	42307.83
636.291	42283.65
636.645	42280.94
636.999	42107.38
637.352	42412.91
637.706	41994.16
638.06	42049.76
638.413	41979.25
638.767	41904.68
639.121	41976.31
639.474	41719.82
639.828	41600.5
640.181	41852.92
640.534	41773.83
640.888	41522.09
641.241	41552.82
641.594	41450.22
641.947	41617.22
642.301	41477.34
642.654	41462.88
643.007	41335.42
643.36	41338.59
643.713	41401.19
644.066	41361.86
644.419	41177.24
644.771	40946.06
645.124	40511.94
645.477	40468.78
645.83	40128
646.182	40000.54
646.535	40010.71
646.888	40050.71
647.24	39828.57
647.593	40083.03
647.945	39945.63
648.298	39694.56
648.65	39749.7
649.002	39589.93
649.355	39712.42
649.707	39688.24
650.059	39708.35
650.411	40263.81
650.763	40317.82
651.115	40652.96
651.467	40467.42
651.819	40457.48
652.171	40436.01
652.523	40309.46
652.875	40312.4
653.227	40194.44
653.578	40352.4
653.93	40343.59
654.282	40029.92
654.633	40001.67
654.985	39984.73
655.337	39945.18
655.688	39965.29
656.039	40034.89
656.391	39811.62
656.742	39916.7
657.094	39771.85
657.445	40037.83
657.796	39918.06
658.147	39852.98
658.498	39733.21
658.849	39884.16
659.2	39769.59
659.551	39518.07
659.902	39768.46
660.253	39500.22
660.604	39606.2
660.955	39291.41
661.306	39622.93
661.656	39504.51
662.007	39443.5
662.358	39266.78
662.708	39342.71
663.059	39255.71
663.409	38955.6
663.76	39133
664.11	39111.08
664.461	39115.6
664.811	39098.2
665.161	38985.43
665.511	38903.85
665.862	38982.27
666.212	38841.03
666.562	38800.35
666.912	38631.54
667.262	38642.61
667.612	38392.22
667.962	38457.76
668.312	38456.86
668.662	38540.24
669.011	38226.58
669.361	38109.29
669.711	38051.67
670.06	37930.77
670.41	37744.56
670.76	37719.47
671.109	37818
671.459	37778.91
671.808	37674.5
672.157	37604.45
672.507	37218.92
672.856	37258.24
673.205	37386.83
673.554	37502.98
673.904	37126.5
674.253	37343.66
674.602	37281.75
674.951	36848.31
675.3	36492.61
675.649	37017.57
675.998	36986.61
676.346	36988.65
676.695	37131.47
677.044	36636.79
677.393	36881.76
677.741	36983.67
678.09	36805.83
678.438	36705.94
678.787	36789.78
679.135	36766.96
679.484	36592.27
679.832	36625.27
680.181	36511.6
680.529	36576.68
680.877	36602.22
681.225	36403.8
681.573	36680.41
681.922	36471.6
682.27	36421.88
682.618	36497.36
682.966	36473.18
683.314	36492.84
683.661	36536.91
684.009	36319.29
684.357	36250.36
684.705	36366.97
685.053	36378.94
685.4	36257.14
685.748	36211.49
686.095	36258.04
686.443	36204.26
686.79	36298.72
687.138	36303.47
687.485	36319.51
687.832	36167.2
688.18	36271.38
688.527	36131.04
688.874	36172.85
689.221	36185.5
689.568	36107.99
689.915	35931.72
690.262	35982.8
690.609	35967.2
690.956	35788.9
691.303	35842.01
691.65	35766.53
691.997	35930.59
692.344	35692.18
692.69	35589.13
693.037	35753.2
693.383	35531.74
693.73	35678.4
694.077	35434.56
694.423	35433.66
694.769	35437.5
695.116	35307.11
695.462	35293.1
695.808	35146.21
696.155	35246.09
696.501	35141.91
696.847	35150.28
697.193	34680.68
697.539	35116.6
697.885	34773.11
698.231	34719.78
698.577	34644.53
698.923	34595.04
699.269	34533.34
699.614	34321.6
699.96	34378.55
700.306	34365.89
700.651	34098.78
700.997	34087.25
701.342	34074.37
701.688	34069.17
702.033	33830.99
702.379	33899.24
702.724	33765.45
703.069	33816.98
703.415	33486.82
703.76	33420.6
704.105	33496.31
704.45	33418.8
704.795	33177.9
705.14	33128.18
705.485	33113.04
705.83	32899.71
706.175	32981.07
706.52	32874.63
706.865	32740.62
707.209	32770.45
707.554	32582.21
707.899	32740.17
708.243	32572.72
708.588	32459.95
708.932	32226.96
709.277	32361.42
709.621	32344.47
709.966	32154.42
710.31	32205.27
710.654	31933.19
710.998	31984.48
711.342	32004.14
711.687	32021.09
712.031	31804.15
712.375	31661.55
712.719	31583.14
713.063	31629.24
713.407	31615.23
713.75	31419.08
714.094	31499.98
714.438	31375.01
714.782	31371.84
715.125	31266.99
715.469	31306.76
715.812	31123.94
716.156	30845.98
716.499	31083.26
716.843	31069.71
717.186	30687.34
717.53	30913.78
717.873	30891.63
718.216	30859.77
718.559	30706.55
718.902	30554.24
719.246	30619.1
719.589	30485.54
719.932	30266.34
720.275	30311.53
720.617	30467.91
720.96	30315.83
721.303	30137.07
721.646	30284.42
721.989	30050.52
722.331	30104.31
722.674	30005.78
723.016	30098.66
723.359	30021.15
723.701	29962.84
724.044	29834.03
724.386	29710.42
724.729	29810.76
725.071	29724.88
725.413	29702.74
725.755	29714.26
726.097	29523.98
726.439	29481.95
726.782	29453.03
727.124	29447.83
727.465	29305.01
727.807	29319.24
728.149	29313.14
728.491	29189.98
728.833	29202.41
729.175	29122.86
729.516	29032.47
729.858	28923.77
730.199	28964.9
730.541	28938.69
730.882	28928.07
731.224	28969.2
731.565	28730.78
731.906	28745.7
732.248	28663.44
732.589	28587.96
732.93	28404.24
733.271	28465.48
733.612	28536.44
733.953	28484.46
734.294	28358.14
734.635	28338.93
734.976	28385.48
735.317	28249.21
735.658	28113.63
735.999	28207.86
736.339	28138.26
736.68	28236.56
737.021	27961.09
737.361	27934.42
737.702	28026.17
738.042	28075.89
738.383	27904.14
738.723	27893.74
739.063	27851.49
739.404	27938.49
739.744	27722.9
740.084	27743.01
740.424	27731.04
740.764	27621.43
741.104	27776.91
741.444	27580.98
741.784	27347.77
742.124	27494.43
742.464	27488.1
742.804	27396.36
743.143	27234.78
743.483	27287.43
743.823	27135.8
744.162	27249.92
744.502	27206.08
744.841	27037.04
745.181	27166.98
745.52	26990.49
745.86	27116.14
746.199	27089.02
746.538	26944.62
746.877	26931.74
747.216	26850.83
747.556	26825.98
747.895	26832.75
748.234	26713.21
748.573	26711.63
748.911	26734.68
749.25	26567.23
749.589	26447.23
749.928	26578.07
750.267	26453.78
750.605	26531.07
750.944	26386.21
751.283	26307.35
751.621	26392.31
751.96	26172.43
752.298	26168.14
752.636	26068.71
752.975	26036.84
753.313	25876.85
753.651	25976.51
753.989	25836.4
754.327	25816.74
754.666	25603.41
755.004	25689.96
755.342	25635.05
755.679	25636.18
756.017	25463.3
756.355	25657.64
756.693	25354.83
757.031	25375.62
757.368	25356.41
757.706	25100.37
758.044	25084.33
758.381	25223.08
758.719	24968.4
759.056	24937.66
759.394	24822.86
759.731	24730.66
760.068	24692.25
760.405	24624.9
760.743	24526.6
761.08	24527.28
761.417	24450.22
761.754	24427.85
762.091	24332.26
762.428	24266.49
762.765	24113.28
763.102	24179.04
763.438	24052.49
763.775	23898.14
764.112	23905.6
764.449	23896.79
764.785	23705.83
765.122	23547.87
765.458	23508.77
765.795	23485.05
766.131	23470.58
766.467	23388.55
766.804	23294.09
767.14	23057.94
767.476	23073.31
767.812	22972.07
768.148	23191.04
768.485	22776.36
768.821	22661.79
769.157	22711.51
769.492	22726.87
769.828	22669.93
770.164	22402.59
770.5	22362.82
770.836	22360.78
771.171	22186.55
771.507	22204.18
771.842	22076.95
772.178	22119.43
772.513	21982.94
772.849	21961.24
773.184	21736.17
773.519	21796.05
773.855	21801.93
774.19	21592.89
774.525	21585.44
774.86	21488.94
775.195	21401.71
775.53	21409.39
775.865	21168.27
776.2	21123.75
776.535	20983.87
776.87	20968.28
777.205	20740.71
777.539	20733.25
777.874	20749.98
778.209	20591.56
778.543	20555.86
778.878	20380.5
779.212	20379.14
779.547	20278.58
779.881	20396.54
780.215	20092.14
780.55	20216.88
780.884	20067.06
781.218	19983.44
781.552	19919.94
781.886	19909.1
782.22	19711.36
782.554	19707.07
782.888	19586.62
783.222	19479.95
783.556	19408.32
783.889	19385.95
784.223	19187.08
784.557	19208.32
784.89	19169
785.224	19026.86
785.557	18966.3
785.891	18997.25
786.224	18974.66
786.558	18976.24
786.891	18754.55
787.224	18643.37
787.557	18657.6
787.891	18684.49
788.224	18563.59
788.557	18537.15
788.89	18541.9
789.223	18528.57
789.556	18251.29
789.888	18228.69
790.221	18203.15
790.554	18053.32
790.887	18024.4
791.219	17923.61
791.552	17848.13
791.884	17813.56
792.217	17799.77
792.549	17726.78
792.882	17497.18
793.214	17529.04
793.546	17544.19
793.879	17421.93
794.211	17326.56
794.543	17401.59
794.875	17295.38
795.207	17373.12
795.539	17179.9
795.871	17151.88
796.203	16990.53
796.535	16958.44
796.867	16923.64
797.198	16894.03
797.53	16820.36
797.862	16724.55
798.193	16816.75
798.525	16647.94
798.856	16681.16
799.188	16443.65
799.519	16427.15
799.85	16272.81
800.182	16373.37
800.513	16310.55
800.844	16184.9
801.175	16314.84
801.506	16210.66
801.837	16132.7
802.168	16124.34
802.499	15963.44
802.83	15895.87
803.161	15976.32
803.491	15857.45
803.822	15921.4
804.153	15758.24
804.483	15677.12
804.814	15564.58
805.145	15617.46
805.475	15628.08
805.805	15544.24
806.136	15394.86
806.466	15576.33
806.796	15495.88
807.126	15406.84
807.457	15287.07
807.787	15268.77
808.117	15174.53
808.447	15157.36
808.777	15209.11
809.107	15149.22
809.436	15090.46
809.766	14951.03
810.096	14958.72
810.426	14982.45
810.755	14898.38
811.085	14876.23
811.414	14777.7
811.744	14727.31
812.073	14737.48
812.403	14680.98
812.732	14628.1
813.061	14656.8
813.39	14543.13
813.719	14510.59
814.049	14625.62
814.378	14485.73
814.707	14517.6
815.036	14361.44
815.365	14360.77
815.693	14220.21
816.022	14190.83
816.351	14165.52
816.68	14079.19
817.008	14110.38
817.337	14046.88
817.665	13990.15
817.994	14018.85
818.322	14083.49
818.651	13997.84
818.979	13840.78
819.307	13951.29
819.636	14008.69
819.964	13805.53
820.292	13877.39
820.62	13871.74
820.948	13720.78
821.276	13800.33
821.604	13863.6
821.932	13892.3
822.259	13769.82
822.587	13789.71
822.915	13706.77
823.243	13840.78
823.57	13718.98
823.898	13761.01
824.225	13673.33
824.553	13774.34
824.88	13672.87
825.207	13731.4
825.535	13700.44
825.862	13788.13
826.189	13621.35
826.516	13769.82
826.843	13722.14
827.17	13644.4
827.497	13728.24
827.824	13747.9
828.151	13659.99
828.478	13646.89
828.805	13762.82
829.131	13523.05
829.458	13718.3
829.785	13674.91
830.111	13514.01
830.438	13713.1
830.764	13648.69
831.09	13666.1
831.417	13638.75
831.743	13608.92
832.069	13669.71
832.395	13543.39
832.722	13651.86
833.048	13515.14
833.374	13523.5
833.7	13539.77
834.026	13511.52
834.351	13498.42
834.677	13523.73
835.003	13598.75
835.329	13574.12
835.654	13473.11
835.98	13439.21
836.306	13496.61
836.631	13330.74
836.956	13418.19
837.282	13343.39
837.607	13288.48
837.932	13230.85
838.258	13205.32
838.583	13317.86
838.908	13260.23
839.233	13243.96
839.558	13190.63
839.883	13103.4
840.208	13092.1
840.533	13100.23
840.858	13087.13
841.182	13039.67
841.507	13101.82
841.832	13047.58
842.156	12989.05
842.481	12978.88
842.805	12893.23
843.13	12930.3
843.454	12859.56
843.778	12870.64
844.103	12864.99
844.427	12742.28
844.751	12835.61
845.075	12690.08
845.399	12636.74
845.723	12597.2
846.047	12656.4
846.371	12539.12
846.695	12519.68
847.019	12407.37
847.343	12346.36
847.666	12298.9
847.99	12281.73
848.313	12257.32
848.637	12120.6
848.96	12112.92
849.284	12102.29
849.607	12030.88
849.931	12032.47
850.254	11952.69
850.577	11884
850.9	11836.54
851.223	11815.07
851.546	11703.89
851.869	11691.68
852.192	11684.68
852.515	11622.53
852.838	11481.52
853.161	11558.35
853.483	11492.59
853.806	11386.61
854.129	11436.55
854.451	11361.3
854.774	11354.97
855.096	11211.02
855.419	11200.17
855.741	11216.67
856.063	11115.43
856.385	11151.81
856.708	11102.32
857.03	11064.58
857.352	11053.28
857.674	11023.91
857.996	11015.09
858.318	11000.63
858.64	10944.59
858.961	10873.63
859.283	10911.59
859.605	10757.25
859.926	10829.56
860.248	10811.26
860.57	10771.03
860.891	10724.25
861.212	10691.94
861.534	10710.92
861.855	10648.32
862.176	10626.18
862.498	10642.67
862.819	10642.45
863.14	10548.21
863.461	10500.53
863.782	10545.27
864.103	10529.23
864.424	10467.08
864.745	10423.92
865.065	10430.25
865.386	10456.46
865.707	10393.19
866.027	10423.24
866.348	10402
866.668	10372.4
866.989	10307.31
867.309	10211.72
867.63	10268.9
867.95	10289.91
868.27	10254.21
868.59	10264.6
868.91	10146.19
869.23	10206.07
869.55	10136.7
869.87	10110.48
870.19	10207.88
870.51	10186.19
870.83	10160.65
871.15	10057.15
871.469	10099.18
871.789	10163.59
872.109	10060.31
872.428	10042.46
872.748	10080.2
873.067	10103.93
873.386	9957.94
873.706	10008.79
874.025	9969.7
874.344	9934.67
874.663	9873.2
874.982	9910.49
875.301	9907.1
875.62	9800.21
875.939	9870.94
876.258	9827.33
876.577	9791.4
876.896	9776.48
877.214	9745.29
877.533	9721.11
877.852	9814.9
878.17	9737.84
878.489	9723.37
878.807	9750.49
879.125	9704.62
879.444	9695.35
879.762	9703.49
880.08	9664.62
880.398	9555.02
880.716	9603.38
881.034	9553.66
881.352	9544.4
881.67	9533.32
881.988	9556.37
882.306	9501.23
882.624	9467.11
882.941	9386.21
883.259	9440.9
883.577	9383.04
883.894	9399.99
884.212	9420.56
884.529	9388.02
884.846	9376.04
885.164	9320.22
885.481	9294.23
885.798	9277.74
886.115	9185.08
886.432	9197.51
886.75	9165.42
887.067	9162.94
887.383	9091.53
887.7	9131.75
888.017	9045.88
888.334	9109.15
888.651	9016.27
888.967	9000.91
889.284	8959.1
889.6	8924.3
889.917	8871.87
890.233	8912.1
890.55	8900.57
890.866	8902.6
891.182	8867.58
891.498	8836.84
891.815	8794.81
892.131	8792.55
892.447	8751.2
892.763	8706
893.079	8744.64
893.395	8647.47
893.71	8667.13
894.026	8622.16
894.342	8533.35
894.657	8525.21
894.973	8555.27
895.289	8514.59
895.604	8459.68
895.92	8484.99
896.235	8417.42
896.55	8383.3
896.865	8397.31
897.181	8362.73
897.496	8311.43
897.811	8327.03
898.126	8260.36
898.441	8248.84
898.756	8203.41
899.071	8128.16
899.386	8209.29
899.7	8037.09
900.015	8070.31
900.33	8084.55
900.644	7974.95
900.959	8042.29
901.273	7992.35
901.588	7946.02
901.902	7893.59
902.216	7923.65
902.531	7864.67
902.845	7847.72
903.159	7818.57
903.473	7715.07
903.787	7770.66
904.101	7694.28
904.415	7631.45
904.729	7643.43
905.042	7616.76
905.356	7552.13
905.67	7626.71
905.984	7539.48
906.297	7546.26
906.611	7433.94
906.924	7442.53
907.237	7407.73
907.551	7420.61
907.864	7335.41
908.177	7387.84
908.491	7246.83
908.804	7241.86
909.117	7220.16
909.43	7185.36
909.743	7180.16
910.056	7143.1
910.368	7071.92
910.681	7092.03
910.994	7024.91
911.307	7073.73
911.619	7005.25
911.932	7008.42
912.244	6932.04
912.557	6888.87
912.869	6883
913.181	6848.65
913.494	6818.59
913.806	6815.88
914.118	6772.04
914.43	6725.49
914.742	6698.6
915.054	6661.08
915.366	6660.86
915.678	6690.46
915.99	6657.47
916.302	6528.66
916.613	6578.6
916.925	6528.43
917.236	6588.77
917.548	6529.56
917.859	6494.08
918.171	6477.13
918.482	6433.29
918.794	6427.64
919.105	6375.67
919.416	6317.81
919.727	6326.85
920.038	6274.43
920.349	6291.6
920.66	6266.29
920.971	6243.24
921.282	6172.51
921.593	6183.58
921.903	6123.47
922.214	6089.35
922.525	6042.34
922.835	6088.89
923.146	6069.23
923.456	6025.39
923.767	5950.82
924.077	5946.98
924.387	5878.05
924.697	5896.81
925.008	5852.97
925.318	5933.87
925.628	5873.76
925.938	5817.49
926.248	5776.36
926.558	5727.77
926.867	5717.83
927.177	5711.5
927.487	5701.56
927.796	5640.54
928.106	5634.89
928.416	5601.67
928.725	5551.51
929.034	5578.62
929.344	5558.51
929.653	5534.56
929.962	5508.34
930.271	5433.77
930.581	5449.59
930.89	5367.78
931.199	5364.39
931.508	5375.47
931.817	5362.13
932.125	5338.4
932.434	5311.96
932.743	5289.14
933.051	5236.71
933.36	5227
933.669	5237.16
933.977	5179.76
934.286	5135.7
934.594	5129.82
934.902	5052.76
935.21	5085.98
935.519	5092.76
935.827	5045.53
936.135	5066.32
936.443	4999.88
936.751	4975.48
937.059	5056.6
937.367	4957.62
937.674	4894.8
937.982	4916.72
938.29	4907
938.597	4903.16
938.905	4858.87
939.213	4878.76
939.52	4803.28
939.827	4777.29
940.135	4787.23
940.442	4770.06
940.749	4773.22
941.056	4755.6
941.363	4685.77
941.67	4660.68
941.977	4635.82
942.284	4650.29
942.591	4608.25
942.898	4592.21
943.205	4596.28
943.511	4546.79
943.818	4538.88
944.125	4509.5
944.431	4482.83
944.738	4456.62
945.044	4455.94
945.35	4403.74
945.657	4429.28
945.963	4403.74
946.269	4400.35
946.575	4367.58
946.881	4361.71
947.187	4334.59
947.493	4280.13
947.799	4252.11
948.105	4298.43
948.41	4260.69
948.716	4215.95
949.022	4214.37
949.327	4229.06
949.633	4152.9
949.938	4154.71
950.244	4186.12
950.549	4127.36
950.854	4064.09
951.16	4066.12
951.465	4070.87
951.77	4000.13
952.075	4039.23
952.38	3992.45
952.685	4016.41
952.99	4015.95
953.294	3960.81
953.599	3965.56
953.904	3926.92
954.209	3951.32
954.513	3904.77
954.818	3854.38
955.122	3830.42
955.426	3851.66
955.731	3808.28
956.035	3772.12
956.339	3786.36
956.643	3763.08
956.948	3768.5
957.252	3749.75
957.556	3727.15
957.86	3686.02
958.163	3682.63
958.467	3696.41
958.771	3665.68
959.075	3651.22
959.378	3645.12
959.682	3612.35
959.985	3625.68
960.289	3550.43
960.592	3545.23
960.896	3560.6
961.199	3543.2
961.502	3538.23
961.805	3499.36
962.108	3477.21
962.411	3490.09
962.714	3435.86
963.017	3432.01
963.32	3405.12
963.623	3417.33
963.926	3383.88
964.228	3394.95
964.531	3388.17
964.833	3347.95
965.136	3379.81
965.438	3339.14
965.741	3294.62
966.043	3342.07
966.345	3284.9
966.648	3264.79
966.95	3271.11
967.252	3249.42
967.554	3255.07
967.856	3200.83
968.158	3189.76
968.46	3183.89
968.761	3172.36
969.063	3182.08
969.365	3159.48
969.666	3128.97
969.968	3105.47
970.269	3058.92
970.571	3098.92
970.872	3103.44
971.174	3052.36
971.475	3059.14
971.776	3051.01
972.077	3015.3
972.378	3034.96
972.679	2973.27
972.98	2969.88
973.281	2993.38
973.582	3008.75
973.883	2995.42
974.183	2932.14
974.484	2952.48
974.785	2903.44
975.085	2886.49
975.386	2878.58
975.686	2870.9
975.986	2846.49
976.287	2830.22
976.587	2832.26
976.887	2857.11
977.187	2857.11
977.487	2828.19
977.787	2767.62
978.087	2734.41
978.387	2726.27
978.687	2769.21
978.987	2732.37
979.286	2715.87
979.586	2704.35
979.885	2713.62
980.185	2650.11
980.484	2667.74
980.784	2652.37
981.083	2647.4
981.382	2605.82
981.682	2631.81
981.981	2633.39
982.28	2622.77
982.579	2582.77
982.878	2600.17
983.177	2570.12
983.475	2565.14
983.774	2564.69
984.073	2521.53
984.372	2518.37
984.67	2505.03
984.969	2468.88
985.267	2513.17
985.566	2463.9
985.864	2475.43
986.162	2471.59
986.461	2457.58
986.759	2431.36
987.057	2423.91
987.355	2390.23
987.653	2412.15
987.951	2360.63
988.249	2389.78
988.547	2359.27
988.844	2329.67
989.142	2356.34
989.44	2322.89
989.737	2330.57
990.035	2329.9
990.332	2340.07
990.63	2289.45
990.927	2277.69
991.224	2284.25
991.521	2263.68
991.819	2257.36
992.116	2234.08
992.413	2205.83
992.71	2235.89
993.006	2219.62
993.303	2222.55
993.6	2180.97
993.897	2173.97
994.193	2205.38
994.49	2166.28
994.787	2154.53
995.083	2149.11
995.379	2127.64
995.676	2110.69
995.972	2081.99
996.268	2092.61
996.565	2120.41
996.861	2106.63
997.157	2092.61
997.453	2061.2
997.749	2072.95
998.044	2037.93
998.34	2027.53
998.636	2011.26
998.932	2006.74
999.227	2012.84
999.523	2001.32
999.818	1982.33
1000.114	1957.7
1000.409	1966.52
1000.704	1946.63
1001	1941.88
1001.295	1938.49
1001.59	1912.51
1001.885	1922.9
1002.18	1895.11
1002.475	1900.76
1002.77	1888.55
1003.065	1862.34
1003.359	1845.16
1003.654	1844.49
1003.949	1827.31
1004.243	1839.74
1004.538	1838.61
1004.832	1822.11
1005.127	1824.82
1005.421	1800.19
1005.715	1779.63
1006.009	1751.83
1006.304	1760.42
1006.598	1754.54
1006.892	1745.05
1007.186	1761.78
1007.48	1707.54
1007.773	1718.39
1008.067	1698.27
1008.361	1689.46
1008.655	1708.44
1008.948	1675
1009.242	1654.66
1009.535	1657.15
1009.829	1637.03
1010.122	1625.96
1010.415	1655.34
1010.708	1620.76
1011.001	1628.45
1011.295	1589.8
1011.588	1621.67
1011.881	1600.88
1012.173	1589.58
1012.466	1577.6
1012.759	1587.32
1013.052	1545.51
1013.344	1552.97
1013.637	1515
1013.93	1524.95
1014.222	1501.9
1014.514	1512.06
1014.807	1500.09
1015.099	1498.73
1015.391	1453.31
1015.683	1442.69
1015.976	1466.42
1016.268	1467.55
1016.56	1452.41
1016.851	1449.47
1017.143	1421.45
1017.435	1444.27
1017.727	1437.26
1018.018	1406.08
1018.31	1417.38
1018.602	1386.87
1018.893	1374.67
1019.185	1359.07
1019.476	1369.7
1019.767	1357.94
1020.058	1354.55
1020.35	1323.6
1020.641	1326.08
1020.932	1319.08
1021.223	1284.5
1021.514	1322.01
1021.804	1308.91
1022.095	1287.66
1022.386	1300.54
1022.677	1283.37
1022.967	1245.41
1023.258	1257.16
1023.548	1216.25
1023.839	1258.74
1024.129	1226.65
1024.419	1254.22
1024.709	1204.73
1025	1221.45
1025.29	1196.14
1025.58	1181
1025.87	1164.73
1026.16	1161.11
1026.449	1173.32
1026.739	1154.79
1027.029	1164.96
1027.319	1182.13
1027.608	1145.97
1027.898	1126.31
1028.187	1123.83
1028.477	1109.14
1028.766	1107.56
1029.055	1091.28
1029.344	1114.79
1029.634	1095.58
1029.923	1077.27
1030.212	1091.28
1030.501	1065.97
1030.79	1061.68
1031.078	1052.87
1031.367	1046.99
1031.656	1019.42
1031.945	1027.11
1032.233	1037.5
1032.522	1024.85
1032.81	1028.69
1033.099	1016.94
1033.387	986.43
1033.675	1005.86
1033.963	994.56
1034.251	978.75
1034.54	1002.47
1034.828	972.42
1035.116	966.09
1035.403	945.07
1035.691	955.7
1035.979	956.6
1036.267	947.79
1036.554	923.38
1036.842	923.61
1037.129	929.93
1037.417	921.57
1037.704	910.72
1037.992	901.01
1038.279	899.43
1038.566	881.35
1038.853	881.35
1039.14	881.35
