Data from white_wall_FLMS001491_014.txt Node
Date: Tue Feb 07 11:03:42 GMT 2017
User: dcchb
Spectrometer: FLMS00149
Trigger mode: 0
Integration Time (sec): 2.000000E-2
Scans to average: 10
Electric dark correction enabled: true
Nonlinearity correction enabled: false
Boxcar width: 0
XAxis mode: Wavelengths
Number of Pixels in Spectrum: 2048
>>>>>Begin Spectral Data<<<<<
341.393	-12.15
341.776	-12.15
342.16	-12.15
342.543	-88.3
342.927	-71.81
343.31	-104.35
343.693	-50.56
344.077	-57.57
344.46	-58.02
344.843	-57.8
345.226	-48.3
345.61	-28.64
345.993	-29.1
346.376	-12.15
346.759	6.61
347.142	40.51
347.525	35.31
347.908	64.69
348.291	81.86
348.674	99.26
349.057	118.25
349.44	119.15
349.823	125.48
350.206	189.66
350.588	200.96
350.971	244.34
351.354	261.29
351.737	280.73
352.119	279.15
352.502	295.42
352.884	307.62
353.267	311.01
353.65	308.07
354.032	334.06
354.414	312.59
354.797	326.83
355.179	339.48
355.562	348.52
355.944	366.6
356.326	354.62
356.709	364.11
357.091	368.18
357.473	375.41
357.855	374.51
358.238	372.48
358.62	357.11
359.002	374.28
359.384	375.64
359.766	357.79
360.148	388.07
360.53	365.7
360.912	356.88
361.294	359.14
361.676	355.98
362.057	363.89
362.439	349.2
362.821	352.36
363.203	359.6
363.584	351.69
363.966	369.54
364.348	362.08
364.729	359.14
365.111	370.44
365.493	352.82
365.874	331.35
366.256	343.55
366.637	354.17
367.019	352.36
367.4	344.23
367.781	350.78
368.163	320.27
368.544	349.2
368.925	335.87
369.306	366.15
369.688	356.21
370.069	353.27
370.45	338.35
370.831	354.85
371.212	346.71
371.593	361.4
371.974	355.53
372.355	345.36
372.736	365.02
373.117	349.65
373.498	348.52
373.879	360.5
374.26	342.42
374.641	349.65
375.021	356.66
375.402	367.28
375.783	370.89
376.163	358.24
376.544	359.37
376.925	381.97
377.305	370.22
377.686	363.21
378.066	371.35
378.447	377.22
378.827	378.58
379.208	374.28
379.588	388.07
379.968	374.74
380.349	411.12
380.729	395.53
381.109	408.63
381.489	405.02
381.87	395.53
382.25	395.98
382.63	393.72
383.01	398.92
383.39	404.34
383.77	425.81
384.15	415.41
384.53	404.34
384.91	421.97
385.29	421.97
385.67	410.22
386.049	413.38
386.429	440.95
386.809	419.25
387.189	439.37
387.568	419.71
387.948	448.86
388.328	451.34
388.707	462.64
389.087	447.73
389.466	478.69
389.846	455.41
390.225	493.6
390.605	468.29
390.984	487.73
391.363	469.87
391.743	510.55
392.122	498.57
392.501	510.1
392.881	523.88
393.26	511
393.639	517.33
394.018	541.96
394.397	546.03
394.776	543.32
395.155	562.75
395.534	594.17
395.913	554.62
396.292	580.15
396.671	579.7
397.05	591.23
397.429	605.46
397.808	619.93
398.186	634.62
398.565	611.34
398.944	621.51
399.323	652.92
399.701	678.68
400.08	677.78
400.458	673.03
400.837	687.04
401.215	696.31
401.594	717.1
401.972	726.37
402.351	709.64
402.729	741.05
403.107	763.2
403.486	771.11
403.864	783.54
404.242	793.26
404.62	829.19
404.999	821.28
405.377	838
405.755	846.59
406.133	862.41
406.511	866.02
406.889	877.32
407.267	915.96
407.645	948.05
408.023	960.03
408.401	975.17
408.779	990.54
409.156	1035.28
409.534	985.34
409.912	1053.36
410.29	1083.42
410.667	1052.46
411.045	1101.95
411.422	1122.51
411.8	1122.74
412.178	1146.24
412.555	1175.39
412.933	1214.71
413.31	1188.95
413.687	1221.72
414.065	1241.38
414.442	1244.32
414.819	1280.47
415.197	1270.53
415.574	1293.81
415.951	1332.68
416.328	1356.86
416.705	1347.82
417.082	1351.43
417.46	1376.07
417.837	1409.06
418.214	1427.36
418.591	1447.93
418.967	1431.21
419.344	1463.75
419.721	1467.36
420.098	1458.78
420.475	1513.24
420.852	1508.27
421.228	1537.87
421.605	1534.25
421.982	1556.4
422.358	1591.43
422.735	1598.88
423.111	1626.23
423.488	1626.91
423.864	1626.45
424.241	1692.89
424.617	1698.09
424.994	1715.49
425.37	1707.36
425.746	1727.69
426.123	1757.98
426.499	1785.77
426.875	1791.65
427.251	1814.25
427.627	1850.63
428.003	1929.05
428.379	1903.74
428.756	1923.4
429.132	1968.59
429.507	1999.55
429.883	2004.75
430.259	2053.56
430.635	2061.7
431.011	2088.59
431.387	2139.44
431.763	2164.75
432.138	2189.38
432.514	2203.61
432.89	2199.09
433.265	2278.87
433.641	2293.33
434.016	2313.89
434.392	2370.62
434.767	2429.6
435.143	2395.7
435.518	2465.3
435.894	2439.99
436.269	2497.17
436.644	2547.79
437.02	2596.15
437.395	2558.86
437.77	2644.05
438.145	2658.52
438.52	2682.47
438.895	2736.03
439.271	2728.35
439.646	2823.94
440.021	2836.59
440.395	2820.32
440.77	2786.42
441.145	2853.77
441.52	2902.58
441.895	2924.5
442.27	2947.78
442.645	2969.02
443.019	2981
443.394	3004.72
443.769	3040.65
444.143	3063.48
444.518	3081.78
444.892	3083.14
445.267	3115.68
445.641	3114.78
446.016	3155.68
446.39	3205.4
446.764	3207.88
447.139	3258.5
447.513	3250.37
447.887	3289.46
448.262	3305.96
448.636	3317.26
449.01	3383.02
449.384	3384.37
449.758	3453.07
450.132	3458.72
450.506	3512.28
450.88	3534.88
451.254	3538.04
451.628	3616.23
452.002	3644.48
452.376	3633.63
452.75	3700.52
453.123	3737.81
453.497	3814.42
453.871	3835.44
454.244	3902.55
454.618	3944.13
454.992	3975.55
455.365	3949.56
455.739	4116.33
456.112	4113.62
456.486	4191.58
456.859	4212.83
457.232	4267.06
457.606	4307.06
457.979	4345.03
458.352	4469.77
458.725	4484.01
459.099	4545.93
459.472	4616.21
459.845	4734.4
460.218	4756.32
460.591	4808.29
460.964	4791.57
461.337	4955.63
461.71	5030.43
462.083	5046.03
462.456	5079.92
462.829	5111.79
463.201	5244.21
463.574	5278.56
463.947	5287.15
464.32	5431.1
464.692	5461.83
465.065	5540.93
465.438	5589.29
465.81	5661.6
466.183	5756.97
466.555	5827.47
466.928	5940.01
467.3	5956.74
467.672	6059.56
468.045	6215.49
468.417	6249.61
468.789	6228.14
469.161	6409.15
469.534	6488.93
469.906	6619.77
470.278	6658.41
470.65	6730.28
471.022	6861.8
471.394	7070.38
471.766	7089.81
472.138	7134.33
472.51	7351.05
472.882	7485.74
473.253	7588.78
473.625	7683.02
473.997	7817.25
474.369	7896.8
474.74	8044.59
475.112	8171.59
475.484	8324.81
475.855	8497.23
476.227	8543.79
476.598	8781.29
476.97	8867.62
477.341	9058.12
477.713	9196.88
478.084	9231.23
478.455	9542.63
478.827	9557.77
479.198	9904.2
479.569	9928.16
479.94	10172.22
480.311	10402.95
480.682	10488.82
481.053	10731.98
481.424	10873.67
481.795	10971.75
482.166	11298.52
482.537	11335.13
482.908	11564.05
483.279	11717.71
483.65	12049.01
484.021	12267.53
484.391	12383.23
484.762	12390.24
485.133	12598.37
485.503	12808.76
485.874	13095.53
486.244	13278.13
486.615	13475.41
486.985	13754.05
487.356	13925.11
487.726	14038.11
488.097	14341.15
488.467	14468.15
488.837	14721.7
489.207	14925.09
489.578	15079.21
489.948	15255.02
490.318	15464.28
490.688	15491.17
491.058	15822.69
491.428	16052.74
491.798	16168.44
492.168	16482.11
492.538	16520.98
492.908	16857.01
493.278	17132.26
493.648	17136.1
494.017	17344.91
494.387	17517.34
494.757	17601.4
495.126	17902.86
495.496	17871
495.866	18038
496.235	18251.33
496.605	18412.45
496.974	18624.43
497.344	18768.83
497.713	18872.33
498.082	19068.03
498.452	19346.44
498.821	19459.66
499.19	19493.33
499.559	19662.36
499.928	19846.54
500.298	20044.28
500.667	20145.97
501.036	20143.48
501.405	20433.64
501.774	20409.92
502.143	20686.74
502.512	20778.72
502.88	20951.6
503.249	21075.43
503.618	21243.11
503.987	21377.12
504.356	21613.5
504.724	21721.97
505.093	21811.23
505.462	21786.6
505.83	22082.41
506.199	22382.07
506.567	22540.03
506.936	22533.02
507.304	22898.89
507.672	23051.2
508.041	23127.13
508.409	23400.12
508.777	23578.65
509.145	23707
509.514	23696.83
509.882	24040.55
510.25	24202.36
510.618	24275.35
510.986	24433.54
511.354	24629.01
511.722	24955.11
512.09	25042.79
512.458	25056.8
512.826	25412.04
513.193	25379.05
513.561	25638.25
513.929	25890.22
514.297	26097.45
514.664	26234.39
515.032	26333.83
515.4	26712.35
515.767	26653.37
516.135	26963.64
516.502	26867.15
516.869	27303.29
517.237	27412.67
517.604	27449.96
517.972	27912.09
518.339	28039.55
518.706	28165.64
519.073	28443.38
519.44	28491.96
519.808	28812.86
520.175	28918.62
520.542	29142.12
520.909	29457.81
521.276	29412.16
521.643	29745.94
522.009	30011.47
522.376	30195.19
522.743	30307.06
523.11	30595.18
523.477	30957.66
523.843	31079.92
524.21	31410.53
524.577	31624.31
524.943	31789.96
525.31	31968.71
525.676	32254.35
526.043	32558.3
526.409	32667.67
526.776	32969.36
527.142	33238.28
527.508	33309.46
527.874	33616.35
528.241	33816.34
528.607	34045.49
528.973	34280.74
529.339	34136.11
529.705	34558.24
530.071	34808.18
530.437	35103.54
530.803	35103.99
531.169	35561.83
531.535	35436.86
531.901	35586.01
532.267	35737.87
532.632	36205.21
532.998	36270.29
533.364	36494.46
533.73	36420.34
534.095	36813.55
534.461	36925.87
534.826	37115.92
535.192	37277.95
535.557	37496.47
535.923	37450.15
536.288	37701.21
536.653	37927.42
537.019	37774.43
537.384	38045.38
537.749	38296.68
538.114	38430.68
538.479	38364.02
538.845	38703.45
539.21	38533.51
539.575	38874.29
539.94	39078.58
540.305	39353.82
540.67	39232.47
541.034	39475.18
541.399	39581.84
541.764	39853.92
542.129	39904.54
542.494	39999.68
542.858	40129.62
543.223	40163.75
543.587	40520.35
543.952	40508.14
544.316	40661.81
544.681	40751.3
545.045	40925.31
545.41	41337.05
545.774	41054.34
546.138	41441.23
546.503	41535.69
546.867	41635.57
547.231	41840.09
547.595	41920.76
547.959	42175.22
548.324	42299.51
548.688	42455.66
549.052	42472.39
549.416	42552.84
549.779	42726.16
550.143	42913.73
550.507	43116.89
550.871	43352.59
551.235	43366.37
551.599	43701.51
551.962	43809.3
552.326	43977.21
552.689	44161.61
553.053	44111.44
553.417	44234.83
553.78	44828.48
554.143	44679.79
554.507	44955.48
554.87	45152.32
555.234	45429.6
555.597	45272.09
555.96	45604.28
556.323	45863.94
556.686	45853.99
557.05	46207.88
557.413	46338.5
557.776	46488.55
558.139	46763.35
558.502	46730.58
558.865	46867.98
559.228	47213.05
559.59	47399.26
559.953	47447.17
560.316	47869.31
560.679	47884.9
561.041	48201.95
561.404	48241.05
561.767	48525.56
562.129	48483.98
562.492	48957.64
562.854	48963.06
563.217	48971.88
563.579	49080.12
563.941	49396.27
564.304	49563.5
564.666	49854.34
565.028	49882.81
565.39	50066.08
565.753	50127.1
566.115	50291.62
566.477	50481.22
566.839	50561.66
567.201	50769.34
567.563	50855.89
567.925	51017.25
568.287	51138.15
568.648	51172.72
569.01	51342.89
569.372	51519.83
569.734	51537.91
570.095	51725.7
570.457	51784.68
570.819	51919.6
571.18	51912.14
571.542	52109.87
571.903	52179.7
572.265	52337.21
572.626	52340.38
572.987	52475.74
573.349	52484.55
573.71	52680.03
574.071	52723.42
574.432	52877.08
574.794	53029.4
575.155	52981.26
575.516	52917.54
575.877	53086.57
576.238	53214.48
576.599	53311.2
576.96	53252.22
577.32	53340.8
577.681	53455.83
578.042	53544.41
578.403	53502.38
578.763	53493.57
579.124	53632.77
579.485	53739.43
579.845	53756.16
580.206	53692.88
580.566	53712.54
580.927	53774.91
581.287	53879.77
581.648	53801.81
582.008	53911.41
582.368	53918.41
582.728	53889.26
583.089	53816.72
583.449	53865.53
583.809	53961.35
584.169	53943.95
584.529	53923.61
584.889	54152.08
585.249	53943.72
585.609	53908.7
585.969	54033.66
586.329	54040.44
586.688	54076.6
587.048	54065.3
587.408	53957.73
587.768	53968.35
588.127	53929.49
588.487	54024.17
588.846	54176.03
589.206	53983.95
589.565	54048.13
589.925	54207.9
590.284	54078.86
590.643	54062.59
591.003	54242.92
591.362	54294.67
591.721	54207.22
592.08	54283.6
592.44	54300.32
592.799	54197.05
593.158	54166.99
593.517	54226.88
593.876	54282.02
594.235	54171.74
594.593	54191.4
594.952	54280.66
595.311	54178.52
595.67	54327.89
596.029	54450.38
596.387	54408.12
596.746	54468
597.104	54300.32
597.463	54315.46
597.822	54465.74
598.18	54319.08
598.538	54327.22
598.897	54561.56
599.255	54190.04
599.613	54687.43
599.972	54478.62
600.33	54564.27
600.688	54430.04
601.046	54645.4
601.404	54716.58
601.762	54606.08
602.12	54774.89
602.478	54752.29
602.836	54745.28
603.194	54604.72
603.552	54729.46
603.91	54660.09
604.268	54770.14
604.625	54676.13
604.983	54808.56
605.341	54727.21
605.698	54870.03
606.056	54919.52
606.413	54893.53
606.771	54955.9
607.128	55049.23
607.485	54897.6
607.843	54956.58
608.2	55002.9
608.557	55086.74
608.914	55063.02
609.272	55195.44
609.629	55236.34
609.986	55279.73
610.343	55174.2
610.7	55327.42
611.057	55323.57
611.414	55321.77
611.771	55343.01
612.127	55493.29
612.484	55406.06
612.841	55555.43
613.198	55492.83
613.554	55500.97
613.911	55608.76
614.267	55557.01
614.624	55542.55
614.98	55575.54
615.337	55693.06
615.693	55666.16
616.05	55620.51
616.406	55894.86
616.762	55695.09
617.118	55714.3
617.475	55732.38
617.831	55839.27
618.187	55838.14
618.543	55840.62
618.899	56028.87
619.255	55920.62
619.611	55921.98
619.967	56009.66
620.323	56116.32
620.678	55920.85
621.034	55866.16
621.39	55915.87
621.746	55815.54
622.101	56207.39
622.457	55981.41
622.812	56043.55
623.168	56055.98
623.523	56031.8
623.879	56083.33
624.234	55921.07
624.589	56031.13
624.945	56039.94
625.3	56187.28
625.655	56117.9
626.01	56126.94
626.365	56115.87
626.72	56077.9
627.075	56132.59
627.43	56083.1
627.785	56033.61
628.14	56146.38
628.495	56115.42
628.85	56142.08
629.205	55987.96
629.559	56152.7
629.914	55954.29
630.269	56026.61
630.623	55946.83
630.978	55936.66
631.332	56058.02
631.687	56065.93
632.041	55933.73
632.396	55959.04
632.75	55843.11
633.104	55913.16
633.459	55815.99
633.813	55834.29
634.167	55760.85
634.521	55733.05
634.875	55816.67
635.229	55713.62
635.583	55591.82
635.937	55637.24
636.291	55604.24
636.645	55603.57
636.999	55576.22
637.352	55679.72
637.706	55477.24
638.06	55616.9
638.413	55507.98
638.767	55444.47
639.121	55521.08
639.474	55358.37
639.828	55339.39
640.181	55323.8
640.534	55258.26
640.888	55246.29
641.241	55114.31
641.594	55135.1
641.947	55177.81
642.301	54976.46
642.654	55039.97
643.007	55134.2
643.36	55061.43
643.713	54989.35
644.066	55092.85
644.419	54865.05
644.771	54710.03
645.124	54536.93
645.477	54459.42
645.83	54246.31
646.182	54151.85
646.535	54059.43
646.888	54202.02
647.24	53960.67
647.593	54089.26
647.945	54020.11
648.298	53911.18
648.65	53830.96
649.002	53749.83
649.355	53861.01
649.707	53859.21
650.059	53976.94
650.411	54254.22
650.763	54341
651.115	54527.89
651.467	54388.23
651.819	54400.21
652.171	54363.6
652.523	54366.54
652.875	54331.74
653.227	54242.47
653.578	54428
653.93	54306.43
654.282	54230.95
654.633	54149.59
654.985	54198.86
655.337	54110.72
655.688	54121.8
656.039	54187.33
656.391	53964.06
656.742	53944.4
657.094	54066.88
657.445	54142.14
657.796	53964.97
658.147	53877.06
658.498	53886.55
658.849	54004.51
659.2	53991.18
659.551	53897.85
659.902	53986.66
660.253	53895.14
660.604	53982.59
660.955	53839.09
661.306	53967
661.656	53780.79
662.007	53782.37
662.358	53734.69
662.708	53826.89
663.059	53743.73
663.409	53528.82
663.76	53687.46
664.11	53708.7
664.461	53702.37
664.811	53785.08
665.161	53650.17
665.511	53579.44
665.862	53643.39
666.212	53613.79
666.562	53739.43
666.912	53602.94
667.262	53576.5
667.612	53560
667.962	53548.7
668.312	53572.21
668.662	53688.81
669.011	53565.2
669.361	53484.07
669.711	53435.26
670.06	53397.07
670.41	53364.98
670.76	53328.15
671.109	53373.79
671.459	53380.12
671.808	53316.39
672.157	53292.21
672.507	53089.73
672.856	53168.6
673.205	53166.12
673.554	53284.76
673.904	53149.17
674.253	53285.89
674.602	53147.81
674.951	52670.54
675.3	52501.27
675.649	53032.79
675.998	52917.76
676.346	52966.35
676.695	52991.43
677.044	52724.09
677.393	52905.78
677.741	52896.74
678.09	52789.4
678.438	52800.48
678.787	52724.32
679.135	52759.12
679.484	52541.05
679.832	52710.76
680.181	52493.37
680.529	52556.41
680.877	52493.14
681.225	52517.32
681.573	52629.18
681.922	52373.37
682.27	52221.96
682.618	52313.71
682.966	52202.07
683.314	52265.12
683.661	52202.07
684.009	51977.9
684.357	51960.95
684.705	51963.66
685.053	51938.58
685.4	51783.78
685.748	51788.3
686.095	51703.56
686.443	51495.43
686.79	51478.02
687.138	51647.06
687.485	51520.06
687.832	51396.67
688.18	51421.53
688.527	51198.03
688.874	51190.12
689.221	51171.14
689.568	50862.45
689.915	50955.33
690.262	50934.76
690.609	50748.55
690.956	50744.26
691.303	50778.38
691.65	50548.78
691.997	50449.8
692.344	50323.93
692.69	50161.9
693.037	50341.78
693.383	49853.21
693.73	50048.91
694.077	49836.03
694.423	49796.94
694.769	49750.16
695.116	49686.66
695.462	49552.2
695.808	49469.49
696.155	49547.91
696.501	49236.28
696.847	49189.72
697.193	48828.38
697.539	49091.42
697.885	48700.24
698.231	48702.05
698.577	48773.01
698.923	48610.76
699.269	48506.8
699.614	48309.07
699.96	48283.31
700.306	48266.36
700.651	48043.99
700.997	47948.85
701.342	47919.7
701.688	47803.55
702.033	47689.42
702.379	47574.85
702.724	47651.01
703.069	47627.5
703.415	47255.76
703.76	47284.69
704.105	47217.8
704.45	47006.28
704.795	46893.74
705.14	46853.29
705.485	46663.69
705.83	46510.25
706.175	46597.93
706.52	46493.3
706.865	46398.84
707.209	46313.19
707.554	46083.59
707.899	46228.45
708.243	46131.95
708.588	46011.05
708.932	45628.69
709.277	45827.1
709.621	45683.38
709.966	45446.55
710.31	45547.56
710.654	45144.63
710.998	45289.71
711.342	45289.94
711.687	45108.7
712.031	45023.96
712.375	44946.67
712.719	44932.89
713.063	44844.53
713.407	44962.26
713.75	44676.4
714.094	44588.26
714.438	44470.98
714.782	44505.55
715.125	44297.42
715.469	44385.33
715.812	44039.12
716.156	43876.64
716.499	44159.8
716.843	43969.75
717.186	43819.02
717.53	43960.03
717.873	43812.92
718.216	43699.25
718.559	43406.37
718.902	43413.6
719.246	43313.49
719.589	43232.37
719.932	43118.24
720.275	43124.35
720.617	43052.03
720.96	43082.54
721.303	42988.08
721.646	42939.94
721.989	42758.71
722.331	42873.51
722.674	42557.36
723.016	42742.66
723.359	42477.13
723.701	42572.95
724.044	42271.04
724.386	42219.74
724.729	42334.54
725.071	42291.83
725.413	42162.56
725.755	42251.15
726.097	41946.07
726.439	41732.52
726.782	41796.25
727.124	42031.95
727.465	41604.61
727.807	41782.23
728.149	41639.19
728.491	41569.58
728.833	41707.21
729.175	41477.84
729.516	41346.99
729.858	41352.42
730.199	41409.82
730.541	41243.94
730.882	41335.47
731.224	41251.18
731.565	41030.16
731.906	40962.82
732.248	41029.26
732.589	40819.32
732.93	40766.67
733.271	40680.79
733.612	40934.57
733.953	40862.94
734.294	40591.76
734.635	40582.04
734.976	40515.15
735.317	40381.37
735.658	40239.9
735.999	40232.9
736.339	40165.33
736.68	40312.22
737.021	40123.07
737.361	40112.9
737.702	40197.64
738.042	39985.9
738.383	39888.5
738.723	39944.32
739.063	39782.51
739.404	39847.37
739.744	39776.64
740.084	39526.02
740.424	39537.1
740.764	39401.05
741.104	39528.51
741.444	39274.96
741.784	39169.2
742.124	39389.3
742.464	39393.14
742.804	39221.4
743.143	39062.08
743.483	39118.35
743.823	38968.98
744.162	38840.62
744.502	38934.17
744.841	38725.82
745.181	38892.82
745.52	38675.42
745.86	38608.08
746.199	38636.1
746.538	38578.03
746.877	38590.23
747.216	38538.7
747.556	38435.43
747.895	38303.91
748.234	38160.41
748.573	38097.36
748.911	38030.69
749.25	38139.62
749.589	37834.99
749.928	38056.23
750.267	37933.3
750.605	37886.07
750.944	37735.11
751.283	37568.56
751.621	37672.29
751.96	37358.4
752.298	37358.17
752.636	37305.52
752.975	37187.1
753.313	37045.18
753.651	37322.01
753.989	36936.26
754.327	36944.4
754.666	36804.74
755.004	36871.63
755.342	36724.29
755.679	36721.35
756.017	36455.6
756.355	36428.7
756.693	36499.44
757.031	36426.9
757.368	36156.17
757.706	36216.73
758.044	36053.35
758.381	36135.83
758.719	35878.44
759.056	35936.29
759.394	35883.63
759.731	35484.1
760.068	35423.53
760.405	35321.16
760.743	35313.7
761.08	35232.8
761.417	35160.26
761.754	34923.43
762.091	34993.26
762.428	34883.66
762.765	34648.19
763.102	34794.85
763.438	34567.96
763.775	34365.25
764.112	34332.71
764.449	34351.02
764.785	34150.12
765.122	34005.72
765.458	33931.59
765.795	33894.31
766.131	33832.16
766.467	33680.07
766.804	33470.81
767.14	33367.99
767.476	33354.43
767.812	33116.25
768.148	33255.23
768.485	33037.83
768.821	32882.36
769.157	32839.64
769.492	32612.53
769.828	32706.99
770.164	32299.77
770.5	32288.02
770.836	32323.95
771.171	32100.46
771.507	31971.87
771.842	31636.74
772.178	31872.66
772.513	31594.93
772.849	31662.05
773.184	31440.59
773.519	31421.15
773.855	31270.87
774.19	31159.01
774.525	31021.61
774.86	30927.38
775.195	30917.89
775.53	30757.44
775.865	30480.84
776.2	30301.86
776.535	30159.04
776.87	30200.84
777.205	30090.56
777.539	29952.94
777.874	30037.23
778.209	29772.61
778.543	29716.79
778.878	29498.72
779.212	29556.12
779.547	29276.57
779.881	29347.53
780.215	29216.01
780.55	29277.48
780.884	29057.15
781.218	28828.45
781.552	28999.97
781.886	28793.42
782.22	28501
782.554	28559.08
782.888	28315.47
783.222	28268.69
783.556	28102.82
783.889	28047.68
784.223	27829.61
784.557	27762.26
784.89	27870.06
785.224	27763.85
785.557	27486.11
785.891	27495.15
786.224	27401.6
786.558	27305.1
786.891	27106.24
787.224	27012.45
787.557	26887.71
787.891	26879.35
788.224	26810.88
788.557	26707.83
788.89	26595.52
789.223	26626.48
789.556	26464.67
789.888	26318.69
790.221	26207.95
790.554	25998.02
790.887	26042.54
791.219	25911.47
791.552	25888.87
791.884	25742.88
792.217	25654.98
792.549	25636.67
792.882	25457.47
793.214	25381.31
793.546	25351.93
793.879	25167.08
794.211	25087.08
794.543	25087.31
794.875	25071.26
795.207	25012.73
795.539	24852.74
795.871	24896.13
796.203	24647.54
796.535	24564.83
796.867	24530.03
797.198	24412.75
797.53	24408.91
797.862	24116.71
798.193	24287.78
798.525	24220.44
798.856	24226.09
799.188	24012.08
799.519	23887.56
799.85	23828.13
800.182	23676.5
800.513	23829.71
800.844	23537.52
801.175	23652.54
801.506	23569.61
801.837	23403.06
802.168	23308.37
802.499	23205.55
802.83	23080.13
803.161	23057.3
803.491	23069.28
803.822	23069.28
804.153	22985.21
804.483	22806.46
804.814	22576.64
805.145	22547.49
805.475	22651.89
805.805	22475.85
806.136	22513.81
806.466	22485.34
806.796	22447.6
807.126	22216.65
807.457	22174.16
807.787	22149.53
808.117	22085.8
808.447	21962.87
808.777	22032.7
809.107	21858.69
809.436	21902.53
809.766	21847.39
810.096	21712.25
810.426	21663.44
810.755	21651.24
811.085	21570.11
811.414	21582.09
811.744	21500.73
812.073	21309.33
812.403	21365.6
812.732	21208.09
813.061	21203.11
813.39	21029.33
813.719	21041.54
814.049	21054.19
814.378	20985.95
814.707	20921.77
815.036	20930.81
815.365	20779.4
815.693	20589.57
816.022	20618.95
816.351	20672.28
816.68	20434.55
817.008	20497.14
817.337	20360.2
817.665	20377.37
817.994	20439.75
818.322	20353.19
818.651	20250.37
818.979	20175.35
819.307	20260.77
819.636	20274.78
819.964	20058.51
820.292	20044.73
820.62	20045.18
820.948	20030.04
821.276	20025.07
821.604	19935.8
821.932	20034.33
822.259	20025.74
822.587	19924.5
822.915	19976.03
823.243	20045.63
823.57	19903.71
823.898	19984.16
824.225	20034.11
824.553	19875.92
824.88	19837.5
825.207	19954.33
825.535	19883.15
825.862	19901.45
826.189	19866.2
826.516	19942.81
826.843	19961.11
827.17	19884.05
827.497	19949.36
827.824	19904.17
828.151	19941.23
828.478	19894
828.805	19993.66
829.131	19856.48
829.458	19821.23
829.785	19767.67
830.111	19904.62
830.438	19780.78
830.764	19875.69
831.09	19917.72
831.417	19735.81
831.743	19780.1
832.069	19809.03
832.395	19715.92
832.722	19725.19
833.048	19775.13
833.374	19692.19
833.7	19661.01
834.026	19578.3
834.351	19751.63
834.677	19678.41
835.003	19610.39
835.329	19519.77
835.654	19635.47
835.98	19444.97
836.306	19558.64
836.631	19427.79
836.956	19502.82
837.282	19375.59
837.607	19231.42
837.932	19210.4
838.258	19351.86
838.583	19243.62
838.908	19190.29
839.233	19236.84
839.558	19175.15
839.883	19221.47
840.208	19103.28
840.533	19049.73
840.858	19129.05
841.182	19004.53
841.507	18997.75
841.832	18906.45
842.156	18836.17
842.481	18843.4
842.805	18814.48
843.13	18864.65
843.454	18648.61
843.778	18634.37
844.103	18574.94
844.427	18443.87
844.751	18534.94
845.075	18428.5
845.399	18442.28
845.723	18308.73
846.047	18373.58
846.371	18181.5
846.695	18173.36
847.019	17933.14
847.343	17945.57
847.666	17856.99
847.99	17828.97
848.313	17740.83
848.637	17511.01
848.96	17616.54
849.284	17626.03
849.607	17396.44
849.931	17407.28
850.254	17364.57
850.577	17259.26
850.9	17051.13
851.223	17105.14
851.546	16944.24
851.869	16873.29
852.192	17005.26
852.515	16864.92
852.838	16664.25
853.161	16690.01
853.483	16602.11
853.806	16517.36
854.129	16582.45
854.451	16470.58
854.774	16386.52
855.096	16347.42
855.419	16254.54
855.741	16177.48
856.063	16142
856.385	16130.25
856.708	16073.53
857.03	16050.26
857.352	16088.45
857.674	16017.49
857.996	15912.86
858.318	15812.97
858.64	15833.76
858.961	15779.75
859.283	15798.96
859.605	15604.39
859.926	15697.04
860.248	15667.22
860.57	15565.97
860.891	15580.66
861.212	15428.35
861.534	15414.34
861.855	15370.27
862.176	15350.16
862.498	15351.52
862.819	15312.42
863.14	15259.09
863.461	15221.8
863.782	15119.21
864.103	15230.39
864.424	15113.11
864.745	15114.69
865.065	15036.05
865.386	14976.61
865.707	14998.76
866.027	15014.58
866.348	14965.54
866.668	15027.68
866.989	14980.45
867.309	14833.34
867.63	14894.13
867.95	14849.61
868.27	14646.68
868.59	14862.72
868.91	14736.62
869.23	14704.75
869.55	14720.12
869.87	14787.46
870.19	14704.98
870.51	14629.73
870.83	14698.65
871.15	14580.24
871.469	14559.9
871.789	14603.51
872.109	14515.38
872.428	14450.3
872.748	14522.84
873.067	14435.61
873.386	14492.56
873.706	14423.18
874.025	14290.98
874.344	14305.44
874.663	14379.11
874.982	14296.4
875.301	14259.12
875.62	14226.35
875.939	14203.52
876.258	14271.55
876.577	14172.57
876.896	14148.16
877.214	14145.45
877.533	14129.85
877.852	14056.86
878.17	14091.89
878.489	14099.8
878.807	14042.85
879.125	14023.42
879.444	14021.16
879.762	13905.45
880.08	13908.17
880.398	13910.43
880.716	13851.22
881.034	13846.47
881.352	13770.54
881.67	13683.54
881.988	13834.72
882.306	13659.13
882.624	13668.85
882.941	13646.48
883.259	13583.2
883.577	13603.77
883.894	13560.15
884.212	13516.54
884.529	13541.62
884.846	13484.9
885.164	13411.46
885.481	13401.06
885.798	13458.23
886.115	13355.41
886.432	13387.73
886.75	13234.06
887.067	13323.1
887.383	13266.15
887.7	13176.66
888.017	13131.24
888.334	13139.82
888.651	13094.85
888.967	13049.66
889.284	13053.5
889.6	12957.68
889.917	12865.03
890.233	12798.36
890.55	12809.21
890.866	12791.58
891.182	12711.81
891.498	12698.25
891.815	12699.61
892.131	12648.99
892.447	12615.32
892.763	12522.67
893.079	12601.31
893.395	12433.4
893.71	12470.69
894.026	12413.06
894.342	12433.63
894.657	12304.37
894.973	12356.12
895.289	12314.99
895.604	12282.67
895.92	12150.92
896.235	12173.75
896.55	12094.88
896.865	12073.64
897.181	12023.92
897.496	12079.51
897.811	11971.04
898.126	11929.01
898.441	11798.84
898.756	11863.93
899.071	11768.79
899.386	11788
899.7	11649.24
900.015	11670.94
900.33	11630.71
900.644	11513.43
900.959	11514.1
901.273	11446.31
901.588	11442.47
901.902	11425.29
902.216	11404.73
902.531	11279.31
902.845	11338.06
903.159	11194.11
903.473	11118.18
903.787	11138.29
904.101	11066.66
904.415	11055.13
904.729	11028.47
905.042	11001.35
905.356	10901.01
905.67	10879.32
905.984	10884.97
906.297	10821.47
906.611	10774.01
906.924	10696.5
907.237	10671.41
907.551	10719.1
907.864	10648.36
908.177	10637.06
908.491	10648.36
908.804	10516.62
909.117	10500.12
909.43	10392.55
909.743	10342.38
910.056	10337.41
910.368	10322.72
910.681	10264.65
910.994	10245.66
911.307	10165.89
911.619	10077.08
911.932	10155.04
912.244	10040.02
912.557	9997.08
912.869	9952.11
913.181	9894.94
913.494	9910.76
913.806	9804.09
914.118	9830.31
914.43	9789.86
914.742	9772.68
915.054	9706.92
915.366	9644.77
915.678	9586.92
915.99	9569.07
916.302	9461.95
916.613	9452.69
916.925	9419.92
917.236	9418.79
917.548	9354.39
917.859	9358
918.171	9233.26
918.482	9184.9
918.794	9151.23
919.105	9170.66
919.416	9114.39
919.727	9098.12
920.038	9063.77
920.349	8973.83
920.66	8867.39
920.971	8925.47
921.282	8911.23
921.593	8867.85
921.903	8814.29
922.214	8757.79
922.525	8763.22
922.835	8702.65
923.146	8663.56
923.456	8628.98
923.767	8589.66
924.077	8574.52
924.387	8495.43
924.697	8441.87
925.008	8363.45
925.318	8408.87
925.628	8432.15
925.938	8350.8
926.248	8310.35
926.558	8282.1
926.867	8256.79
927.177	8224.47
927.487	8132.05
927.796	8050.92
928.106	8060.64
928.416	8012.95
928.725	8003.01
929.034	7976.12
929.344	7942.22
929.653	7947.87
929.962	7859.96
930.271	7847.53
930.581	7842.11
930.89	7803.69
931.199	7764.6
931.508	7671.27
931.817	7690.25
932.125	7654.32
932.434	7531.38
932.743	7566.86
933.051	7528.9
933.36	7473.76
933.669	7396.02
933.977	7409.58
934.286	7378.39
934.594	7353.76
934.902	7339.75
935.21	7287.32
935.519	7243.26
935.827	7244.61
936.135	7186.53
936.443	7121.23
936.751	7129.81
937.059	7144.95
937.367	7043.49
937.674	7104.73
937.982	7040.55
938.29	6980.66
938.597	6956.26
938.905	6857.28
939.213	6822.25
939.52	6826.09
939.827	6843.49
940.135	6848.92
940.442	6799.43
940.749	6712.65
941.056	6730.73
941.363	6667.68
941.67	6610.28
941.977	6589.04
942.284	6535.25
942.591	6568.25
942.898	6544.52
943.205	6502.48
943.511	6408.48
943.818	6436.05
944.125	6365.09
944.431	6393.33
944.738	6331.64
945.044	6309.5
945.35	6244.64
945.657	6236.05
945.963	6217.52
946.269	6187.92
946.575	6139.33
946.881	6098.88
947.187	6135.94
947.493	6020.46
947.799	6058.88
948.105	6051.65
948.41	5995.15
948.716	5980.24
949.022	5955.61
949.327	5911.31
949.633	5909.28
949.938	5872.22
950.244	5822.5
950.549	5796.51
950.854	5817.76
951.16	5798.55
951.465	5761.26
951.77	5729.62
952.075	5665.44
952.38	5670.64
952.685	5613.69
952.99	5625.45
953.294	5613.02
953.599	5553.13
953.904	5544.32
954.209	5569.18
954.513	5502.51
954.818	5502.51
955.122	5530.76
955.426	5473.36
955.731	5420.25
956.035	5378.67
956.339	5349.97
956.643	5337.54
956.948	5319.46
957.252	5263.87
957.556	5249.41
957.86	5208.51
958.163	5248.28
958.467	5166.93
958.771	5155.85
959.075	5196.98
959.378	5098.91
959.682	5151.33
959.985	5063.2
960.289	5103.65
960.592	5052.8
960.896	4992.92
961.199	4992.92
961.502	4999.47
961.805	4941.4
962.108	4900.94
962.411	4850.1
962.714	4865.69
963.017	4832.92
963.32	4834.73
963.623	4757.9
963.926	4795.18
964.228	4768.29
964.531	4753.6
964.833	4742.76
965.136	4713.83
965.438	4712.47
965.741	4607.17
966.043	4636.09
966.345	4595.64
966.648	4597.45
966.95	4600.84
967.252	4547.73
967.554	4519.94
967.856	4517.45
968.158	4459.6
968.46	4457.79
968.761	4393.39
969.063	4463.89
969.365	4444.01
969.666	4403.33
969.968	4395.87
970.269	4344.12
970.571	4392.48
970.872	4346.61
971.174	4283.11
971.475	4295.54
971.776	4294.41
972.077	4253.96
972.378	4256.67
972.679	4212.83
972.98	4196.78
973.281	4181.87
973.582	4184.81
973.883	4133.73
974.183	4123.11
974.484	4070.23
974.785	4065.49
975.085	4030.46
975.386	4039.05
975.686	4057.58
975.986	4008.31
976.287	4019.39
976.587	3956.79
976.887	3918.6
977.187	3967.86
977.487	3930.8
977.787	3872.95
978.087	3851.93
978.387	3864.14
978.687	3872.27
978.987	3830.92
979.286	3805.38
979.586	3795.44
979.885	3758.83
980.185	3729.68
980.484	3736.23
980.784	3724.25
981.083	3692.39
981.382	3717.47
981.682	3677.25
981.981	3651.94
982.28	3675.67
982.579	3622.11
982.878	3642.67
983.177	3584.6
983.475	3562.22
983.774	3557.93
984.073	3541.88
984.372	3513.64
984.67	3506.18
984.969	3513.41
985.267	3488.1
985.566	3450.59
985.864	3442.23
986.162	3447.2
986.461	3392.74
986.759	3395.9
987.057	3362.68
987.355	3367.43
987.653	3374.21
987.951	3357.93
988.249	3293.08
988.547	3313.64
988.844	3297.37
989.142	3276.35
989.44	3242.23
989.737	3258.5
990.035	3197.94
990.332	3212.85
990.63	3170.37
990.927	3176.24
991.224	3169.01
991.521	3154.32
991.819	3109.35
992.116	3141.67
992.413	3115.23
992.71	3086.75
993.006	3066.64
993.303	3075
993.6	3054.44
993.897	3029.58
994.193	3024.61
994.49	2986.42
994.787	2988.68
995.083	3001.11
995.379	2961.79
995.676	2915.69
995.972	2936.02
996.268	2865.97
996.565	2876.14
996.861	2867.78
997.157	2914.33
997.453	2855.12
997.749	2805.41
998.044	2797.5
998.34	2773.77
998.636	2765.41
998.932	2771.28
999.227	2757.5
999.523	2716.82
999.818	2730.83
1000.114	2692.64
1000.409	2683.83
1000.704	2714.79
1001	2710.72
1001.295	2662.81
1001.59	2676.14
1001.885	2642.47
1002.18	2587.33
1002.475	2605.19
1002.77	2598.86
1003.065	2571.06
1003.359	2535.13
1003.654	2558.63
1003.949	2493.78
1004.243	2527.45
1004.538	2483.83
1004.832	2492.65
1005.127	2470.27
1005.421	2452.87
1005.715	2476.83
1006.009	2446.32
1006.304	2410.16
1006.598	2383.95
1006.892	2409.94
1007.186	2352.76
1007.48	2363.84
1007.773	2350.05
1008.067	2308.02
1008.361	2308.24
1008.655	2296.04
1008.948	2307.34
1009.242	2286.32
1009.535	2274.8
1009.829	2249.94
1010.122	2223.73
1010.415	2207
1010.708	2219.21
1011.001	2151.19
1011.295	2158.42
1011.588	2148.02
1011.881	2146.21
1012.173	2148.25
1012.466	2122.03
1012.759	2112.32
1013.052	2105.54
1013.344	2079.78
1013.637	2070.06
1013.93	2059.89
1014.222	2025.09
1014.514	2047.46
1014.807	2023.51
1015.099	2041.36
1015.391	2027.8
1015.683	2007.46
1015.976	2009.04
1016.268	1964.3
1016.56	1926.11
1016.851	1929.05
1017.143	1922.27
1017.435	1931.08
1017.727	1925.66
1018.018	1880.46
1018.31	1885.2
1018.602	1864.64
1018.893	1858.76
1019.185	1858.09
1019.476	1815.38
1019.767	1834.81
1020.058	1810.4
1020.35	1800.24
1020.641	1780.35
1020.932	1778.54
1021.223	1740.35
1021.514	1760.46
1021.804	1717.75
1022.095	1731.76
1022.386	1696.06
1022.677	1711.42
1022.967	1671.42
1023.258	1690.41
1023.548	1656.06
1023.839	1675.94
1024.129	1630.07
1024.419	1626
1024.709	1586.23
1025	1583.74
1025.29	1575.61
1025.58	1577.87
1025.87	1550.3
1026.16	1554.82
1026.449	1562.28
1026.739	1561.37
1027.029	1516.17
1027.319	1517.53
1027.608	1536.06
1027.898	1482.05
1028.187	1510.3
1028.477	1454.03
1028.766	1442.05
1029.055	1459.45
1029.344	1444.76
1029.634	1445.67
1029.923	1442.5
1030.212	1446.35
1030.501	1397.31
1030.79	1378.78
1031.078	1404.54
1031.367	1391.88
1031.656	1361.6
1031.945	1388.27
1032.233	1363.18
1032.522	1347.37
1032.81	1357.99
1033.099	1349.4
1033.387	1318.67
1033.675	1310.3
1033.963	1306.69
1034.251	1320.02
1034.54	1248.39
1034.828	1263.98
1035.116	1256.75
1035.403	1251.77
1035.691	1250.87
1035.979	1200.02
1036.267	1230.08
1036.554	1237.76
1036.842	1213.58
1037.129	1181.95
1037.417	1158.67
1037.704	1182.4
1037.992	1172
1038.279	1140.82
1038.566	1146.47
1038.853	1146.47
1039.14	1146.47
