Data from White_reflection_standard_FLMS001491_080.txt Node
Date: Tue Feb 07 10:32:11 GMT 2017
User: dcchb
Spectrometer: FLMS00149
Trigger mode: 0
Integration Time (sec): 2.000000E-2
Scans to average: 10
Electric dark correction enabled: true
Nonlinearity correction enabled: false
Boxcar width: 0
XAxis mode: Wavelengths
Number of Pixels in Spectrum: 2048
>>>>>Begin Spectral Data<<<<<
341.393	-23.32
341.776	-23.32
342.16	-23.32
342.543	-49.31
342.927	-69.19
343.31	-73.26
343.693	-68.52
344.077	-66.71
344.46	-40.95
344.843	-69.42
345.226	-35.97
345.61	-40.49
345.993	-19.48
346.376	-0.49
346.759	13.06
347.142	30.69
347.525	58.26
347.908	53.06
348.291	73.85
348.674	79.28
349.057	107.07
349.44	126.06
349.823	139.39
350.206	173.96
350.588	220.06
350.971	251.48
351.354	271.36
351.737	277.01
352.119	306.62
352.502	298.93
352.884	312.04
353.267	323.56
353.65	324.92
354.032	339.38
354.414	360.85
354.797	370.34
355.179	354.98
355.562	364.69
355.944	386.39
356.326	386.16
356.709	396.56
357.091	415.99
357.473	415.09
357.855	384.81
358.238	386.39
358.62	381.42
359.002	394.98
359.384	401.75
359.766	405.14
360.148	403.56
360.53	411.7
360.912	414.86
361.294	400.17
361.676	405.14
362.057	404.69
362.439	408.76
362.821	398.82
363.203	396.11
363.584	399.72
363.966	419.16
364.348	414.64
364.729	403.56
365.111	412.38
365.493	418.7
365.874	407.63
366.256	418.03
366.637	414.64
367.019	417.35
367.4	411.92
367.781	410.34
368.163	410.57
368.544	422.55
368.925	437.46
369.306	419.16
369.688	417.35
370.069	411.92
370.45	414.18
370.831	427.07
371.212	447.86
371.593	437.46
371.974	442.43
372.355	442.88
372.736	449.66
373.117	447.63
373.498	428.87
373.879	464.58
374.26	461.41
374.641	440.4
375.021	448.76
375.402	447.18
375.783	491.02
376.163	495.99
376.544	498.48
376.925	501.41
377.305	474.97
377.686	485.37
378.066	497.35
378.447	494.63
378.827	527.4
379.208	500.06
379.588	526.72
379.968	510.45
380.349	532.37
380.729	551.36
381.109	550
381.489	520.85
381.87	541.41
382.25	546.38
382.63	531.24
383.01	552.03
383.39	553.16
383.77	581.41
384.15	582.99
384.53	573.73
384.91	594.97
385.29	601.52
385.67	613.05
386.049	619.6
386.429	627.29
386.809	622.99
387.189	617.79
387.568	623.67
387.948	628.64
388.328	673.16
388.707	646.04
389.087	662.77
389.466	644.69
389.846	674.97
390.225	689.21
390.605	681.07
390.984	692.82
391.363	708.41
391.743	704.12
392.122	727.62
392.501	737.79
392.881	744.57
393.26	740.28
393.639	761.07
394.018	777.79
394.397	740.5
394.776	810.78
395.155	780.05
395.534	803.1
395.913	773.27
396.292	807.39
396.671	812.82
397.05	834.06
397.429	824.12
397.808	830.22
398.186	832.48
398.565	874.28
398.944	855.75
399.323	873.38
399.701	889.65
400.08	889.88
400.458	884.45
400.837	927.84
401.215	937.11
401.594	901.63
401.972	936.2
402.351	938.46
402.729	943.44
403.107	964
403.486	973.49
403.864	1009.42
404.242	989.31
404.62	1034.28
404.999	1038.8
405.377	1038.8
405.755	1055.75
406.133	1074.51
406.511	1090.78
406.889	1103.21
407.267	1112.92
407.645	1119.25
408.023	1128.06
408.401	1147.27
408.779	1189.3
409.156	1208.74
409.534	1191.11
409.912	1226.14
410.29	1260.26
410.667	1258.23
411.045	1300.49
411.422	1304.56
411.8	1312.24
412.178	1350.88
412.555	1326.93
412.933	1335.29
413.31	1383.88
413.687	1408.96
414.065	1408.51
414.442	1422.29
414.819	1434.04
415.197	1436.76
415.574	1476.08
415.951	1512.23
416.328	1505.45
416.705	1534.38
417.082	1520.37
417.46	1551.33
417.837	1595.85
418.214	1577.54
418.591	1594.49
418.967	1609.63
419.344	1622.74
419.721	1663.19
420.098	1666.58
420.475	1701.83
420.852	1711.33
421.228	1735.51
421.605	1753.13
421.982	1741.15
422.358	1789.74
422.735	1824.54
423.111	1797.65
423.488	1851.89
423.864	1871.09
424.241	1897.31
424.617	1897.76
424.994	1929.4
425.37	1951.54
425.746	1954.93
426.123	1983.18
426.499	2019.57
426.875	1999.23
427.251	2048.94
427.627	2075.38
428.003	2141.82
428.379	2135.49
428.756	2172.56
429.132	2212.1
429.507	2262.27
429.883	2280.8
430.259	2280.58
430.635	2306.34
431.011	2351.08
431.387	2362.38
431.763	2397.86
432.138	2473.11
432.514	2503.62
432.89	2515.37
433.265	2586.1
433.641	2581.13
434.016	2581.36
434.392	2666.1
434.767	2740
435.143	2716.27
435.518	2761.24
435.894	2802.37
436.269	2826.32
436.644	2843.95
437.02	2882.59
437.395	2891.41
437.77	2958.75
438.145	2983.16
438.52	3005.75
438.895	3046.43
439.271	3090.72
439.646	3112.64
440.021	3132.76
440.395	3170.04
440.77	3182.92
441.145	3175.92
441.52	3265.86
441.895	3265.18
442.27	3297.05
442.645	3310.15
443.019	3371.39
443.394	3369.59
443.769	3401.68
444.143	3400.55
444.518	3468.57
444.892	3446.65
445.267	3470.37
445.641	3515.8
446.016	3540.2
446.39	3575.68
446.764	3594.89
447.139	3599.86
447.513	3671.73
447.887	3693.65
448.262	3709.24
448.636	3691.84
449.01	3806.64
449.384	3822.46
449.758	3870.59
450.132	3908.56
450.506	3901.32
450.88	3991.27
451.254	3938.84
451.628	4007.76
452.002	4089.57
452.376	4084.14
452.75	4143.58
453.123	4220.19
453.497	4257.25
453.871	4244.59
454.244	4388.99
454.618	4415.21
454.992	4426.96
455.365	4485.26
455.739	4554.19
456.112	4604.36
456.486	4711.25
456.859	4711.92
457.232	4830.11
457.606	4819.94
457.979	4880.96
458.352	4951.47
458.725	5049.09
459.099	5086.38
459.472	5227.84
459.845	5182.87
460.218	5281.85
460.591	5328.41
460.964	5338.8
461.337	5467.38
461.71	5568.62
462.083	5629.87
462.456	5666.02
462.829	5672.35
463.201	5817.88
463.574	5845.23
463.947	5878.45
464.32	6072.79
464.692	6070.76
465.065	6110.08
465.438	6244.09
465.81	6300.13
466.183	6385.78
466.555	6527.92
466.928	6566.11
467.3	6569.95
467.672	6707.8
468.045	6843.17
468.417	6816.73
468.789	6911.19
469.161	7090.84
469.534	7185.53
469.906	7309.37
470.278	7388.69
470.65	7501
471.022	7600.89
471.394	7746.19
471.766	7783.93
472.138	7956.36
472.51	8055.34
472.882	8248.78
473.253	8309.12
473.625	8393.41
473.997	8633.18
474.369	8718.37
474.74	8790.23
475.112	8981.19
475.484	9076.56
475.855	9265.25
476.227	9343.89
476.598	9604.22
476.97	9640.38
477.341	9922.86
477.713	10031.33
478.084	10156.98
478.455	10434.94
478.827	10515.39
479.198	10801.93
479.569	10796.51
479.94	11154.01
480.311	11202.15
480.682	11455.93
481.053	11793.77
481.424	11939.3
481.795	12105.4
482.166	12215.91
482.537	12429.69
482.908	12643.69
483.279	12858.38
483.65	12994.19
484.021	13338.82
484.391	13459.26
484.762	13521.18
485.133	13701.74
485.503	13902.87
485.874	14207.95
486.244	14276.19
486.615	14544.21
486.985	14809.96
487.356	15032.33
487.726	15187.35
488.097	15547.12
488.467	15561.81
488.837	15888.81
489.207	16136.71
489.578	16385.06
489.948	16500.77
490.318	16701.89
490.688	16748.9
491.058	17005.61
491.428	17294.19
491.798	17383
492.168	17751.81
492.538	17899.37
492.908	17980.05
493.278	18409.42
493.648	18403.77
494.017	18603.54
494.387	18825.23
494.757	18827.94
495.126	19075.61
495.496	19272.22
495.866	19258.66
496.235	19549.73
496.605	19731.19
496.974	19860.23
497.344	20081.92
497.713	20246.88
498.082	20380.44
498.452	20634.22
498.821	20673.76
499.19	20792.63
499.559	20905.85
499.928	21155.11
500.298	21314.2
500.667	21494.08
501.036	21477.36
501.405	21735.43
501.774	21694.75
502.143	21946.27
502.512	22079.83
502.88	22317.79
503.249	22297.9
503.618	22520.95
503.987	22704.45
504.356	22722.52
504.724	22838
505.093	23074.15
505.462	23094.72
505.83	23415.84
506.199	23526.57
506.567	23960.46
506.936	23929.5
507.304	24196.84
507.672	24180.56
508.041	24396.15
508.409	24587.79
508.777	24814.9
509.145	24998.17
509.514	25059.19
509.882	25222.35
510.25	25297.15
510.618	25458.72
510.986	25623.01
511.354	25876.34
511.722	26280.85
512.09	26508.41
512.458	26329.89
512.826	26693.72
513.193	26808.74
513.561	26819.37
513.929	27189.07
514.297	27278.79
514.664	27616.18
515.032	27705.67
515.4	27982.05
515.767	28126.68
516.135	28297.29
516.502	28253.23
516.869	28732.99
517.237	28755.36
517.604	28727.79
517.972	29234.67
518.339	29339.07
518.706	29405.29
519.073	29669.46
519.44	29936.57
519.808	30150.58
520.175	30297.47
520.542	30652.94
520.909	30817.45
521.276	30785.81
521.643	31265.12
522.009	31485.23
522.376	31734.72
522.743	31866.24
523.11	32165.89
523.477	32504.87
523.843	32789.38
524.21	33039.99
524.577	33293.09
524.943	33318.18
525.31	33602.46
525.676	33884.26
526.043	34258.94
526.409	34173.75
526.776	34677.01
527.142	34867.29
527.508	34986.16
527.874	35506.82
528.241	35500.72
528.607	35532.13
528.973	36001.04
529.339	36139.35
529.705	36368.04
530.071	36608.94
530.437	36800.57
530.803	36985.65
531.169	37325.98
531.535	37191.75
531.901	37467.22
532.267	37493.21
532.632	37885.97
532.998	38010.26
533.364	38220.2
533.73	38288.22
534.095	38603.01
534.461	38623.12
534.826	38874.42
535.192	39208.87
535.557	39313.05
535.923	39437.11
536.288	39582.87
536.653	39651.34
537.019	39637.56
537.384	39842.98
537.749	40107.6
538.114	40272.35
538.479	40227.15
538.845	40558.21
539.21	40604.31
539.575	40696.51
539.94	40830.3
540.305	41065.54
540.67	41027.13
541.034	41289.95
541.399	41459.88
541.764	41559.54
542.129	41646.09
542.494	41785.75
542.858	42113.65
543.223	42156.82
543.587	42291.05
543.952	42254.67
544.316	42285.17
544.681	42612.85
545.045	42748.89
545.41	42966.74
545.774	43032.72
546.138	43110.91
546.503	43248.54
546.867	43315.88
547.231	43660.5
547.595	43713.38
547.959	43866.83
548.324	43944.79
548.688	44032.47
549.052	44218.91
549.416	44227.72
549.779	44450.31
550.143	44522.63
550.507	44754.49
550.871	44922.62
551.235	44993.12
551.599	45373.68
551.962	45476.28
552.326	45490.29
552.689	45757.85
553.053	45710.62
553.417	45788.13
553.78	46338.17
554.143	46141.12
554.507	46364.61
554.87	46538.17
555.234	46866.52
555.597	46652.97
555.96	46960.08
556.323	47165.72
556.686	47228.09
557.05	47467.64
557.413	47557.58
557.776	47696.1
558.139	47886.61
558.502	47911.69
558.865	48060.16
559.228	48442.53
559.59	48523.88
559.953	48663.99
560.316	49060.81
560.679	48998.44
561.041	49161.83
561.404	49376.74
561.767	49739.21
562.129	49495.83
562.492	49958.19
562.854	49845.65
563.217	50000.9
563.579	50133.78
563.941	50407.45
564.304	50508.01
564.666	50703.48
565.028	50820.32
565.39	50865.51
565.753	51129.69
566.115	51210.81
566.477	51334.88
566.839	51489
567.201	51670.92
567.563	51676.11
567.925	52037.91
568.287	51955.65
568.648	52001.75
569.01	52298.02
569.372	52427.96
569.734	52364.23
570.095	52599.25
570.457	52713.37
570.819	52728.29
571.18	52797.89
571.542	52991.33
571.903	53031.78
572.265	53139.8
572.626	53285.11
572.987	53285.11
573.349	53360.36
573.71	53505.44
574.071	53570.53
574.432	53688.72
574.794	53908.14
575.155	53785.66
575.516	53771.2
575.877	53916.51
576.238	53960.57
576.599	54120.34
576.96	54090.51
577.32	54146.78
577.681	54270.62
578.042	54226.55
578.403	54329.15
578.763	54311.98
579.124	54421.35
579.485	54414.35
579.845	54563.27
580.206	54513.1
580.566	54441.92
580.927	54591.29
581.287	54740.21
581.648	54505.87
582.008	54683.04
582.368	54721.91
582.728	54776.37
583.089	54610.5
583.449	54733.21
583.809	54671.29
584.169	54866.31
584.529	54711.51
584.889	55006.42
585.249	54701.8
585.609	54721.91
585.969	54869.48
586.329	54792.42
586.688	54797.84
587.048	54808.01
587.408	54796.48
587.768	54796.26
588.127	54716.71
588.487	54801.23
588.846	54971.17
589.206	54729.14
589.565	54711.97
589.925	54856.37
590.284	54813.66
590.643	54777.05
591.003	55003.03
591.362	55061.11
591.721	54891.4
592.08	54955.35
592.44	55066.53
592.799	54986.76
593.158	54898.4
593.517	54921
593.876	55001.9
594.235	54968.23
594.593	55033.99
594.952	55052.52
595.311	54930.94
595.67	55055.46
596.029	55173.2
596.387	55161.67
596.746	55229.69
597.104	55164.83
597.463	55146.3
597.822	55290.71
598.18	55110.37
598.538	55112.63
598.897	55260.2
599.255	55049.13
599.613	55450.25
599.972	55187.43
600.33	55365.73
600.688	55203.48
601.046	55325.06
601.404	55413.19
601.762	55351.04
602.12	55440.08
602.478	55485.5
602.836	55424.49
603.194	55338.39
603.552	55505.62
603.91	55353.98
604.268	55599.17
604.625	55460.42
604.983	55583.35
605.341	55407.77
605.698	55618.83
606.056	55670.13
606.413	55543.58
606.771	55692.73
607.128	55743.35
607.485	55637.82
607.843	55681.21
608.2	55784.48
608.557	55875.1
608.914	55731.6
609.272	55914.87
609.629	55986.06
609.986	56007.3
610.343	55927.07
610.7	56062.89
611.057	56019.28
611.414	56034.87
611.771	56051.37
612.127	56156.67
612.484	56079.84
612.841	56255.43
613.198	56131.59
613.554	56196.22
613.911	56271.92
614.267	56294.3
614.624	56222.43
614.98	56262.89
615.337	56436.21
615.693	56369.32
616.05	56307.18
616.406	56441.86
616.762	56331.36
617.118	56368.87
617.475	56392.37
617.831	56439.6
618.187	56422.43
618.543	56454.97
618.899	56638.24
619.255	56564.57
619.611	56571.35
619.967	56640.28
620.323	56677.11
620.678	56549.21
621.034	56494.52
621.39	56487.29
621.746	56478.7
622.101	56746.94
622.457	56572.48
622.812	56575.19
623.168	56669.2
623.523	56641.63
623.879	56698.58
624.234	56479.15
624.589	56624.91
624.945	56627.4
625.3	56645.93
625.655	56663.1
626.01	56612.93
626.365	56585.36
626.72	56575.87
627.075	56544.69
627.43	56603.44
627.785	56444.35
628.14	56553.05
628.495	56615.42
628.85	56499.04
629.205	56485.7
629.559	56637.56
629.914	56453.84
630.269	56501.3
630.623	56381.07
630.978	56311.25
631.332	56478.02
631.687	56480.28
632.041	56358.48
632.396	56460.85
632.75	56319.61
633.104	56345.14
633.459	56206.16
633.813	56180.18
634.167	56212.26
634.521	56154.87
634.875	56205.49
635.229	56153.96
635.583	55917.58
635.937	55942.67
636.291	55914.19
636.645	55911.26
636.999	55941.09
637.352	55919.84
637.706	55734.54
638.06	55924.14
638.413	55830.13
638.767	55775.89
639.121	55781.32
639.474	55558.04
639.828	55686.4
640.181	55590.36
640.534	55633.52
640.888	55586.97
641.241	55460.87
641.594	55435.11
641.947	55591.72
642.301	55398.05
642.654	55410.03
643.007	55416.81
643.36	55360.76
643.713	55271.5
644.066	55378.16
644.419	55143.37
644.771	54989.47
645.124	54739.54
645.477	54689.59
645.83	54505.87
646.182	54321.47
646.535	54388.81
646.888	54352.88
647.24	54182.49
647.593	54330.73
647.945	54298.42
648.298	54142.71
648.65	54079.44
649.002	54015.94
649.355	54128.25
649.707	53997.86
650.059	54222.71
650.411	54510.39
650.763	54500.22
651.115	54731.4
651.467	54634.23
651.819	54690.72
652.171	54568.01
652.523	54544.51
652.875	54459.09
653.227	54362.82
653.578	54496.6
653.93	54456.83
654.282	54255.93
654.633	54274.91
654.985	54294.8
655.337	54264.97
655.688	54310.17
656.039	54390.84
656.391	54041.47
656.742	54086.67
657.094	54219.55
657.445	54266.33
657.796	54151.08
658.147	54028.14
658.498	54019.1
658.849	54107.69
659.2	54065.43
659.551	53972.55
659.902	54082.38
660.253	54008.26
660.604	54055.71
660.955	53883.74
661.306	53966
661.656	53931.65
662.007	53847.36
662.358	53876.73
662.708	53858.65
663.059	53883.29
663.409	53650.07
663.76	53859.11
664.11	53796.74
664.461	53831.99
664.811	53759.9
665.161	53761.48
665.511	53620.02
665.862	53759.67
666.212	53740.01
666.562	53769.39
666.912	53730.3
667.262	53647.81
667.612	53628.83
667.962	53693.24
668.312	53489.17
668.662	53689.62
669.011	53627.7
669.361	53533.24
669.711	53567.59
670.06	53466.35
670.41	53434.71
670.76	53366.46
671.109	53427.03
671.459	53409.17
671.808	53281.49
672.157	53383.19
672.507	53281.95
672.856	53246.02
673.205	53191.78
673.554	53267.03
673.904	53118.79
674.253	53264.77
674.602	53232
674.951	52719.93
675.3	52569.87
675.649	53072.91
675.998	52958.11
676.346	53024.78
676.695	53200.82
677.044	52903.65
677.393	52980.26
677.741	52986.59
678.09	52880.83
678.438	52833.37
678.787	52962.63
679.135	52847.16
679.484	52721.74
679.832	52775.97
680.181	52600.38
680.529	52763.54
680.877	52577.78
681.225	52554.96
681.573	52787.95
681.922	52448.52
682.27	52365.81
682.618	52388.86
682.966	52282.2
683.314	52371.46
683.661	52206.95
684.009	52066.61
684.357	51937.58
684.705	51945.48
685.053	51942.32
685.4	51884.24
685.748	51761.99
686.095	51779.84
686.443	51592.73
686.79	51614.65
687.138	51590.01
687.485	51629.79
687.832	51428.21
688.18	51381.88
688.527	51281.1
688.874	51277.48
689.221	51237.48
689.568	51107.77
689.915	50972.4
690.262	50901.67
690.609	50866.42
690.956	50816.93
691.303	50643.37
691.65	50514.79
691.997	50422.59
692.344	50382.59
692.69	50277.51
693.037	50155.48
693.383	49920.9
693.73	50046.33
694.077	49905.09
694.423	49905.54
694.769	49715.71
695.116	49594.13
695.462	49646.79
695.808	49437.53
696.155	49427.58
696.501	49198.89
696.847	49323.63
697.193	48976.52
697.539	48983.53
697.885	48829.41
698.231	48603.88
698.577	48784.66
698.923	48514.61
699.269	48541.96
699.614	48255.19
699.96	48122.53
700.306	48221.06
700.651	48068.3
700.997	47897.68
701.342	47806.84
701.688	47835.54
702.033	47720.28
702.379	47596.67
702.724	47539.5
703.069	47592.6
703.415	46989.68
703.76	47118.04
704.105	47190.13
704.45	46906.29
704.795	46828.1
705.14	46674.21
705.485	46617.71
705.83	46467.21
706.175	46482.8
706.52	46460.88
706.865	46256.37
707.209	46142.7
707.554	45981.35
707.899	46108.58
708.243	45828.58
708.588	45700.22
708.932	45584.97
709.277	45516.05
709.621	45599.44
709.966	45349.27
710.31	45383.62
710.654	44961.26
710.998	45082.16
711.342	44982.96
711.687	44824.77
712.031	44792.23
712.375	44661.61
712.719	44733.47
713.063	44523.31
713.407	44585.68
713.75	44383.2
714.094	44312.46
714.438	44225.91
714.782	44196.08
715.125	43945.92
715.469	44130.77
715.812	43865.92
716.156	43540.51
716.499	43573.28
716.843	43719.26
717.186	43402.66
717.53	43537.12
717.873	43566.27
718.216	43484.01
718.559	43157.24
718.902	42944.59
719.246	43073.18
719.589	42928.32
719.932	42858.94
720.275	42903.24
720.617	42693.07
720.96	42629.8
721.303	42678.16
721.646	42551.83
721.989	42362.69
722.331	42478.39
722.674	42243.37
723.016	42238.62
723.359	42076.82
723.701	42153.88
724.044	42056.03
724.386	41917.27
724.729	41960.89
725.071	41813.1
725.413	41791.18
725.755	41713.66
726.097	41596.38
726.439	41375.82
726.782	41400
727.124	41692.65
727.465	41363.16
727.807	41284.75
728.149	41157.07
728.491	40986.45
728.833	41184.86
729.175	40951.42
729.516	40925.44
729.858	40894.25
730.199	40835.72
730.541	40832.56
730.882	40743.52
731.224	40732.9
731.565	40460.36
731.906	40453.58
732.248	40557.08
732.589	40302.4
732.93	40200.48
733.271	40214.95
733.612	40177.21
733.953	40250.65
734.294	39997.1
734.635	39893.15
734.976	40142.63
735.317	39816.76
735.658	39642.31
735.999	39654.73
736.339	39636.43
736.68	39756.65
737.021	39483.21
737.361	39376.1
737.702	39499.03
738.042	39379.49
738.383	39184.24
738.723	39314.4
739.063	39122.77
739.404	39161.64
739.744	39043.45
740.084	38967.29
740.424	39024.02
740.764	38791.25
741.104	38941.76
741.444	38639.39
741.784	38720.3
742.124	38697.47
742.464	38584.71
742.804	38537.25
743.143	38528.21
743.483	38336.8
743.823	38245.73
744.162	38138.62
744.502	38254.54
744.841	37970.48
745.181	38215.45
745.52	38038.05
745.86	37991.5
746.199	37918.28
746.538	37848.91
746.877	37810.94
747.216	37798.06
747.556	37718.29
747.895	37795.8
748.234	37504.06
748.573	37431.97
748.911	37394.68
749.25	37441.23
749.589	37268.81
749.928	37219.77
750.267	37322.37
750.605	37145.87
750.944	36909.95
751.283	36884.86
751.621	36924.64
751.96	36628.6
752.298	36766
752.636	36705.89
752.975	36400.36
753.313	36379.79
753.651	36444.42
753.989	36366.23
754.327	36274.03
754.666	35937.09
755.004	36103.42
755.342	36042.17
755.679	35991.55
756.017	35772.35
756.355	35844.21
756.693	35490.1
757.031	35584.11
757.368	35271.8
757.706	35476.99
758.044	35333.72
758.381	35254.85
758.719	34972.15
759.056	35112.03
759.394	34994.52
759.731	34795.88
760.068	34633.17
760.405	34442.44
760.743	34407.87
761.08	34485.15
761.417	34256.01
761.754	34313.63
762.091	34120.87
762.428	33953.64
762.765	33915.45
763.102	33819.86
763.438	33624.16
763.775	33656.02
764.112	33519.3
764.449	33557.72
764.785	33471.85
765.122	33057.17
765.458	32995.25
765.795	32966.1
766.131	33064.4
766.467	32930.39
766.804	32666.67
767.14	32583.96
767.476	32509.16
767.812	32377.64
768.148	32439.1
768.485	32166.12
768.821	31980.36
769.157	32005.67
769.492	31970.19
769.828	31913.24
770.164	31499.24
770.5	31507.38
770.836	31417.89
771.171	31246.59
771.507	31261.96
771.842	30942.42
772.178	31024
772.513	30950.33
772.849	30847.28
773.184	30714.63
773.519	30652.26
773.855	30483
774.19	30311.7
774.525	30220.63
774.86	30156
775.195	30111.93
775.53	29888.66
775.865	29829.23
776.2	29609.57
776.535	29323.93
776.87	29385.63
777.205	29229.7
777.539	29114.45
777.874	29251.17
778.209	28993.09
778.543	28891.85
778.878	28792.87
779.212	28738.19
779.547	28470.85
779.881	28648.47
780.215	28350.62
780.55	28377.29
780.884	28235.83
781.218	28246.9
781.552	28171.65
781.886	27943.18
782.22	27785.22
782.554	27682.39
782.888	27511.78
783.222	27295.51
783.556	27303.87
783.889	27208.96
784.223	26985.24
784.557	27057.55
784.89	26973.94
785.224	26912.47
785.557	26820.72
785.891	26669.76
786.224	26656.43
786.558	26529.88
786.891	26424.35
787.224	26197.46
787.557	26202.88
787.891	25989.78
788.224	26119.04
788.557	26098.48
788.89	25897.13
789.223	25832.27
789.556	25597.7
789.888	25573.75
790.221	25552.51
790.554	25292.17
790.887	25370.36
791.219	25211.95
791.552	25193.65
791.884	25055.57
792.217	25018.51
792.549	24824.16
792.882	24681.79
793.214	24629.37
793.546	24601.12
793.879	24458.75
794.211	24262.82
794.543	24398.64
794.875	24310.96
795.207	24313.67
795.539	24094.01
795.871	24065.77
796.203	23918.42
796.535	23877.97
796.867	23741.71
797.198	23656.96
797.53	23677.08
797.862	23574.48
798.193	23556.85
798.525	23322.06
798.856	23413.13
799.188	23219.01
799.519	23203.42
799.85	23003.42
800.182	23120.25
800.513	22905.57
800.844	22753.94
801.175	22928.39
801.506	22846.81
801.837	22731.56
802.168	22662.86
802.499	22548.29
802.83	22522.76
803.161	22404.11
803.491	22387.84
803.822	22318.47
804.153	22241.18
804.483	22092.26
804.814	22076.44
805.145	22040.51
805.475	21976.1
805.805	21820.17
806.136	21804.13
806.466	21884.35
806.796	21679.16
807.126	21560.29
807.457	21597.36
807.787	21588.54
808.117	21411.82
808.447	21351.94
808.777	21381.09
809.107	21233.98
809.436	21232.17
809.766	21222.68
810.096	21061.1
810.426	21024.26
810.755	21103.58
811.085	20876.7
811.414	20893.19
811.744	20669.24
812.073	20747.66
812.403	20624.05
812.732	20536.82
813.061	20500.21
813.39	20469.93
813.719	20460.44
814.049	20506.99
814.378	20418.18
814.707	20285.53
815.036	20123.04
815.365	20164.17
815.693	19947.91
816.022	19975.48
816.351	19937.74
816.68	19790.62
817.008	19838.76
817.337	19741.13
817.665	19617.52
817.994	19752.88
818.322	19719.67
818.651	19563.74
818.979	19486.9
819.307	19616.39
819.636	19675.6
819.964	19429.5
820.292	19537.75
820.62	19408.26
820.948	19408.26
821.276	19476.96
821.604	19277.87
821.932	19428.6
822.259	19402.61
822.587	19387.02
822.915	19226.12
823.243	19339.34
823.57	19319.68
823.898	19322.84
824.225	19154.48
824.553	19267.25
824.88	19289.85
825.207	19319.68
825.535	19329.39
825.862	19259.56
826.189	19234.48
826.516	19331.2
826.843	19374.59
827.17	19273.12
827.497	19238.32
827.824	19249.39
828.151	19326
828.478	19278.32
828.805	19307.7
829.131	19196.29
829.458	19114.26
829.785	19049.63
830.111	19164.2
830.438	19223.41
830.764	19140.25
831.09	19263.63
831.417	19106.8
831.743	19101.83
832.069	19130.3
832.395	19062.28
832.722	19069.96
833.048	19025.9
833.374	19037.42
833.7	18959.91
834.026	18933.92
834.351	19058.21
834.677	19090.3
835.003	18996.52
835.329	18992.45
835.654	18864.32
835.98	18838.78
836.306	18825.23
836.631	18867.71
836.956	18783.64
837.282	18817.54
837.607	18735.96
837.932	18684.44
838.258	18670.65
838.583	18767.83
838.908	18533.26
839.233	18634.04
839.558	18541.62
839.883	18462.52
840.208	18411.68
840.533	18377.33
840.858	18365.35
841.182	18359.93
841.507	18365.12
841.832	18351.79
842.156	18172.81
842.481	18193.15
842.805	18159.48
843.13	18147.28
843.454	18065.47
843.778	18045.36
844.103	18014.85
844.427	17974.63
844.751	18027.28
845.075	17800.39
845.399	17720.17
845.723	17742.54
846.047	17722.2
846.371	17601.75
846.695	17547.74
847.019	17467.75
847.343	17414.64
847.666	17305.04
847.99	17155.21
848.313	17226.4
848.637	17100.98
848.96	17063.46
849.284	17010.13
849.607	16900.98
849.931	16901.89
850.254	16599.52
850.577	16647.43
850.9	16486.53
851.223	16496.25
851.546	16445.17
851.869	16365.18
852.192	16481.56
852.515	16246.76
852.838	16183.94
853.161	16129.7
853.483	16051.06
853.806	16065.52
854.129	15980.55
854.451	15979.2
854.774	15815.59
855.096	15846.09
855.419	15716.38
855.741	15772.42
856.063	15628.02
856.385	15636.38
856.708	15588.02
857.03	15484.52
857.352	15480.91
857.674	15445.43
857.996	15435.03
858.318	15285.21
858.64	15298.76
858.961	15295.6
859.283	15197.98
859.605	15125.44
859.926	15196.39
860.248	15139.67
860.57	15010.64
860.891	14958.21
861.212	14934.71
861.534	14924.76
861.855	14926.57
862.176	14949.85
862.498	14951.65
862.819	14883.86
863.14	14770.42
863.461	14732.23
863.782	14715.5
864.103	14660.14
864.424	14681.15
864.745	14649.29
865.065	14511.89
865.386	14521.61
865.707	14575.62
866.027	14565.22
866.348	14586.69
866.668	14449.52
866.989	14448.17
867.309	14343.99
867.63	14391.9
867.95	14361.16
868.27	14335.63
868.59	14328.62
868.91	14303.31
869.23	14221.28
869.55	14155.74
869.87	14245.68
870.19	14158.23
870.51	14163.43
870.83	14111.9
871.15	14056.54
871.469	14108.97
871.789	14121.85
872.109	14099.02
872.428	13980.16
872.748	14037.1
873.067	14079.59
873.386	14025.35
873.706	13930.89
874.025	13859.48
874.344	13871.68
874.663	13918.91
874.982	13896.32
875.301	13844.34
875.62	13747.39
875.939	13775.41
876.258	13817.45
876.577	13699.26
876.896	13654.51
877.214	13606.61
877.533	13615.42
877.852	13633.95
878.17	13614.06
878.489	13551.47
878.807	13585.59
879.125	13614.06
879.444	13495.2
879.762	13490.45
880.08	13412.49
880.398	13467.63
880.716	13501.52
881.034	13314.86
881.352	13392.15
881.67	13298.37
881.988	13376.56
882.306	13213.85
882.624	13284.35
882.941	13133.4
883.259	13149.67
883.577	13157.8
883.894	13068.31
884.212	13057.92
884.529	13119.84
884.846	13093.17
885.164	12967.07
885.481	12942.67
885.798	12947.87
886.115	12871.94
886.432	12890.24
886.75	12829.68
887.067	12847.53
887.383	12710.58
887.7	12789
888.017	12702
888.334	12719.62
888.651	12605.5
888.967	12599.63
889.284	12543.58
889.6	12470.14
889.917	12386.98
890.233	12499.97
890.55	12396.92
890.866	12383.36
891.182	12391.95
891.498	12255.45
891.815	12309.69
892.131	12301.56
892.447	12181.78
892.763	12150.82
893.079	12091.62
893.395	12017.72
893.71	12033.31
894.026	12100.43
894.342	11930.72
894.657	11914.22
894.973	11927.33
895.289	11888.01
895.604	11797.61
895.92	11762.59
896.235	11701.12
896.55	11765.3
896.865	11636.04
897.181	11625.19
897.496	11604.62
897.811	11585.64
898.126	11483.5
898.441	11437.85
898.756	11443.72
899.071	11308.13
899.386	11370.05
899.7	11296.16
900.015	11244.18
900.33	11164.41
900.644	11119.67
900.959	11201.25
901.273	11084.19
901.588	11059.33
901.902	11054.58
902.216	10970.74
902.531	10948.37
902.845	10944.08
903.159	10805.32
903.473	10813.91
903.787	10680.81
904.101	10680.35
904.415	10705.89
904.729	10630.41
905.042	10582.5
905.356	10541.15
905.67	10486.91
905.984	10476.07
906.297	10424.99
906.611	10367.37
906.924	10339.8
907.237	10318.78
907.551	10319.91
907.864	10254.15
908.177	10261.61
908.491	10151.78
908.804	10069.98
909.117	10109.07
909.43	10045.57
909.743	9953.82
910.056	9957.21
910.368	9901.39
910.681	9911.34
910.994	9801.06
911.307	9815.29
911.619	9751.34
911.932	9714.73
912.244	9626.6
912.557	9591.34
912.869	9512.7
913.181	9498.01
913.494	9532.59
913.806	9475.19
914.118	9407.62
914.43	9391.35
914.742	9330.11
915.054	9264.57
915.366	9211.47
915.678	9266.83
915.99	9155.65
916.302	9153.62
916.613	9116.55
916.925	9074.52
917.236	9089.89
917.548	9018.48
917.859	9044.92
918.171	8921.08
918.482	8869.78
918.794	8853.96
919.105	8822.55
919.416	8817.8
919.727	8727.86
920.038	8687.86
920.349	8634.76
920.66	8721.08
920.971	8619.39
921.282	8560.41
921.593	8513.18
921.903	8449.68
922.214	8476.57
922.525	8413.3
922.835	8370.36
923.146	8336.01
923.456	8305.5
923.767	8181.66
924.077	8266.41
924.387	8117.26
924.697	8174.88
925.008	8080.42
925.318	8110.93
925.628	8030.25
925.938	8044.04
926.248	7979.41
926.558	7897.6
926.867	7938.28
927.177	7914.33
927.487	7794.1
927.796	7795.68
928.106	7711.17
928.416	7733.99
928.725	7712.98
929.034	7699.42
929.344	7658.06
929.653	7593.2
929.962	7557.73
930.271	7525.86
930.581	7501
930.89	7481.34
931.199	7387.56
931.508	7433.43
931.817	7350.5
932.125	7361.12
932.434	7299.65
932.743	7257.39
933.051	7166.77
933.36	7191.86
933.669	7124.29
933.977	7086.32
934.286	7056.04
934.594	7083.39
934.902	7053.11
935.21	6973.33
935.519	6977.85
935.827	6983.28
936.135	6933.56
936.443	6826.9
936.751	6816.73
937.059	6811.3
937.367	6787.12
937.674	6749.61
937.982	6725.2
938.29	6673.45
938.597	6680.69
938.905	6598.43
939.213	6630.74
939.52	6597.3
939.827	6611.31
940.135	6528.83
940.442	6465.1
940.749	6473.01
941.056	6490.86
941.363	6434.82
941.67	6419.45
941.977	6351.43
942.284	6300.13
942.591	6252.22
942.898	6231.66
943.205	6248.38
943.511	6183.52
943.818	6200.25
944.125	6139.46
944.431	6108.05
944.738	6089.97
945.044	6079.57
945.35	6039.8
945.657	6050.65
945.963	6000.48
946.269	5967.03
946.575	5967.94
946.881	5902.4
947.187	5881.61
947.493	5833.93
947.799	5833.93
948.105	5785.57
948.41	5740.15
948.716	5778.11
949.022	5739.47
949.327	5706.47
949.633	5598.91
949.938	5652.46
950.244	5627.83
950.549	5576.08
950.854	5532.47
951.16	5601.17
951.465	5513.03
951.77	5482.07
952.075	5478.68
952.38	5461.96
952.685	5430.78
952.99	5379.25
953.294	5412.7
953.599	5344.9
953.904	5319.59
954.209	5328.41
954.513	5295.41
954.818	5308.07
955.122	5197.79
955.426	5145.81
955.731	5198.92
956.035	5152.59
956.339	5148.52
956.643	5140.84
956.948	5042.99
957.252	5060.84
957.556	5059.94
957.86	5012.71
958.163	5028.75
958.467	4986.72
958.771	5015.87
959.075	4991.01
959.378	4932.48
959.682	4946.27
959.985	4921.41
960.289	4831.02
960.592	4808.42
960.896	4817.23
961.199	4775.65
961.502	4763.9
961.805	4788.08
962.108	4694.98
962.411	4730.45
962.714	4711.7
963.017	4629.44
963.32	4637.35
963.623	4620.63
963.926	4598.25
964.228	4592.38
964.531	4553.06
964.833	4572.49
965.136	4500.18
965.438	4483.46
965.741	4483.23
966.043	4421.54
966.345	4477.13
966.648	4393.97
966.95	4374.31
967.252	4383.12
967.554	4377.92
967.856	4360.75
968.158	4312.84
968.46	4301.99
968.761	4298.38
969.063	4271.48
969.365	4261.54
969.666	4221.32
969.968	4188.77
970.269	4166.85
970.571	4190.58
970.872	4130.7
971.174	4082.79
971.475	4099.74
971.776	4081.66
972.077	4039.63
972.378	4052.05
972.679	4065.84
972.98	4011.15
973.281	4001.43
973.582	4005.5
973.883	3978.16
974.183	3954.88
974.484	3929.35
974.785	3886.18
975.085	3890.93
975.386	3868.78
975.686	3828.78
975.986	3839.18
976.287	3874.88
976.587	3765.73
976.887	3735.68
977.187	3750.82
977.487	3758.73
977.787	3722.8
978.087	3711.05
978.387	3715.79
978.687	3663.36
978.987	3684.15
979.286	3632.4
979.586	3631.05
979.885	3610.26
980.185	3610.94
980.484	3572.29
980.784	3575
981.083	3582.01
981.382	3500.2
981.682	3498.85
981.981	3469.7
982.28	3486.42
982.579	3468.57
982.878	3464.5
983.177	3440.09
983.475	3423.14
983.774	3403.03
984.073	3351.51
984.372	3345.63
984.67	3393.31
984.969	3357.61
985.267	3366.87
985.566	3299.08
985.864	3291.4
986.162	3278.74
986.461	3284.17
986.759	3270.61
987.057	3218.86
987.355	3185.86
987.653	3191.29
987.951	3189.7
988.249	3183.38
988.547	3159.87
988.844	3113.32
989.142	3137.95
989.44	3129.14
989.737	3069.48
990.035	3087.56
990.332	3081.01
990.63	3047.56
990.927	3050.95
991.224	3025.19
991.521	3003.49
991.819	2987
992.116	2971.86
992.413	2963.72
992.71	2930.05
993.006	2961.24
993.303	2906.55
993.6	2904.97
993.897	2899.09
994.193	2932.08
994.49	2860.67
994.787	2833.56
995.083	2829.04
995.379	2834.23
995.676	2823.16
995.972	2775.03
996.268	2792.65
996.565	2763.05
996.861	2749.49
997.157	2743.61
997.453	2691.86
997.749	2672.66
998.044	2681.24
998.34	2712.88
998.636	2658.42
998.932	2643.05
999.227	2658.42
999.523	2623.39
999.818	2590.85
1000.114	2600.34
1000.409	2612.54
1000.704	2547.46
1001	2556.73
1001.295	2554.92
1001.59	2536.39
1001.885	2514.47
1002.18	2482.15
1002.475	2496.39
1002.77	2453.68
1003.065	2427.92
1003.359	2451.64
1003.654	2403.28
1003.949	2438.99
1004.243	2430.18
1004.538	2381.36
1004.832	2389.27
1005.127	2378.88
1005.421	2342.72
1005.715	2350.86
1006.009	2316.51
1006.304	2325.09
1006.598	2253.23
1006.892	2286.45
1007.186	2259.33
1007.48	2250.97
1007.773	2250.97
1008.067	2228.83
1008.361	2200.35
1008.655	2187.92
1008.948	2196.28
1009.242	2171.43
1009.535	2146.79
1009.829	2148.15
1010.122	2128.04
1010.415	2142.5
1010.708	2107.7
1011.001	2071.99
1011.295	2065.44
1011.588	2081.48
1011.881	2058.89
1012.173	2029.73
1012.466	2007.59
1012.759	2035.16
1013.052	2006.68
1013.344	1965.33
1013.637	1982.5
1013.93	1957.42
1014.222	1976.63
1014.514	1956.29
1014.807	1929.85
1015.099	1903.86
1015.391	1901.38
1015.683	1916.74
1015.976	1865.22
1016.268	1863.19
1016.56	1873.81
1016.851	1864.99
1017.143	1856.86
1017.435	1815.5
1017.727	1820.7
1018.018	1788.84
1018.31	1779.35
1018.602	1781.15
1018.893	1739.35
1019.185	1759.23
1019.476	1742.74
1019.767	1739.35
1020.058	1740.7
1020.35	1697.54
1020.641	1686.24
1020.932	1708.39
1021.223	1674.49
1021.514	1634.26
1021.804	1658.45
1022.095	1634.72
1022.386	1629.07
1022.677	1632.23
1022.967	1579.13
1023.258	1582.97
1023.548	1571.44
1023.839	1554.72
1024.129	1591.33
1024.419	1537.77
1024.709	1525.34
1025	1550.88
1025.29	1535.96
1025.58	1516.98
1025.87	1494.16
1026.16	1490.54
1026.449	1489.18
1026.739	1442.18
1027.029	1458.22
1027.319	1452.35
1027.608	1454.38
1027.898	1448.51
1028.187	1418.45
1028.477	1388.85
1028.766	1388.62
1029.055	1370.77
1029.344	1374.38
1029.634	1368.51
1029.923	1328.51
1030.212	1354.95
1030.501	1323.54
1030.79	1322.63
1031.078	1330.54
1031.367	1315.4
1031.656	1279.47
1031.945	1295.06
1032.233	1305.01
1032.522	1242.18
1032.81	1276.99
1033.099	1273.14
1033.387	1262.07
1033.675	1242.64
1033.963	1230.66
1034.251	1224.11
1034.54	1190.89
1034.828	1196.31
1035.116	1225.46
1035.403	1175.75
1035.691	1202.64
1035.979	1177.55
1036.267	1164.45
1036.554	1142.98
1036.842	1151.34
1037.129	1159.25
1037.417	1117.67
1037.704	1123.09
1037.992	1132.81
1038.279	1102.98
1038.566	1091.45
1038.853	1091.45
1039.14	1091.45
