Data from whiteboard_FLMS001491_00059.txt Node
Date: Wed Feb 08 11:27:07 GMT 2017
User: dcchb
Spectrometer: FLMS00149
Trigger mode: 0
Integration Time (sec): 2.000000E-2
Scans to average: 10
Electric dark correction enabled: true
Nonlinearity correction enabled: false
Boxcar width: 0
XAxis mode: Wavelengths
Number of Pixels in Spectrum: 2048
>>>>>Begin Spectral Data<<<<<
341.393	-8.45
341.776	-8.45
342.16	-8.45
342.543	-75.34
342.927	-76.24
343.31	-59.97
343.693	-68.33
344.077	-56.81
344.46	-76.47
344.843	-55
345.226	-14.77
345.61	-29.91
345.993	-30.14
346.376	9.63
346.759	2.85
347.142	36.3
347.525	43.53
347.908	39.01
348.291	80.14
348.674	82.4
349.057	97.54
349.44	100.7
349.823	136.41
350.206	172.11
350.588	223.86
350.971	235.84
351.354	240.13
351.737	277.87
352.119	257.76
352.502	272.9
352.884	303.41
353.267	312
353.65	324.88
354.032	311.32
354.414	345.22
354.797	325.33
355.179	342.73
355.562	341.15
355.944	348.38
356.326	353.35
356.709	351.54
357.091	366.01
357.473	359.91
357.855	344.09
358.238	376.63
358.62	376.4
359.002	364.43
359.384	364.2
359.766	359.45
360.148	374.82
360.53	394.26
360.912	349.96
361.294	349.51
361.676	362.84
362.057	361.94
362.439	371.2
362.821	351.77
363.203	355.16
363.584	376.18
363.966	366.91
364.348	356.06
364.729	346.35
365.111	375.5
365.493	376.4
365.874	362.17
366.256	340.92
366.637	360.36
367.019	387.48
367.4	328.04
367.781	361.71
368.163	338.66
368.544	366.91
368.925	368.49
369.306	361.49
369.688	361.04
370.069	377.53
370.45	366.23
370.831	349.74
371.212	360.81
371.593	363.75
371.974	369.17
372.355	352.67
372.736	363.75
373.117	372.79
373.498	361.49
373.879	356.52
374.26	364.2
374.641	352.67
375.021	357.19
375.402	380.02
375.783	386.57
376.163	412.11
376.544	392.22
376.925	402.16
377.305	382.28
377.686	410.53
378.066	423.41
378.447	412.11
378.827	376.18
379.208	399.45
379.588	400.36
379.968	411.88
380.349	414.82
380.729	427.47
381.109	427.47
381.489	407.14
381.87	405.1
382.25	430.19
382.63	443.29
383.01	419.11
383.39	439
383.77	448.27
384.15	446.01
384.53	435.84
384.91	456.85
385.29	467.02
385.67	463.18
386.049	476.06
386.429	476.29
386.809	466.8
387.189	490.75
387.568	491.65
387.948	467.7
388.328	493.91
388.707	474.48
389.087	494.82
389.466	500.02
389.846	511.99
390.225	513.12
390.605	508.83
390.984	540.47
391.363	527.81
391.743	530.3
392.122	537.75
392.501	521.26
392.881	565.78
393.26	545.44
393.639	559.67
394.018	559.22
394.397	611.2
394.776	575.95
395.155	598.32
395.534	598.54
395.913	585.21
396.292	587.92
396.671	629.5
397.05	646.23
397.429	651.2
397.808	644.64
398.186	661.59
398.565	670.41
398.944	677.19
399.323	685.55
399.701	706.56
400.08	711.53
400.458	692.33
400.837	741.82
401.215	748.6
401.594	745.66
401.972	780.91
402.351	780.23
402.729	789.72
403.107	800.35
403.486	822.27
403.864	806.22
404.242	858.88
404.62	840.57
404.999	872.43
405.377	864.98
405.755	880.34
406.133	926.67
406.511	922.38
406.889	951.08
407.267	991.98
407.645	991.98
408.023	1011.87
408.401	1038.53
408.779	1051.19
409.156	1050.74
409.534	1060.23
409.912	1091.41
410.29	1134.57
410.667	1166.44
411.045	1195.14
411.422	1173.22
411.8	1218.87
412.178	1251.63
412.555	1288.69
412.933	1271.07
413.31	1297.28
413.687	1336.6
414.065	1361.69
414.442	1364.85
414.819	1390.16
415.197	1408.01
415.574	1438.75
415.951	1467.9
416.328	1493.89
416.705	1488.69
417.082	1519.42
417.46	1533.43
417.837	1524.85
418.214	1568.24
418.591	1586.54
418.967	1618.4
419.344	1627.67
419.721	1687.33
420.098	1675.35
420.475	1689.81
420.852	1725.29
421.228	1734.78
421.605	1757.16
421.982	1746.76
422.358	1797.61
422.735	1827.89
423.111	1833.77
423.488	1897.49
423.864	1840.54
424.241	1916.7
424.617	1928
424.994	1953.08
425.37	1975.46
425.746	1980.65
426.123	2019.75
426.499	2046.87
426.875	2080.99
427.251	2068.11
427.627	2131.16
428.003	2161.67
428.379	2186.07
428.756	2215.68
429.132	2267.88
429.507	2286.18
429.883	2319.85
430.259	2375.67
430.635	2374.54
431.011	2415.9
431.387	2466.52
431.763	2502
432.138	2502.9
432.514	2546.97
432.89	2575.44
433.265	2640.75
433.641	2700.41
434.016	2700.64
434.392	2755.32
434.767	2801.65
435.143	2797.58
435.518	2835.09
435.894	2843
436.269	2900.4
436.644	2971.14
437.02	2959.84
437.395	2977.46
437.77	3062.66
438.145	3138.14
438.52	3136.78
438.895	3158.02
439.271	3136.33
439.646	3262.65
440.021	3262.2
440.395	3280.96
440.77	3249.55
441.145	3308.98
441.52	3351.24
441.895	3367.28
442.27	3404.57
442.645	3446.83
443.019	3485.02
443.394	3434.18
443.769	3536.32
444.143	3574.74
444.518	3612.25
444.892	3614.28
445.267	3619.48
445.641	3639.37
446.016	3635.3
446.39	3736.99
446.764	3734.73
447.139	3736.31
447.513	3803.66
447.887	3835.97
448.262	3832.36
448.636	3864.22
449.01	3903.09
449.384	3972.01
449.758	3981.96
450.132	4020.83
450.506	4052.92
450.88	4078.68
451.254	4148.28
451.628	4170.43
452.002	4213.14
452.376	4244.1
452.75	4314.83
453.123	4373.81
453.497	4415.62
453.871	4492.45
454.244	4574.03
454.618	4542.62
454.992	4627.14
455.365	4675.72
455.739	4791.43
456.112	4891.09
456.486	4881.82
456.859	4946.68
457.232	5068.03
457.606	4997.3
457.979	5103.28
458.352	5172.89
458.725	5231.42
459.099	5282.04
459.472	5401.81
459.845	5416.72
460.218	5547.57
460.591	5580.33
460.964	5585.08
461.337	5745.53
461.71	5798.41
462.083	5858.29
462.456	5926.09
462.829	5908.01
463.201	6038.17
463.574	6067.55
463.947	6210.6
464.32	6357.26
464.692	6326.53
465.065	6438.84
465.438	6558.16
465.81	6577.14
466.183	6745.73
466.555	6867.98
466.928	6842.22
467.3	6874.99
467.672	7028.66
468.045	7188.43
468.417	7182.33
468.789	7299.16
469.161	7404.69
469.534	7522.43
469.906	7687.17
470.278	7742.31
470.65	7881.52
471.022	8005.81
471.394	8176.88
471.766	8230.66
472.138	8342.52
472.51	8476.53
472.882	8612.12
473.253	8739.57
473.625	8905.22
473.997	9081.03
474.369	9146.79
474.74	9257.75
475.112	9413.23
475.484	9643.05
475.855	9697.51
476.227	9888.47
476.598	10085.98
476.97	10152.19
477.341	10450.94
477.713	10505.63
478.084	10738.39
478.455	10989.91
478.827	10965.73
479.198	11353.74
479.569	11408.2
479.94	11650.91
480.311	11779.94
480.682	12038.47
481.053	12366.6
481.424	12532.69
481.795	12701.73
482.166	12828.28
482.537	12999.35
482.908	13365.89
483.279	13400.24
483.65	13619.9
484.021	13975.59
484.391	14091.97
484.762	14277.96
485.133	14413.55
485.503	14673.65
485.874	14937.6
486.244	14977.6
486.615	15412.62
486.985	15522.22
487.356	15864.13
487.726	15935.54
488.097	16295.98
488.467	16424.34
488.837	16701.62
489.207	16912.69
489.578	17124.21
489.948	17403.98
490.318	17601.03
490.688	17714.93
491.058	17937.75
491.428	18268.14
491.798	18434.68
492.168	18742.02
492.538	18848.46
492.908	19029.92
493.278	19372.51
493.648	19325.96
494.017	19591.49
494.387	19827.64
494.757	20043.23
495.126	20311.92
495.496	20290.68
495.866	20584.68
496.235	20702.65
496.605	20907.16
496.974	21005.01
497.344	21224.89
497.713	21326.59
498.082	21572.23
498.452	21689.74
498.821	21867.36
499.19	21809.96
499.559	22117.75
499.928	22244.98
500.298	22456.95
500.667	22704.4
501.036	22595.03
501.405	22853.55
501.774	22927.9
502.143	23126.76
502.512	23180.32
502.88	23472.29
503.249	23476.81
503.618	23600.88
503.987	23764.26
504.356	23937.59
504.724	24139.85
505.093	24225.72
505.462	24337.13
505.83	24568.31
506.199	24747.74
506.567	25123.1
506.936	25087.39
507.304	25327.16
507.672	25568.96
508.041	25566.47
508.409	25849.86
508.777	26007.82
509.145	26232.22
509.514	26262.05
509.882	26461.37
510.25	26695.03
510.618	26749.95
510.986	27001.01
511.354	27320.55
511.722	27534.33
512.09	27728.9
512.458	27741.33
512.826	28068.1
513.193	28156.46
513.561	28345.84
513.929	28630.57
514.297	28755.77
514.664	29050.45
515.032	29174.97
515.4	29406.6
515.767	29499.03
516.135	29699.02
516.502	29615.18
516.869	30295.62
517.237	30352.56
517.604	30380.13
517.972	30827.35
518.339	30871.42
518.706	30977.86
519.073	31317.51
519.44	31503.27
519.808	31833.88
520.175	31794.56
520.542	32270.25
520.909	32371.49
521.276	32500.76
521.643	32830.46
522.009	32971.03
522.376	33169.21
522.743	33384.8
523.11	33795.41
523.477	34070.88
523.843	34170.09
524.21	34574.15
524.577	34892.33
524.943	35007.58
525.31	35079.22
525.676	35543.16
526.043	35923.26
526.409	35875.58
526.776	36345.4
527.142	36231.96
527.508	36502.46
527.874	36867.19
528.241	37086.17
528.607	37246.39
528.973	37479.38
529.339	37578.36
529.705	37925.02
530.071	38193.04
530.437	38284.11
530.803	38478.68
531.169	38692.23
531.535	38713.93
531.901	38839.8
532.267	39093.12
532.632	39421.48
532.998	39371.08
533.364	39803.84
533.73	39822.15
534.095	40151.63
534.461	40359.98
534.826	40445.86
535.192	40609.47
535.557	40990.48
535.923	40884.04
536.288	41127.42
536.653	41253.07
537.019	41336
537.384	41550.01
537.749	41766.27
538.114	41938.7
538.479	41989.09
538.845	42326.03
539.21	42291.91
539.575	42454.39
539.94	42559.25
540.305	42893.7
540.67	42752.92
541.034	43161.94
541.399	43321.49
541.764	43361.26
542.129	43627.24
542.494	43826.33
542.858	43977.06
543.223	43934.58
543.587	44500.89
543.952	44177.06
544.316	44544.28
544.681	44533.43
545.045	44732.75
545.41	44908.11
545.774	45139.75
546.138	45048.9
546.503	45339.51
546.867	45213.87
547.231	45763.91
547.595	45624.25
547.959	45712.61
548.324	45974.53
548.688	46042.32
549.052	46104.24
549.416	46247.96
549.779	46214.29
550.143	46374.97
550.507	46679.82
550.871	46700.83
551.235	46636.88
551.599	46911
551.962	46937.66
552.326	47029.19
552.689	47200.03
553.053	47246.81
553.417	47307.6
553.78	47792.33
554.143	47618.32
554.507	47783.74
554.87	47912.33
555.234	48379.21
555.597	48111.64
555.96	48308.02
556.323	48437.51
556.686	48580.78
557.05	48742.81
557.413	48868.69
557.776	48935.8
558.139	49097.83
558.502	49304.61
558.865	49230.03
559.228	49564.49
559.59	49668.89
559.953	49719.29
560.316	50173.51
560.679	50247.86
561.041	50470.9
561.404	50564.01
561.767	50789.77
562.129	50638.13
562.492	51074.5
562.854	51002.64
563.217	51114.73
563.579	51255.29
563.941	51427.04
564.304	51753.58
564.666	51818.67
565.028	51810.98
565.39	52059.11
565.753	52232.89
566.115	52323.29
566.477	52453.9
566.839	52528.7
567.201	52766.66
567.563	52865.87
567.925	53096.15
568.287	53062.7
568.648	53220.66
569.01	53359.87
569.372	53442.58
569.734	53424.05
570.095	53651.39
570.457	53772.29
570.819	53792.85
571.18	53890.7
571.542	54071.71
571.903	54111.49
572.265	54194.87
572.626	54283.01
572.987	54345.83
573.349	54450.01
573.71	54547.86
574.071	54650
574.432	54792.37
574.794	54993.05
575.155	54970.67
575.516	54940.17
575.877	54956.89
576.238	55095.42
576.599	55076.89
576.96	55170.22
577.32	55244.79
577.681	55296.54
578.042	55357.56
578.403	55336.09
578.763	55302.42
579.124	55388.52
579.485	55492.47
579.845	55503.54
580.206	55393.26
580.566	55548.96
580.927	55573.82
581.287	55692.69
581.648	55410.89
582.008	55656.3
582.368	55505.57
582.728	55622.86
583.089	55585.57
583.449	55579.92
583.809	55616.98
584.169	55713.7
584.529	55550.32
584.889	55811.78
585.249	55639.36
585.609	55513.48
585.969	55748.73
586.329	55672.12
586.688	55625.57
587.048	55633.93
587.408	55554.16
587.768	55574.95
588.127	55610.43
588.487	55566.36
588.846	55680.03
589.206	55502.86
589.565	55526.82
589.925	55681.84
590.284	55606.59
590.643	55635.97
591.003	55697.21
591.362	55765.91
591.721	55623.31
592.08	55632.58
592.44	55755.96
592.799	55741.27
593.158	55707.15
593.517	55698.56
593.876	55772.69
594.235	55751.44
594.593	55743.99
594.952	55818.56
595.311	55709.18
595.67	55754.83
596.029	55951.44
596.387	55906.69
596.746	55945.79
597.104	55874.6
597.463	55910.08
597.822	56049.97
598.18	55949.86
598.538	56032.57
598.897	56189.17
599.255	55956.64
599.613	56430.52
599.972	56218.55
600.33	56241.6
600.688	56197.76
601.046	56288.6
601.404	56366.34
601.762	56325.89
602.12	56553.91
602.478	56430.75
602.836	56462.39
603.194	56363.4
603.552	56487.47
603.91	56348.72
604.268	56541.25
604.625	56494.93
604.983	56549.84
605.341	56446.57
605.698	56622.38
606.056	56648.6
606.413	56574.7
606.771	56758.65
607.128	56739.67
607.485	56616.96
607.843	56542.61
608.2	56753
608.557	56828.25
608.914	56762.72
609.272	56863.5
609.629	56924.75
609.986	56946.21
610.343	56751.64
610.7	57021.24
611.057	56875.03
611.414	56934.24
611.771	56940.11
612.127	56999.32
612.484	57025.53
612.841	57062.37
613.198	56937.4
613.554	56988.7
613.911	57059.88
614.267	56942.37
614.624	56997.06
614.98	57094.69
615.337	57164.29
615.693	57120.22
616.05	57133.1
616.406	57157.96
616.762	57047.45
617.118	57033.67
617.475	57056.27
617.831	57110.73
618.187	57067.57
618.543	57153.89
618.899	57263.27
619.255	57237.73
619.611	57175.59
619.967	57225.53
620.323	57222.37
620.678	57147.11
621.034	57087.68
621.39	57119.54
621.746	56986.67
622.101	57346.2
622.457	57096.04
622.812	57064.63
623.168	57156.83
623.523	57097.4
623.879	57175.36
624.234	56984.63
624.589	57192.08
624.945	57189.37
625.3	57115.25
625.655	57151.41
626.01	57189.37
626.365	57208.81
626.72	57110.05
627.075	57099.2
627.43	57046.55
627.785	57011.07
628.14	57085.42
628.495	57133.33
628.85	57022.6
629.205	56924.75
629.559	57121.58
629.914	56905.54
630.269	57011.3
630.623	56911.64
630.978	56885.65
631.332	57025.76
631.687	57005.87
632.041	56904.63
632.396	56997.96
632.75	56831.42
633.104	56951.19
633.459	56793.9
633.813	56839.55
634.167	56844.07
634.521	56795.48
634.875	56801.81
635.229	56869.38
635.583	56657.86
635.937	56781.02
636.291	56725.66
636.645	56781.47
636.999	56692.44
637.352	56819.66
637.706	56656.5
638.06	56776.05
638.413	56683.85
638.767	56551.2
639.121	56662.38
639.474	56449.73
639.828	56515.04
640.181	56476.85
640.534	56521.37
640.888	56522.27
641.241	56370.64
641.594	56466.68
641.947	56550.29
642.301	56326.34
642.654	56428.49
643.007	56488.37
643.36	56442.95
643.713	56336.97
644.066	56383.97
644.419	56141.04
644.771	56064.43
645.124	55814.04
645.477	55751.9
645.83	55469.64
646.182	55374.5
646.535	55244.56
646.888	55335.64
647.24	55262.64
647.593	55339.93
647.945	55271
648.298	55139.48
648.65	55068.3
649.002	54905.59
649.355	55018.13
649.707	54987.4
650.059	55108.07
650.411	55391.68
650.763	55414.05
651.115	55697.43
651.467	55421.96
651.819	55503.54
652.171	55414.05
652.523	55379.7
652.875	55354.39
653.227	55263.09
653.578	55466.03
653.93	55315.3
654.282	55186.94
654.633	55101.97
654.985	55142.65
655.337	55184.45
655.688	55072.37
656.039	55092.93
656.391	54915.53
656.742	54969.54
657.094	54920.28
657.445	55071.01
657.796	54967.51
658.147	54812.26
658.498	54862.65
658.849	54919.6
659.2	54831.47
659.551	54682.77
659.902	54788.98
660.253	54686.16
660.604	54799.38
660.955	54606.39
661.306	54613.62
661.656	54607.97
662.007	54605.26
662.358	54617.91
662.708	54635.77
663.059	54555.09
663.409	54306.51
663.76	54647.97
664.11	54496.11
664.461	54533.85
664.811	54560.74
665.161	54496.11
665.511	54378.82
665.862	54501.08
666.212	54482.55
666.562	54420.18
666.912	54404.59
667.262	54325.27
667.612	54338.83
667.962	54373.85
668.312	54228.09
668.662	54353.29
669.011	54270.35
669.361	54287.53
669.711	54219.28
670.06	54250.92
670.41	54129.79
670.76	54054.54
671.109	54192.84
671.459	54013.86
671.808	53986.07
672.157	54067.19
672.507	53843.47
672.856	53977.71
673.205	53916.69
673.554	53978.16
673.904	53893.64
674.253	54044.37
674.602	53984.26
674.951	53491.84
675.3	53265.41
675.649	53741.78
675.998	53745.85
676.346	53802.79
676.695	53837.14
677.044	53642.57
677.393	53778.61
677.741	53788.33
678.09	53635.12
678.438	53625.4
678.787	53699.07
679.135	53626.75
679.484	53409.81
679.832	53521.67
680.181	53396.03
680.529	53495.68
680.877	53382.01
681.225	53409.58
681.573	53508.11
681.922	53328.91
682.27	53155.81
682.618	53238.74
682.966	53211.85
683.314	53304.5
683.661	53162.36
684.009	53027.22
684.357	52974.34
684.705	53022.93
685.053	53060.44
685.4	52947.68
685.748	52884.17
686.095	52824.29
686.443	52635.59
686.79	52765.76
687.138	52761.47
687.485	52749.49
687.832	52646.44
688.18	52577.97
688.527	52502.94
688.874	52451.87
689.221	52438.99
689.568	52322.38
689.915	52183.18
690.262	52242.61
690.609	52078.55
690.956	52093.91
691.303	51958.32
691.65	51825.67
691.997	51804.88
692.344	51583.87
692.69	51496.64
693.037	51476.53
693.383	51275.86
693.73	51346.14
694.077	51015.75
694.423	51123.54
694.769	50926.49
695.116	50931.01
695.462	50885.81
695.808	50803.55
696.155	50787.51
696.501	50448.98
696.847	50359.04
697.193	50062.55
697.539	50280.4
697.885	49978.49
698.231	49842.9
698.577	49989.34
698.923	49730.13
699.269	49404.94
699.614	49266.64
699.96	49120.21
700.306	49164.72
700.651	48905.07
700.997	48734.23
701.342	48691.06
701.688	48606.32
702.033	48381.92
702.379	48454.46
702.724	48334.69
703.069	48311.87
703.415	47928.6
703.76	47801.82
704.105	47723.18
704.45	47665.78
704.795	47513.24
705.14	47351.44
705.485	47187.38
705.83	47137.21
706.175	47187.83
706.52	47025.8
706.865	46886.37
707.209	46685.69
707.554	46671.46
707.899	46603.66
708.243	46475.08
708.588	46400.96
708.932	46079.16
709.277	46023.56
709.621	46158.93
709.966	45771.14
710.31	45953.06
710.654	45600.52
710.998	45619.28
711.342	45629.45
711.687	45393.75
712.031	45156.92
712.375	45163.25
712.719	45151.5
713.063	45119.86
713.407	45050.03
713.75	44956.02
714.094	44978.85
714.438	44746.76
714.782	44888.23
715.125	44616.14
715.469	44713.54
715.812	44490.95
716.156	44261.58
716.499	44289.6
716.843	44184.97
717.186	44127.34
717.53	44332.08
717.873	44156.49
718.216	44188.36
718.559	43993.79
718.902	43687.81
719.246	43871.98
719.589	43729.39
719.932	43619.33
720.275	43671.54
720.617	43521.03
720.96	43476.96
721.303	43536.62
721.646	43545.44
721.989	43297.31
722.331	43490.3
722.674	43150.65
723.016	43220.25
723.359	43108.39
723.701	43246.46
724.044	42899.13
724.386	42815.96
724.729	42883.31
725.071	42860.26
725.413	42794.72
725.755	42610.77
726.097	42580.72
726.439	42274.06
726.782	42340.5
727.124	42455.75
727.465	42206.94
727.807	42249.43
728.149	42080.62
728.491	42013.27
728.833	42143.67
729.175	42053.5
729.516	41933.05
729.858	41811.92
730.199	41947.96
730.541	41788.87
730.882	41645.83
731.224	41780.96
731.565	41459.39
731.906	41515.21
732.248	41588.2
732.589	41360.18
732.93	41145.05
733.271	41304.59
733.612	41360.86
733.953	41303.69
734.294	41090.81
734.635	41001.55
734.976	41009.23
735.317	40943.25
735.658	40790.71
735.999	40829.8
736.339	40722.91
736.68	40582.8
737.021	40615.12
737.361	40383.94
737.702	40541.45
738.042	40406.99
738.383	40404.05
738.723	40470.94
739.063	40117.28
739.404	40317.5
739.744	40190.72
740.084	40064.17
740.424	40057.17
740.764	39909.6
741.104	39985.98
741.444	39655.37
741.784	39537.41
742.124	39555.94
742.464	39566.11
742.804	39535.37
743.143	39540.8
743.483	39429.39
743.823	39268.26
744.162	39161.82
744.502	39242.73
744.841	39002.28
745.181	39091.09
745.52	38922.51
745.86	38968.61
746.199	38929.97
746.538	38825.56
746.877	38921.6
747.216	38767.71
747.556	38469.64
747.895	38491.11
748.234	38427.83
748.573	38261.06
748.911	38287.27
749.25	38216.99
749.589	38056.99
749.928	38134.73
750.267	37923.66
750.605	37937.22
750.944	37784.01
751.283	37634.18
751.621	37711.69
751.96	37354.41
752.298	37377.24
752.636	37434.19
752.975	36973.18
753.313	36895.89
753.651	37059.05
753.989	36748.55
754.327	36610.03
754.666	36597.37
755.004	36538.84
755.342	36401.44
755.679	36459.07
756.017	36043.94
756.355	36191.96
756.693	36122.13
757.031	36135.69
757.368	35890.72
757.706	35762.59
758.044	35524.4
758.381	35596.72
758.719	35407.12
759.056	35390.62
759.394	35177.07
759.731	35010.29
760.068	34971.2
760.405	34729.17
760.743	34592.45
761.08	34781.37
761.417	34517.43
761.754	34408.73
762.091	34334.61
762.428	34262.07
762.765	34044.44
763.102	34040.15
763.438	33858.01
763.775	33752.93
764.112	33753.83
764.449	33671.35
764.785	33484.01
765.122	33321.75
765.458	33205.6
765.795	33110.68
766.131	33093.51
766.467	32959.05
766.804	32811.93
767.14	32598.38
767.476	32647.19
767.812	32458.27
768.148	32487.87
768.485	32307.31
768.821	32054.89
769.157	32057.15
769.492	31931.05
769.828	31879.3
770.164	31631.17
770.5	31512.98
770.836	31504.62
771.171	31283.61
771.507	31322.26
771.842	31123.16
772.178	31026.9
772.513	31017.86
772.849	30882.04
773.184	30710.52
773.519	30824.42
773.855	30561.6
774.19	30419.91
774.525	30310.3
774.86	30511.2
775.195	30265.11
775.53	30177.43
775.865	30103.98
776.2	29999.8
776.535	29731.11
776.87	29700.6
777.205	29575.86
777.539	29538.8
777.874	29605.01
778.209	29164.8
778.543	29175.65
778.878	29042.77
779.212	29072.6
779.547	28997.12
779.881	28994.18
780.215	28734.75
780.55	28830.8
780.884	28567.75
781.218	28543.35
781.552	28534.31
781.886	28360.07
782.22	28142.23
782.554	28134.54
782.888	27978.39
783.222	27882.57
783.556	27925.96
783.889	27698.85
784.223	27497.72
784.557	27508.8
784.89	27518.97
785.224	27342.25
785.557	27248.24
785.891	27201.69
786.224	27148.58
786.558	27113.78
786.891	26826.78
787.224	26779.1
787.557	26602.83
787.891	26613
788.224	26612.32
788.557	26551.31
788.89	26482.38
789.223	26260.24
789.556	26133.69
789.888	26013.92
790.221	26011.21
790.554	25701.61
790.887	25881.95
791.219	25664.55
791.552	25591.33
791.884	25546.36
792.217	25591.11
792.549	25473.6
792.882	25255.52
793.214	25075.87
793.546	25180.04
793.879	25067.96
794.211	24915.64
794.543	24976.66
794.875	24865.02
795.207	24876.55
795.539	24814.63
795.871	24625.71
796.203	24505.03
796.535	24365.38
796.867	24326.51
797.198	24293.74
797.53	24179.17
797.862	24166.96
798.193	24105.04
798.525	23934.65
798.856	23840.19
799.188	23770.82
799.519	23567.43
799.85	23536.7
800.182	23452.63
800.513	23530.6
800.844	23224.39
801.175	23293.31
801.506	23259.19
801.837	23139.19
802.168	23121.57
802.499	22977.62
802.83	22856.49
803.161	22767.45
803.491	22755.02
803.822	22693.1
804.153	22591.86
804.483	22409.5
804.814	22281.82
805.145	22244.75
805.475	22236.84
805.805	22088.37
806.136	22141.25
806.466	22117.98
806.796	22117.53
807.126	21936.74
807.457	21895.84
807.787	21884.31
808.117	21635.05
808.447	21608.16
808.777	21741.49
809.107	21595.51
809.436	21428.5
809.766	21475.06
810.096	21398.9
810.426	21282.75
810.755	21312.58
811.085	21099.7
811.414	21036.88
811.744	20849.76
812.073	20866.26
812.403	20859.03
812.732	20812.02
813.061	20749.2
813.39	20597.34
813.719	20568.41
814.049	20664
814.378	20590.79
814.707	20400.06
815.036	20479.38
815.365	20294.3
815.693	20110.35
816.022	20073.51
816.351	20023.12
816.68	19907.87
817.008	20013.63
817.337	19864.7
817.665	19785.84
817.994	19862.67
818.322	19749
818.651	19601.21
818.979	19529.35
819.307	19577.93
819.636	19504.71
819.964	19353.76
820.292	19403.7
820.62	19353.98
820.948	19253.65
821.276	19332.97
821.604	19225.85
821.932	19229.92
822.259	19220.88
822.587	19217.94
822.915	19092.75
823.243	19192.18
823.57	19088.23
823.898	19076.02
824.225	19069.47
824.553	18975.91
824.88	19051.62
825.207	19058.85
825.535	19043.48
825.862	19114.67
826.189	18887.33
826.516	19098.85
826.843	19092.52
827.17	19129.13
827.497	19102.92
827.824	19037.38
828.151	19046.87
828.478	19001.68
828.805	19028.79
829.131	18966.42
829.458	18906.08
829.785	18838.97
830.111	18824.05
830.438	18909.93
830.764	18819.76
831.09	18992.86
831.417	18782.02
831.743	18826.76
832.069	18867.22
832.395	18695.24
832.722	18765.3
833.048	18713.32
833.374	18815.47
833.7	18692.98
834.026	18784.96
834.351	18763.26
834.677	18692.31
835.003	18718.97
835.329	18714.9
835.654	18598.75
835.98	18481.69
836.306	18607.79
836.631	18566.43
836.956	18582.03
837.282	18599.2
837.607	18477.85
837.932	18454.35
838.258	18545.19
838.583	18593.32
838.908	18485.08
839.233	18420.22
839.558	18415.7
839.883	18385.42
840.208	18318.3
840.533	18297.29
840.858	18349.72
841.182	18287.12
841.507	18312.43
841.832	18232.88
842.156	18173.9
842.481	18223.16
842.805	18201.47
843.13	18038.31
843.454	18078.54
843.778	17992.89
844.103	18047.8
844.427	18017.97
844.751	18069.04
845.075	17977.52
845.399	17824.31
845.723	17831.08
846.047	17825.89
846.371	17609.17
846.695	17627.02
847.019	17555.39
847.343	17493.92
847.666	17452.56
847.99	17378.89
848.313	17358.1
848.637	17281.49
848.96	17232.23
849.284	17267.94
849.607	17129.18
849.931	17116.98
850.254	17024.1
850.577	16836.53
850.9	16817.78
851.223	16788.63
851.546	16646.71
851.869	16569.2
852.192	16657.33
852.515	16505.02
852.838	16412.82
853.161	16444.91
853.483	16273.39
853.806	16287.17
854.129	16266.83
854.451	16070.45
854.774	15968.76
855.096	16045.37
855.419	15988.87
855.741	15991.13
856.063	15902.1
856.385	15788.2
856.708	15797.01
857.03	15683.12
857.352	15766.96
857.674	15696.9
857.996	15644.7
858.318	15535.78
858.64	15537.13
858.961	15434.99
859.283	15396.35
859.605	15314.09
859.926	15380.75
860.248	15390.25
860.57	15312.28
860.891	15299.4
861.212	15157.93
861.534	15152.96
861.855	15115.22
862.176	15101.44
862.498	15078.61
862.819	15090.37
863.14	14992.52
863.461	15015.57
863.782	14944.83
864.103	14987.77
864.424	14894.89
864.745	14866.64
865.065	14824.38
865.386	14807.44
865.707	14787.55
866.027	14801.79
866.348	14716.14
866.668	14735.12
866.989	14713.65
867.309	14552.98
867.63	14545.07
867.95	14534.22
868.27	14410.84
868.59	14457.16
868.91	14396.6
869.23	14360.67
869.55	14326.09
869.87	14381.91
870.19	14348.92
870.51	14309.82
870.83	14205.19
871.15	14190.95
871.469	14165.87
871.789	14096.27
872.109	14173.33
872.428	14167.9
872.748	14068.25
873.067	14117.06
873.386	14176.72
873.706	14019.43
874.025	13987.8
874.344	13910.96
874.663	13962.26
874.982	13954.8
875.301	13904.41
875.62	13788.71
875.939	13875.48
876.258	13778.08
876.577	13687.69
876.896	13762.94
877.214	13571.08
877.533	13684.98
877.852	13674.58
878.17	13600.24
878.489	13619.22
878.807	13607.69
879.125	13531.76
879.444	13551.88
879.762	13484.31
880.08	13440.24
880.398	13419
880.716	13383.52
881.034	13346.46
881.352	13423.29
881.67	13372.44
881.988	13252.9
882.306	13200.25
882.624	13134.03
882.941	13079.57
883.259	13054.26
883.577	13023.08
883.894	13043.64
884.212	12999.35
884.529	12989.4
884.846	12894.72
885.164	13000.93
885.481	12859.92
885.798	12875.96
886.115	12722.97
886.432	12763.87
886.75	12715.51
887.067	12749.64
887.383	12663.54
887.7	12598.45
888.017	12604.1
888.334	12544.44
888.651	12581.05
888.967	12480.49
889.284	12372.7
889.6	12432.81
889.917	12320.27
890.233	12303.32
890.55	12251.12
890.866	12277.33
891.182	12195.07
891.498	12104.23
891.815	12056.32
892.131	12035.53
892.447	12071.69
892.763	12003.44
893.079	11889.77
893.395	11868.76
893.71	11939.04
894.026	11835.99
894.342	11838.25
894.657	11677.8
894.973	11724.35
895.289	11604.81
895.604	11626.95
895.92	11612.49
896.235	11503.79
896.55	11524.13
896.865	11493.17
897.181	11409.56
897.496	11467.18
897.811	11307.64
898.126	11288.43
898.441	11212.73
898.756	11251.14
899.071	11100.64
899.386	11176.57
899.7	10968.21
900.015	10982.45
900.33	10914.43
900.644	10905.62
900.959	10801.44
901.273	10783.59
901.588	10783.81
901.902	10756.69
902.216	10775.45
902.531	10638.05
902.845	10617.72
903.159	10579.75
903.473	10550.37
903.787	10515.34
904.101	10403.94
904.415	10428.12
904.729	10398.51
905.042	10304.28
905.356	10308.34
905.67	10247.33
905.984	10286.42
906.297	10187.67
906.611	10144.73
906.924	10152.19
907.237	10048.46
907.551	9979.54
907.864	9914.91
908.177	9909.94
908.491	9901.35
908.804	9879.43
909.117	9738.87
909.43	9691.19
909.743	9673.11
910.056	9699.1
910.368	9662.94
910.681	9625.65
910.994	9585.2
911.307	9559.66
911.619	9477.86
911.932	9511.3
912.244	9409.84
912.557	9385.66
912.869	9387.92
913.181	9373.23
913.494	9295.49
913.806	9312.21
914.118	9173.91
914.43	9161.48
914.742	9179.33
915.054	9076.96
915.366	9150.41
915.678	9078.77
915.99	8994.71
916.302	8917.65
916.613	8902.96
916.925	8853.47
917.236	8840.59
917.548	8905.44
917.859	8810.08
918.171	8785.9
918.482	8627.49
918.794	8652.57
919.105	8634.94
919.416	8603.08
919.727	8576.41
920.038	8582.29
920.349	8450.99
920.66	8501.61
920.971	8482.86
921.282	8433.82
921.593	8408.28
921.903	8370.09
922.214	8282.41
922.525	8295.97
922.835	8288.06
923.146	8275.4
923.456	8307.04
923.767	8266.14
924.077	8233.15
924.387	8149.98
924.697	8193.15
925.008	8142.07
925.318	8091
925.628	8057.78
925.938	8102.3
926.248	7862.76
926.558	7954.28
926.867	7881.52
927.177	7860.27
927.487	7820.05
927.796	7807.62
928.106	7807.17
928.416	7802.42
928.725	7727.85
929.034	7669.77
929.344	7693.05
929.653	7710.67
929.962	7577.8
930.271	7618.47
930.581	7535.31
930.89	7538.93
931.199	7500.96
931.508	7562.43
931.817	7453.96
932.125	7489.21
932.434	7434.52
932.743	7384.58
933.051	7373.73
933.36	7267.97
933.669	7293.51
933.977	7269.55
934.286	7200.18
934.594	7267.29
934.902	7209.9
935.21	7142.33
935.519	7119.05
935.827	7135.55
936.135	7019.84
936.443	7031.59
936.751	6981.65
937.059	6994.99
937.367	6887.87
937.674	6957.02
937.982	6895.1
938.29	6866.63
938.597	6861.2
938.905	6766.74
939.213	6734.2
939.52	6759.74
939.827	6704.15
940.135	6638.61
940.442	6623.24
940.749	6616.92
941.056	6656.92
941.363	6556.13
941.67	6550.25
941.977	6495.56
942.284	6475.68
942.591	6446.07
942.898	6426.41
943.205	6438.84
943.511	6411.72
943.818	6361.33
944.125	6326.08
944.431	6272.07
944.738	6293.99
945.044	6270.94
945.35	6237.94
945.657	6154.78
945.963	6127.21
946.269	6086.31
946.575	6085.4
946.881	6004.96
947.187	5995.69
947.493	5964.05
947.799	6004.96
948.105	5934
948.41	5860.78
948.716	5889.03
949.022	5819.88
949.327	5809.25
949.633	5765.64
949.938	5749.59
950.244	5758.41
950.549	5695.58
950.854	5669.14
951.16	5629.6
951.465	5656.72
951.77	5570.84
952.075	5600.9
952.38	5579.43
952.685	5509.37
952.99	5422.37
953.294	5450.39
953.599	5460.34
953.904	5369.49
954.209	5366.78
954.513	5385.99
954.818	5336.95
955.122	5292.21
955.426	5265.99
955.731	5278.19
956.035	5218.76
956.339	5182.6
956.643	5155.26
956.948	5102.83
957.252	5120.68
957.556	5100.8
957.86	5058.31
958.163	5045.66
958.467	4987.58
958.771	4977.64
959.075	4990.07
959.378	4901.93
959.682	4902.39
959.985	4860.13
960.289	4849.73
960.592	4847.7
960.896	4807.92
961.199	4772.45
961.502	4757.76
961.805	4722.95
962.108	4704.65
962.411	4691.77
962.714	4651.32
963.017	4621.49
963.32	4630.75
963.623	4575.84
963.926	4543.52
964.228	4522.96
964.531	4485
964.833	4464.88
965.136	4470.08
965.438	4444.32
965.741	4379.46
966.043	4391.44
966.345	4340.37
966.648	4372.91
966.95	4290.2
967.252	4258.33
967.554	4289.75
967.856	4220.37
968.158	4254.72
968.46	4224.44
968.761	4196.87
969.063	4160.26
969.365	4144.67
969.666	4155.29
969.968	4097.43
970.269	4120.03
970.571	4048.4
970.872	4019.47
971.174	4022.86
971.475	4047.72
971.776	3941.05
972.077	4023.31
972.378	3991.67
972.679	3985.8
972.98	3936.53
973.281	3892.02
973.582	3878.68
973.883	3886.14
974.183	3873.26
974.484	3838.23
974.785	3780.15
975.085	3784.9
975.386	3804.56
975.686	3766.6
975.986	3729.31
976.287	3693.83
976.587	3723.21
976.887	3722.08
977.187	3704.9
977.487	3626.26
977.787	3620.16
978.087	3637.56
978.387	3584.23
978.687	3600.27
978.987	3586.26
979.286	3553.27
979.586	3542.87
979.885	3524.57
980.185	3510.33
980.484	3466.26
980.784	3446.83
981.083	3395.31
981.382	3417.9
981.682	3370
981.981	3380.39
982.28	3347.17
982.579	3320.96
982.878	3359.37
983.177	3325.03
983.475	3329.55
983.774	3296.33
984.073	3253.84
984.372	3249.77
984.67	3278.93
984.969	3241.86
985.267	3266.27
985.566	3172.94
985.864	3176.1
986.162	3174.52
986.461	3147.18
986.759	3123
987.057	3110.57
987.355	3096.33
987.653	3118.7
987.951	3083.22
988.249	3095.88
988.547	3071.92
988.844	3012.49
989.142	3055.88
989.44	2988.99
989.737	2974.75
990.035	3032.15
990.332	2986.28
990.63	2951.02
990.927	2951.48
991.224	2930.23
991.521	2920.29
991.819	2926.17
992.116	2902.66
992.413	2875.09
992.71	2875.32
993.006	2841.42
993.303	2859.28
993.6	2839.39
993.897	2845.26
994.193	2799.62
994.49	2805.94
994.787	2797.58
995.083	2765.27
995.379	2747.19
995.676	2732.27
995.972	2735.89
996.268	2735.89
996.565	2684.82
996.861	2680.97
997.157	2685.72
997.453	2695.21
997.749	2700.86
998.044	2635.33
998.34	2646.63
998.636	2634.87
998.932	2599.62
999.227	2574.54
999.523	2589.45
999.818	2566.63
1000.114	2566.4
1000.409	2536.57
1000.704	2544.93
1001	2543.13
1001.295	2504.03
1001.59	2497.48
1001.885	2500.19
1002.18	2505.39
1002.475	2476.23
1002.77	2445.05
1003.065	2432.39
1003.359	2411.83
1003.654	2412.96
1003.949	2394.43
1004.243	2373.64
1004.538	2326.86
1004.832	2347.2
1005.127	2336.13
1005.421	2318.95
1005.715	2297.93
1006.009	2279.4
1006.304	2279.63
1006.598	2242.57
1006.892	2291.83
1007.186	2231.27
1007.48	2236.92
1007.773	2207.31
1008.067	2206.41
1008.361	2256.13
1008.655	2186.07
1008.948	2187.88
1009.242	2171.16
1009.535	2158.73
1009.829	2104.49
1010.122	2125.96
1010.415	2137.71
1010.708	2105.85
1011.001	2101.78
1011.295	2078.28
1011.588	2061.78
1011.881	2055.68
1012.173	2031.05
1012.466	1991.95
1012.759	2020.65
1013.052	2011.84
1013.344	2017.26
1013.637	1996.7
1013.93	1981.11
1014.222	1965.51
1014.514	1969.58
1014.807	1938.17
1015.099	1904.5
1015.391	1894.55
1015.683	1892.29
1015.976	1865.4
1016.268	1892.07
1016.56	1865.63
1016.851	1834.22
1017.143	1846.65
1017.435	1849.13
1017.727	1821.11
1018.018	1801.68
1018.31	1808.23
1018.602	1771.39
1018.893	1747.89
1019.185	1745.63
1019.476	1768.23
1019.767	1719.19
1020.058	1725.52
1020.35	1710.15
1020.641	1704.96
1020.932	1706.09
1021.223	1712.86
1021.514	1711.06
1021.804	1678.52
1022.095	1670.15
1022.386	1679.19
1022.677	1655.69
1022.967	1633.32
1023.258	1618.4
1023.548	1615.01
1023.839	1613.21
1024.129	1618.4
1024.419	1610.49
1024.709	1585.18
1025	1584.96
1025.29	1562.36
1025.58	1528.69
1025.87	1540.21
1026.16	1509.25
1026.449	1482.59
1026.739	1489.37
1027.029	1484.4
1027.319	1475.58
1027.608	1455.7
1027.898	1495.7
1028.187	1449.37
1028.477	1449.59
1028.766	1455.92
1029.055	1419.76
1029.344	1422.02
1029.634	1374.12
1029.923	1387.9
1030.212	1387.68
1030.501	1380.22
1030.79	1343.16
1031.078	1337.73
1031.367	1330.95
1031.656	1350.61
1031.945	1325.08
1032.233	1323.72
1032.522	1338.86
1032.81	1312.42
1033.099	1327.56
1033.387	1295.25
1033.675	1261.58
1033.963	1265.19
1034.251	1269.49
1034.54	1264.97
1034.828	1229.04
1035.116	1236.49
1035.403	1219.09
1035.691	1216.15
1035.979	1231.97
1036.267	1203.73
1036.554	1183.61
1036.842	1191.07
1037.129	1150.17
1037.417	1165.76
1037.704	1153.33
1037.992	1139.55
1038.279	1149.26
1038.566	1119.43
1038.853	1119.43
1039.14	1119.43
