Data from White_reflection_standard_FLMS001491_004.txt Node
Date: Tue Feb 07 10:31:56 GMT 2017
User: dcchb
Spectrometer: FLMS00149
Trigger mode: 0
Integration Time (sec): 2.000000E-2
Scans to average: 10
Electric dark correction enabled: true
Nonlinearity correction enabled: false
Boxcar width: 0
XAxis mode: Wavelengths
Number of Pixels in Spectrum: 2048
>>>>>Begin Spectral Data<<<<<
341.393	-14.7
341.776	-14.7
342.16	-14.7
342.543	-60.8
342.927	-62.84
343.31	-74.14
343.693	-70.29
344.077	-54.02
344.46	-84.31
344.843	-50.41
345.226	-56.06
345.61	-22.61
345.993	-29.17
346.376	18.29
346.759	2.47
347.142	34.34
347.525	42.02
347.908	55.13
348.291	71.17
348.674	109.59
349.057	108.01
349.44	128.57
349.823	138.74
350.206	158.17
350.588	225.06
350.971	243.37
351.354	255.12
351.737	270.94
352.119	282.24
352.502	314.1
352.884	310.03
353.267	336.47
353.65	328.11
354.032	331.28
354.414	354.1
354.797	382.35
355.179	384.16
355.562	367.89
355.944	384.61
356.326	374.67
356.709	380.99
357.091	378.73
357.473	398.85
357.855	398.39
358.238	394.55
358.62	388.9
359.002	399.07
359.384	418.51
359.766	411.73
360.148	385.06
360.53	409.69
360.912	404.5
361.294	418.05
361.676	410.14
362.057	401.11
362.439	407.88
362.821	420.99
363.203	406.53
363.584	390.71
363.966	408.56
364.348	404.72
364.729	410.6
365.111	388.9
365.493	421.44
365.874	421.67
366.256	408.11
366.637	397.49
367.019	422.35
367.4	419.41
367.781	413.76
368.163	405.4
368.544	432.74
368.925	435.68
369.306	417.83
369.688	433.65
370.069	427.32
370.45	435.23
370.831	427.55
371.212	430.93
371.593	429.13
371.974	440.88
372.355	431.16
372.736	427.32
373.117	444.04
373.498	431.61
373.879	457.15
374.26	455.57
374.641	422.12
375.021	425.06
375.402	476.36
375.783	457.6
376.163	507.32
376.544	509.8
376.925	483.14
377.305	498.05
377.686	469.58
378.066	495.11
378.447	479.97
378.827	521.55
379.208	508
379.588	509.13
379.968	539.18
380.349	526.98
380.729	533.76
381.109	527.66
381.489	518.16
381.87	534.89
382.25	556.13
382.63	531.5
383.01	547.99
383.39	559.75
383.77	564.72
384.15	561.33
384.53	587.77
384.91	602.23
385.29	572.63
385.67	616.92
386.049	614.43
386.429	610.14
386.809	623.47
387.189	622.57
387.568	624.15
387.948	610.59
388.328	637.03
388.707	651.95
389.087	653.53
389.466	665.73
389.846	692.85
390.225	694.66
390.605	679.52
390.984	682
391.363	707.09
391.743	726.97
392.122	710.93
392.501	732.62
392.881	740.98
393.26	764.03
393.639	762.23
394.018	772.39
394.397	773.52
394.776	781.66
395.155	789.57
395.534	791.6
395.913	793.41
396.292	807.2
396.671	790.25
397.05	823.02
397.429	866.63
397.808	818.5
398.186	846.97
398.565	863.47
398.944	846.07
399.323	876.12
399.701	894.88
400.08	889.68
400.458	877.02
400.837	921.09
401.215	934.42
401.594	931.94
401.972	945.5
402.351	947.76
402.729	982.78
403.107	971.49
403.486	970.58
403.864	964.25
404.242	997.7
404.62	1023.91
404.999	1007.19
405.377	1043.12
405.755	1060.3
406.133	1091.93
406.511	1085.38
406.889	1079.96
407.267	1132.39
407.645	1115.44
408.023	1143.91
408.401	1135.78
408.779	1180.75
409.156	1215.1
409.534	1181.2
409.912	1236.56
410.29	1244.02
410.667	1235.21
411.045	1275.88
411.422	1283.12
411.8	1280.86
412.178	1320.4
412.555	1328.54
412.933	1346.17
413.31	1379.16
413.687	1384.81
414.065	1418.71
414.442	1426.84
414.819	1448.99
415.197	1432.72
415.574	1512.26
415.951	1475.2
416.328	1507.74
416.705	1517.69
417.082	1519.04
417.46	1550.68
417.837	1569.66
418.214	1571.02
418.591	1612.82
418.967	1612.6
419.344	1625.03
419.721	1659.15
420.098	1651.24
420.475	1682.2
420.852	1691.24
421.228	1718.81
421.605	1743.89
421.982	1777.57
422.358	1776.66
422.735	1792.48
423.111	1802.65
423.488	1849.2
423.864	1859.15
424.241	1867.28
424.617	1914.29
424.994	1932.36
425.37	1926.94
425.746	1968.97
426.123	1994.28
426.499	1970.33
426.875	2037.9
427.251	2051.68
427.627	2100.72
428.003	2120.16
428.379	2149.08
428.756	2160.38
429.132	2201.28
429.507	2251.68
429.883	2273.82
430.259	2293.94
430.635	2324.67
431.011	2329.87
431.387	2407.61
431.763	2429.3
432.138	2454.16
432.514	2488.73
432.89	2464.33
433.265	2584.1
433.641	2603.99
434.016	2643.31
434.392	2683.53
434.767	2707.03
435.143	2712.23
435.518	2744.55
435.894	2817.99
436.269	2839.91
436.644	2868.16
437.02	2906.8
437.395	2937.31
437.77	2980.02
438.145	2989.96
438.52	3050.08
438.895	3053.46
439.271	3039.68
439.646	3126.68
440.021	3181.82
440.395	3160.81
440.77	3170.07
441.145	3220.69
441.52	3279.45
441.895	3286
442.27	3281.93
442.645	3352.89
443.019	3364.64
443.394	3348.15
443.769	3396.73
444.143	3365.77
444.518	3466.56
444.892	3460.69
445.267	3468.82
445.641	3547.92
446.016	3530.74
446.39	3584.75
446.764	3575.49
447.139	3571.87
447.513	3653.9
447.887	3651.87
448.262	3705.43
448.636	3717.18
449.01	3800.34
449.384	3832.88
449.758	3831.3
450.132	3895.93
450.506	3910.39
450.88	3953.33
451.254	3941.35
451.628	4017.51
452.002	4046.66
452.376	4069.48
452.75	4122.59
453.123	4196.49
453.497	4239.2
453.871	4273.09
454.244	4355.8
454.618	4390.83
454.992	4509.02
455.365	4485.07
455.739	4600.32
456.112	4631.95
456.486	4677.38
456.859	4734.1
457.232	4783.59
457.606	4814.1
457.979	4849.12
458.352	4971.61
458.725	5054.32
459.099	5009.8
459.472	5181.77
459.845	5217.7
460.218	5315.1
460.591	5349.9
460.964	5378.38
461.337	5483.68
461.71	5545.15
462.083	5655.2
462.456	5615.66
462.829	5694.3
463.201	5785.37
463.574	5778.14
463.947	5876.44
464.32	6041.63
464.692	6055.87
465.065	6116.21
465.438	6229.43
465.81	6362.76
466.183	6385.81
466.555	6557.78
466.928	6550.77
467.3	6576.54
467.672	6658.12
468.045	6898.34
468.417	6835.51
468.789	6927.04
469.161	7021.72
469.534	7164.32
469.906	7322.05
470.278	7383.29
470.65	7452.67
471.022	7594.14
471.394	7714.81
471.766	7835.26
472.138	7948.03
472.51	8098.98
472.882	8192.76
473.253	8244.74
473.625	8416.04
473.997	8623.71
474.369	8643.83
474.74	8824.61
475.112	8902.12
475.484	9084.72
475.855	9304.83
476.227	9336.46
476.598	9624.82
476.97	9701.65
477.341	9891.48
477.713	10076.11
478.084	10072.72
478.455	10291.01
478.827	10476.77
479.198	10802.19
479.569	10821.4
479.94	11068.17
480.311	11255.51
480.682	11500.47
481.053	11740.47
481.424	11936.4
481.795	12122.15
482.166	12207.12
482.537	12383.16
482.908	12637.62
483.279	12781.8
483.65	13007.55
484.021	13265.17
484.391	13407.32
484.762	13620.19
485.133	13611.61
485.503	13847.08
485.874	14187.18
486.244	14305.82
486.615	14580.62
486.985	14706.49
487.356	15023.09
487.726	15226.25
488.097	15487.49
488.467	15568.16
488.837	15956.63
489.207	16080.02
489.578	16306
489.948	16505.31
490.318	16650.4
490.688	16774.23
491.058	16973.1
491.428	17301.68
491.798	17449.92
492.168	17776.24
492.538	17867.76
492.908	18035.22
493.278	18287.87
493.648	18211.71
494.017	18624.58
494.387	18766.72
494.757	18906.38
495.126	19152.25
495.496	19236.77
495.866	19306.14
496.235	19575.74
496.605	19814.83
496.974	19899.8
497.344	20035.84
497.713	20298.21
498.082	20318.77
498.452	20594.02
498.821	20699.33
499.19	20736.39
499.559	20989.49
499.928	21065.42
500.298	21231.29
500.667	21527.1
501.036	21520.55
501.405	21717.61
501.774	21708.57
502.143	22001.44
502.512	22021.1
502.88	22362.11
503.249	22370.02
503.618	22565.04
503.987	22666.51
504.356	22751.25
504.724	22932.49
505.093	23028.98
505.462	23185.59
505.83	23354.85
506.199	23714.39
506.567	23887.04
506.936	23922.52
507.304	24206.58
507.672	24286.58
508.041	24452
508.409	24578.55
508.777	24695.83
509.145	24947.8
509.514	25008.82
509.882	25282.48
510.25	25291.3
510.618	25536.94
510.986	25595.02
511.354	25907.55
511.722	26102.35
512.09	26378.5
512.458	26406.98
512.826	26718.61
513.193	26761.99
513.561	26913.85
513.929	27138.71
514.297	27432.48
514.664	27601.75
515.032	27665.93
515.4	28078.12
515.767	28140.94
516.135	28346.36
516.502	28176.65
516.869	28641.04
517.237	28799.91
517.604	28747.93
517.972	29170.07
518.339	29332.32
518.706	29448.7
519.073	29681.01
519.44	29886.66
519.808	30234.9
520.175	30305.63
520.542	30638.5
520.909	30788.33
521.276	30861.1
521.643	31196.45
522.009	31362.33
522.376	31596.44
522.743	31858.81
523.11	32240.49
523.477	32456.99
523.843	32635.29
524.21	33026.46
524.577	33266.23
524.943	33299
525.31	33635.26
525.676	33999.32
526.043	34073.67
526.409	34256.49
526.776	34712.29
527.142	34761.56
527.508	34944.15
527.874	35156.58
528.241	35537.36
528.607	35513.63
528.973	35855.31
529.339	35900.74
529.705	36326.26
530.071	36616.2
530.437	36787.04
530.803	36927.38
531.169	37308.61
531.535	37199.69
531.901	37305.45
532.267	37645.32
532.632	37940.68
532.998	37871.08
533.364	38203.05
533.73	38440.78
534.095	38653.21
534.461	38612.76
534.826	38974.33
535.192	39046.42
535.557	39377.03
535.923	39402.57
536.288	39584.93
536.653	39797.58
537.019	39592.84
537.384	39887.07
537.749	40073.73
538.114	40186.05
538.479	40294.75
538.845	40536.55
539.21	40476.89
539.575	40814.05
539.94	40912.36
540.305	41183.76
540.67	41107.15
541.034	41216.98
541.399	41414.26
541.764	41560.02
542.129	41737.65
542.494	41821.26
542.858	42109.16
543.223	42052.44
543.587	42327.23
543.952	42358.65
544.316	42415.14
544.681	42507.79
545.045	42703.27
545.41	42888.35
545.774	42994.34
546.138	43147.78
546.503	43358.62
546.867	43425.06
547.231	43644.94
547.595	43754.99
547.959	43827.53
548.324	43881.09
548.688	44007.87
549.052	44261.19
549.416	44433.85
549.779	44395.88
550.143	44609.21
550.507	44903.66
550.871	44952.25
551.235	44973.27
551.599	45291.45
551.962	45316.08
552.326	45374.16
552.689	45799.91
553.053	45586.13
553.417	45773.02
553.78	46320.58
554.143	46180.92
554.507	46365.77
554.87	46465.88
555.234	46833.78
555.597	46532.32
555.96	46958.3
556.323	47154.9
556.686	47106.09
557.05	47576.14
557.413	47600.32
557.776	47638.51
558.139	47951.95
558.502	47948.1
558.865	48196.46
559.228	48375.21
559.59	48487.07
559.953	48686.84
560.316	49023.56
560.679	49023.1
561.041	49249.76
561.404	49462.64
561.767	49657.21
562.129	49563.2
562.492	49917.32
562.854	49879.35
563.217	49913.7
563.579	50160.47
563.941	50389.62
564.304	50519.79
564.666	50687.47
565.028	50809.27
565.39	50999.77
565.753	51098.08
566.115	51251.07
566.477	51347.79
566.839	51409.26
567.201	51686.76
567.563	51745.52
567.925	51969.92
568.287	51962.46
568.648	52010.6
569.01	52259.85
569.372	52388.21
569.734	52428.21
570.095	52550.02
570.457	52722.89
570.819	52758.37
571.18	52733.06
571.542	53001.3
571.903	53008.08
572.265	53140.51
572.626	53249.89
572.987	53228.87
573.349	53354.29
573.71	53444
574.071	53561.52
574.432	53635.41
574.794	53870.21
575.155	53756.99
575.516	53765.58
575.877	53964.67
576.238	54011.9
576.599	54062.29
576.96	54049.64
577.32	54076.53
577.681	54236.98
578.042	54241.05
578.403	54237.2
578.763	54290.08
579.124	54359.01
579.485	54391.55
579.845	54569.85
580.206	54557.2
580.566	54575.5
580.927	54521.04
581.287	54640.58
581.648	54549.51
582.008	54707.02
582.368	54649.17
582.728	54727.81
583.089	54643.97
583.449	54722.39
583.809	54736.85
584.169	54801.93
584.529	54704.08
584.889	54974.13
585.249	54671.32
585.609	54753.8
585.969	54775.04
586.329	54761.94
586.688	54828.83
587.048	54852.55
587.408	54674.25
587.768	54795.16
588.127	54738.89
588.487	54771.65
588.846	54930.29
589.206	54791.31
589.565	54826.11
589.925	54963.51
590.284	54775.72
590.643	54867.24
591.003	54974.81
591.362	54962.83
591.721	54884.64
592.08	54955.83
592.44	54987.01
592.799	55038.31
593.158	54914.93
593.517	54946.56
593.876	55055.26
594.235	54948.6
594.593	55008.93
594.952	55002.83
595.311	54922.16
595.67	55030.4
596.029	55166.9
596.387	55221.13
596.746	55201.92
597.104	55107.46
597.463	55106.79
597.822	55172.32
598.18	55092.32
598.538	55110.63
598.897	55349.72
599.255	55097.52
599.613	55475.59
599.972	55212.77
600.33	55301.58
600.688	55228.59
601.046	55340.45
601.404	55372.54
601.762	55340
602.12	55517.62
602.478	55412.09
602.836	55511.52
603.194	55383.84
603.552	55464.29
603.91	55447.34
604.268	55545.64
604.625	55423.16
604.983	55525.31
605.341	55452.77
605.698	55645.08
606.056	55682.14
606.413	55614.34
606.771	55645.08
607.128	55745.41
607.485	55647.79
607.843	55651.63
608.2	55790.16
608.557	55862.02
608.914	55778.86
609.272	55954.45
609.629	55981.34
609.986	56029.02
610.343	55877.84
610.7	56121.45
611.057	55943.6
611.414	55979.98
611.771	56087.32
612.127	56130.26
612.484	56152.86
612.841	56198.28
613.198	56106.08
613.554	56108.12
613.911	56263.59
614.267	56263.37
614.624	56244.61
614.98	56294.32
615.337	56405.51
615.693	56281.9
616.05	56294.32
616.406	56492.29
616.762	56318.51
617.118	56344.27
617.475	56467.88
617.831	56483.02
618.187	56436.47
618.543	56513.08
618.899	56601.21
619.255	56551.95
619.611	56525.96
619.967	56575.45
620.323	56672.39
620.678	56543.58
621.034	56519.18
621.39	56554.66
621.746	56412.51
622.101	56777.93
622.457	56525.28
622.812	56571.38
623.168	56587.42
623.523	56570.7
623.879	56721.43
624.234	56532.51
624.589	56657.25
624.945	56641.66
625.3	56702.45
625.655	56638.27
626.01	56650.93
626.365	56657.25
626.72	56675.56
627.075	56560.31
627.43	56566.18
627.785	56569.12
628.14	56560.76
628.495	56565.05
628.85	56542.68
629.205	56521.44
629.559	56617.03
629.914	56486.18
630.269	56412.74
630.623	56406.64
630.978	56398.05
631.332	56487.54
631.687	56455.22
632.041	56356.02
632.396	56380.88
632.75	56258.85
633.104	56376.13
633.459	56219.3
633.813	56168.45
634.167	56217.49
634.521	56170.26
634.875	56128.68
635.229	56144.95
635.583	55984.05
635.937	55961.23
636.291	55959.64
636.645	55981.34
636.999	55956.71
637.352	55954.45
637.706	55761.91
638.06	55902.7
638.413	55779.31
638.767	55790.38
639.121	55783.83
639.474	55564.17
639.828	55596.49
640.181	55706.32
640.534	55578.19
640.888	55556.04
641.241	55483.72
641.594	55539.99
641.947	55481.69
642.301	55473.33
642.654	55428.36
643.007	55410.05
643.36	55334.8
643.713	55276.27
644.066	55364.18
644.419	55165.77
644.771	54953.8
645.124	54736.17
645.477	54680.13
645.83	54573.01
646.182	54366.47
646.535	54344.55
646.888	54354.94
647.24	54223.87
647.593	54336.41
647.945	54146.81
648.298	54164.21
648.65	54123.31
649.002	53910.43
649.355	54011.67
649.707	53986.81
650.059	54116.76
650.411	54536.18
650.763	54479.46
651.115	54789.51
651.467	54646.23
651.819	54586.57
652.171	54526.69
652.523	54547.7
652.875	54460.93
653.227	54376.41
653.578	54510.64
653.93	54482.4
654.282	54398.1
654.633	54233.14
654.985	54272.01
655.337	54236.07
655.688	54287.37
656.039	54328.27
656.391	54075.4
656.742	54105
657.094	54103.87
657.445	54275.85
657.796	54182.97
658.147	54071.78
658.498	54018.68
658.849	54143.2
659.2	54076.76
659.551	54014.61
659.902	54054.16
660.253	53965.35
660.604	54015.51
660.955	53824.11
661.306	53984.78
661.656	54004.44
662.007	53861.85
662.358	53833.82
662.708	53820.49
663.059	53778.46
663.409	53600.61
663.76	53825.92
664.11	53808.74
664.461	53802.86
664.811	53756.76
665.161	53680.83
665.511	53601.29
665.862	53669.31
666.212	53774.62
666.562	53705.92
666.912	53665.24
667.262	53661.17
667.612	53680.61
667.962	53617.11
668.312	53543.66
668.662	53647.16
669.011	53604.68
669.361	53508.64
669.711	53534.4
670.06	53397.68
670.41	53474.96
670.76	53350
671.109	53554.06
671.459	53393.61
671.808	53329.43
672.157	53333.72
672.507	53134.18
672.856	53176.21
673.205	53287.4
673.554	53240.17
673.904	53167.85
674.253	53331.01
674.602	53232.71
674.951	52711.59
675.3	52629.79
675.649	53126.27
675.998	53106.16
676.346	53065.48
676.695	53144.8
677.044	52925.15
677.393	52986.16
677.741	52914.98
678.09	52803.12
678.438	52926.73
678.787	52827.75
679.135	52926.73
679.484	52686.51
679.832	52862.78
680.181	52592.28
680.529	52609.45
680.877	52579.39
681.225	52533.75
681.573	52750.69
681.922	52455.56
682.27	52321.32
682.618	52367.42
682.966	52331.72
683.314	52329.46
683.661	52225.28
684.009	52108.22
684.357	52003.36
684.705	51975.12
685.053	52017.15
685.4	51938.06
685.748	51801.34
686.095	51767.21
686.443	51547.33
686.79	51533.09
687.138	51558.4
687.485	51556.14
687.832	51394.11
688.18	51496.48
688.527	51282.48
688.874	51284.06
689.221	51184.18
689.568	51123.84
689.915	50891.08
690.262	50931.3
690.609	50871.19
690.956	50752.78
691.303	50704.19
691.65	50435.27
691.997	50476.4
692.344	50375.16
692.69	50265.78
693.037	50214.26
693.383	49970.65
693.73	50138.55
694.077	49885.23
694.423	49903.76
694.769	49678
695.116	49675.97
695.462	49537.67
695.808	49542.86
696.155	49447.73
696.501	49327.5
696.847	49174.06
697.193	48986.49
697.539	49006.15
697.885	48802.32
698.231	48727.52
698.577	48746.5
698.923	48701.53
699.269	48440.29
699.614	48205.27
699.96	48254.76
700.306	48222.67
700.651	48053.64
700.997	47955.56
701.342	47818.84
701.688	47899.52
702.033	47642.8
702.379	47767.09
702.724	47510.38
703.069	47577.72
703.415	47062.93
703.76	47166.43
704.105	47176.82
704.45	47047.56
704.795	46763.95
705.14	46741.13
705.485	46669.04
705.83	46457.75
706.175	46496.84
706.52	46312.21
706.865	46206.68
707.209	46095.05
707.554	46015.05
707.899	46085.55
708.243	45788.16
708.588	45752.68
708.932	45506.13
709.277	45458.45
709.621	45493.7
709.966	45226.82
710.31	45282.64
710.654	44901.63
710.998	45001.51
711.342	45087.84
711.687	44901.63
712.031	44771.92
712.375	44609.43
712.719	44665.25
713.063	44650.11
713.407	44603.11
713.75	44333.28
714.094	44363.11
714.438	44088.32
714.782	44183.46
715.125	44000.18
715.469	44218.71
715.812	43935.78
716.156	43664.37
716.499	43674.54
716.843	43696.46
717.186	43349.58
717.53	43686.29
717.873	43668.22
718.216	43392.07
718.559	43317.72
718.902	43005.63
719.246	43091.96
719.589	43004.28
719.932	42912.3
720.275	42737.17
720.617	42757.28
720.96	42647.23
721.303	42708.92
721.646	42713.67
721.989	42369.72
722.331	42354.13
722.674	42300.57
723.016	42398.87
723.359	42141.93
723.701	42208.82
724.044	41811.54
724.386	41738.1
724.729	42017.86
725.071	41936.74
725.413	41888.15
725.755	41764.54
726.097	41527.93
726.439	41316.19
726.782	41484.32
727.124	41620.13
727.465	41217.89
727.807	41230.31
728.149	41128.4
728.491	41172.24
728.833	41263.99
729.175	40888.4
729.516	40897.22
729.858	40889.53
730.199	40904
730.541	40793.04
730.882	40692.7
731.224	40770.67
731.565	40474.4
731.906	40479.83
732.248	40523.21
732.589	40318.7
732.93	40181.75
733.271	40218.59
733.612	40240.28
733.953	40228.53
734.294	39957.13
734.635	39845.49
734.976	39969.1
735.317	39684.14
735.658	39688.66
735.999	39640.3
736.339	39681.2
736.68	39591.04
737.021	39551.94
737.361	39274.89
737.702	39545.61
738.042	39422.23
738.383	39166.41
738.723	39351.04
739.063	39040.09
739.404	39173.42
739.744	39107.66
740.084	38869.92
740.424	38991.95
740.764	38885.52
741.104	39002.8
741.444	38719.42
741.784	38638.97
742.124	38822.47
742.464	38563.72
742.804	38536.6
743.143	38300.22
743.483	38460.44
743.823	38023.84
744.162	38223.39
744.502	38263.39
744.841	38200.79
745.181	38160.34
745.52	37935.94
745.86	38081.47
746.199	37916.28
746.538	37837.18
746.877	37949.72
747.216	37829.05
747.556	37648.71
747.895	37726.45
748.234	37486.46
748.573	37500.24
748.911	37432.45
749.25	37435.39
749.589	37330.76
749.928	37215.28
750.267	37252.79
750.605	37174.15
750.944	37019.13
751.283	36921.05
751.621	36955.62
751.96	36627.5
752.298	36654.39
752.636	36640.83
752.975	36586.14
753.313	36370.33
753.651	36457.11
753.989	36286.94
754.327	36130.56
754.666	36035.42
755.004	36050.34
755.342	36044.91
755.679	35949.1
756.017	35792.49
756.355	35788.42
756.693	35601.99
757.031	35642.21
757.368	35469.34
757.706	35368.32
758.044	35232.05
758.381	35284.71
758.719	35024.83
759.056	35162.45
759.394	34960.42
759.731	34733.76
760.068	34644.05
760.405	34448.8
760.743	34464.16
761.08	34474.11
761.417	34373.55
761.754	34080.45
762.091	34165.19
762.428	34026.66
762.765	33793.45
763.102	33942.82
763.438	33695.82
763.775	33601.81
764.112	33602.94
764.449	33560.69
764.785	33476.85
765.122	33161.83
765.458	33066.24
765.795	33119.57
766.131	32960.7
766.467	32800.71
766.804	32755.28
767.14	32589.64
767.476	32518.68
767.812	32358.23
768.148	32337.21
768.485	32046.37
768.821	31901.07
769.157	31931.58
769.492	31899.71
769.828	31891.58
770.164	31537.46
770.5	31405.49
770.836	31393.74
771.171	31263.12
771.507	31244.14
771.842	30970.7
772.178	31021.54
772.513	30923.69
772.849	30707.2
773.184	30656.35
773.519	30549.01
773.855	30520.77
774.19	30257.5
774.525	30252.07
774.86	30234.9
775.195	30133.88
775.53	30005.98
775.865	29915.81
776.2	29648.02
776.535	29408.93
776.87	29488.48
777.205	29288.03
777.539	29223.85
777.874	29244.87
778.209	29014.82
778.543	28927.81
778.878	28834.71
779.212	28724.43
779.547	28595.39
779.881	28733.02
780.215	28236.76
780.55	28371.9
780.884	28268.4
781.218	28110.89
781.552	28137.1
781.886	28003.09
782.22	27796.32
782.554	27711.35
782.888	27445.14
783.222	27423.67
783.556	27251.47
783.889	27203.56
784.223	27123.34
784.557	26992.27
784.89	27063.68
785.224	26836.12
785.557	26736.01
785.891	26654.88
786.224	26615.78
786.558	26483.36
786.891	26419.18
787.224	26313.19
787.557	26118.4
787.891	26133.08
788.224	26147.77
788.557	26069.36
788.89	25948.23
789.223	25853.09
789.556	25642.02
789.888	25505.53
790.221	25414.01
790.554	25379.66
790.887	25315.48
791.219	25225.09
791.552	25195.26
791.884	24939.9
792.217	24945.32
792.549	24828.26
792.882	24721.37
793.214	24695.38
793.546	24596.85
793.879	24511.21
794.211	24293.58
794.543	24499.23
794.875	24306.24
795.207	24296.97
795.539	24026.7
795.871	24106.92
796.203	23970.66
796.535	24010.43
796.867	23798.23
797.198	23747.16
797.53	23695.18
797.862	23544.23
798.193	23698.35
798.525	23432.36
798.856	23516.43
799.188	23222.65
799.519	23134.97
799.85	23030.57
800.182	23043.45
800.513	23024.69
800.844	22780.63
801.175	22873.73
801.506	22914.41
801.837	22641.42
802.168	22716.22
802.499	22520.52
802.83	22450.02
803.161	22447.08
803.491	22366.63
803.822	22447.53
804.153	22282.11
804.483	22066.75
804.814	22012.06
805.145	21949.92
805.475	21809.81
805.805	21827.21
806.136	21850.26
806.466	21735.46
806.796	21699.08
807.126	21545.86
807.457	21528.01
807.787	21418.41
808.117	21428.35
808.447	21357.16
808.777	21370.5
809.107	21221.35
809.436	21229.71
809.766	21108.13
810.096	21160.56
810.426	21002.37
810.755	20978.87
811.085	20939.1
811.414	20928.93
811.744	20653
812.073	20638.99
812.403	20757.18
812.732	20568.48
813.061	20549.28
813.39	20371.88
813.719	20425.21
814.049	20453.23
814.378	20392.67
814.707	20322.84
815.036	20283.07
815.365	20166.91
815.693	19952.68
816.022	19994.26
816.351	19935.05
816.68	19796.75
817.008	19825
817.337	19759.47
817.665	19601.05
817.994	19669.75
818.322	19690.09
818.651	19616.19
818.979	19531
819.307	19557.66
819.636	19545.91
819.964	19445.12
820.292	19441.73
820.62	19472.92
820.948	19391.34
821.276	19520.83
821.604	19397.22
821.932	19421.85
822.259	19303.89
822.587	19434.05
822.915	19300.04
823.243	19422.53
823.57	19352.47
823.898	19291.91
824.225	19142.53
824.553	19247.39
824.88	19287.39
825.207	19291.23
825.535	19222.08
825.862	19284.45
826.189	19274.73
826.516	19278.35
826.843	19350.89
827.17	19220.05
827.497	19219.82
827.824	19248.75
828.151	19292.36
828.478	19248.97
828.805	19208.97
829.131	19171.91
829.458	19262.53
829.785	19076.55
830.111	19147.96
830.438	19167.39
830.764	19206.26
831.09	19214.17
831.417	19047.17
831.743	19226.15
832.069	19149.54
832.395	19033.38
832.722	19114.74
833.048	19057.11
833.374	19029.09
833.7	18959.94
834.026	18983.22
834.351	19076.77
834.677	18980.28
835.003	19052.82
835.329	18912.71
835.654	18934.18
835.98	18815.08
836.306	18862.31
836.631	18823.67
836.956	18767.18
837.282	18879.72
837.607	18733.05
837.932	18588.65
838.258	18748.87
838.583	18603.56
838.908	18536.67
839.233	18639.72
839.558	18540.52
839.883	18491.7
840.208	18442.89
840.533	18410.35
840.858	18269.34
841.182	18390.46
841.507	18357.47
841.832	18314.31
842.156	18213.97
842.481	18226.63
842.805	18161.09
843.13	18100.98
843.454	18015.33
843.778	18008.1
844.103	17944.15
844.427	17942.56
844.751	17891.94
845.075	17893.98
845.399	17760.87
845.723	17743.25
846.047	17743.02
846.371	17581.44
846.695	17548
847.019	17420.09
847.343	17364.5
847.666	17188.91
847.99	17243.15
848.313	17104.85
848.637	17093.55
848.96	17020.56
849.284	16996.15
849.607	16856.49
849.931	16895.59
850.254	16668.25
850.577	16662.6
850.9	16557.74
851.223	16528.59
851.546	16397.52
851.869	16375.83
852.192	16452.66
852.515	16204.53
852.838	16185.1
853.161	16222.16
853.483	16058.09
853.806	15965.89
854.129	16026.68
854.451	15818.55
854.774	15821.04
855.096	15805.22
855.419	15754.15
855.741	15676.18
856.063	15576.07
856.385	15622.17
856.708	15465.79
857.03	15524.1
857.352	15548.05
857.674	15410.88
857.996	15343.76
858.318	15350.32
858.64	15357.77
858.961	15300.37
859.283	15243.65
859.605	15098.57
859.926	15167.27
860.248	15188.51
860.57	14987.84
860.891	15073.26
861.212	14971.34
861.534	14945.81
861.855	14909.42
862.176	14949.88
862.498	14845.7
862.819	14867.84
863.14	14777.22
863.461	14694.51
863.782	14720.05
864.103	14724.8
864.424	14574.29
864.745	14725.93
865.065	14600.05
865.386	14613.39
865.707	14530.23
866.027	14506.5
866.348	14542.65
866.668	14468.76
866.989	14449.78
867.309	14273.28
867.63	14371.81
867.95	14335.65
868.27	14263.57
868.59	14343.79
868.91	14249.1
869.23	14220.63
869.55	14202.55
869.87	14309.44
870.19	14238.03
870.51	14230.57
870.83	14096.11
871.15	14144.47
871.469	14043.23
871.789	14045.49
872.109	14090.24
872.428	13958.04
872.748	14071.71
873.067	14033.74
873.386	13956.23
873.706	14034.19
874.025	13836.91
874.344	13804.14
874.663	13890.24
874.982	13845.5
875.301	13846.4
875.62	13741.77
875.939	13729.34
876.258	13805.5
876.577	13694.54
876.896	13643.92
877.214	13603.24
877.533	13552.85
877.852	13624.26
878.17	13633.3
878.489	13646.18
878.807	13523.92
879.125	13524.38
879.444	13484.83
879.762	13447.99
880.08	13407.32
880.398	13405.51
880.716	13370.71
881.034	13360.99
881.352	13299.07
881.67	13260.65
881.988	13264.04
882.306	13265.17
882.624	13229.02
882.941	13184.95
883.259	13135.91
883.577	13155.8
883.894	13065.18
884.212	13071.28
884.529	13048.68
884.846	13003.94
885.164	12978.18
885.481	12928.91
885.798	12938.63
886.115	12797.62
886.432	12892.53
886.75	12789.93
887.067	12797.62
887.383	12713.32
887.7	12823.38
888.017	12685.3
888.334	12705.64
888.651	12594.91
888.967	12511.3
889.284	12584.74
889.6	12483.05
889.917	12409.83
890.233	12517.4
890.55	12369.6
890.866	12416.16
891.182	12296.84
891.498	12380.9
891.815	12226.56
892.131	12173.9
892.447	12202.38
892.763	12090.06
893.079	12173.68
893.395	12098.65
893.71	12083.96
894.026	12008.94
894.342	11963.97
894.657	11792.9
894.973	11879.45
895.289	11898.2
895.604	11860.92
895.92	11763.52
896.235	11714.03
896.55	11701.83
896.865	11686.46
897.181	11609.4
897.496	11579.12
897.811	11548.38
898.126	11468.84
898.441	11436.75
898.756	11432.45
899.071	11318.33
899.386	11387.94
899.7	11295.28
900.015	11190.65
900.33	11183.87
900.644	11159.47
900.959	11184.78
901.273	11146.59
901.588	11062.52
901.902	11018.45
902.216	10910.43
902.531	10925.8
902.845	10853.03
903.159	10810.55
903.473	10775.07
903.787	10697.56
904.101	10684.9
904.415	10694.85
904.729	10642.42
905.042	10544.57
905.356	10570.33
905.67	10519.48
905.984	10511.57
906.297	10442.42
906.611	10377.57
906.924	10354.97
907.237	10365.36
907.551	10279.04
907.864	10235.42
908.177	10268.19
908.491	10160.17
908.804	10104.8
909.117	10020.51
909.43	9994.75
909.743	9975.99
910.056	9936.22
910.368	9865.04
910.681	9828.2
910.994	9868.88
911.307	9841.54
911.619	9714.31
911.932	9716.79
912.244	9697.81
912.557	9645.61
912.869	9569.23
913.181	9519.06
913.494	9479.74
913.806	9460.98
914.118	9428.89
914.43	9420.08
914.742	9428.44
915.054	9362.68
915.366	9279.06
915.678	9195.45
915.99	9147.99
916.302	9106.41
916.613	9046.75
916.925	9116.13
917.236	9082.01
917.548	9005.17
917.859	8965.85
918.171	8908
918.482	8846.53
918.794	8849.92
919.105	8793.65
919.416	8851.5
919.727	8781.68
920.038	8691.73
920.349	8644.5
920.66	8608.12
920.971	8633.43
921.282	8541.46
921.593	8502.14
921.903	8452.19
922.214	8448.35
922.525	8417.84
922.835	8391.86
923.146	8313.67
923.456	8226.44
923.767	8234.35
924.077	8237.28
924.387	8159.55
924.697	8145.31
925.008	8125.65
925.318	8048.36
925.628	8121.81
925.938	8002.71
926.248	7934.92
926.558	7907.35
926.867	7941.47
927.177	7847.24
927.487	7790.29
927.796	7761.36
928.106	7769.05
928.416	7678.88
928.725	7695.38
929.034	7659.67
929.344	7640.46
929.653	7585.32
929.962	7565.21
930.271	7552.33
930.581	7482.28
930.89	7441.37
931.199	7455.84
931.508	7378.1
931.817	7343.75
932.125	7348.27
932.434	7214.03
932.743	7237.54
933.051	7213.58
933.36	7168.16
933.669	7162.74
933.977	7080.25
934.286	7143.98
934.594	7050.2
934.902	7074.83
935.21	6996.86
935.519	6991.21
935.827	6922.52
936.135	6898.56
936.443	6910.54
936.751	6892.23
937.059	6803.2
937.367	6765.68
937.674	6758.45
937.982	6753.71
938.29	6688.17
938.597	6742.63
938.905	6638.23
939.213	6576.31
939.52	6566.37
939.827	6555.97
940.135	6586.93
940.442	6493.37
940.749	6451.57
941.056	6478.46
941.363	6415.86
941.67	6360.27
941.977	6372.7
942.284	6284.57
942.591	6338.12
942.898	6298.13
943.205	6246.6
943.511	6236.43
943.818	6227.84
944.125	6125.47
944.431	6156.43
944.738	6082.99
945.044	6044.12
945.35	6003.67
945.657	5990.34
945.963	5980.39
946.269	5980.17
946.575	5943.56
946.881	5945.14
947.187	5893.62
947.493	5831.02
947.799	5866.27
948.105	5785.14
948.41	5787.18
948.716	5783.11
949.022	5689.78
949.327	5685.94
949.633	5659.72
949.938	5680.97
950.244	5714.86
950.549	5589.44
950.854	5558.03
951.16	5582.89
951.465	5487.75
951.77	5516.45
952.075	5463.12
952.38	5438.26
952.685	5444.14
952.99	5413.85
953.294	5414.08
953.599	5352.39
953.904	5348.55
954.209	5311.71
954.513	5281.65
954.818	5283.69
955.122	5215.44
955.426	5214.99
955.731	5135.44
956.035	5191.94
956.339	5130.92
956.643	5109
956.948	5074.43
957.252	5027.2
957.556	5041.89
957.86	5034.66
958.163	5023.36
958.467	4993.98
958.771	4961.44
959.075	4965.73
959.378	4895.9
959.682	4897.71
959.985	4834.66
960.289	4879.18
960.592	4831.05
960.896	4790.37
961.199	4761.44
961.502	4793.53
961.805	4772.97
962.108	4764.61
962.411	4707.88
962.714	4679.86
963.017	4702.91
963.32	4647.1
963.623	4594.89
963.926	4617.72
964.228	4607.77
964.531	4566.42
964.833	4548.11
965.136	4483.71
965.438	4477.83
965.741	4506.08
966.043	4457.5
966.345	4436.71
966.648	4442.58
966.95	4407.33
967.252	4330.72
967.554	4353.54
967.856	4360.55
968.158	4286.2
968.46	4276.03
968.761	4295.69
969.063	4281.91
969.365	4216.15
969.666	4209.14
969.968	4177.96
970.269	4168.24
970.571	4147.22
970.872	4169.14
971.174	4126.66
971.475	4165.98
971.776	4084.85
972.077	4077.84
972.378	4073.33
972.679	4035.36
972.98	4010.05
973.281	3989.49
973.582	3963.05
973.883	3977.73
974.183	3980.22
974.484	3919.43
974.785	3883.27
975.085	3887.79
975.386	3885.53
975.686	3866.55
975.986	3825.42
976.287	3790.17
976.587	3800.79
976.887	3771.41
977.187	3770.96
977.487	3753.11
977.787	3731.19
978.087	3751.75
978.387	3707.01
978.687	3682.37
978.987	3679.21
979.286	3631.08
979.586	3609.16
979.885	3634.69
980.185	3623.62
980.484	3598.54
980.784	3578.2
981.083	3561.93
981.382	3560.8
981.682	3555.6
981.981	3508.82
982.28	3441.93
982.579	3467.69
982.878	3450.06
983.177	3455.71
983.475	3464.75
983.774	3352.67
984.073	3382.04
984.372	3363.74
984.67	3360.8
984.969	3354.25
985.267	3341.14
985.566	3277.64
985.864	3303.63
986.162	3290.52
986.461	3246.91
986.759	3231.09
987.057	3269.5
987.355	3211.43
987.653	3225.21
987.951	3187.25
988.249	3171.2
988.547	3193.57
988.844	3149.06
989.142	3127.14
989.44	3119.68
989.737	3117.64
990.035	3064.76
990.332	3057.53
990.63	3047.36
990.927	3033.13
991.224	3032
991.521	3034.03
991.819	3000.81
992.116	2972.34
992.413	2942.96
992.71	2982.73
993.006	2966.01
993.303	2934.15
993.6	2935.95
993.897	2904.77
994.193	2861.61
994.49	2896.86
994.787	2861.61
995.083	2838.56
995.379	2853.24
995.676	2805.79
995.972	2784.55
996.268	2790.42
996.565	2775.73
996.861	2738.9
997.157	2765.56
997.453	2719.69
997.749	2733.47
998.044	2707.71
998.34	2660.71
998.636	2668.62
998.932	2638.56
999.227	2642.85
999.523	2599.01
999.818	2619.58
1000.114	2565.79
1000.409	2592.46
1000.704	2563.53
1001	2556.3
1001.295	2534.16
1001.59	2514.95
1001.885	2540.94
1002.18	2490.32
1002.475	2475.4
1002.77	2470.2
1003.065	2442.41
1003.359	2439.47
1003.654	2410.54
1003.949	2384.33
1004.243	2386.59
1004.538	2387.95
1004.832	2370.55
1005.127	2352.01
1005.421	2379.81
1005.715	2318.57
1006.009	2324.22
1006.304	2268.17
1006.598	2305.91
1006.892	2249.42
1007.186	2248.74
1007.48	2238.8
1007.773	2210.78
1008.067	2206.03
1008.361	2214.84
1008.655	2187.27
1008.948	2201.51
1009.242	2209.19
1009.535	2156.09
1009.829	2151.79
1010.122	2115.86
1010.415	2132.81
1010.708	2120.83
1011.001	2105.47
1011.295	2090.78
1011.588	2067.28
1011.881	2013.72
1012.173	2021.4
1012.466	2047.39
1012.759	2014.62
1013.052	2025.47
1013.344	1968.75
1013.637	1942.76
1013.93	1974.62
1014.222	1950.67
1014.514	1964.68
1014.807	1931.01
1015.099	1917.45
1015.391	1905.7
1015.683	1874.74
1015.976	1849.2
1016.268	1884
1016.56	1881.07
1016.851	1837.23
1017.143	1830.9
1017.435	1812.14
1017.727	1834.74
1018.018	1829.99
1018.31	1820.28
1018.602	1800.16
1018.893	1780.5
1019.185	1757.91
1019.476	1779.6
1019.767	1700.96
1020.058	1723.1
1020.35	1700.28
1020.641	1705.48
1020.932	1681.75
1021.223	1642.88
1021.514	1665.93
1021.804	1653.28
1022.095	1646.95
1022.386	1610.56
1022.677	1633.16
1022.967	1585.25
1023.258	1600.4
1023.548	1592.71
1023.839	1574.63
1024.129	1556.56
1024.419	1568.53
1024.709	1529.21
1025	1519.95
1025.29	1543.45
1025.58	1523.79
1025.87	1489.66
1026.16	1484.01
1026.449	1456.44
1026.739	1504.58
1027.029	1427.52
1027.319	1451.25
1027.608	1450.57
1027.898	1462.09
1028.187	1424.36
1028.477	1389.1
1028.766	1413.28
1029.055	1368.99
1029.344	1384.36
1029.634	1372.61
1029.923	1363.57
1030.212	1369.89
1030.501	1339.84
1030.79	1336.45
1031.078	1331.93
1031.367	1291.93
1031.656	1280.4
1031.945	1315.88
1032.233	1280.63
1032.522	1265.49
1032.81	1288.31
1033.099	1272.49
1033.387	1297.35
1033.675	1237.92
1033.963	1260.52
1034.251	1276.34
1034.54	1223.46
1034.828	1224.13
1035.116	1200.18
1035.403	1179.62
1035.691	1220.74
1035.979	1176.23
1036.267	1170.8
1036.554	1163.12
1036.842	1164.7
1037.129	1142.78
1037.417	1163.12
1037.704	1142.78
1037.992	1120.18
1038.279	1102.78
1038.566	1092.16
1038.853	1092.16
1039.14	1092.16
