Data from White_reflection_standard_FLMS001491_021.txt Node
Date: Tue Feb 07 10:31:59 GMT 2017
User: dcchb
Spectrometer: FLMS00149
Trigger mode: 0
Integration Time (sec): 2.000000E-2
Scans to average: 10
Electric dark correction enabled: true
Nonlinearity correction enabled: false
Boxcar width: 0
XAxis mode: Wavelengths
Number of Pixels in Spectrum: 2048
>>>>>Begin Spectral Data<<<<<
341.393	-18.06
341.776	-18.06
342.16	-18.06
342.543	-40.89
342.927	-49.93
343.31	-81.57
343.693	-50.61
344.077	-69.36
344.46	-59.65
344.843	-49.48
345.226	-36.14
345.61	-28.69
345.993	-37.05
346.376	-4.73
346.759	3.4
347.142	41.37
347.525	34.14
347.908	66
348.291	62.39
348.674	85.89
349.057	124.08
349.44	123.17
349.823	147.81
350.206	157.07
350.588	245.43
350.971	260.12
351.354	284.53
351.737	265.54
352.119	292.66
352.502	318.65
352.884	318.88
353.267	308.03
353.65	341.02
354.032	338.76
354.414	355.03
354.797	378.54
355.179	373.79
355.562	375.37
355.944	386.44
356.326	399.78
356.709	406.56
357.091	405.2
357.473	392.55
357.855	404.3
358.238	404.07
358.62	422.15
359.002	395.26
359.384	406.56
359.766	406.78
360.148	405.65
360.53	413.56
360.912	414.69
361.294	395.48
361.676	412.21
362.057	407.91
362.439	430.29
362.821	408.14
363.203	400
363.584	386.67
363.966	404.52
364.348	438.65
364.729	409.72
365.111	418.08
365.493	412.43
365.874	419.89
366.256	405.88
366.637	415.6
367.019	426.44
367.4	412.66
367.781	437.29
368.163	433.9
368.544	450.17
368.925	444.07
369.306	426.44
369.688	426.44
370.069	438.87
370.45	417.63
370.831	428.48
371.212	428.48
371.593	453.11
371.974	441.81
372.355	430.29
372.736	454.92
373.117	459.21
373.498	468.25
373.879	452.88
374.26	452.21
374.641	457.86
375.021	451.98
375.402	456.27
375.783	498.98
376.163	512.09
376.544	507.35
376.925	484.97
377.305	498.98
377.686	491.53
378.066	484.75
378.447	490.17
378.827	530.4
379.208	520.9
379.588	535.14
379.968	538.08
380.349	542.6
380.729	532.43
381.109	525.2
381.489	540.34
381.87	531.98
382.25	548.47
382.63	582.82
383.01	560
383.39	558.64
383.77	577.63
384.15	575.37
384.53	611.52
384.91	585.31
385.29	573.11
385.67	610.62
386.049	615.59
386.429	608.59
386.809	619.43
387.189	639.55
387.568	625.53
387.948	642.94
388.328	640.45
388.707	654.01
389.087	654.91
389.466	662.37
389.846	682.48
390.225	700.11
390.605	702.14
390.984	696.94
391.363	707.34
391.743	721.13
392.122	725.19
392.501	726.32
392.881	749.37
393.26	754.34
393.639	746.66
394.018	780.11
394.397	766.1
394.776	764.51
395.155	793.44
395.534	777.85
395.913	790.28
396.292	801.35
396.671	832.08
397.05	845.64
397.429	841.35
397.808	845.42
398.186	859.65
398.565	843.38
398.944	861.01
399.323	870.05
399.701	865.53
400.08	894
400.458	920.89
400.837	920.22
401.215	915.02
401.594	926.32
401.972	939.65
402.351	954.57
402.729	975.81
403.107	980.55
403.486	976.94
403.864	1012.87
404.242	968.58
404.62	1046.09
404.999	1020.55
405.377	1041.12
405.755	1044.73
406.133	1079.08
406.511	1061.23
406.889	1091.28
407.267	1117.05
407.645	1125.86
408.023	1148.46
408.401	1177.84
408.779	1148.68
409.156	1182.81
409.534	1204.73
409.912	1205.41
410.29	1239.3
410.667	1253.09
411.045	1280.21
411.422	1291.96
411.8	1277.49
412.178	1311.62
412.555	1329.02
412.933	1358.62
413.31	1372.18
413.687	1419.41
414.065	1407.43
414.442	1470.48
414.819	1453.76
415.197	1438.62
415.574	1514.55
415.951	1491.95
416.328	1522.46
416.705	1498.05
417.082	1561.78
417.46	1558.84
417.837	1557.71
418.214	1584.38
418.591	1597.71
418.967	1594.55
419.344	1655.34
419.721	1674.32
420.098	1645.62
420.475	1721.78
420.852	1729.69
421.228	1705.96
421.605	1743.7
421.982	1783.47
422.358	1787.09
422.735	1798.61
423.111	1811.94
423.488	1861.21
423.864	1831.6
424.241	1870.02
424.617	1933.3
424.994	1921.09
425.37	1953.18
425.746	1957.25
426.123	1997.25
426.499	1990.47
426.875	2031.15
427.251	2078.83
427.627	2131.03
428.003	2156.57
428.379	2147.3
428.756	2173.97
429.132	2226.62
429.507	2235.66
429.883	2243.8
430.259	2304.13
430.635	2338.26
431.011	2366.28
431.387	2398.6
431.763	2474.98
432.138	2437.46
432.514	2488.76
432.89	2544.35
433.265	2574.41
433.641	2615.99
434.016	2641.75
434.392	2676.33
434.767	2758.13
435.143	2735.08
435.518	2760.85
435.894	2811.69
436.269	2821.86
436.644	2871.58
437.02	2878.58
437.395	2908.86
437.77	2965.13
438.145	3030.67
438.52	3041.97
438.895	3039.03
439.271	3046.71
439.646	3144.34
440.021	3158.58
440.395	3168.52
440.77	3154.96
441.145	3193.83
441.52	3294.84
441.895	3279.25
442.27	3332.13
442.645	3340.27
443.019	3361.51
443.394	3368.74
443.769	3427.27
444.143	3409.87
444.518	3463.43
444.892	3441.73
445.267	3502.75
445.641	3493.93
446.016	3520.83
446.39	3572.58
446.764	3618.68
447.139	3640.37
447.513	3650.31
447.887	3686.02
448.262	3709.07
448.636	3724.89
449.01	3819.8
449.384	3823.64
449.758	3881.27
450.132	3914.04
450.506	3940.7
450.88	3932.34
451.254	3935.73
451.628	4013.47
452.002	4038.1
452.376	4126.01
452.75	4123.52
453.123	4159
453.497	4294.82
453.871	4304.31
454.244	4394.02
454.618	4385.66
454.992	4495.72
455.365	4451.65
455.739	4616.84
456.112	4630.4
456.486	4681.92
456.859	4710.85
457.232	4817.51
457.606	4798.76
457.979	4851.86
458.352	4972.31
458.725	5084.17
459.099	5075.59
459.472	5175.02
459.845	5212.98
460.218	5279.42
460.591	5350.38
460.964	5342.92
461.337	5491.62
461.71	5572.07
462.083	5653.65
462.456	5673.54
462.829	5679.41
463.201	5808.9
463.574	5830.14
463.947	5914.66
464.32	6023.36
464.692	6109.46
465.065	6148.1
465.438	6252.05
465.81	6342.22
466.183	6407.08
466.555	6555.1
466.928	6583.12
467.3	6536.79
467.672	6676.67
468.045	6858.59
468.417	6934.97
468.789	6955.76
469.161	7035.99
469.534	7244.34
469.906	7326.6
470.278	7445.02
470.65	7481.63
471.022	7593.71
471.394	7788.96
471.766	7834.61
472.138	7880.71
472.51	8092.68
472.882	8228.95
473.253	8297.88
473.625	8483.41
473.997	8619
474.369	8743.74
474.74	8739.9
475.112	8903.73
475.484	9103.96
475.855	9329.94
476.227	9355.02
476.598	9661.23
476.97	9640.21
477.341	9927.66
477.713	10055.57
478.084	10094.89
478.455	10413.3
478.827	10480.19
479.198	10763.12
479.569	10829.56
479.94	11188.42
480.311	11248.08
480.682	11475.42
481.053	11759.93
481.424	11914.73
481.795	12076.31
482.166	12282.18
482.537	12426.13
482.908	12706.35
483.279	12783.86
483.65	13147.69
484.021	13315.6
484.391	13425.88
484.762	13566.66
485.133	13688.47
485.503	13917.39
485.874	14172.07
486.244	14386.98
486.615	14608.22
486.985	14813.86
487.356	15159.16
487.726	15110.13
488.097	15482.54
488.467	15624.91
488.837	15882.08
489.207	16086.14
489.578	16363.43
489.948	16398
490.318	16726.13
490.688	16751.44
491.058	17091.09
491.428	17311.65
491.798	17481.81
492.168	17801.13
492.538	17798.19
492.908	18051.06
493.278	18282.02
493.648	18332.41
494.017	18563.37
494.387	18719.75
494.757	18974.2
495.126	19139.4
495.496	19207.42
495.866	19468.2
496.235	19590.23
496.605	19864.12
496.974	19884.24
497.344	20114.06
497.713	20311.8
498.082	20361.29
498.452	20614.16
498.821	20729.19
499.19	20720.15
499.559	20984.55
499.928	21057.99
500.298	21286.69
500.667	21550.41
501.036	21511.54
501.405	21716.96
501.774	21761.25
502.143	21960.79
502.512	22176.83
502.88	22318.07
503.249	22385.64
503.618	22555.35
503.987	22688.68
504.356	22827.21
504.724	23004.16
505.093	23038.73
505.462	23166.41
505.83	23368.67
506.199	23676.91
506.567	23886.17
506.936	23837.81
507.304	24249.32
507.672	24221.07
508.041	24436.21
508.409	24604.34
508.777	24837.33
509.145	25089.3
509.514	25056.98
509.882	25197.32
510.25	25288.39
510.618	25556.63
510.986	25627.81
511.354	26041.82
511.722	26111.64
512.09	26422.37
512.458	26350.51
512.826	26699.43
513.193	26844.73
513.561	26875.47
513.929	27101
514.297	27482.68
514.664	27576.92
515.032	27729.91
515.4	28099.39
515.767	28208.54
516.135	28334.18
516.502	28190.23
516.869	28777.79
517.237	28844.45
517.604	28817.11
517.972	29248.74
518.339	29400.15
518.706	29501.84
519.073	29570.99
519.44	29916.06
519.808	30102.73
520.175	30190.86
520.542	30773.89
520.909	30882.59
521.276	30977.05
521.643	31364.84
522.009	31522.58
522.376	31712.4
522.743	31910.59
523.11	32262.44
523.477	32534.53
523.843	32713.05
524.21	33067.17
524.577	33283.66
524.943	33479.13
525.31	33664.67
525.676	33813.36
526.043	34072.34
526.409	34335.61
526.776	34726.78
527.142	34818.99
527.508	35004.97
527.874	35193.44
528.241	35532.41
528.607	35652.41
528.973	35934.66
529.339	36018.28
529.705	36297.14
530.071	36646.28
530.437	36762.44
530.803	36932.15
531.169	37307.06
531.535	37309.77
531.901	37305.02
532.267	37586.14
532.632	37850.54
532.998	37954.72
533.364	38296.86
533.73	38413.47
534.095	38555.16
534.461	38767.13
534.826	38926.9
535.192	39114.92
535.557	39446.21
535.923	39331.64
536.288	39569.82
536.653	39783.6
537.019	39668.12
537.384	40013.88
537.749	40194.44
538.114	40267.2
538.479	40340.42
538.845	40499.74
539.21	40559.4
539.575	40625.84
539.94	40898.83
540.305	41087.52
540.67	41062.66
541.034	41277.8
541.399	41570.22
541.764	41476.21
542.129	41892.02
542.494	41741.06
542.858	42134.5
543.223	42119.36
543.587	42286.59
543.952	42221.5
544.316	42537.43
544.681	42535.62
545.045	42771.54
545.41	42923.86
545.774	42977.87
546.138	43132.21
546.503	43279.55
546.867	43362.72
547.231	43819.65
547.595	43792.53
547.959	43993.43
548.324	43903.72
548.688	44184.39
549.052	44267.55
549.416	44207.67
549.779	44430.03
550.143	44609.91
550.507	44850.36
550.871	44904.82
551.235	45065.5
551.599	45258.49
551.962	45388.43
552.326	45493.51
552.689	45748.87
553.053	45633.16
553.417	45799.94
553.78	46375.52
554.143	46093.72
554.507	46374.84
554.87	46466.36
555.234	46799.24
555.597	46718.33
555.96	46940.93
556.323	47093.01
556.686	47207.81
557.05	47471.08
557.413	47583.62
557.776	47729.15
558.139	47977.74
558.502	48038.07
558.865	48130.05
559.228	48397.84
559.59	48476.93
559.953	48686.64
560.316	49073.53
560.679	48987.65
561.041	49324.59
561.404	49376.34
561.767	49689.78
562.129	49592.38
562.492	49945.82
562.854	49880.74
563.217	50037.57
563.579	50051.58
563.941	50485.92
564.304	50500.38
564.666	50834.38
565.028	50825.8
565.39	50824.67
565.753	51129.29
566.115	51200.48
566.477	51319.57
566.839	51475.72
567.201	51698.32
567.563	51664.64
567.925	51945.54
568.287	51869.38
568.648	51965.2
569.01	52287.23
569.372	52459.2
569.734	52286.77
570.095	52598.63
570.457	52732.64
570.819	52690.38
571.18	52836.59
571.542	52978.96
571.903	53023.25
572.265	53111.39
572.626	53131.72
572.987	53306.64
573.349	53399.51
573.71	53540.53
574.071	53602.22
574.432	53732.39
574.794	53817.13
575.155	53865.04
575.516	53716.34
575.877	53907.52
576.238	54025.03
576.599	54138.7
576.96	54090.34
577.32	54123.79
577.681	54244.69
578.042	54294.63
578.403	54401.75
578.763	54354.29
579.124	54503.67
579.485	54501.63
579.845	54561.52
580.206	54534.63
580.566	54529.2
580.927	54635.41
581.287	54665.02
581.648	54537.56
582.008	54759.25
582.368	54663.66
582.728	54738.91
583.089	54621.18
583.449	54797.44
583.809	54703.21
584.169	54807.16
584.529	54820.95
584.889	54916.76
585.249	54754.96
585.609	54684.9
585.969	54903.88
586.329	54745.24
586.688	54837.67
587.048	54757.67
587.408	54788.63
587.768	54849.87
588.127	54806.03
588.487	54799.93
588.846	54900.04
589.206	54744.56
589.565	54815.52
589.925	54895.75
590.284	54844.22
590.643	54876.99
591.003	54926.71
591.362	55032.69
591.721	54949.98
592.08	54963.31
592.44	54937.78
592.799	55001.73
593.158	54962.41
593.517	54982.52
593.876	55052.35
594.235	54973.26
594.593	54975.74
594.952	55085.8
595.311	54992.47
595.67	55052.13
596.029	55157.43
596.387	55193.59
596.746	55271.33
597.104	55092.35
597.463	55086.7
597.822	55173.03
598.18	55105.68
598.538	55158.79
598.897	55285.11
599.255	55017.32
599.613	55427.03
599.972	55337.32
600.33	55321.05
600.688	55225.45
601.046	55356.3
601.404	55443.98
601.762	55299.8
602.12	55475.62
602.478	55467.93
602.836	55439.01
603.194	55394.94
603.552	55498.22
603.91	55370.08
604.268	55513.58
604.625	55455.73
604.983	55536.18
605.341	55472.23
605.698	55570.3
606.056	55638.1
606.413	55601.49
606.771	55738.21
607.128	55761.94
607.485	55616.4
607.843	55657.08
608.2	55848.94
608.557	55793.8
608.914	55760.81
609.272	55926.68
609.629	55913.35
609.986	56036.05
610.343	55937.07
610.7	56116.96
611.057	56085.09
611.414	56124.19
611.771	56115.83
612.127	56144.75
612.484	56189.72
612.841	56292.09
613.198	56143.4
613.554	56231.08
613.911	56306.56
614.267	56227.24
614.624	56156.05
614.98	56282.83
615.337	56388.14
615.693	56370.74
616.05	56306.1
616.406	56478.76
616.762	56325.09
617.118	56316.27
617.475	56366.22
617.831	56425.2
618.187	56421.13
618.543	56493.67
618.899	56632.42
619.255	56590.62
619.611	56492.77
619.967	56615.02
620.323	56771.85
620.678	56556.27
621.034	56561.24
621.39	56561.46
621.746	56486.21
622.101	56805.07
622.457	56559.88
622.812	56593.1
623.168	56696.38
623.523	56628.13
623.879	56712.87
624.234	56497.74
624.589	56596.49
624.945	56677.62
625.3	56698.18
625.655	56614.8
626.01	56632.2
626.365	56680.56
626.72	56670.84
627.075	56583.84
627.43	56589.26
627.785	56553.33
628.14	56686.89
628.495	56632.88
628.85	56563.95
629.205	56559.2
629.559	56678.3
629.914	56501.35
630.269	56536.61
630.623	56429.49
630.978	56386.55
631.332	56429.72
631.687	56536.38
632.041	56286.22
632.396	56434.24
632.75	56303.17
633.104	56342.26
633.459	56177.29
633.813	56271.75
634.167	56099.33
634.521	56126
634.875	56190.18
635.229	56117.41
635.583	55942.05
635.937	56059.11
636.291	55939.11
636.645	55986.11
636.999	55929.17
637.352	55971.65
637.706	55693.69
638.06	55951.09
638.413	55795.84
638.767	55697.08
639.121	55741.6
639.474	55626.35
639.828	55659.12
640.181	55677.19
640.534	55595.39
640.888	55527.14
641.241	55370.08
641.594	55492.11
641.947	55503.41
642.301	55377.32
642.654	55460.02
643.007	55405.11
643.36	55353.59
643.713	55340.93
644.066	55392.68
644.419	55119.69
644.771	54991.79
645.124	54775.97
645.477	54728.97
645.83	54572.82
646.182	54409.43
646.535	54375.31
646.888	54413.72
647.24	54182.09
647.593	54378.25
647.945	54211.7
648.298	54104.13
648.65	54037.92
649.002	54074.3
649.355	54062.1
649.707	54033.17
650.059	54120.17
650.411	54507.96
650.763	54461.18
651.115	54674.96
651.467	54684.45
651.819	54688.97
652.171	54587.73
652.523	54451.24
652.875	54593.61
653.227	54427.28
653.578	54488.98
653.93	54382.76
654.282	54257.34
654.633	54242.66
654.985	54277.46
655.337	54326.95
655.688	54263.45
656.039	54386.15
656.391	54054.19
656.742	54137.8
657.094	54175.31
657.445	54228.87
657.796	54176.44
658.147	54064.36
658.498	54054.19
658.849	54056.22
659.2	54058.93
659.551	53997.69
659.902	54089.89
660.253	53949.78
660.604	54031.59
660.955	53889.22
661.306	53988.43
661.656	53877.24
662.007	53855.77
662.358	53907.75
662.708	53847.19
663.059	53858.48
663.409	53681.77
663.76	53859.61
664.11	53833.85
664.461	53840.41
664.811	53789.56
665.161	53866.39
665.511	53673.86
665.862	53717.7
666.212	53817.58
666.562	53603.58
666.912	53762.22
667.262	53554.76
667.612	53528.32
667.962	53656.23
668.312	53633.86
668.662	53714.76
669.011	53601.09
669.361	53506.63
669.711	53463.47
670.06	53416.69
670.41	53414.88
670.76	53416.91
671.109	53486.97
671.459	53372.85
671.808	53342.57
672.157	53446.74
672.507	53209.91
672.856	53196.81
673.205	53273.87
673.554	53295.79
673.904	53144.38
674.253	53273.87
674.602	53192.97
674.951	52819.64
675.3	52599.08
675.649	53160.88
675.998	53131.27
676.346	53011.28
676.695	53143.93
677.044	52901.9
677.393	52978.06
677.741	53052.63
678.09	52837.49
678.438	52822.13
678.787	52881.11
679.135	52875.91
679.484	52693.54
679.832	52674.79
680.181	52642.02
680.529	52606.31
680.877	52519.09
681.225	52627.78
681.573	52721.79
681.922	52405.42
682.27	52347.34
682.618	52428.24
682.966	52324.06
683.314	52364.74
683.661	52250.17
684.009	52094.92
684.357	52066.22
684.705	51960.91
685.053	52000.68
685.4	51877.07
685.748	51787.35
686.095	51746.9
686.443	51616.96
686.79	51525.44
687.138	51645.89
687.485	51579.9
687.832	51428.49
688.18	51422.84
688.527	51248.16
688.874	51329.51
689.221	51141.04
689.568	51075.96
689.915	51023.08
690.262	50934.04
690.609	50894.5
690.956	50748.28
691.303	50715.52
691.65	50525.24
691.997	50535.86
692.344	50270.33
692.69	50210.45
693.037	50326.6
693.383	49999.6
693.73	50052.71
694.077	49929.32
694.423	49905.82
694.769	49748.08
695.116	49724.81
695.462	49651.82
695.808	49412.27
696.155	49454.53
696.501	49201.88
696.847	49214.31
697.193	49020.19
697.539	49082.11
697.885	48770.71
698.231	48795.34
698.577	48682.12
698.923	48531.39
699.269	48431.74
699.614	48279.87
699.96	48242.81
700.306	48196.49
700.651	48031.75
700.997	47940
701.342	47862.71
701.688	47794.46
702.033	47725.54
702.379	47624.98
702.724	47534.36
703.069	47570.74
703.415	47074.48
703.76	47063.18
704.105	47110.87
704.45	46885.11
704.795	46736.41
705.14	46678.11
705.485	46629.97
705.83	46442.86
706.175	46461.17
706.52	46335.29
706.865	46219.14
707.209	46119.93
707.554	46035.64
707.899	46048.29
708.243	45819.83
708.588	45939.15
708.932	45413.74
709.277	45556.33
709.621	45538.03
709.966	45225.49
710.31	45280.86
710.654	44911.15
710.998	45048.32
711.342	45036.8
711.687	44880.87
712.031	44614.43
712.375	44595
712.719	44811.72
713.063	44598.84
713.407	44688.33
713.75	44359.07
714.094	44368.57
714.438	44288.12
714.782	44190.94
715.125	44036.82
715.469	44053.09
715.812	43891.74
716.156	43743.72
716.499	43809.48
716.843	43659.88
717.186	43458.53
717.53	43662.82
717.873	43599.09
718.216	43508.47
718.559	43129.73
718.902	42981.48
719.246	43016.74
719.589	42896.97
719.932	42777.87
720.275	42833.69
720.617	42767.03
720.96	42739
721.303	42653.13
721.646	42678.89
721.989	42269.86
722.331	42583.75
722.674	42437.32
723.016	42203.2
723.359	42232.58
723.701	42240.94
724.044	41857.44
724.386	41854.28
724.729	42026.93
725.071	41854.51
725.413	41823.32
725.755	41650.67
726.097	41515.08
726.439	41367.74
726.782	41451.13
727.124	41571.35
727.465	41475.31
727.807	41192.15
728.149	41175.65
728.491	41117.58
728.833	41153.51
729.175	40960.29
729.516	41013.17
729.858	40701.99
730.199	40994.42
730.541	40800.52
730.882	40628.1
731.224	40728.66
731.565	40513.75
731.906	40558.95
732.248	40533.41
732.589	40440.76
732.93	40227.43
733.271	40255
733.612	40188.79
733.953	40268.79
734.294	40056.59
734.635	39965.74
734.976	40041.45
735.317	39729.14
735.658	39734.79
735.999	39748.35
736.339	39510.61
736.68	39628.58
737.021	39474.68
737.361	39307.46
737.702	39585.19
738.042	39299.09
738.383	39296.38
738.723	39238.3
739.063	39143.62
739.404	39273.56
739.744	39061.59
740.084	38958.76
740.424	38865.66
740.764	38878.99
741.104	38954.24
741.444	38687.13
741.784	38605.55
742.124	38812.78
742.464	38654.82
742.804	38645.1
743.143	38561.26
743.483	38382.51
743.823	38058.45
744.162	38187.03
744.502	38215.73
744.841	38108.62
745.181	38041.05
745.52	38053.93
745.86	38067.04
746.199	37957.21
746.538	37883.76
746.877	37902.97
747.216	37818.68
747.556	37659.14
747.895	37657.56
748.234	37563.32
748.573	37310.22
748.911	37481.06
749.25	37350.9
749.589	37306.15
749.928	37288.75
750.267	37281.52
750.605	37081.75
750.944	37107.96
751.283	36809.89
751.621	36949.1
751.96	36524.7
752.298	36714.08
752.636	36745.71
752.975	36483.57
753.313	36492.16
753.651	36459.85
753.989	36297.14
754.327	36276.57
754.666	35997.03
755.004	35944.83
755.342	36016.69
755.679	35974.66
756.017	35764.5
756.355	35933.31
756.693	35746.87
757.031	35671.39
757.368	35289.26
757.706	35431.62
758.044	35269.37
758.381	35166.1
758.719	35015.82
759.056	35003.16
759.394	34935.37
759.731	34781.47
760.068	34690.63
760.405	34499.45
760.743	34374.25
761.08	34534.93
761.417	34340.13
761.754	34268.94
762.091	34171.32
762.428	33926.58
762.765	33771.33
763.102	34043.19
763.438	33609.53
763.775	33503.54
764.112	33626.25
764.449	33600.94
764.785	33473.94
765.122	33253.15
765.458	33092.25
765.795	33074.17
766.131	32996.66
766.467	32840.73
766.804	32779.49
767.14	32652.94
767.476	32671.47
767.812	32309.9
768.148	32356.23
768.485	31946.97
768.821	31938.38
769.157	32076.01
769.492	31843.02
769.828	31844.6
770.164	31500.65
770.5	31470.6
770.836	31452.52
771.171	31254.56
771.507	31155.58
771.842	30998.07
772.178	30994.23
772.513	30990.61
772.849	30927.34
773.184	30743.84
773.519	30628.14
773.855	30375.03
774.19	30453.9
774.525	30133.23
774.86	30098.88
775.195	30111.76
775.53	30052.78
775.865	29857.76
776.2	29642.17
776.535	29372.35
776.87	29604.66
777.205	29369.41
777.539	29241.73
777.874	29132.81
778.209	28982.08
778.543	28887.16
778.878	28767.17
779.212	28751.12
779.547	28632.03
779.881	28688.53
780.215	28337.57
780.55	28368.53
780.884	28224.36
781.218	28080.63
781.552	28221.87
781.886	28008.32
782.22	27909.34
782.554	27776.91
782.888	27522
783.222	27324.27
783.556	27300.09
783.889	27124.05
784.223	27080.88
784.557	26902.13
784.89	26999.53
785.224	26806.54
785.557	26707.11
785.891	26719.54
786.224	26598.64
786.558	26628.92
786.891	26325.42
787.224	26223.96
787.557	26258.76
787.891	26108.25
788.224	26040.91
788.557	26008.6
788.89	25832.33
789.223	25914.36
789.556	25663.52
789.888	25606.35
790.221	25518.89
790.554	25333.36
790.887	25323.19
791.219	25167.04
791.552	25164.32
791.884	25054.95
792.217	24930.21
792.549	24891.11
792.882	24627.84
793.214	24649.99
793.546	24655.19
793.879	24567.96
794.211	24284.57
794.543	24447.28
794.875	24402.99
795.207	24331.35
795.539	24198.7
795.871	24149.21
796.203	23968.42
796.535	23784.25
796.867	23832.38
797.198	23797.81
797.53	23689.79
797.862	23462.67
798.193	23540.41
798.525	23426.97
798.856	23490.02
799.188	23239.86
799.519	23080.99
799.85	22959.18
800.182	23129.8
800.513	22999.18
800.844	22746.53
801.175	22920.32
801.506	22846.65
801.837	22731.17
802.168	22645.75
802.499	22525.3
802.83	22506.09
803.161	22476.03
803.491	22343.38
803.822	22389.93
804.153	22232.2
804.483	22107.68
804.814	21996.27
805.145	21910.4
805.475	21921.02
805.805	21806.22
806.136	21844.19
806.466	21868.37
806.796	21772.77
807.126	21624.08
807.457	21559.9
807.787	21595.83
808.117	21514.7
808.447	21339.79
808.777	21380.02
809.107	21404.65
809.436	21243.98
809.766	21250.08
810.096	21146.58
810.426	20948.84
810.755	21032.91
811.085	20940.48
811.414	20921.27
811.744	20840.82
812.073	20658.91
812.403	20630.43
812.732	20465.46
813.061	20565.58
813.39	20351.34
813.719	20448.97
814.049	20545.91
814.378	20441.06
814.707	20291.23
815.036	20304.34
815.365	20051.46
815.693	20010.79
816.022	20077.9
816.351	19873.16
816.68	19869.32
817.008	19860.51
817.337	19773.96
817.665	19731.02
817.994	19791.81
818.322	19710.23
818.651	19610.8
818.979	19568.77
819.307	19629.33
819.636	19485.38
819.964	19381.43
820.292	19413.51
820.62	19524.25
820.948	19405.83
821.276	19452.84
821.604	19347.08
821.932	19389.33
822.259	19434.76
822.587	19387.07
822.915	19357.92
823.243	19332.39
823.57	19240.86
823.898	19347.75
824.225	19203.13
824.553	19311.37
824.88	19294.42
825.207	19349.11
825.535	19267.3
825.862	19321.99
826.189	19103.01
826.516	19350.47
826.843	19347.08
827.17	19323.57
827.497	19337.58
827.824	19353.63
828.151	19390.24
828.478	19200.87
828.805	19328.32
829.131	19207.87
829.458	19135.33
829.785	19073.18
830.111	19151.83
830.438	19313.18
830.764	19207.87
831.09	19188.89
831.417	19062.56
831.743	19145.73
832.069	19143.01
832.395	18963.13
832.722	19094.43
833.048	18986.18
833.374	19107.53
833.7	18956.8
834.026	19009.01
834.351	19029.57
834.677	18956.13
835.003	19038.38
835.329	19024.82
835.654	18922.23
835.98	18878.16
836.306	18890.14
836.631	18849.24
836.956	18846.75
837.282	18706.41
837.607	18604.5
837.932	18714.55
838.258	18670.26
838.583	18680.88
838.908	18583.25
839.233	18548
839.558	18492.18
839.883	18412.41
840.208	18379.64
840.533	18369.47
840.858	18387.55
841.182	18362.24
841.507	18330.15
841.832	18264.17
842.156	18191.63
842.481	18232.53
842.805	18169.03
843.13	18116.37
843.454	18034.79
843.778	17960.45
844.103	17903.5
844.427	17903.05
844.751	17896.27
845.075	17819.88
845.399	17806.1
845.723	17683.16
846.047	17740.79
846.371	17666.22
846.695	17563.62
847.019	17452.21
847.343	17287.02
847.666	17286.11
847.99	17132.22
848.313	17142.39
848.637	17027.81
848.96	17129.06
849.284	17027.14
849.607	16928.83
849.931	16791.66
850.254	16719.8
850.577	16601.39
850.9	16566.13
851.223	16619.24
851.546	16442.75
851.869	16327.72
852.192	16323.2
852.515	16141.74
852.838	16205.01
853.161	16179.02
853.483	16122.3
853.806	15911.69
854.129	15971.8
854.451	15951.69
854.774	15789.43
855.096	15832.82
855.419	15747.4
855.741	15702.43
856.063	15586.04
856.385	15588.76
856.708	15508.31
857.03	15529.32
857.352	15459.95
857.674	15511.7
857.996	15337.46
858.318	15283
858.64	15351.02
858.961	15286.62
859.283	15228.54
859.605	15108.77
859.926	15138.83
860.248	15078.94
860.57	15023.8
860.891	15010.24
861.212	14995.1
861.534	14914.2
861.855	14973.41
862.176	14974.76
862.498	14886.4
862.819	14824.26
863.14	14763.47
863.461	14805.5
863.782	14666.97
864.103	14704.49
864.424	14707.88
864.745	14668.78
865.065	14590.59
865.386	14541.78
865.707	14530.03
866.027	14520.08
866.348	14497.49
866.668	14478.73
866.989	14347.66
867.309	14274.89
867.63	14357.6
867.95	14359.64
868.27	14245.74
868.59	14324.84
868.91	14283.71
869.23	14247.78
869.55	14245.29
869.87	14272.18
870.19	14281.45
870.51	14136.59
870.83	14180.88
871.15	13994
871.469	14079.64
871.789	14165.07
872.109	14128
872.428	13963.26
872.748	14015.92
873.067	13990.61
873.386	13997.84
873.706	13939.31
874.025	13837.16
874.344	13937.05
874.663	13959.42
874.982	13875.58
875.301	13856.6
875.62	13835.36
875.939	13774.57
876.258	13774.79
876.577	13648.02
876.896	13742.7
877.214	13653.21
877.533	13606.21
877.852	13611.86
878.17	13664.29
878.489	13633.55
878.807	13560.34
879.125	13529.38
879.444	13510.85
879.762	13507.91
880.08	13395.82
880.398	13446.21
880.716	13404.18
881.034	13322.38
881.352	13333.22
881.67	13289.38
881.988	13333
882.306	13247.58
882.624	13245.09
882.941	13196.73
883.259	13132.78
883.577	13093.23
883.894	13034.02
884.212	13127.8
884.529	13007.36
884.846	12945.89
885.164	12938.66
885.481	13077.86
885.798	12971.42
886.115	12921.48
886.432	12889.39
886.75	12781.15
887.067	12878.09
887.383	12770.75
887.7	12783.63
888.017	12679.68
888.334	12629.74
888.651	12651.43
888.967	12653.01
889.284	12616.86
889.6	12532.57
889.917	12393.59
890.233	12505
890.55	12404.66
890.866	12367.6
891.182	12316.07
891.498	12254.16
891.815	12267.71
892.131	12159.92
892.447	12197.21
892.763	12220.48
893.079	12109.53
893.395	12029.98
893.71	12034.05
894.026	12099.13
894.342	11963.32
894.657	11941.62
894.973	11887.61
895.289	11847.39
895.604	11867.95
895.92	11742.53
896.235	11766.26
896.55	11710.44
896.865	11678.8
897.181	11622.99
897.496	11639.48
897.811	11535.76
898.126	11511.58
898.441	11470
898.756	11451.01
899.071	11359.94
899.386	11409.88
899.7	11313.39
900.015	11237.46
900.33	11205.14
900.644	11138.03
900.959	11107.07
901.273	11124.92
901.588	11024.13
901.902	10979.16
902.216	10992.95
902.531	10915.43
902.845	10955.66
903.159	10899.84
903.473	10772.39
903.787	10757.25
904.101	10674.54
904.415	10692.16
904.729	10663.01
905.042	10536.46
905.356	10564.71
905.67	10523.35
905.984	10484.48
906.297	10491.94
906.611	10381.89
906.924	10383.47
907.237	10297.6
907.551	10385.28
907.864	10266.64
908.177	10239.52
908.491	10190.93
908.804	10141.67
909.117	10039.52
909.43	9982.35
909.743	9989.36
910.056	9956.36
910.368	9925.4
910.681	9881.34
910.994	9887.44
911.307	9808.8
911.619	9700.32
911.932	9695.8
912.244	9704.62
912.557	9613.77
912.869	9640.44
913.181	9636.82
913.494	9504.4
913.806	9480.67
914.118	9432.08
914.43	9394.8
914.742	9378.98
915.054	9336.49
915.366	9308.24
915.678	9211.75
915.99	9270.5
916.302	9129.49
916.613	9098.08
916.925	9056.05
917.236	9133.79
917.548	9020.79
917.859	8990.29
918.171	8924.53
918.482	8874.58
918.794	8833.23
919.105	8862.83
919.416	8727.24
919.727	8743.06
920.038	8677.75
920.349	8645.21
920.66	8685.66
920.971	8675.94
921.282	8556.4
921.593	8557.53
921.903	8481.37
922.214	8457.87
922.525	8396.63
922.835	8338.33
923.146	8324.99
923.456	8289.29
923.767	8286.58
924.077	8244.09
924.387	8187.37
924.697	8141.04
925.008	8118.67
925.318	8060.59
925.628	8015.85
925.938	8017.2
926.248	7946.92
926.558	7873.93
926.867	7926.81
927.177	7858.56
927.487	7792.8
927.796	7765.69
928.106	7814.72
928.416	7780.83
928.725	7685.91
929.034	7663.54
929.344	7618.8
929.653	7603.66
929.962	7588.97
930.271	7487.95
930.581	7537.67
930.89	7475.07
931.199	7391.68
931.508	7366.15
931.817	7382.64
932.125	7313.04
932.434	7288.41
932.743	7241.18
933.051	7249.77
933.36	7220.62
933.669	7122.99
933.977	7096.55
934.286	7147.17
934.594	7068.98
934.902	7081.86
935.21	6950.57
935.519	6987.63
935.827	6945.59
936.135	6918.02
936.443	6908.31
936.751	6852.72
937.059	6778.37
937.367	6773.62
937.674	6781.76
937.982	6748.31
938.29	6631.93
938.597	6690.23
938.905	6561.2
939.213	6560.29
939.52	6547.64
939.827	6610.46
940.135	6552.61
940.442	6501.31
940.749	6465.38
941.056	6483.23
941.363	6404.59
941.67	6407.76
941.977	6270.13
942.284	6304.48
942.591	6306.06
942.898	6266.52
943.205	6223.81
943.511	6183.58
943.818	6203.24
944.125	6155.33
944.431	6132.28
944.738	6136.12
945.044	6108.1
945.35	6059.74
945.657	6045.96
945.963	5982
946.269	5972.51
946.575	5910.37
946.881	5929.8
947.187	5884.38
947.493	5825.4
947.799	5841.89
948.105	5831.73
948.41	5810.71
948.716	5759.64
949.022	5736.13
949.327	5723.71
949.633	5643.71
949.938	5628.57
950.244	5655.91
950.549	5611.62
950.854	5558.51
951.16	5564.39
951.465	5569.36
951.77	5496.14
952.075	5506.08
952.38	5498.85
952.685	5448.01
952.99	5417.72
953.294	5380.66
953.599	5331.63
953.904	5322.81
954.209	5298.86
954.513	5304.51
954.818	5251.18
955.122	5230.39
955.426	5196.26
955.731	5224.96
956.035	5179.31
956.339	5118.3
956.643	5099.09
956.948	5149.26
957.252	5028.58
957.556	5077.85
957.86	5077.17
958.163	5001.24
958.467	4950.84
958.771	4951.75
959.075	4947.68
959.378	4884.18
959.682	4909.49
959.985	4906.78
960.289	4885.08
960.592	4825.65
960.896	4875.82
961.199	4818.42
961.502	4803.73
961.805	4749.95
962.108	4716.05
962.411	4710.85
962.714	4655.26
963.017	4657.29
963.32	4662.26
963.623	4631.98
963.926	4581.36
964.228	4601.48
964.531	4547.92
964.833	4527.58
965.136	4538.2
965.438	4494.59
965.741	4470.18
966.043	4441.25
966.345	4415.94
966.648	4434.02
966.95	4396.28
967.252	4334.14
967.554	4388.83
967.856	4338.66
968.158	4264.53
968.46	4281.26
968.761	4270.86
969.063	4250.52
969.365	4276.74
969.666	4190.64
969.968	4174.14
970.269	4158.77
970.571	4149.96
970.872	4144.31
971.174	4115.61
971.475	4088.95
971.776	4122.39
972.077	4053.69
972.378	4046.91
972.679	4008.72
972.98	4038.78
973.281	4031.55
973.582	3979.8
973.883	3965.11
974.183	3961.04
974.484	3900.7
974.785	3900.02
975.085	3884.66
975.386	3886.01
975.686	3815.06
975.986	3838.56
976.287	3820.7
976.587	3790.65
976.887	3785.23
977.187	3775.28
977.487	3736.41
977.787	3754.27
978.087	3716.53
978.387	3685.11
978.687	3689.86
978.987	3634.72
979.286	3620.03
979.586	3604.44
979.885	3647.38
980.185	3575.51
980.484	3599.02
980.784	3635.17
981.083	3602.63
981.382	3542.97
981.682	3533.48
981.981	3475.4
982.28	3500.94
982.579	3448.51
982.878	3467.27
983.177	3465.23
983.475	3458.91
983.774	3392.69
984.073	3372.58
984.372	3353.82
984.67	3367.61
984.969	3358.8
985.267	3342.07
985.566	3313.37
985.864	3308.85
986.162	3267.27
986.461	3238.8
986.759	3272.92
987.057	3221.62
987.355	3224.79
987.653	3213.49
987.951	3203.55
988.249	3213.04
988.547	3173.49
988.844	3175.07
989.142	3130.78
989.44	3102.76
989.737	3102.76
990.035	3096.43
990.332	3081.52
990.63	3052.59
990.927	3067.28
991.224	3068.18
991.521	2987.28
991.819	3031.35
992.116	3000.16
992.413	2970.11
992.71	2914.51
993.006	2976.21
993.303	2948.41
993.6	2925.13
993.897	2884.46
994.193	2918.13
994.49	2858.24
994.787	2841.97
995.083	2839.94
995.379	2835.19
995.676	2775.99
995.972	2791.58
996.268	2808.08
996.565	2769.21
996.861	2729.89
997.157	2734.41
997.453	2752.26
997.749	2748.19
998.044	2672.26
998.34	2708.42
998.636	2669.55
998.932	2650.79
999.227	2651.92
999.523	2614.63
999.818	2638.59
1000.114	2592.26
1000.409	2607.4
1000.704	2568.08
1001	2562.21
1001.295	2537.35
1001.59	2546.84
1001.885	2524.24
1002.18	2513.85
1002.475	2461.42
1002.77	2477.69
1003.065	2491.7
1003.359	2458.03
1003.654	2443.79
1003.949	2393.85
1004.243	2425.94
1004.538	2412.38
1004.832	2378.71
1005.127	2377.35
1005.421	2359.05
1005.715	2336.22
1006.009	2308.88
1006.304	2317.24
1006.598	2298.26
1006.892	2267.53
1007.186	2262.55
1007.48	2258.26
1007.773	2244.47
1008.067	2231.37
1008.361	2201.09
1008.655	2209.67
1008.948	2174.42
1009.242	2180.3
1009.535	2147.75
1009.829	2164.25
1010.122	2148.66
1010.415	2147.98
1010.708	2110.24
1011.001	2113.63
1011.295	2063.46
1011.588	2073.86
1011.881	2051.49
1012.173	2059.17
1012.466	2014.2
1012.759	1998.83
1013.052	1999.51
1013.344	1985.27
1013.637	2009
1013.93	1958.61
1014.222	1930.81
1014.514	1965.16
1014.807	1931.94
1015.099	1930.81
1015.391	1925.84
1015.683	1929.45
1015.976	1905.5
1016.268	1905.27
1016.56	1872.51
1016.851	1864.6
1017.143	1829.34
1017.435	1823.47
1017.727	1812.85
1018.018	1836.12
1018.31	1799.51
1018.602	1787.31
1018.893	1778.95
1019.185	1740.76
1019.476	1765.39
1019.767	1748.67
1020.058	1711.38
1020.35	1705.05
1020.641	1703.25
1020.932	1697.6
1021.223	1657.37
1021.514	1677.71
1021.804	1656.92
1022.095	1658.05
1022.386	1613.08
1022.677	1651.72
1022.967	1629.35
1023.258	1649.91
1023.548	1606.75
1023.839	1550.93
1024.129	1518.39
1024.419	1560.2
1024.709	1545.28
1025	1551.84
1025.29	1537.83
1025.58	1520.88
1025.87	1508.9
1026.16	1506.87
1026.449	1505.96
1026.739	1479.52
1027.029	1461.44
1027.319	1455.12
1027.608	1435.23
1027.898	1409.02
1028.187	1428.23
1028.477	1442.91
1028.766	1415.12
1029.055	1391.39
1029.344	1384.61
1029.634	1394.1
1029.923	1373.76
1030.212	1365.18
1030.501	1349.13
1030.79	1345.52
1031.078	1320.43
1031.367	1344.16
1031.656	1343.93
1031.945	1335.12
1032.233	1294.9
1032.522	1308.68
1032.81	1277.72
1033.099	1267.33
1033.387	1243.6
1033.675	1244.5
1033.963	1263.71
1034.251	1236.59
1034.54	1234.56
1034.828	1204.5
1035.116	1216.48
1035.403	1197.04
1035.691	1189.59
1035.979	1201.11
1036.267	1186.42
1036.554	1145.75
1036.842	1158.63
1037.129	1170.83
1037.417	1136.71
1037.704	1126.31
1037.992	1111.62
1038.279	1108.01
1038.566	1127.22
1038.853	1127.22
1039.14	1127.22
