Data from White_reflection_standard_FLMS001491_072.txt Node
Date: Tue Feb 07 10:32:09 GMT 2017
User: dcchb
Spectrometer: FLMS00149
Trigger mode: 0
Integration Time (sec): 2.000000E-2
Scans to average: 10
Electric dark correction enabled: true
Nonlinearity correction enabled: false
Boxcar width: 0
XAxis mode: Wavelengths
Number of Pixels in Spectrum: 2048
>>>>>Begin Spectral Data<<<<<
341.393	-23.38
341.776	-23.38
342.16	-23.38
342.543	-67.67
342.927	-76.03
343.31	-52.53
343.693	-65.41
344.077	-67.89
344.46	-69.93
344.843	-50.72
345.226	-45.07
345.61	-26.99
345.993	-5.07
346.376	-22.47
346.759	29.28
347.142	42.16
347.525	29.5
347.908	40.13
348.291	55.94
348.674	107.24
349.057	101.82
349.44	118.32
349.823	129.84
350.206	165.09
350.588	223.62
350.971	233.57
351.354	272.66
351.737	264.98
352.119	278.31
352.502	308.14
352.884	305.66
353.267	330.97
353.65	330.51
354.032	322.6
354.414	361.47
354.797	361.47
355.179	363.51
355.562	360.8
355.944	375.94
356.326	372.32
356.709	389.72
357.091	394.92
357.473	381.13
357.855	397.18
358.238	417.07
358.62	414.81
359.002	413.45
359.384	385.2
359.766	392.66
360.148	392.43
360.53	411.19
360.912	387.91
361.294	409.83
361.676	392.43
362.057	390.17
362.439	397.86
362.821	406.44
363.203	401.92
363.584	402.83
363.966	410.96
364.348	435.14
364.729	390.17
365.111	407.12
365.493	388.14
365.874	386.56
366.256	417.29
366.637	420.23
367.019	397.4
367.4	412.09
367.781	414.13
368.163	417.52
368.544	419.1
368.925	427.69
369.306	420.91
369.688	446.67
370.069	434.47
370.45	421.58
370.831	442.6
371.212	442.38
371.593	431.08
371.974	445.54
372.355	437.4
372.736	433.11
373.117	436.95
373.498	447.57
373.879	437.4
374.26	440.12
374.641	437.18
375.021	426.56
375.402	453.67
375.783	495.03
376.163	494.58
376.544	514.46
376.925	485.99
377.305	493
377.686	504.07
378.066	501.58
378.447	493.45
378.827	505.88
379.208	493
379.588	526.67
379.968	510.62
380.349	523.05
380.729	518.76
381.109	536.61
381.489	528.7
381.87	544.29
382.25	536.16
382.63	542.26
383.01	555.82
383.39	579.32
383.77	550.4
384.15	576.61
384.53	569.6
384.91	587.23
385.29	599.21
385.67	611.18
386.049	608.25
386.429	603.95
386.809	640.34
387.189	640.34
387.568	620
387.948	642.82
388.328	637.85
388.707	684.85
389.087	651.86
389.466	641.92
389.846	658.19
390.225	683.95
390.605	675.14
390.984	688.7
391.363	683.05
391.743	713.78
392.122	729.83
392.501	736.6
392.881	735.93
393.26	749.03
393.639	743.84
394.018	755.59
394.397	757.17
394.776	767.56
395.155	784.29
395.534	793.55
395.913	794.23
396.292	799.65
396.671	844.85
397.05	840.78
397.429	817.96
397.808	836.94
398.186	877.62
398.565	863.16
398.944	862.03
399.323	894.11
399.701	869.48
400.08	900.89
400.458	897.05
400.837	924.85
401.215	895.24
401.594	922.59
401.972	928.24
402.351	949.25
402.729	970.27
403.107	961.01
403.486	965.53
403.864	1013.89
404.242	1001.91
404.62	982.02
404.999	1040.55
405.377	1070.16
405.755	1034.22
406.133	1064.96
406.511	1086.65
406.889	1074.22
407.267	1110.15
407.645	1110.61
408.023	1150.61
408.401	1153.32
408.779	1181.11
409.156	1176.14
409.534	1220.89
409.912	1216.82
410.29	1245.29
410.667	1237.16
411.045	1255.69
411.422	1290.49
411.8	1300.66
412.178	1313.09
412.555	1337.95
412.933	1362.8
413.31	1387.89
413.687	1410.94
414.065	1426.98
414.442	1398.73
414.819	1461.78
415.197	1464.95
415.574	1504.95
415.951	1477.38
416.328	1520.31
416.705	1518.73
417.082	1567.32
417.46	1566.64
417.837	1591.95
418.214	1604.83
418.591	1618.39
418.967	1590.37
419.344	1614.32
419.721	1651.84
420.098	1655.22
420.475	1701.55
420.852	1713.75
421.228	1719.4
421.605	1740.19
421.982	1748.78
422.358	1792.85
422.735	1783.81
423.111	1781.32
423.488	1838.04
423.864	1863.35
424.241	1898.38
424.617	1880.76
424.994	1891.6
425.37	1935.22
425.746	1949.91
426.123	1998.04
426.499	1984.03
426.875	2033.52
427.251	2077.36
427.627	2068.1
428.003	2124.14
428.379	2152.84
428.756	2158.94
429.132	2213.63
429.507	2255.21
429.883	2245.94
430.259	2320.07
430.635	2307.41
431.011	2330.01
431.387	2420.18
431.763	2418.37
432.138	2471.7
432.514	2486.16
432.89	2506.73
433.265	2556.9
433.641	2630.11
434.016	2639.38
434.392	2671.24
434.767	2703.56
435.143	2729.77
435.518	2770.68
435.894	2808.87
436.269	2840.28
436.644	2877.57
437.02	2897
437.395	2930.45
437.77	2935.19
438.145	2989.43
438.52	3009.31
438.895	3060.39
439.271	3075.07
439.646	3112.81
440.021	3118.24
440.395	3162.08
440.77	3164.11
441.145	3194.17
441.52	3279.59
441.895	3259.7
442.27	3287.72
442.645	3310.55
443.019	3367.72
443.394	3382.41
443.769	3446.59
444.143	3372.47
444.518	3463.54
444.892	3457.21
445.267	3504.89
445.641	3500.15
446.016	3527.72
446.39	3605.91
446.764	3618.11
447.139	3612.01
447.513	3653.36
447.887	3642.29
448.262	3687.49
448.636	3720.26
449.01	3734.72
449.384	3780.59
449.758	3808.16
450.132	3885.67
450.506	3913.92
450.88	3952.11
451.254	3941.94
451.628	4027.14
452.002	4077.99
452.376	4083.18
452.75	4093.13
453.123	4200.69
453.497	4223.07
453.871	4247.93
454.244	4404.31
454.618	4415.38
454.992	4451.76
455.365	4492.21
455.739	4609.05
456.112	4666.67
456.486	4603.17
456.859	4740.12
457.232	4776.05
457.606	4779.44
457.979	4840.23
458.352	5004.06
458.725	5071.41
459.099	5056.27
459.472	5147.11
459.845	5194.57
460.218	5257.84
460.591	5281.8
460.964	5366.54
461.337	5500.55
461.71	5514.11
462.083	5611.28
462.456	5673.65
462.829	5726.08
463.201	5783.7
463.574	5840.88
463.947	5920.88
464.32	6043.36
464.692	6095.79
465.065	6041.78
465.438	6208.55
465.81	6285.39
466.183	6379.62
466.555	6501.2
466.928	6534.87
467.3	6548.43
467.672	6663.45
468.045	6834.75
468.417	6843.11
468.789	6994.52
469.161	7113.16
469.534	7186.6
469.906	7390.89
470.278	7305.25
470.65	7485.35
471.022	7640.83
471.394	7749.08
471.766	7841.95
472.138	7881.28
472.51	8055.51
472.882	8189.06
473.253	8300.02
473.625	8461.37
473.997	8621.82
474.369	8695.04
474.74	8825.66
475.112	8941.59
475.484	9095.93
475.855	9201.47
476.227	9352.2
476.598	9609.14
476.97	9656.82
477.341	9911.5
477.713	10035.34
478.084	10113.53
478.455	10366.63
478.827	10452.06
479.198	10787.87
479.569	10814.98
479.94	11160.74
480.311	11189.21
480.682	11519.6
481.053	11812.47
481.424	11943.77
481.795	11978.34
482.166	12247.49
482.537	12342.18
482.908	12701.04
483.279	12821.94
483.65	13016.06
484.021	13271.64
484.391	13468.25
484.762	13611.07
485.133	13725.42
485.503	13975.8
485.874	14259.87
486.244	14293.08
486.615	14622.34
486.985	14776.46
487.356	15089.67
487.726	15186.85
488.097	15589.1
488.467	15587.74
488.837	15893.72
489.207	16043.32
489.578	16287.16
489.948	16478.56
490.318	16693.47
490.688	16759.91
491.058	17051.66
491.428	17219.79
491.798	17447.58
492.168	17735.71
492.538	17862.48
492.908	18021.35
493.278	18367.78
493.648	18335.69
494.017	18744.49
494.387	18827.43
494.757	18997.14
495.126	19142.9
495.496	19169.79
495.866	19363.46
496.235	19572.27
496.605	19717.35
496.974	19873.73
497.344	20064.91
497.713	20187.17
498.082	20361.4
498.452	20622.41
498.821	20725.68
499.19	20722.97
499.559	20983.53
499.928	21223.07
500.298	21276.86
500.667	21492.67
501.036	21522.27
501.405	21734.24
501.774	21759.78
502.143	22061.24
502.512	22108.7
502.88	22337.62
503.249	22371.52
503.618	22476.37
503.987	22565.41
504.356	22940.77
504.724	22893.08
505.093	23155.9
505.462	23071.38
505.83	23401.55
506.199	23613.29
506.567	23864.81
506.936	23898.26
507.304	24187.74
507.672	24204.46
508.041	24425.7
508.409	24620.95
508.777	24753.83
509.145	25049.64
509.514	24998.11
509.882	25248.5
510.25	25346.35
510.618	25537.99
510.986	25602.62
511.354	25922.16
511.722	26059.1
512.09	26375.25
512.458	26349.72
512.826	26686.21
513.193	26741.12
513.561	26903.6
513.929	27138.17
514.297	27412.51
514.664	27658.61
515.032	27753.3
515.4	27936.34
515.767	28105.6
516.135	28292.49
516.502	28097.02
516.869	28669.2
517.237	28784
517.604	28825.58
517.972	29121.17
518.339	29359.36
518.706	29428.51
519.073	29738.55
519.44	29884.77
519.808	30191.2
520.175	30287.69
520.542	30854.68
520.909	30869.37
521.276	30889.26
521.643	31319.08
522.009	31444.95
522.376	31626.87
522.743	31872.74
523.11	32176.68
523.477	32476.34
523.843	32756.55
524.21	33068.41
524.577	33211.46
524.943	33371.68
525.31	33629.98
525.676	33932.12
526.043	34146.8
526.409	34237.64
526.776	34669.27
527.142	34929.15
527.508	35038.3
527.874	35268.8
528.241	35539.76
528.607	35647.78
528.973	35952.63
529.339	35947.43
529.705	36352.17
530.071	36489.11
530.437	36872.6
530.803	37101.3
531.169	37217
531.535	37217.23
531.901	37451.8
532.267	37622.41
532.632	37871.67
532.998	38052.69
533.364	38208.84
533.73	38252.68
534.095	38683.63
534.461	38639.56
534.826	39049.72
535.192	39017.18
535.557	39416.49
535.923	39376.27
536.288	39632.31
536.653	39847.21
537.019	39755.69
537.384	39787.78
537.749	40033.88
538.114	40312.51
538.479	40291.27
538.845	40499.4
539.21	40462.34
539.575	40763.35
539.94	40884.02
540.305	41138.25
540.67	41198.82
541.034	41151.59
541.399	41399.26
541.764	41603.78
542.129	41695.53
542.494	41930.1
542.858	41963.32
543.223	42069.3
543.587	42387.49
543.952	42352.91
544.316	42406.92
544.681	42511.78
545.045	42628.61
545.41	42951.99
545.774	43074.02
546.138	43034.7
546.503	43250.29
546.867	43285.54
547.231	43824.51
547.595	43782.48
547.959	43996.03
548.324	43990.38
548.688	44131.4
549.052	44254.56
549.416	44346.08
549.779	44386.53
550.143	44513.31
550.507	44867.2
550.871	44933.18
551.235	44912.17
551.599	45393.96
551.962	45298.15
552.326	45537.23
552.689	45721.18
553.053	45636.22
553.417	45708.98
553.78	46415.4
554.143	46156.65
554.507	46389.19
554.87	46456.98
555.234	46865.79
555.597	46689.52
555.96	46885
556.323	47080.25
556.686	47114.59
557.05	47454.02
557.413	47578.31
557.776	47690.17
558.139	47918.87
558.502	48084.96
558.865	48193.21
559.228	48405.18
559.59	48432.3
559.953	48565.18
560.316	48992.51
560.679	49054.43
561.041	49271.37
561.404	49332.39
561.767	49607.18
562.129	49583.91
562.492	49915.88
562.854	49950.23
563.217	49946.61
563.579	50134.85
563.941	50366.03
564.304	50572.36
564.666	50745.01
565.028	50771
565.39	50928.73
565.753	51099.35
566.115	51276.97
566.477	51415.5
566.839	51432.22
567.201	51652.33
567.563	51674.7
567.925	51822.72
568.287	51943.62
568.648	52034.47
569.01	52231.07
569.372	52463.61
569.734	52357.85
570.095	52560.55
570.457	52739.76
570.819	52807.55
571.18	52793.32
571.542	52945.18
571.903	53099.97
572.265	53193.76
572.626	53244.6
572.987	53248.67
573.349	53390.36
573.71	53480.53
574.071	53501.09
574.432	53606.63
574.794	53810.24
575.155	53798.03
575.516	53756
575.877	53878.26
576.238	53979.27
576.599	54058.59
576.96	54087.29
577.32	54146.5
577.681	54241.86
578.042	54272.82
578.403	54261.07
578.763	54318.02
579.124	54407.51
579.485	54555.98
579.845	54589.2
580.206	54513.72
580.566	54368.87
580.927	54586.04
581.287	54720.72
581.648	54556.66
582.008	54752.13
582.368	54642.76
582.728	54790.1
583.089	54637.11
583.449	54706.03
583.809	54781.96
584.169	54813.83
584.529	54776.09
584.889	54956.87
585.249	54704
585.609	54673.94
585.969	54834.39
586.329	54825.35
586.688	54758.91
587.048	54814.28
587.408	54769.76
587.768	54741.96
588.127	54728.41
588.487	54798.01
588.846	55000.49
589.206	54803.88
589.565	54780.16
589.925	54892.7
590.284	54826.26
590.643	54838.91
591.003	54907.16
591.362	55033.48
591.721	54890.66
592.08	54964.33
592.44	55047.49
592.799	54976.08
593.158	54968.85
593.517	54902.41
593.876	55042.52
594.235	54936.99
594.593	55034.39
594.952	55061.28
595.311	54971.56
595.67	55043.65
596.029	55192.12
596.387	55256.98
596.746	55241.39
597.104	55140.6
597.463	55012.01
597.822	55280.03
598.18	55185.57
598.538	55091.33
598.897	55286.58
599.255	55018.79
599.613	55414.72
599.972	55204.55
600.33	55320.03
600.688	55137.43
601.046	55380.14
601.404	55396.86
601.762	55404.09
602.12	55470.76
602.478	55490.87
602.836	55509.63
603.194	55399.35
603.552	55459.91
603.91	55337.43
604.268	55502.4
604.625	55459.01
604.983	55597.54
605.341	55418.56
605.698	55617.2
606.056	55628.04
606.413	55630.75
606.771	55653.81
607.128	55728.61
607.485	55634.37
607.843	55651.09
608.2	55797.53
608.557	55882.05
608.914	55768.6
609.272	55950.97
609.629	55929.28
609.986	56061.03
610.343	55931.54
610.7	56084.98
611.057	55965.89
611.414	56107.58
611.771	56079.78
612.127	56185.09
612.484	56122.72
612.841	56186.22
613.198	56149.61
613.554	56132.21
613.911	56233.22
614.267	56257.63
614.624	56233
614.98	56292.43
615.337	56364.07
615.693	56355.48
616.05	56278.87
616.406	56484.29
616.762	56383.05
617.118	56390.51
617.475	56334.01
617.831	56463.95
618.187	56467.57
618.543	56512.99
618.899	56643.16
619.255	56599.32
619.611	56485.42
619.967	56582.37
620.323	56682.48
620.678	56545.08
621.034	56502.6
621.39	56568.36
621.746	56484.29
622.101	56755.92
622.457	56530.39
622.812	56528.58
623.168	56606.1
623.523	56626.21
623.879	56673.21
624.234	56526.32
624.589	56665.53
624.945	56646.1
625.3	56718.18
625.655	56571.52
626.01	56618.75
626.365	56634.8
626.72	56662.14
627.075	56668.02
627.43	56591.86
627.785	56523.39
628.14	56630.28
628.495	56569.26
628.85	56569.04
629.205	56469.15
629.559	56656.26
629.914	56472.31
630.269	56476.16
630.623	56354.58
630.978	56276.16
631.332	56458.98
631.687	56501.47
632.041	56340.79
632.396	56404.29
632.75	56325.65
633.104	56376.5
633.459	56218.54
633.813	56155.03
634.167	56248.59
634.521	56202.49
634.875	56153
635.229	56117.75
635.583	55942.38
635.937	56040.24
636.291	55960.92
636.645	55940.13
636.999	55911.88
637.352	55950.29
637.706	55806.8
638.06	55881.6
638.413	55826
638.767	55718.21
639.121	55756.63
639.474	55652.22
639.828	55652.68
640.181	55635.95
640.534	55675.73
640.888	55551.89
641.241	55437.99
641.594	55504.66
641.947	55590.76
642.301	55449.52
642.654	55442.74
643.007	55462.62
643.36	55375.39
643.713	55305.34
644.066	55353.47
644.419	55183.99
644.771	54936.76
645.124	54798.23
645.477	54653.83
645.83	54546.72
646.182	54466.72
646.535	54307.63
646.888	54308.76
647.24	54216.1
647.593	54323.44
647.945	54284.12
648.298	54158.03
648.65	54017.46
649.002	53961.42
649.355	54033.51
649.707	54013.85
650.059	54138.82
650.411	54490.22
650.763	54451.58
651.115	54800.27
651.467	54741.96
651.819	54573.16
652.171	54607.96
652.523	54476.43
652.875	54503.55
653.227	54355.99
653.578	54560.73
653.93	54420.39
654.282	54360.96
654.633	54202.09
654.985	54265.82
655.337	54261.07
655.688	54217.46
656.039	54309.66
656.391	54101.53
656.742	54095.65
657.094	54138.36
657.445	54214.97
657.796	54131.59
658.147	54094.52
658.498	54078.71
658.849	54075.09
659.2	54038.71
659.551	53921.2
659.902	54120.74
660.253	54036.22
660.604	53945.6
660.955	53854.08
661.306	53995.54
661.656	53945.15
662.007	53904.47
662.358	53881.65
662.708	53843.91
663.059	53799.16
663.409	53579.96
663.76	53856.56
664.11	53842.55
664.461	53877.58
664.811	53818.15
665.161	53744.48
665.511	53754.19
665.862	53693.4
666.212	53744.25
666.562	53724.59
666.912	53658.38
667.262	53641.2
667.612	53670.35
667.962	53659.73
668.312	53569.57
668.662	53793.74
669.011	53616.12
669.361	53507.19
669.711	53470.81
670.06	53492.28
670.41	53295.67
670.76	53371.61
671.109	53516.91
671.459	53405.05
671.808	53300.19
672.157	53397.59
672.507	53162.35
672.856	53210.71
673.205	53287.54
673.554	53339.06
673.904	53178.84
674.253	53374.99
674.602	53245.73
674.951	52740.21
675.3	52610.95
675.649	53057.94
675.998	53080.77
676.346	53137.49
676.695	53182.91
677.044	52897.04
677.393	52937.49
677.741	53066.08
678.09	52911.5
678.438	52807.33
678.787	52926.65
679.135	52915.12
679.484	52572.53
679.832	52798.06
680.181	52650.72
680.529	52685.97
680.877	52484.17
681.225	52429.26
681.573	52623.83
681.922	52475.13
682.27	52353.1
682.618	52279.43
682.966	52270.39
683.314	52354.46
683.661	52228.36
684.009	52126.89
684.357	52048.02
684.705	51912.43
685.053	51987.46
685.4	51967.12
685.748	51735.49
686.095	51787.47
686.443	51654.81
686.79	51554.7
687.138	51615.95
687.485	51618.2
687.832	51456.63
688.18	51339.57
688.527	51192.45
688.874	51208.05
689.221	51218.22
689.568	50931.9
689.915	50945.23
690.262	50893.03
690.609	50839.69
690.956	50758.79
691.303	50711.34
691.65	50628.4
691.997	50610.55
692.344	50327.17
692.69	50221.63
693.037	50310.89
693.383	50043.56
693.73	50048.98
694.077	49865.26
694.423	49965.59
694.769	49826.61
695.116	49591.37
695.462	49669.56
695.808	49415.32
696.155	49548.88
696.501	49207.65
696.847	49244.48
697.193	48935.79
697.539	49002.68
697.885	48901.44
698.231	48759.3
698.577	48766.75
698.923	48661.22
699.269	48303.94
699.614	48220.1
699.96	48217.84
700.306	48241.34
700.651	48134.23
700.997	47896.72
701.342	47877.06
701.688	47816.5
702.033	47614.24
702.379	47650.17
702.724	47534.92
703.069	47639.78
703.415	47074.37
703.76	47130.87
704.105	47157.53
704.45	47005.22
704.795	46735.62
705.14	46614.49
705.485	46638.67
705.83	46542.18
706.175	46456.98
706.52	46253.37
706.865	46304.9
707.209	46086.6
707.554	45963.89
707.899	46106.94
708.243	45948.98
708.588	45878.24
708.932	45530.91
709.277	45557.57
709.621	45597.8
709.966	45255.21
710.31	45317.13
710.654	44964.37
710.998	45009.79
711.342	45169.79
711.687	44862.9
712.031	44730.48
712.375	44580.2
712.719	44667.43
713.063	44535.68
713.407	44679.86
713.75	44408
714.094	44318.96
714.438	44171.4
714.782	44182.92
715.125	44035.13
715.469	43974.34
715.812	43909.93
716.156	43661.35
716.499	43738.19
716.843	43629.94
717.186	43498.64
717.53	43667.91
717.873	43531.86
718.216	43422.71
718.559	43315.37
718.902	42965.55
719.246	43114.93
719.589	43013.91
719.932	42869.51
720.275	42757.42
720.617	42759.45
720.96	42583.87
721.303	42626.58
721.646	42673.81
721.989	42395.17
722.331	42507.26
722.674	42425.45
723.016	42401.5
723.359	42206.7
723.701	42237.43
724.044	41905.47
724.386	41828.18
724.729	41879.03
725.071	41782.53
725.413	41875.86
725.755	41704.12
726.097	41575.31
726.439	41293.28
726.782	41471.81
727.124	41456.89
727.465	41248.76
727.807	41354.29
728.149	41221.42
728.491	41096.67
728.833	41199.95
729.175	41036.34
729.516	40921.99
729.858	40839.96
730.199	40784.59
730.541	40745.5
730.882	40587.76
731.224	40777.59
731.565	40516.58
731.906	40466.86
732.248	40411.49
732.589	40335.56
732.93	40173.99
733.271	40212.63
733.612	40322.23
733.953	40359.97
734.294	40022.35
734.635	39936.03
734.976	39976.03
735.317	39735.35
735.658	39894.9
735.999	39653.77
736.339	39580.56
736.68	39757.73
737.021	39527.22
737.361	39455.81
737.702	39532.87
738.042	39310.73
738.383	39314.12
738.723	39266.89
739.063	39141.24
739.404	39308.02
739.744	38985.54
740.084	39011.08
740.424	38913.68
740.764	39036.61
741.104	38851.99
741.444	38733.12
741.784	38605.89
742.124	38802.27
742.464	38636.4
742.804	38457.65
743.143	38412.45
743.483	38330.64
743.823	38263.08
744.162	38249.06
744.502	38190.08
744.841	38136.3
745.181	38270.76
745.52	37974.5
745.86	38061.5
746.199	37956.19
746.538	37932.46
746.877	37904.67
747.216	37936.76
747.556	37719.14
747.895	37642.98
748.234	37559.59
748.573	37475.07
748.911	37454.96
749.25	37471.91
749.589	37189.43
749.928	37264.91
750.267	37282.54
750.605	37082.99
750.944	37049.55
751.283	36913.51
751.621	37034.63
751.96	36676.9
752.298	36675.32
752.636	36633.06
752.975	36490.69
753.313	36458.38
753.651	36404.82
753.989	36280.98
754.327	36189.68
754.666	35919.86
755.004	36163.92
755.342	36104.26
755.679	35961.67
756.017	35767.1
756.355	35890.93
756.693	35633.31
757.031	35654.1
757.368	35424.73
757.706	35351.29
758.044	35263.38
758.381	35226.32
758.719	35077.62
759.056	35127.57
759.394	34937.51
759.731	34729.84
760.068	34599.9
760.405	34583.85
760.743	34403.06
761.08	34483.51
761.417	34411.2
761.754	34229.28
762.091	34132.34
762.428	34004.43
762.765	33838.11
763.102	33946.35
763.438	33826.36
763.775	33653.25
764.112	33577.1
764.449	33560.15
764.785	33373.26
765.122	33274.05
765.458	33099.82
765.795	33028.19
766.131	32966.94
766.467	32911.35
766.804	32651.7
767.14	32446.28
767.476	32564.69
767.812	32296.23
768.148	32390.91
768.485	32154.76
768.821	31989.12
769.157	31989.34
769.492	31772.17
769.828	31826.41
770.164	31606.98
770.5	31491.73
770.836	31403.37
771.171	31161.57
771.507	31174.22
771.842	30936.94
772.178	30869.82
772.513	30907.34
772.849	30868.92
773.184	30614.01
773.519	30616.72
773.855	30499.44
774.19	30273
774.525	30163.18
774.86	30109.39
775.195	30120.92
775.53	29955.5
775.865	29844.99
776.2	29693.81
776.535	29367.49
776.87	29445.68
777.205	29287.72
777.539	29228.96
777.874	29230.54
778.209	28978.12
778.543	28978.8
778.878	28820.16
779.212	28644.12
779.547	28580.62
779.881	28625.82
780.215	28402.54
780.55	28435.31
780.884	28213.4
781.218	28083
781.552	28187.41
781.886	27937.02
782.22	27880.75
782.554	27779.28
782.888	27496.35
783.222	27454.09
783.556	27250.71
783.889	27157.61
784.223	27106.31
784.557	27087.32
784.89	27092.75
785.224	26967.33
785.557	26676.26
785.891	26741.57
786.224	26557.39
786.558	26674.45
786.891	26284.86
787.224	26309.72
787.557	26213.68
787.891	26106.56
788.224	26069.95
788.557	26065.2
788.89	25904.98
789.223	25827.7
789.556	25664.99
789.888	25519.68
790.221	25507.48
790.554	25433.36
790.887	25315.62
791.219	25139.81
791.552	25119.47
791.884	24937.78
792.217	24887.16
792.549	24831.11
792.882	24667.05
793.214	24567.39
793.546	24701.17
793.879	24473.83
794.211	24348.87
794.543	24448.52
794.875	24314.97
795.207	24355.19
795.539	24157.68
795.871	24252.14
796.203	23921.98
796.535	23728.09
796.867	23791.14
797.198	23713.4
797.53	23707.53
797.862	23494.2
798.193	23589.11
798.525	23436.35
798.856	23444.48
799.188	23163.59
799.519	23088.56
799.85	23130.59
800.182	23056.47
800.513	23020.09
800.844	22855.12
801.175	22942.35
801.506	22819.41
801.837	22661
802.168	22645.41
802.499	22606.76
802.83	22451.06
803.161	22407.9
803.491	22368.35
803.822	22285.64
804.153	22165.19
804.483	22059.21
804.814	22042.49
805.145	22039.1
805.475	21915.71
805.805	21844.75
806.136	21790.51
806.466	21854.02
806.796	21744.64
807.126	21689.05
807.457	21575.38
807.787	21533.57
808.117	21440.47
808.447	21339.23
808.777	21424.87
809.107	21270.53
809.436	21259.46
809.766	21210.42
810.096	21115.05
810.426	21009.74
810.755	20979.46
811.085	20869.41
811.414	20900.14
811.744	20793.03
812.073	20741.05
812.403	20709.41
812.732	20511.23
813.061	20559.59
813.39	20410.66
813.719	20393.72
814.049	20496.76
814.378	20357.56
814.707	20325.47
815.036	20315.3
815.365	20122.31
815.693	19961.64
816.022	20052.48
816.351	19950.56
816.68	19784.01
817.008	19817.91
817.337	19800.96
817.665	19792.6
817.994	19861.07
818.322	19690.91
818.651	19552.16
818.979	19476.23
819.307	19641.87
819.636	19541.53
819.964	19387.64
820.292	19457.24
820.62	19491.37
820.948	19394.19
821.276	19421.76
821.604	19421.54
821.932	19362.1
822.259	19427.41
822.587	19430.12
822.915	19323.69
823.243	19379.5
823.57	19187.65
823.898	19261.32
824.225	19249.56
824.553	19249.11
824.88	19206.63
825.207	19365.95
825.535	19206.85
825.862	19360.75
826.189	19168.44
826.516	19272.39
826.843	19347.87
827.17	19217.47
827.497	19293.63
827.824	19254.08
828.151	19327.08
828.478	19303.57
828.805	19354.19
829.131	19189.91
829.458	19139.51
829.785	19113.97
830.111	19190.36
830.438	19240.53
830.764	19187.87
831.09	19214.76
831.417	19144.48
831.743	19248.21
832.069	19066.97
832.395	19097.03
832.722	19065.39
833.048	18981.55
833.374	19023.58
833.7	18949.46
834.026	18975.45
834.351	18983.13
834.677	19047.99
835.003	18971.38
835.329	18952.4
835.654	18979.74
835.98	18880.08
836.306	18824.49
836.631	18722.57
836.956	18835.34
837.282	18735.68
837.607	18687.55
837.932	18704.27
838.258	18632.63
838.583	18665.4
838.908	18453.43
839.233	18526.42
839.558	18552.18
839.883	18497.72
840.208	18389.02
840.533	18330.04
840.858	18396.03
841.182	18492.75
841.507	18418.63
841.832	18208.24
842.156	18167.11
842.481	18210.04
842.805	18188.35
843.13	18093.89
843.454	18009.82
843.778	18014.34
844.103	17958.75
844.427	17908.81
844.751	17894.8
845.075	17847.12
845.399	17830.39
845.723	17722.82
846.047	17748.14
846.371	17658.19
846.695	17611.42
847.019	17494.13
847.343	17294.36
847.666	17262.95
847.99	17314.25
848.313	17165.78
848.637	17086.01
848.96	17101.15
849.284	17019.34
849.607	16840.81
849.931	16798.1
850.254	16717.65
850.577	16573.48
850.9	16520.6
851.223	16540.94
851.546	16501.39
851.869	16306.14
852.192	16411.67
852.515	16265.46
852.838	16156.99
853.161	16157.67
853.483	16105.69
853.806	16049.87
854.129	16053.26
854.451	15891.91
854.774	15832.71
855.096	15806.94
855.419	15809.88
855.741	15646.72
856.063	15655.31
856.385	15600.85
856.708	15604.24
857.03	15443.34
857.352	15440.63
857.674	15440.63
857.996	15371.25
858.318	15335.54
858.64	15329.89
858.961	15238.6
859.283	15182.33
859.605	15129.9
859.926	15148.88
860.248	15152.5
860.57	15019.85
860.891	15049.45
861.212	14924.25
861.534	15003.8
861.855	14900.07
862.176	14898.49
862.498	14892.84
862.819	14816.91
863.14	14818.72
863.461	14749.57
863.782	14689.23
864.103	14706.41
864.424	14734.2
864.745	14606.52
865.065	14594.55
865.386	14630.7
865.707	14484.94
866.027	14586.86
866.348	14489.01
866.668	14419.18
866.989	14411.95
867.309	14302.35
867.63	14374.89
867.95	14277.04
868.27	14248.57
868.59	14339.19
868.91	14215.35
869.23	14277.49
869.55	14104.16
869.87	14299.64
870.19	14160.21
870.51	14161.34
870.83	14209.92
871.15	14040.89
871.469	14033.88
871.789	14133.31
872.109	14038.18
872.428	14032.53
872.748	14056.48
873.067	14024.39
873.386	13952.3
873.706	13966.77
874.025	13908.24
874.344	13865.75
874.663	13880.21
874.982	13852.87
875.301	13762.7
875.62	13791.63
875.939	13717.73
876.258	13766.77
876.577	13686.32
876.896	13642.25
877.214	13623.27
877.533	13644.06
877.852	13644.97
878.17	13609.49
878.489	13610.84
878.807	13584.85
879.125	13483.84
879.444	13578.75
879.762	13410.17
880.08	13432.09
880.398	13345.31
880.716	13381.47
881.034	13260.57
881.352	13260.8
881.67	13385.54
881.988	13345.31
882.306	13229.84
882.624	13230.74
882.941	13136.28
883.259	13153.45
883.577	13145.77
883.894	13077.07
884.212	13067.35
884.529	13055.6
884.846	13010.18
885.164	12968.83
885.481	12957.07
885.798	12917.98
886.115	12815.84
886.432	12840.69
886.75	12773.12
887.067	12851.77
887.383	12718.89
887.7	12748.27
888.017	12685.44
888.334	12615.16
888.651	12740.81
888.967	12591.89
889.284	12525.45
889.6	12484.77
889.917	12328.39
890.233	12485.9
890.55	12386.92
890.866	12443.42
891.182	12355.96
891.498	12269.64
891.815	12337.66
892.131	12192.12
892.447	12207.94
892.763	12147.83
893.079	12096.98
893.395	12025.12
893.71	12107.38
894.026	12059.02
894.342	11913.94
894.657	11897.44
894.973	11915.97
895.289	11865.58
895.604	11894.5
895.92	11711.68
896.235	11740.84
896.55	11737.67
896.865	11706.26
897.181	11636.43
897.496	11657.67
897.811	11549.2
898.126	11499.03
898.441	11461.97
898.756	11417.91
899.071	11345.37
899.386	11408.64
899.7	11337.91
900.015	11199.38
900.33	11163.68
900.644	11174.07
900.959	11174.75
901.273	11051.36
901.588	11023.57
901.902	11060.18
902.216	10985.37
902.531	10962.55
902.845	10871.03
903.159	10897.69
903.473	10814.08
903.787	10723.69
904.101	10727.75
904.415	10736.79
904.729	10621.77
905.042	10574.99
905.356	10599.85
905.67	10516.01
905.984	10503.13
906.297	10504.48
906.611	10400.53
906.924	10352.62
907.237	10361.21
907.551	10319.86
907.864	10210.03
908.177	10158.96
908.491	10205.28
908.804	10098.39
909.117	10086.42
909.43	10053.87
909.743	9939.3
910.056	9991.95
910.368	9886.42
910.681	9834.67
910.994	9896.14
911.307	9777.27
911.619	9716.03
911.932	9723.49
912.244	9716.71
912.557	9638.07
912.869	9558.52
913.181	9521.01
913.494	9505.87
913.806	9448.24
914.118	9413.44
914.43	9396.49
914.742	9409.15
915.054	9264.52
915.366	9246.89
915.678	9295.02
915.99	9191.75
916.302	9086.22
916.613	9075.37
916.925	9054.13
917.236	9034.92
917.548	9050.74
917.859	9019.32
918.171	8941.36
918.482	8868.59
918.794	8852.1
919.105	8832.66
919.416	8771.42
919.727	8754.02
920.038	8757.18
920.349	8602.84
920.66	8624.76
920.971	8609.39
921.282	8599.45
921.593	8478.55
921.903	8490.75
922.214	8419.57
922.525	8431.09
922.835	8329.17
923.146	8351.55
923.456	8280.81
923.767	8254.37
924.077	8207.37
924.387	8177.54
924.697	8212.11
925.008	8123.08
925.318	8072.91
925.628	8088.73
925.938	8032.91
926.248	7916.08
926.558	7965.79
926.867	7885.8
927.177	7906.59
927.487	7799.02
927.796	7728.51
928.106	7735.52
928.416	7693.48
928.725	7709.3
929.034	7628.18
929.344	7666.59
929.653	7610.77
929.962	7523.09
930.271	7495.52
930.581	7513.15
930.89	7421.17
931.199	7399.71
931.508	7400.16
931.817	7384.34
932.125	7272.7
932.434	7309.54
932.743	7216.66
933.051	7201.07
933.36	7211.01
933.669	7120.39
933.977	7029.77
934.286	7151.8
934.594	7066.38
934.902	7007.85
935.21	6998.81
935.519	6987.97
935.827	6976.21
936.135	6895.31
936.443	6815.09
936.751	6874.52
937.059	6860.06
937.367	6755.43
937.674	6759.72
937.982	6751.36
938.29	6704.81
938.597	6700.97
938.905	6633.85
939.213	6611.48
939.52	6585.49
939.827	6576.68
940.135	6522.67
940.442	6497.81
940.749	6480.63
941.056	6497.81
941.363	6399.96
941.67	6376.46
941.977	6379.62
942.284	6290.58
942.591	6289.45
942.898	6309.79
943.205	6276.12
943.511	6225.73
943.818	6171.94
944.125	6096.92
944.431	6079.74
944.738	6126.97
945.044	6052.17
945.35	6061.66
945.657	6032.28
945.963	5978.28
946.269	5933.98
946.575	5986.41
946.881	5915.9
947.187	5884.49
947.493	5874.32
947.799	5848.79
948.105	5778.51
948.41	5769.92
948.716	5791.16
949.022	5692.86
949.327	5746.87
949.633	5642.46
949.938	5668
950.244	5601.11
950.549	5593.88
950.854	5601.34
951.16	5497.61
951.465	5545.29
951.77	5505.29
952.075	5475.92
952.38	5458.97
952.685	5467.55
952.99	5369.03
953.294	5373.55
953.599	5357.95
953.904	5336.48
954.209	5250.84
954.513	5291.74
954.818	5287.67
955.122	5277.05
955.426	5209.48
955.731	5172.42
956.035	5186.66
956.339	5137.85
956.643	5103.95
956.948	5074.8
957.252	5059.88
957.556	5072.54
957.86	5045.19
958.163	5062.14
958.467	4980.79
958.771	4990.96
959.075	4967.45
959.378	4904.4
959.682	4908.02
959.985	4901.47
960.289	4844.29
960.592	4835.03
960.896	4807.23
961.199	4788.7
961.502	4714.35
961.805	4741.02
962.108	4714.81
962.411	4661.02
962.714	4635.26
963.017	4665.32
963.32	4651.3
963.623	4586.22
963.926	4588.93
964.228	4589.38
964.531	4574.47
964.833	4561.14
965.136	4495.15
965.438	4491.99
965.741	4423.97
966.043	4465.77
966.345	4431.65
966.648	4394.36
966.95	4458.09
967.252	4360.69
967.554	4330.86
967.856	4355.04
968.158	4282.27
968.46	4280.24
968.761	4299.68
969.063	4270.07
969.365	4238.89
969.666	4190.75
969.968	4146.91
970.269	4172.22
970.571	4180.58
970.872	4149.4
971.174	4108.27
971.475	4095.39
971.776	4087.7
972.077	4050.64
972.378	4037.54
972.679	4046.8
972.98	4004.99
973.281	3980.59
973.582	3977.2
973.883	3943.75
974.183	3975.62
974.484	3960.47
974.785	3889.74
975.085	3871.89
975.386	3873.92
975.686	3838.9
975.986	3811.1
976.287	3820.37
976.587	3760.03
976.887	3833.25
977.187	3752.8
977.487	3778.11
977.787	3746.47
978.087	3731.1
978.387	3715.28
978.687	3678.22
978.987	3678.9
979.286	3610.43
979.586	3642.74
979.885	3596.19
980.185	3614.27
980.484	3543.99
980.784	3557.77
981.083	3555.06
981.382	3539.02
981.682	3506.48
981.981	3531.79
982.28	3504.22
982.579	3473.48
982.878	3498.34
983.177	3394.84
983.475	3410.43
983.774	3409.75
984.073	3391.45
984.372	3404.56
984.67	3343.54
984.969	3331.34
985.267	3331.34
985.566	3320.72
985.864	3288.85
986.162	3264.67
986.461	3282.98
986.759	3221.29
987.057	3240.72
987.355	3212.02
987.653	3214.28
987.951	3206.6
988.249	3180.61
988.547	3196.88
988.844	3144.23
989.142	3127.95
989.44	3128.86
989.737	3099.48
990.035	3085.24
990.332	3063.78
990.63	3049.09
990.927	3022.65
991.224	3042.76
991.521	3030.33
991.819	3028.97
992.116	3011.12
992.413	2975.64
992.71	2923.89
993.006	2922.54
993.303	2886.83
993.6	2886.15
993.897	2888.86
994.193	2903.55
994.49	2861.52
994.787	2814.97
995.083	2839.37
995.379	2838.7
995.676	2833.05
995.972	2780.17
996.268	2773.61
996.565	2779.72
996.861	2766.38
997.157	2724.58
997.453	2756.21
997.749	2719.15
998.044	2711.92
998.34	2762.31
998.636	2682.32
998.932	2644.8
999.227	2636.89
999.523	2666.05
999.818	2614.3
1000.114	2604.35
1000.409	2552.38
1000.704	2557.12
1001	2532.04
1001.295	2544.24
1001.59	2546.27
1001.885	2539.72
1002.18	2487.52
1002.475	2456.33
1002.77	2471.25
1003.065	2420.63
1003.359	2419.5
1003.654	2434.41
1003.949	2405.71
1004.243	2402.32
1004.538	2390.35
1004.832	2388.31
1005.127	2323.68
1005.421	2338.14
1005.715	2346.28
1006.009	2332.95
1006.304	2310.12
1006.598	2305.83
1006.892	2279.39
1007.186	2269.45
1007.48	2239.39
1007.773	2210.01
1008.067	2249.79
1008.361	2191.93
1008.655	2176.34
1008.948	2191.48
1009.242	2147.87
1009.535	2150.35
1009.829	2148.32
1010.122	2128.43
1010.415	2113.29
1010.708	2108.32
1011.001	2061.99
1011.295	2092.73
1011.588	2052.28
1011.881	2050.69
1012.173	2026.97
1012.466	2044.37
1012.759	1998.94
1013.052	1996.46
1013.344	1997.36
1013.637	1977.25
1013.93	1989.91
1014.222	1967.08
1014.514	1943.58
1014.807	1915.33
1015.099	1923.24
1015.391	1907.2
1015.683	1878.04
1015.976	1874.43
1016.268	1883.92
1016.56	1860.19
1016.851	1866.52
1017.143	1846.86
1017.435	1811.83
1017.727	1792.17
1018.018	1814.54
1018.31	1772.51
1018.602	1767.31
1018.893	1788.1
1019.185	1760.08
1019.476	1723.47
1019.767	1747.2
1020.058	1714.66
1020.35	1719.4
1020.641	1680.31
1020.932	1677.82
1021.223	1664.49
1021.514	1660.42
1021.804	1653.42
1022.095	1628.56
1022.386	1630.59
1022.677	1612.29
1022.967	1598.73
1023.258	1606.86
1023.548	1578.16
1023.839	1567.32
1024.129	1564.38
1024.419	1530.48
1024.709	1549.69
1025	1522.12
1025.29	1530.48
1025.58	1497.04
1025.87	1472.86
1026.16	1491.61
1026.449	1471.73
1026.739	1492.74
1027.029	1445.29
1027.319	1465.4
1027.608	1428.79
1027.898	1443.93
1028.187	1408.23
1028.477	1394.44
1028.766	1399.64
1029.055	1388.34
1029.344	1380.66
1029.634	1398.06
1029.923	1389.47
1030.212	1361
1030.501	1329.58
1030.79	1354.67
1031.078	1335.01
1031.367	1295.46
1031.656	1305.18
1031.945	1308.12
1032.233	1304.73
1032.522	1261.79
1032.81	1261.34
1033.099	1244.16
1033.387	1253.88
1033.675	1249.59
1033.963	1241.22
1034.251	1222.47
1034.54	1200.1
1034.828	1222.92
1035.116	1194.9
1035.403	1193.54
1035.691	1163.94
1035.979	1185.18
1036.267	1158.97
1036.554	1186.54
1036.842	1128.23
1037.129	1123.04
1037.417	1136.37
1037.704	1140.44
1037.992	1109.7
1038.279	1088.01
1038.566	1097.95
1038.853	1097.95
1039.14	1097.95
