Data from white_wall_FLMS001491_080.txt Node
Date: Tue Feb 07 11:05:46 GMT 2017
User: dcchb
Spectrometer: FLMS00149
Trigger mode: 0
Integration Time (sec): 2.000000E-2
Scans to average: 10
Electric dark correction enabled: true
Nonlinearity correction enabled: false
Boxcar width: 0
XAxis mode: Wavelengths
Number of Pixels in Spectrum: 2048
>>>>>Begin Spectral Data<<<<<
341.393	-2.87
341.776	-2.87
342.16	-2.87
342.543	-53.94
342.927	-75.18
343.31	-62.3
343.693	-80.15
344.077	-65.92
344.46	-65.69
344.843	-51.68
345.226	-55.07
345.61	-46.03
345.993	-23.66
346.376	-15.3
346.759	21.99
347.142	47.53
347.525	28.54
347.908	60.18
348.291	106.73
348.674	100.63
349.057	100.18
349.44	132.5
349.823	111.48
350.206	176.79
350.588	203.23
350.971	226.05
351.354	237.58
351.737	267.41
352.119	268.09
352.502	276.9
352.884	275.54
353.267	298.37
353.65	300.18
354.032	308.99
354.414	315.99
354.797	342.21
355.179	334.75
355.562	342.89
355.944	325.49
356.326	325.71
356.709	356.67
357.091	358.71
357.473	363.22
357.855	359.38
358.238	352.15
358.62	375.88
359.002	362.32
359.384	343.34
359.766	358.71
360.148	353.06
360.53	360.29
360.912	343.11
361.294	355.32
361.676	347.63
362.057	351.47
362.439	351.25
362.821	362.55
363.203	344.92
363.584	335.88
363.966	336.11
364.348	328.2
364.729	338.14
365.111	345.15
365.493	346.5
365.874	314.64
366.256	356.67
366.637	326.62
367.019	315.54
367.4	321.19
367.781	326.16
368.163	362.09
368.544	343.34
368.925	330.68
369.306	340.17
369.688	337.69
370.069	327.75
370.45	323
370.831	328.2
371.212	352.15
371.593	338.37
371.974	349.44
372.355	327.52
372.736	320.97
373.117	348.54
373.498	350.8
373.879	333.85
374.26	344.02
374.641	343.79
375.021	348.08
375.402	355.32
375.783	327.97
376.163	357.12
376.544	355.77
376.925	352.15
377.305	357.12
377.686	352.83
378.066	355.09
378.447	347.41
378.827	365.71
379.208	355.32
379.588	364.35
379.968	364.35
380.349	367.52
380.729	369.1
381.109	379.95
381.489	371.59
381.87	372.72
382.25	386.73
382.63	376.56
383.01	382.21
383.39	370
383.77	382.43
384.15	386.05
384.53	372.94
384.91	380.63
385.29	387.18
385.67	414.52
386.049	413.39
386.429	403.9
386.809	404.35
387.189	387.18
387.568	408.42
387.948	420.17
388.328	425.82
388.707	436.67
389.087	419.72
389.466	424.24
389.846	442.54
390.225	449.78
390.605	440.74
390.984	445.26
391.363	454.75
391.743	458.82
392.122	474.18
392.501	459.49
392.881	477.57
393.26	508.98
393.639	478.93
394.018	483.22
394.397	494.75
394.776	490
395.155	494.29
395.534	512.6
395.913	521.64
396.292	539.72
396.671	519.15
397.05	552.15
397.429	555.54
397.808	567.97
398.186	573.16
398.565	572.03
398.944	585.14
399.323	605.7
399.701	588.53
400.08	607.96
400.458	636.89
400.837	647.51
401.215	655.65
401.594	645.93
401.972	678.47
402.351	672.82
402.729	697.23
403.107	682.31
403.486	701.75
403.864	712.14
404.242	707.4
404.62	744.68
404.999	775.87
405.377	774.97
405.755	783.33
406.133	772.93
406.511	798.02
406.889	842.31
407.267	844.34
407.645	851.57
408.023	873.95
408.401	856.77
408.779	889.54
409.156	912.81
409.534	891.57
409.912	924.79
410.29	969.76
410.667	984.9
411.045	973.83
411.422	996.43
411.8	1019.7
412.178	1028.29
412.555	1056.09
412.933	1054.96
413.31	1086.6
413.687	1083.66
414.065	1111.23
414.442	1102.19
414.819	1151.68
415.197	1129.31
415.574	1181.06
415.951	1142.41
416.328	1202.3
416.705	1230.55
417.082	1221.73
417.46	1234.39
417.837	1241.17
418.214	1253.82
418.591	1265.57
418.967	1282.07
419.344	1315.52
419.721	1332.46
420.098	1324.78
420.475	1355.29
420.852	1364.1
421.228	1358.23
421.605	1394.38
421.982	1404.78
422.358	1398.68
422.735	1461.5
423.111	1447.49
423.488	1468.05
423.864	1466.92
424.241	1500.82
424.617	1512.12
424.994	1514.83
425.37	1570.88
425.746	1542.18
426.123	1587.15
426.499	1550.76
426.875	1602.29
427.251	1639.12
427.627	1685.68
428.003	1689.52
428.379	1706.01
428.756	1731.1
429.132	1743.75
429.507	1790.31
429.883	1800.48
430.259	1845.9
430.635	1829.85
431.011	1851.1
431.387	1920.25
431.763	1890.87
432.138	1944.43
432.514	1940.81
432.89	2005.67
433.265	2038.44
433.641	2042.95
434.016	2072.11
434.392	2113.46
434.767	2133.57
435.143	2140.58
435.518	2177.19
435.894	2195.95
436.269	2255.38
436.644	2246.34
437.02	2302.61
437.395	2297.41
437.77	2338.77
438.145	2355.94
438.52	2386
438.895	2386.67
439.271	2421.7
439.646	2497.86
440.021	2508.48
440.395	2512.32
440.77	2477.52
441.145	2532.89
441.52	2544.64
441.895	2550.96
442.27	2559.1
442.645	2625.09
443.019	2646.55
443.394	2660.57
443.769	2649.04
444.143	2642.71
444.518	2722.71
444.892	2704.18
445.267	2766.55
445.641	2819.88
446.016	2779.88
446.39	2853.78
446.764	2838.87
447.139	2860.11
447.513	2874.35
447.887	2878.41
448.262	2897.4
448.636	2894.68
449.01	2992.99
449.384	3021.91
449.758	3025.75
450.132	3058.3
450.506	3094.68
450.88	3117.28
451.254	3123.38
451.628	3164.51
452.002	3209.48
452.376	3238.18
452.75	3279.31
453.123	3302.13
453.497	3374.45
453.871	3345.52
454.244	3495.8
454.618	3454.44
454.992	3544.38
455.365	3523.82
455.739	3612.86
456.112	3640.43
456.486	3675.23
456.859	3702.57
457.232	3814.43
457.606	3811.72
457.979	3850.36
458.352	3925.17
458.725	3990.47
459.099	3984.37
459.472	4099.4
459.845	4118.15
460.218	4145.95
460.591	4205.16
460.964	4199.73
461.337	4297.36
461.71	4364.48
462.083	4440.86
462.456	4438.6
462.829	4454.64
463.201	4584.81
463.574	4584.36
463.947	4704.35
464.32	4791.58
464.692	4768.76
465.065	4830.45
465.438	4880.85
465.81	4951.8
466.183	5048.07
466.555	5224.34
466.928	5192.93
467.3	5178.92
467.672	5294.62
468.045	5443.77
468.417	5420.72
468.789	5523.54
469.161	5563.54
469.534	5670.88
469.906	5785
470.278	5794.04
470.65	5849.63
471.022	6013.7
471.394	6142.96
471.766	6156.52
472.138	6252.79
472.51	6381.6
472.882	6531.88
473.253	6575.72
473.625	6683.96
473.997	6762.38
474.369	6870.17
474.74	6983.39
475.112	7058.64
475.484	7236.72
475.855	7327.56
476.227	7395.58
476.598	7620.21
476.97	7702.69
477.341	7867.43
477.713	7944.49
478.084	8030.82
478.455	8285.95
478.827	8320.53
479.198	8573.86
479.569	8549
479.94	8892.49
480.311	8940.85
480.682	9092.71
481.053	9381.74
481.424	9447.73
481.795	9540.61
482.166	9763.88
482.537	9896.99
482.908	10066.47
483.279	10168.16
483.65	10379.46
484.021	10634.59
484.391	10708.72
484.762	10737.64
485.133	10925.43
485.503	11131.53
485.874	11323.39
486.244	11468.24
486.615	11711.4
486.985	11851.51
487.356	12018.96
487.726	12189.58
488.097	12411.27
488.467	12431.38
488.837	12707.08
489.207	12953.18
489.578	13091.48
489.948	13199.27
490.318	13368.08
490.688	13484.01
491.058	13716.55
491.428	13859.82
491.798	13989.53
492.168	14271.79
492.538	14346.36
492.908	14491.67
493.278	14742.51
493.648	14774.6
494.017	14999.45
494.387	15095.72
494.757	15202.38
495.126	15394.24
495.496	15477.86
495.866	15607.34
496.235	15810.05
496.605	15937.05
496.974	15997.39
497.344	16391.96
497.713	16359.64
498.082	16497.72
498.452	16636.47
498.821	16743.81
499.19	16839.18
499.559	17111.94
499.928	17145.16
500.298	17189.45
500.667	17372.5
501.036	17502.44
501.405	17654.97
501.774	17711.47
502.143	17894.52
502.512	18007.51
502.88	18266.93
503.249	18218.57
503.618	18456.76
503.987	18503.09
504.356	18627.38
504.724	18781.5
505.093	18922.96
505.462	18957.09
505.83	19169.74
506.199	19320.24
506.567	19634.36
506.936	19599.56
507.304	19830.28
507.672	19902.82
508.041	19991.41
508.409	20216.94
508.777	20393.88
509.145	20505.07
509.514	20598.4
509.882	20653.09
510.25	20784.38
510.618	21129.91
510.986	21147.09
511.354	21355.89
511.722	21505.49
512.09	21711.36
512.458	21752.94
512.826	21906.16
513.193	22121.97
513.561	22175.98
513.929	22343.44
514.297	22666.59
514.664	22880.15
515.032	22840.15
515.4	23097.09
515.767	23097.77
516.135	23402.85
516.502	23199.23
516.869	23704.08
517.237	23836.51
517.604	23801.93
517.972	24118.08
518.339	24371.86
518.706	24332.09
519.073	24461.8
519.44	24692.08
519.808	25005.51
520.175	24867.44
520.542	25276.02
520.909	25467.2
521.276	25469.46
521.643	25802.78
522.009	25971.14
522.376	26224.92
522.743	26403.44
523.11	26635.75
523.477	26957.78
523.843	27021.96
524.21	27268.96
524.577	27548.72
524.943	27512.79
525.31	27756.85
525.676	28090.86
526.043	28152.55
526.409	28202.49
526.776	28717.51
527.142	28664.4
527.508	28803.61
527.874	29154.56
528.241	29322.01
528.607	29433.42
528.973	29690.36
529.339	29835.22
529.705	30016.68
530.071	30182.78
530.437	30240.41
530.803	30519.95
531.169	30616.89
531.535	30715.87
531.901	30892.59
532.267	31039.71
532.632	31307.5
532.998	31434.72
533.364	31566.92
533.73	31754.04
534.095	31942.51
534.461	31962.17
534.826	32178.43
535.192	32314.48
535.557	32587.24
535.923	32499.1
536.288	32690.28
536.653	32871.75
537.019	32786.78
537.384	32963.5
537.749	33180.89
538.114	33307.44
538.479	33279.42
538.845	33621.11
539.21	33496.37
539.575	33717.6
539.94	33826.3
540.305	33923.02
540.67	34001.44
541.034	34150.81
541.399	34451.37
541.764	34307.87
542.129	34629.89
542.494	34652.49
542.858	34815.88
543.223	35012.94
543.587	35212.25
543.952	35118.47
544.316	35487.27
544.681	35360.72
545.045	35574.5
545.41	35845.68
545.774	35860.82
546.138	35775.4
546.503	35974.72
546.867	36127.93
547.231	36550.07
547.595	36565.66
547.959	36719.11
548.324	36943.73
548.688	36837.07
549.052	36976.73
549.416	37115.48
549.779	37417.84
550.143	37262.37
550.507	37590.49
550.871	37850.37
551.235	37851.96
551.599	38205.85
551.962	38298.95
552.326	38350.02
552.689	38439.96
553.053	38446.07
553.417	38659.39
553.78	39113.39
554.143	39061.87
554.507	39291.47
554.87	39341.41
555.234	39836.76
555.597	39592.48
555.96	39832.24
556.323	40036.98
556.686	40129.41
557.05	40503.86
557.413	40522.85
557.776	40682.39
558.139	41001.48
558.502	41066.56
558.865	41231.98
559.228	41534.12
559.59	41579.32
559.953	41747.45
560.316	42158.06
560.679	42126.87
561.041	42476.02
561.404	42589.01
561.767	42833.29
562.129	42763.92
562.492	43244.81
562.854	43178.82
563.217	43221.76
563.579	43517.57
563.941	43801.86
564.304	43837.56
564.666	44223.99
565.028	44219.47
565.39	44395.29
565.753	44690.65
566.115	44653.81
566.477	44863.07
566.839	44972
567.201	45256.96
567.563	45355.49
567.925	45626.67
568.287	45553.45
568.648	45742.82
569.01	45902.59
569.372	46269.81
569.734	46197.73
570.095	46441.79
570.457	46486.98
570.819	46540.99
571.18	46730.59
571.542	46960.87
571.903	46988.44
572.265	47130.36
572.626	47262.56
572.987	47362.89
573.349	47427.98
573.71	47655.54
574.071	47685.14
574.432	47804.46
574.794	48057.34
575.155	48089.88
575.516	47889.21
575.877	48041.07
576.238	48270.89
576.599	48405.58
576.96	48347.5
577.32	48420.49
577.681	48591.11
578.042	48591.34
578.403	48556.76
578.763	48641.28
579.124	48711.56
579.485	48875.4
579.845	48935.28
580.206	48939.12
580.566	48866.81
580.927	48874.04
581.287	49075.16
581.648	48848.28
582.008	49139.12
582.368	49084.88
582.728	49093.47
583.089	49105.9
583.449	49086.01
583.809	49229.06
584.169	49294.37
584.529	49123.07
584.889	49432.44
585.249	49242.62
585.609	49178.66
585.969	49444.87
586.329	49253.24
586.688	49367.81
587.048	49235.84
587.408	49229.06
587.768	49323.29
588.127	49290.75
588.487	49224.09
588.846	49503.63
589.206	49213.24
589.565	49331.65
589.925	49425.44
590.284	49312.9
590.643	49411.88
591.003	49498.2
591.362	49601.25
591.721	49501.14
592.08	49445.55
592.44	49546.79
592.799	49624.08
593.158	49429.05
593.517	49573.46
593.876	49575.94
594.235	49512.67
594.593	49604.42
594.952	49673.11
595.311	49481.48
595.67	49629.73
596.029	49773.9
596.387	49802.6
596.746	49898.42
597.104	49646
597.463	49664.3
597.822	49828.36
598.18	49820
598.538	49766.67
598.897	49874.92
599.255	49685.09
599.613	50186.1
599.972	49898.19
600.33	50081.69
600.688	49904.3
601.046	49951.07
601.404	50245.98
601.762	50020.22
602.12	50253.66
602.478	50199.65
602.836	50240.56
603.194	50102.71
603.552	50160.56
603.91	50130.28
604.268	50233.55
604.625	50127.79
604.983	50289.37
605.341	50078.75
605.698	50330.5
606.056	50372.53
606.413	50414.34
606.771	50533.43
607.128	50549.93
607.485	50350.39
607.843	50412.98
608.2	50682.81
608.557	50693.65
608.914	50605.29
609.272	50726.19
609.629	50787.21
609.986	50935.91
610.343	50706.76
610.7	50975.68
611.057	51007.54
611.414	50892.52
611.771	50958.28
612.127	51150.14
612.484	50986.07
612.841	51065.85
613.198	51047.99
613.554	51146.97
613.911	51332.51
614.267	51254.54
614.624	51238.95
614.98	51277.14
615.337	51369.79
615.693	51301.55
616.05	51344.71
616.406	51580.86
616.762	51428.55
617.118	51441.43
617.475	51463.58
617.831	51578.15
618.187	51555.33
618.543	51582.9
618.899	51719.61
619.255	51744.7
619.611	51762.1
619.967	51862.44
620.323	51892.94
620.678	51740.63
621.034	51638.49
621.39	51720.29
621.746	51696.34
622.101	52006.84
622.457	51839.39
622.812	51802.32
623.168	51870.35
623.523	51890.01
623.879	52030.11
624.234	51730.24
624.589	51894.75
624.945	51892.94
625.3	51885.49
625.655	51917.8
626.01	51958.03
626.365	51993.28
626.72	51761.42
627.075	51852.27
627.43	51829.44
627.785	51806.62
628.14	51890.23
628.495	51915.77
628.85	51848.88
629.205	51666.96
629.559	51924.13
629.914	51738.37
630.269	51728.2
630.623	51665.83
630.978	51648.88
631.332	51715.32
631.687	51801.65
632.041	51727.52
632.396	51658.6
632.75	51602.56
633.104	51594.87
633.459	51437.36
633.813	51474.88
634.167	51467.42
634.521	51510.58
634.875	51416.57
635.229	51322.34
635.583	51205.05
635.937	51245.73
636.291	51238.05
636.645	51212.51
636.999	51122.79
637.352	51269.91
637.706	50929.13
638.06	51058.84
638.413	51111.27
638.767	50978.62
639.121	51039.41
639.474	50878.96
639.828	50831.28
640.181	50882.57
640.534	50982.01
640.888	50743.82
641.241	50538.63
641.594	50586.54
641.947	50692.52
642.301	50529.36
642.654	50675.35
643.007	50702.01
643.36	50545.18
643.713	50394.23
644.066	50618.17
644.419	50409.82
644.771	50134.35
645.124	49805.99
645.477	49772.32
645.83	49615.72
646.182	49389.51
646.535	49327.36
646.888	49464.53
647.24	49153.58
647.593	49310.41
647.945	49310.86
648.298	49098.89
648.65	49125.78
649.002	48907.71
649.355	49033.36
649.707	48982.51
650.059	49175.95
650.411	49618.43
650.763	49712.21
651.115	50062.94
651.467	49786.78
651.819	49820.46
652.171	49728.25
652.523	49650.29
652.875	49635.83
653.227	49564.64
653.578	49669.5
653.93	49658.65
654.282	49434.03
654.633	49375.72
654.985	49388.15
655.337	49473.35
655.688	49441.03
656.039	49499.79
656.391	49149.29
656.742	49239
657.094	49272.9
657.445	49439.67
657.796	49294.82
658.147	49218.44
658.498	49157.42
658.849	49327.36
659.2	49170.98
659.551	49137.08
659.902	49225.67
660.253	49047.37
660.604	49096.86
660.955	48892.8
661.306	49112.68
661.656	48921.5
662.007	48795.17
662.358	48822.74
662.708	48916.52
663.059	48883.76
663.409	48700.94
663.76	48863.42
664.11	48910.87
664.461	48980.93
664.811	48825
665.161	48767.83
665.511	48609.19
665.862	48605.12
666.212	48910.65
666.562	48857.09
666.912	48707.49
667.262	48688.06
667.612	48665.46
667.962	48813.93
668.312	48568.29
668.662	48738.45
669.011	48682.41
669.361	48618
669.711	48673.59
670.06	48569.87
670.41	48469.76
670.76	48475.18
671.109	48609.19
671.459	48512.02
671.808	48319.7
672.157	48497.1
672.507	48126.71
672.856	48357.44
673.205	48258.46
673.554	48320.83
673.904	48199.93
674.253	48418.91
674.602	48225.92
674.951	47638.82
675.3	47467.75
675.649	48021.18
675.998	47951.35
676.346	48028.86
676.695	48112.25
677.044	47775.99
677.393	47949.32
677.741	48009.66
678.09	47873.16
678.438	47687.4
678.787	47788.64
679.135	47826.84
679.484	47571.7
679.832	47648.54
680.181	47463.46
680.529	47596.33
680.877	47371.93
681.225	47536.22
681.573	47605.37
681.922	47258.49
682.27	47172.16
682.618	47044.94
682.966	47124.48
683.314	47133.29
683.661	46897.14
684.009	46729.01
684.357	46650.82
684.705	46595
685.053	46617.15
685.4	46509.58
685.748	46270.94
686.095	46376.03
686.443	46236.59
686.79	46107.11
687.138	46191.85
687.485	46107.78
687.832	46041.35
688.18	46092.64
688.527	45801.8
688.874	45862.37
689.221	45732.65
689.568	45677.06
689.915	45489.72
690.262	45441.59
690.609	45281.82
690.956	45185.32
691.303	45152.78
691.65	44978.77
691.997	45034.59
692.344	44781.49
692.69	44732.68
693.037	44691.55
693.383	44326.14
693.73	44643.64
694.077	44384.44
694.423	44376.53
694.769	44241.85
695.116	44090.21
695.462	44048.86
695.808	43866.71
696.155	43882.76
696.501	43552.37
696.847	43691.35
697.193	43422.21
697.539	43443.67
697.885	43106.73
698.231	43083.01
698.577	42918.94
698.923	43064.25
699.269	42877.81
699.614	42597.14
699.96	42651.38
700.306	42580.42
700.651	42180.66
700.997	42225.63
701.342	42125.97
701.688	42152.86
702.033	41972.07
702.379	41957.39
702.724	41693.44
703.069	41924.39
703.415	41397.85
703.76	41447.57
704.105	41387.23
704.45	41269.04
704.795	41159.21
705.14	41055.94
705.485	40980.91
705.83	40803.29
706.175	40790.86
706.52	40641.71
706.865	40568.5
707.209	40512.9
707.554	40360.82
707.899	40495.28
708.243	40234.72
708.588	40234.94
708.932	40040.37
709.277	40001.5
709.621	39993.6
709.966	39766.26
710.31	39836.09
710.654	39562.65
710.998	39533.04
711.342	39666.82
711.687	39411.69
712.031	39390.22
712.375	39147.52
712.719	39238.81
713.063	39158.14
713.407	39274.29
713.75	38991.81
714.094	38974.64
714.438	38901.42
714.782	38850.12
715.125	38673.63
715.469	38649
715.812	38662.78
716.156	38221.66
716.499	38280.87
716.843	38306.86
717.186	38197.03
717.53	38384.37
717.873	38296.01
718.216	38226.64
718.559	37973.76
718.902	37724.5
719.246	37832.75
719.589	37755.91
719.932	37486.09
720.275	37415.36
720.617	37574.45
720.96	37517.05
721.303	37429.82
721.646	37366.77
721.989	37254.68
722.331	37244.97
722.674	37200
723.016	37127.46
723.359	37133.78
723.701	37134.01
724.044	36962.04
724.386	36862.6
724.729	36987.35
725.071	36967.69
725.413	36694.7
725.755	36886.56
726.097	36544.87
726.439	36480.24
726.782	36374.48
727.124	36442.95
727.465	36308.49
727.807	36230.3
728.149	36301.71
728.491	36204.09
728.833	36314.6
729.175	36135.39
729.516	36009.29
729.858	35992.8
730.199	36002.29
730.541	36016.07
730.882	35783.54
731.224	35805.68
731.565	35649.75
731.906	35668.74
732.248	35551.9
732.589	35472.81
732.93	35467.84
733.271	35382.64
733.612	35485.47
733.953	35418.57
734.294	35398.46
734.635	35160.5
734.976	35224
735.317	34979.04
735.658	34964.35
735.999	34970
736.339	34924.58
736.68	34951.92
737.021	34931.13
737.361	34647.75
737.702	34844.13
738.042	34812.71
738.383	34618.37
738.723	34767.52
739.063	34472.61
739.404	34551.48
739.744	34474.42
740.084	34326.17
740.424	34376.79
740.764	34331.15
741.104	34288.43
741.444	34243.24
741.784	34106.74
742.124	34198.49
742.464	34034.66
742.804	34153.3
743.143	34107.2
743.483	34010.48
743.823	33741.78
744.162	33864.26
744.502	33734.32
744.841	33614.78
745.181	33776.58
745.52	33610.94
745.86	33760.54
746.199	33677.6
746.538	33490.04
746.877	33522.35
747.216	33399.64
747.556	33449.13
747.895	33300.66
748.234	33136.83
748.573	33134.79
748.911	33344.05
749.25	32975.7
749.589	32916.72
749.928	32938.64
750.267	32931.63
750.605	32829.94
750.944	32706.33
751.283	32491.19
751.621	32634.01
751.96	32510.4
752.298	32559.67
752.636	32455.71
752.975	32420.46
753.313	32200.13
753.651	32318.32
753.989	32017.53
754.327	32049.4
754.666	31950.87
755.004	31932.56
755.342	32053.69
755.679	31857.99
756.017	31663.19
756.355	31766.02
756.693	31651.89
757.031	31656.87
757.368	31504.33
757.706	31438.57
758.044	31225.01
758.381	31177.56
758.719	31162.42
759.056	31232.92
759.394	30993.38
759.731	30928.75
760.068	30919.26
760.405	30748.64
760.743	30606.5
761.08	30722.88
761.417	30507.52
761.754	30452.38
762.091	30354.07
762.428	30196.34
762.765	30134.19
763.102	30117.92
763.438	29824.37
763.775	29789.34
764.112	29873.64
764.449	29905.72
764.785	29700.53
765.122	29361.11
765.458	29489.69
765.795	29329.47
766.131	29353.42
766.467	29250.6
766.804	29126.31
767.14	28916.37
767.476	29007.22
767.812	28880.89
768.148	28852.65
768.485	28709.6
768.821	28580.34
769.157	28385.31
769.492	28346.44
769.828	28214.24
770.164	28093.34
770.5	28015.38
770.836	27964.08
771.171	27825.33
771.507	27750.08
771.842	27621.94
772.178	27561.15
772.513	27526.13
772.849	27366.36
773.184	27216.53
773.519	27187.6
773.855	27121.62
774.19	27004.33
774.525	26909.65
774.86	26851.57
775.195	26792.59
775.53	26696.32
775.865	26561.86
776.2	26477.57
776.535	26305.37
776.87	26283.9
777.205	26123.68
777.539	25988.09
777.874	26055.2
778.209	25700.86
778.543	25678.04
778.878	25589.45
779.212	25636.01
779.547	25384.94
779.881	25543.58
780.215	25309.46
780.55	25409.8
780.884	25172.29
781.218	25149.92
781.552	25088.9
781.886	24985.18
782.22	24831.73
782.554	24723.26
782.888	24390.39
783.222	24438.3
783.556	24329.37
783.889	24404.4
784.223	24043.73
784.557	24168.02
784.89	24086.22
785.224	23947.01
785.557	23831.53
785.891	23794.7
786.224	23735.72
786.558	23712.67
786.891	23438.32
787.224	23387.25
787.557	23331.21
787.891	23381.15
788.224	23231.78
788.557	23238.33
788.89	23116.3
789.223	23047.15
789.556	22833.37
789.888	22929.64
790.221	22775.97
790.554	22656.88
790.887	22587.27
791.219	22505.24
791.552	22435.19
791.884	22286.49
792.217	22321.29
792.549	22221.41
792.882	22055.31
793.214	21975.09
793.546	21978.48
793.879	21773.96
794.211	21682.44
794.543	21751.82
794.875	21645.15
795.207	21700.07
795.539	21509.56
795.871	21497.13
796.203	21423.24
796.535	21366.97
796.867	21218.5
797.198	21118.61
797.53	21239.74
797.862	21061.44
798.193	20954.32
798.525	20912.06
798.856	20915.9
799.188	20682.69
799.519	20657.61
799.85	20592.98
800.182	20552.98
800.513	20614.22
800.844	20381.23
801.175	20491.06
801.506	20486.99
801.837	20279.09
802.168	20124.74
802.499	20132.42
802.83	20032.54
803.161	19969.04
803.491	19868.7
803.822	19973.56
804.153	19803.17
804.483	19638.42
804.814	19700.57
805.145	19563.17
805.475	19407.7
805.805	19550.74
806.136	19480.69
806.466	19485.66
806.796	19348.26
807.126	19328.15
807.457	19221.26
807.787	19236.63
808.117	19118.44
808.447	19112.34
808.777	19141.49
809.107	18998.89
809.436	18917.77
809.766	18905.56
810.096	18963.87
810.426	18882.51
810.755	18902.85
811.085	18662.86
811.414	18607.94
811.744	18570.2
812.073	18551
812.403	18507.15
812.732	18459.92
813.061	18387.16
813.39	18294.96
813.719	18216.77
814.049	18307.39
814.378	18209.99
814.707	18155.53
815.036	18190.78
815.365	18073.72
815.693	17859.94
816.022	17907.62
816.351	17865.14
816.68	17755.31
817.008	17759.15
817.337	17609.33
817.665	17614.07
817.994	17698.59
818.322	17694.52
818.651	17572.72
818.979	17449.56
819.307	17567.29
819.636	17462.21
819.964	17285.49
820.292	17381.08
820.62	17327.3
820.948	17332.04
821.276	17417.69
821.604	17249.33
821.932	17331.37
822.259	17378.14
822.587	17289.33
822.915	17294.08
823.243	17340.41
823.57	17306.96
823.898	17220.63
824.225	17209.34
824.553	17165.72
824.88	17226.96
825.207	17231.71
825.535	17189.45
825.862	17180.41
826.189	17187.42
826.516	17274.42
826.843	17313.29
827.17	17234.42
827.497	17223.57
827.824	17198.49
828.151	17286.4
828.478	17254.31
828.805	17167.75
829.131	17198.94
829.458	17201.65
829.785	17094.99
830.111	17175.89
830.438	17190.35
830.764	17183.35
831.09	17134.76
831.417	17045.5
831.743	17085.95
832.069	17140.86
832.395	17046.63
832.722	17143.35
833.048	16973.18
833.374	17029.68
833.7	16910.81
834.026	17058.61
834.351	17012.05
834.677	16957.59
835.003	16899.51
835.329	16965.05
835.654	16935.22
835.98	16823.13
836.306	16928.67
836.631	16886.63
836.956	16910.81
837.282	16787.88
837.607	16733.19
837.932	16724.38
838.258	16692.51
838.583	16676.02
838.908	16659.75
839.233	16635.34
839.558	16528.68
839.883	16558.28
840.208	16544.27
840.533	16573.42
840.858	16459.98
841.182	16480.54
841.507	16413.2
841.832	16379.98
842.156	16234.22
842.481	16265.86
842.805	16297.72
843.13	16259.08
843.454	16106.99
843.778	16135.47
844.103	16121.23
844.427	16121.45
844.751	16050.5
845.075	15932.08
845.399	15992.42
845.723	15866.09
846.047	15941.8
846.371	15794.68
846.695	15815.7
847.019	15672.65
847.343	15629.72
847.666	15535.93
847.99	15420
848.313	15491.19
848.637	15316.5
848.96	15286.45
849.284	15256.17
849.607	15154.47
849.931	15059.56
850.254	14968.26
850.577	14943.18
850.9	14879.23
851.223	14769.4
851.546	14651.44
851.869	14622.96
852.192	14701.83
852.515	14506.13
852.838	14501.84
853.161	14529.63
853.483	14473.14
853.806	14333.93
854.129	14386.81
854.451	14271.79
854.774	14200.38
855.096	14153.37
855.419	14183.88
855.741	14112.92
856.063	14011.23
856.385	14000.61
856.708	14022.53
857.03	13923.77
857.352	13947.73
857.674	13874.73
857.996	13823.89
858.318	13727.62
858.64	13781.63
858.961	13775.98
859.283	13627.06
859.605	13514.52
859.926	13571.69
860.248	13517.46
860.57	13505.7
860.891	13510.45
861.212	13476.78
861.534	13324.69
861.855	13359.49
862.176	13381.19
862.498	13319.72
862.819	13294.86
863.14	13265.03
863.461	13228.42
863.782	13185.26
864.103	13157.01
864.424	13121.53
864.745	13181.19
865.065	13060.07
865.386	13013.51
865.707	12935.32
866.027	13017.58
866.348	12894.42
866.668	12989.11
866.989	12892.84
867.309	12927.87
867.63	12941.88
867.95	12889
868.27	12863.01
868.59	12865.95
868.91	12835.44
869.23	12843.8
869.55	12741.43
869.87	12829.11
870.19	12726.52
870.51	12780.3
870.83	12700.08
871.15	12565.16
871.469	12614.2
871.789	12600.42
872.109	12547.76
872.428	12469.8
872.748	12559.74
873.067	12500.08
873.386	12516.58
873.706	12525.39
874.025	12453.53
874.344	12384.83
874.663	12437.94
874.982	12407.65
875.301	12413.98
875.62	12404.72
875.939	12336.7
876.258	12376.02
876.577	12280.65
876.896	12292.63
877.214	12197.49
877.533	12288.11
877.852	12179.41
878.17	12259.64
878.489	12246.3
878.807	12166.76
879.125	12182.58
879.444	12154.55
879.762	12066.19
880.08	12135.57
880.398	11968.8
880.716	12097.83
881.034	11955.91
881.352	12019.42
881.67	11912.75
881.988	11913.2
882.306	11825.07
882.624	11799.76
882.941	11837.5
883.259	11822.58
883.577	11783.94
883.894	11765.86
884.212	11718.63
884.529	11667.79
884.846	11677.73
885.164	11621.23
885.481	11561.12
885.798	11611.06
886.115	11516.83
886.432	11505.3
886.75	11509.15
887.067	11464.18
887.383	11447.91
887.7	11473.67
888.017	11375.36
888.334	11368.81
888.651	11368.13
888.967	11256.95
889.284	11251.75
889.6	11285.65
889.917	11166.1
890.233	11166.56
890.55	11090.85
890.866	11143.51
891.182	11080.01
891.498	11050.18
891.815	10976.51
892.131	10995.71
892.447	10943.06
892.763	10940.12
893.079	10864.87
893.395	10818.54
893.71	10814.02
894.026	10803.63
894.342	10767.7
894.657	10642.73
894.973	10669.85
895.289	10666.91
895.604	10636.85
895.92	10623.97
896.235	10491.55
896.55	10497.2
896.865	10488.83
897.181	10443.41
897.496	10486.12
897.811	10372.68
898.126	10366.13
898.441	10286.81
898.756	10292.91
899.071	10199.35
899.386	10217.2
899.7	10128.84
900.015	10005.01
900.33	10080.94
900.644	10045
900.959	9995.51
901.273	9982.86
901.588	9942.41
901.902	9857.89
902.216	9881.39
902.531	9828.06
902.845	9727.95
903.159	9749.42
903.473	9691.57
903.787	9684.34
904.101	9593.72
904.415	9610.89
904.729	9583.1
905.042	9535.19
905.356	9540.16
905.67	9417
905.984	9432.59
906.297	9481.86
906.611	9385.59
906.924	9344.01
907.237	9284.12
907.551	9290.45
907.864	9200.28
908.177	9218.36
908.491	9126.16
908.804	9109.21
909.117	9125.03
909.43	8967.97
909.743	8945.6
910.056	8963.9
910.368	8894.3
910.681	8882.77
910.994	8907.63
911.307	8863.34
911.619	8733.85
911.932	8849.78
912.244	8670.35
912.557	8680.75
912.869	8646.62
913.181	8625.83
913.494	8588.09
913.806	8502.45
914.118	8427.65
914.43	8543.8
914.742	8439.17
915.054	8400.08
915.366	8369.34
915.678	8329.57
915.99	8307.87
916.302	8210.02
916.613	8194.66
916.925	8128.44
917.236	8171.16
917.548	8078.95
917.859	8093.64
918.171	8032.18
918.482	8040.31
918.794	7944.27
919.105	7953.76
919.416	7909.24
919.727	7934.1
920.038	7840.09
920.349	7755.35
920.66	7730.94
920.971	7744.73
921.282	7764.84
921.593	7647.33
921.903	7628.34
922.214	7587.67
922.525	7509.7
922.835	7505.86
923.146	7520.1
923.456	7439.2
923.767	7474.22
924.077	7420.89
924.387	7352.65
924.697	7320.56
925.008	7385.87
925.318	7290.5
925.628	7224.51
925.938	7247.56
926.248	7094.12
926.558	7189.71
926.867	7164.85
927.177	7070.85
927.487	7049.6
927.796	7023.61
928.106	7024.07
928.416	7016.38
928.725	6998.08
929.034	6900.23
929.344	6894.13
929.653	6869.04
929.962	6827.69
930.271	6839.21
930.581	6783.62
930.89	6713.79
931.199	6716.5
931.508	6662.95
931.817	6685.77
932.125	6626.11
932.434	6623.4
932.743	6556.73
933.051	6569.62
933.36	6489.39
933.669	6512.44
933.977	6505.89
934.286	6441.03
934.594	6399.68
934.902	6368.49
935.21	6268.61
935.519	6286.23
935.827	6206.46
936.135	6224.31
936.443	6205.78
936.751	6214.82
937.059	6201.26
937.367	6148.61
937.674	6175.73
937.982	6144.77
938.29	6049.18
938.597	6046.92
938.905	5987.71
939.213	5964.89
939.52	5942.74
939.827	5941.61
940.135	5902.51
940.442	5862.06
940.749	5890.54
941.056	5861.16
941.363	5801.27
941.67	5785.68
941.977	5785
942.284	5716.53
942.591	5686.93
942.898	5718.34
943.205	5683.09
943.511	5621.84
943.818	5650.09
944.125	5546.37
944.431	5617.32
944.738	5562.86
945.044	5475.63
945.35	5465.69
945.657	5482.64
945.963	5430.21
946.269	5398.12
946.575	5375.75
946.881	5349.53
947.187	5313.15
947.493	5314.73
947.799	5314.06
948.105	5294.17
948.41	5247.39
948.716	5221.85
949.022	5194.74
949.327	5207.84
949.633	5122.87
949.938	5131.24
950.244	5133.04
950.549	5078.81
950.854	5063.67
951.16	5037.68
951.465	5011.01
951.77	4995.87
952.075	4978.24
952.38	4914.52
952.685	4940.28
952.99	4878.36
953.294	4865.25
953.599	4903.22
953.904	4852.37
954.209	4827.51
954.513	4809.66
954.818	4761.98
955.122	4812.15
955.426	4752.49
955.731	4711.36
956.035	4685.82
956.339	4673.85
956.643	4694.41
956.948	4642.43
957.252	4590.46
957.556	4659.16
957.86	4587.97
958.163	4574.87
958.467	4504.36
958.771	4513.17
959.075	4532.61
959.378	4474.98
959.682	4470.46
959.985	4471.37
960.289	4441.08
960.592	4387.98
960.896	4371.71
961.199	4365.15
961.502	4385.04
961.805	4315.89
962.108	4286.74
962.411	4282.44
962.714	4233.41
963.017	4269.34
963.32	4251.94
963.623	4173.07
963.926	4189.11
964.228	4153.18
964.531	4118.15
964.833	4137.59
965.136	4082.9
965.438	4104.6
965.741	4060.75
966.043	4044.26
966.345	4015.56
966.648	4046.74
966.95	4031.15
967.252	4006.07
967.554	3957.25
967.856	3982.79
968.158	3938.27
968.46	3932.4
968.761	3915.67
969.063	3876.13
969.365	3848.78
969.666	3831.16
969.968	3827.54
970.269	3831.61
970.571	3785.51
970.872	3810.82
971.174	3736.24
971.475	3759.52
971.776	3737.15
972.077	3666.41
972.378	3691.72
972.679	3732.63
972.98	3652.86
973.281	3623.03
973.582	3619.86
973.883	3603.59
974.183	3571.95
974.484	3546.64
974.785	3543.93
975.085	3556.59
975.386	3567.66
975.686	3512.97
975.986	3501.45
976.287	3526.31
976.587	3461.45
976.887	3496.93
977.187	3475.23
977.487	3450.38
977.787	3396.14
978.087	3394.56
978.387	3382.58
978.687	3369.25
978.987	3359.98
979.286	3304.84
979.586	3367.67
979.885	3297.61
980.185	3263.94
980.484	3278.63
980.784	3276.82
981.083	3230.72
981.382	3231.62
981.682	3235.24
981.981	3159.99
982.28	3131.51
982.579	3183.26
982.878	3202.92
983.177	3158.41
983.475	3171.06
983.774	3128.58
984.073	3088.13
984.372	3068.01
984.67	3070.05
984.969	3064.85
985.267	3044.74
985.566	3053.78
985.864	3005.19
986.162	2971.07
986.461	3003.38
986.759	2986.88
987.057	2966.77
987.355	2940.11
987.653	2955.7
987.951	2904.4
988.249	2883.61
988.547	2918.19
988.844	2848.13
989.142	2886.32
989.44	2875.48
989.737	2828.7
990.035	2841.13
990.332	2846.78
990.63	2826.44
990.927	2786.89
991.224	2803.39
991.521	2802.03
991.819	2772.2
992.116	2729.04
992.413	2748.92
992.71	2715.48
993.006	2704.41
993.303	2700.79
993.6	2699.89
993.897	2672.09
994.193	2626.89
994.49	2625.54
994.787	2640.91
995.083	2621.47
995.379	2568.36
995.676	2567.69
995.972	2592.77
996.268	2539.66
996.565	2539.66
996.861	2502.83
997.157	2536.95
997.453	2512.09
997.749	2504.41
998.044	2448.82
998.34	2473.45
998.636	2423.28
998.932	2438.65
999.227	2407.92
999.523	2430.52
999.818	2416.96
1000.114	2389.84
1000.409	2367.69
1000.704	2351.87
1001	2352.78
1001.295	2322.72
1001.59	2336.28
1001.885	2302.61
1002.18	2287.92
1002.475	2314.81
1002.77	2286.34
1003.065	2265.32
1003.359	2274.36
1003.654	2248.6
1003.949	2235.49
1004.243	2237.98
1004.538	2213.8
1004.832	2192.78
1005.127	2175.15
1005.421	2157.53
1005.715	2149.17
1006.009	2125.66
1006.304	2104.42
1006.598	2113.46
1006.892	2157.3
1007.186	2112.56
1007.48	2113.01
1007.773	2074.37
1008.067	2055.38
1008.361	2051.09
1008.655	2041.15
1008.948	1993.92
1009.242	1988.72
1009.535	2021.71
1009.829	2007.02
1010.122	1950.53
1010.415	1963.41
1010.708	1932
1011.001	1953.01
1011.295	1929.74
1011.588	1895.61
1011.881	1881.83
1012.173	1904.88
1012.466	1896.29
1012.759	1861.49
1013.052	1861.72
1013.344	1863.98
1013.637	1868.95
1013.93	1806.58
1014.222	1824.88
1014.514	1821.72
1014.807	1772.68
1015.099	1797.31
1015.391	1779.91
1015.683	1767.26
1015.976	1768.61
1016.268	1722.51
1016.56	1735.39
1016.851	1710.31
1017.143	1709.4
1017.435	1698.78
1017.727	1707.37
1018.018	1681.61
1018.31	1675.28
1018.602	1656.07
1018.893	1661.27
1019.185	1626.24
1019.476	1645
1019.767	1646.36
1020.058	1604.32
1020.35	1622.63
1020.641	1612.46
1020.932	1625.11
1021.223	1543.08
1021.514	1574.27
1021.804	1537.88
1022.095	1534.49
1022.386	1529.75
1022.677	1508.73
1022.967	1489.07
1023.258	1473.93
1023.548	1472.57
1023.839	1449.07
1024.129	1449.3
1024.419	1446.59
1024.709	1478.9
1025	1458.34
1025.29	1454.95
1025.58	1423.54
1025.87	1404.55
1026.16	1369.98
1026.449	1384.22
1026.739	1362.52
1027.029	1346.48
1027.319	1384.89
1027.608	1368.62
1027.898	1346.25
1028.187	1359.13
1028.477	1329.75
1028.766	1301.51
1029.055	1290.66
1029.344	1324.1
1029.634	1273.03
1029.923	1259.7
1030.212	1248.63
1030.501	1278.91
1030.79	1254.5
1031.078	1242.98
1031.367	1240.72
1031.656	1250.43
1031.945	1218.8
1032.233	1195.52
1032.522	1195.52
1032.81	1191
1033.099	1197.78
1033.387	1163.88
1033.675	1156.88
1033.963	1158.23
1034.251	1137.89
1034.54	1169.76
1034.828	1134.5
1035.116	1136.76
1035.403	1141.96
1035.691	1128.85
1035.979	1125.46
1036.267	1112.58
1036.554	1071.23
1036.842	1096.99
1037.129	1070.1
1037.417	1069.65
1037.704	1053.38
1037.992	1065.81
1038.279	1034.39
1038.566	1034.17
1038.853	1034.17
1039.14	1034.17
