Data from whiteboard_FLMS001491_00086.txt Node
Date: Wed Feb 08 11:28:29 GMT 2017
User: dcchb
Spectrometer: FLMS00149
Trigger mode: 0
Integration Time (sec): 2.000000E-2
Scans to average: 10
Electric dark correction enabled: true
Nonlinearity correction enabled: false
Boxcar width: 0
XAxis mode: Wavelengths
Number of Pixels in Spectrum: 2048
>>>>>Begin Spectral Data<<<<<
341.393	-19.59
341.776	-19.59
342.16	-19.59
342.543	-62.53
342.927	-68.85
343.31	-69.08
343.693	-85.12
344.077	-67.95
344.46	-44
344.843	-48.29
345.226	-55.07
345.61	-33.15
345.993	-6.93
346.376	-3.09
346.759	2.78
347.142	7.08
347.525	39.62
347.908	67.64
348.291	60.86
348.674	105.38
349.057	129.33
349.44	120.97
349.823	124.81
350.206	158.26
350.588	212.72
350.971	231.7
351.354	264.7
351.737	288.2
352.119	278.26
352.502	276.45
352.884	325.49
353.267	317.35
353.65	329.55
354.032	323
354.414	325.94
354.797	348.76
355.179	360.29
355.562	346.5
355.944	369.33
356.326	382.43
356.709	389.89
357.091	377.46
357.473	377.91
357.855	362.77
358.238	378.59
358.62	366.84
359.002	384.47
359.384	377.46
359.766	381.53
360.148	376.78
360.53	363.68
360.912	360.06
361.294	381.98
361.676	381.08
362.057	384.69
362.439	381.53
362.821	381.3
363.203	383.34
363.584	390.57
363.966	345.82
364.348	360.74
364.729	354.19
365.111	371.36
365.493	350.57
365.874	348.31
366.256	369.55
366.637	367.97
367.019	348.54
367.4	359.16
367.781	369.33
368.163	365.26
368.544	388.99
368.925	347.63
369.306	378.37
369.688	356.22
370.069	382.43
370.45	349.44
370.831	338.82
371.212	380.63
371.593	356.9
371.974	375.43
372.355	380.63
372.736	366.84
373.117	381.98
373.498	376.56
373.879	367.52
374.26	362.77
374.641	369.1
375.021	359.84
375.402	378.37
375.783	389.89
376.163	387.63
376.544	399.83
376.925	380.85
377.305	391.25
377.686	394.41
378.066	396.9
378.447	383.11
378.827	406.16
379.208	405.94
379.588	410.68
379.968	388.76
380.349	416.1
380.729	421.53
381.109	413.85
381.489	415.43
381.87	436.44
382.25	439.83
382.63	419.49
383.01	419.95
383.39	413.85
383.77	441.64
384.15	422.88
384.53	453.39
384.91	444.35
385.29	437.8
385.67	458.59
386.049	467.63
386.429	460.62
386.809	486.61
387.189	488.87
387.568	470.34
387.948	463.56
388.328	487.29
388.707	477.8
389.087	486.61
389.466	487.29
389.846	473.28
390.225	498.36
390.605	500.4
390.984	496.1
391.363	524.35
391.743	519.83
392.122	526.38
392.501	543.79
392.881	526.61
393.26	543.11
393.639	543.56
394.018	548.3
394.397	566.84
394.776	598.47
395.155	598.7
395.534	573.84
395.913	576.33
396.292	616.33
396.671	603.44
397.05	616.55
397.429	622.2
397.808	634.86
398.186	641.18
398.565	657.45
398.944	675.53
399.323	677.57
399.701	675.76
400.08	694.06
400.458	692.71
400.837	690
401.215	719.83
401.594	748.75
401.972	753.5
402.351	754.63
402.729	790.56
403.107	797.34
403.486	789.65
403.864	810.9
404.242	835.98
404.62	830.56
404.999	860.61
405.377	859.03
405.755	885.25
406.133	884.57
406.511	892.7
406.889	943.1
407.267	968.41
407.645	976.77
408.023	978.12
408.401	1024.9
408.779	1025.13
409.156	1057.67
409.534	1084.56
409.912	1068.74
410.29	1137.67
410.667	1161.85
411.045	1168.4
411.422	1160.49
411.8	1214.95
412.178	1234.16
412.555	1272.35
412.933	1244.78
413.31	1302.86
413.687	1336.76
414.065	1345.8
414.442	1333.59
414.819	1376.76
415.197	1400.94
415.574	1419.24
415.951	1447.04
416.328	1473.48
416.705	1477.77
417.082	1488.17
417.46	1505.79
417.837	1548.28
418.214	1579.69
418.591	1595.73
418.967	1593.93
419.344	1630.76
419.721	1655.17
420.098	1649.74
420.475	1693.59
420.852	1706.69
421.228	1737.65
421.605	1731.78
421.982	1765
422.358	1789.4
422.735	1806.35
423.111	1792.11
423.488	1897.65
423.864	1860.81
424.241	1900.13
424.617	1904.65
424.994	1963.41
425.37	1976.29
425.746	1965.22
426.123	2022.84
426.499	2019
426.875	2056.29
427.251	2077.98
427.627	2094.25
428.003	2132.9
428.379	2163.63
428.756	2226.68
429.132	2254.25
429.507	2263.06
429.883	2307.81
430.259	2356.39
430.635	2337.18
431.011	2382.61
431.387	2453.57
431.763	2499.89
432.138	2478.65
432.514	2548.93
432.89	2565.88
433.265	2617.63
433.641	2645.42
434.016	2631.19
434.392	2699.21
434.767	2751.64
435.143	2732.65
435.518	2833.67
435.894	2818.53
436.269	2894.91
436.644	2931.07
437.02	2967.45
437.395	2941.91
437.77	2998.64
438.145	3037.28
438.52	3091.29
438.895	3084.51
439.271	3131.29
439.646	3229.14
440.021	3249.02
440.395	3229.82
440.77	3223.26
441.145	3279.31
441.52	3351.39
441.895	3325.63
442.27	3370.38
442.645	3397.5
443.019	3383.26
443.394	3427.33
443.769	3459.41
444.143	3453.31
444.518	3520.66
444.892	3510.49
445.267	3552.52
445.641	3578.06
446.016	3613.99
446.39	3623.48
446.764	3677.26
447.139	3639.52
447.513	3722.68
447.887	3709.13
448.262	3769.69
448.636	3823.02
449.01	3836.13
449.384	3851.04
449.758	3885.84
450.132	3938.05
450.506	3909.12
450.88	3970.36
451.254	4023.92
451.628	4045.39
452.002	4114.54
452.376	4223.01
452.75	4166.74
453.123	4267.3
453.497	4306.4
453.871	4262.33
454.244	4404.25
454.618	4450.35
454.992	4525.15
455.365	4487.64
455.739	4664.35
456.112	4705.03
456.486	4741.41
456.859	4788.42
457.232	4850.79
457.606	4839.04
457.979	4947.51
458.352	5030.9
458.725	5116.32
459.099	5165.81
459.472	5270.67
459.845	5294.85
460.218	5344.79
460.591	5382.53
460.964	5427.27
461.337	5532.81
461.71	5617.55
462.083	5727.38
462.456	5681.96
462.829	5730.09
463.201	5854.38
463.574	5857.54
463.947	5985.45
464.32	6127.14
464.692	6122.4
465.065	6221.38
465.438	6249.4
465.81	6409.62
466.183	6444.42
466.555	6531.42
466.928	6656.17
467.3	6654.13
467.672	6720.35
468.045	6959.21
468.417	6926.22
468.789	6996.5
469.161	7112.88
469.534	7267.45
469.906	7343.38
470.278	7437.84
470.65	7559.87
471.022	7701.34
471.394	7809.36
471.766	7820.43
472.138	7905.17
472.51	8170.7
472.882	8236.46
473.253	8306.97
473.625	8546.74
473.997	8685.94
474.369	8766.85
474.74	8862.44
475.112	8940.85
475.484	9140.4
475.855	9316.66
476.227	9380.16
476.598	9628.97
476.97	9701.74
477.341	9920.49
477.713	10097.21
478.084	10159.35
478.455	10471.43
478.827	10554.14
479.198	10837.07
479.569	10859.67
479.94	11131.08
480.311	11264.18
480.682	11545.53
481.053	11836.6
481.424	11970.15
481.795	12066.87
482.166	12275.45
482.537	12389.8
482.908	12724.26
483.279	12777.36
483.65	13019.39
484.021	13306.16
484.391	13434.52
484.762	13616.21
485.133	13630.67
485.503	13882.64
485.874	14138.68
486.244	14273.14
486.615	14538.67
486.985	14783.18
487.356	14991.77
487.726	15174.13
488.097	15423.85
488.467	15509.49
488.837	15783.61
489.207	16003.94
489.578	16209.14
489.948	16471.5
490.318	16659.29
490.688	16716.47
491.058	17026.97
491.428	17220.86
491.798	17483.23
492.168	17738.36
492.538	17816.33
492.908	17938.13
493.278	18184.68
493.648	18237.78
494.017	18557.1
494.387	18745.34
494.757	18846.13
495.126	19012.68
495.496	19066.46
495.866	19226.01
496.235	19495.15
496.605	19615.37
496.974	19753.68
497.344	19892.88
497.713	20092.42
498.082	20174.23
498.452	20421
498.821	20493.09
499.19	20531.28
499.559	20845.17
499.928	20941.89
500.298	21040.65
500.667	21291.71
501.036	21265.05
501.405	21457.59
501.774	21632.5
502.143	21753.62
502.512	21855.32
502.88	22109.09
503.249	22234.29
503.618	22199.71
503.987	22432.48
504.356	22548.18
504.724	22745.24
505.093	22903.42
505.462	22989.52
505.83	23194.04
506.199	23360.81
506.567	23651.88
506.936	23545.67
507.304	23954.47
507.672	23905.88
508.041	23995.6
508.409	24163.28
508.777	24513.1
509.145	24691.17
509.514	24730.72
509.882	24999.41
510.25	25106.98
510.618	25111.05
510.986	25240.08
511.354	25600.3
511.722	25788.09
512.09	26003
512.458	25941.08
512.826	26285.26
513.193	26238.7
513.561	26303.11
513.929	26665.36
514.297	26870.55
514.664	27124.33
515.032	27150.32
515.4	27374.72
515.767	27500.59
516.135	27744.88
516.502	27732
516.869	28162.04
517.237	28350.29
517.604	28306.67
517.972	28651.75
518.339	28823.49
518.706	28895.58
519.073	29101.68
519.44	29333.54
519.808	29642.46
520.175	29602.23
520.542	30147.75
520.909	30181.2
521.276	30210.35
521.643	30568.53
522.009	30818.02
522.376	30918.35
522.743	31276.76
523.11	31419.58
523.477	31683.76
523.843	31862.74
524.21	32162.84
524.577	32446.22
524.943	32527.12
525.31	32705.2
525.676	32975.02
526.043	33171.63
526.409	33381.11
526.776	33685.29
527.142	33779.97
527.508	33998.27
527.874	34314.2
528.241	34452.05
528.607	34461.09
528.973	34915.99
529.339	34799.16
529.705	35197.56
530.071	35497.67
530.437	35658.79
530.803	35818.11
531.169	36168.39
531.535	36238.21
531.901	36345.33
532.267	36556.4
532.632	36871.64
532.998	36956.61
533.364	37173.56
533.73	37400.9
534.095	37512.98
534.461	37668.68
534.826	37922.69
535.192	38106.41
535.557	38265.28
535.923	38351.6
536.288	38421.43
536.653	38686.29
537.019	38659.85
537.384	38831.37
537.749	39007.86
538.114	39103.9
538.479	39262.99
538.845	39343.44
539.21	39369.66
539.575	39543.21
539.94	39666.37
540.305	39909.08
540.67	40006.7
541.034	40044.22
541.399	40363.3
541.764	40286.69
542.129	40479.23
542.494	40574.82
542.858	40704.99
543.223	40757.64
543.587	41027.47
543.952	40984.98
544.316	41181.13
544.681	41204.41
545.045	41502.03
545.41	41650.27
545.774	41718.3
546.138	41893.21
546.503	41939.53
546.867	41977.72
547.231	42345.85
547.595	42509.46
547.959	42726.18
548.324	42701.32
548.688	42690.93
549.052	43003.46
549.416	43051.82
549.779	43138.82
550.143	43248.65
550.507	43612.71
550.871	43723.67
551.235	43719.37
551.599	43995.75
551.962	44115.07
552.326	44189.42
552.689	44449.98
553.053	44352.12
553.417	44477.77
553.78	45106.46
554.143	44964.76
554.507	45040.47
554.87	45308.48
555.234	45601.13
555.597	45472.1
555.96	45638.42
556.323	45809.49
556.686	45800.9
557.05	46157.5
557.413	46131.74
557.776	46268.46
558.139	46457.61
558.502	46572.18
558.865	46662.57
559.228	46942.11
559.59	47128.32
559.953	47187.3
560.316	47469.33
560.679	47524.02
561.041	47852.37
561.404	47932.6
561.767	48211.68
562.129	48145.7
562.492	48564.44
562.854	48439.25
563.217	48638.57
563.579	48850.09
563.941	49033.13
564.304	49211.21
564.666	49393.12
565.028	49518.77
565.39	49556.96
565.753	49791.76
566.115	49898.19
566.477	49987
566.839	50078.98
567.201	50300.44
567.563	50436.26
567.925	50708.12
568.287	50730.94
568.648	50701.56
569.01	51043.25
569.372	51147.88
569.734	51007.09
570.095	51303.35
570.457	51341.32
570.819	51511.48
571.18	51533.18
571.542	51734.08
571.903	51797.8
572.265	51906.73
572.626	51935.43
572.987	52010.91
573.349	52167.51
573.71	52184.24
574.071	52323.21
574.432	52461.06
574.794	52643.66
575.155	52635.75
575.516	52566.6
575.877	52694.96
576.238	52780.6
576.599	52914.16
576.96	52953.25
577.32	52973.14
577.681	53011.78
578.042	53189.63
578.403	53227.37
578.763	53260.82
579.124	53303.08
579.485	53335.84
579.845	53403.41
580.206	53398.89
580.566	53321.61
580.927	53408.38
581.287	53536.06
581.648	53423.75
582.008	53617.42
582.368	53524.09
582.728	53641.6
583.089	53606.34
583.449	53615.38
583.809	53746
584.169	53749.62
584.529	53647.25
584.889	53913.68
585.249	53699.68
585.609	53561.83
585.969	53760.69
586.329	53723.4
586.688	53798.66
587.048	53746.23
587.408	53651.32
587.768	53747.81
588.127	53743.97
588.487	53665.1
588.846	53880.46
589.206	53686.34
589.565	53697.87
589.925	53860.8
590.284	53720.24
590.643	53767.02
591.003	53849.05
591.362	53972.66
591.721	53837.98
592.08	53814.02
592.44	54023.51
592.799	53945.54
593.158	53954.81
593.517	53839.33
593.876	53924.08
594.235	53811.54
594.593	53953.68
594.952	53923.85
595.311	53814.25
595.67	53879.78
596.029	54070.29
596.387	54050.63
596.746	54134.24
597.104	53962.95
597.463	53948.03
597.822	54180.34
598.18	54059.44
598.538	54044.07
598.897	54309.38
599.255	54012.66
599.613	54484.29
599.972	54251.3
600.33	54307.34
600.688	54191.87
601.046	54376.04
601.404	54330.39
601.762	54365.19
602.12	54458.53
602.478	54480.67
602.836	54378.3
603.194	54280.45
603.552	54394.12
603.91	54286.33
604.268	54394.8
604.625	54255.59
604.983	54457.85
605.341	54264.63
605.698	54474.8
606.056	54488.13
606.413	54364.29
606.771	54467.34
607.128	54516.6
607.485	54395.25
607.843	54449.26
608.2	54618.52
608.557	54622.14
608.914	54515.93
609.272	54751.85
609.629	54762.02
609.986	54893.09
610.343	54672.98
610.7	54809.7
611.057	54770.38
611.414	54779.2
611.771	54782.36
612.127	54893.32
612.484	54886.31
612.841	54932.41
613.198	54836.37
613.554	54896.48
613.911	55046.53
614.267	54989.36
614.624	54896.71
614.98	55073.2
615.337	55254.21
615.693	55152.29
616.05	55188.68
616.406	55302.35
616.762	55222.57
617.118	55142.8
617.475	55215.79
617.831	55279.52
618.187	55284.04
618.543	55277.71
618.899	55420.08
619.255	55394.09
619.611	55366.3
619.967	55440.19
620.323	55535.11
620.678	55357.94
621.034	55296.47
621.39	55326.53
621.746	55317.49
622.101	55500.98
622.457	55268.22
622.812	55316.81
623.168	55404.49
623.523	55418.73
623.879	55431.83
624.234	55260.99
624.589	55342.34
624.945	55446.75
625.3	55425.96
625.655	55364.72
626.01	55369.01
626.365	55391.38
626.72	55332.63
627.075	55249.24
627.43	55249.47
627.785	55212.63
628.14	55203.36
628.495	55260.09
628.85	55263.93
629.205	55111.84
629.559	55287.66
629.914	55123.14
630.269	55133.76
630.623	54968.57
630.978	54866.42
631.332	54985.07
631.687	55059.87
632.041	54903.49
632.396	55000.88
632.75	54890.6
633.104	54954.33
633.459	54855.13
633.813	54914.56
634.167	54866.88
634.521	54820.55
634.875	54781.68
635.229	54717.5
635.583	54599.76
635.937	54669.82
636.291	54610.16
636.645	54609.71
636.999	54537.39
637.352	54678.18
637.706	54453.78
638.06	54537.85
638.413	54506.89
638.767	54473.44
639.121	54419.2
639.474	54265.99
639.828	54264.18
640.181	54378.98
640.534	54301.92
640.888	54247.68
641.241	54132.43
641.594	54179.21
641.947	54230.51
642.301	54136.95
642.654	54099.21
643.007	54172.66
643.36	53995.94
643.713	53987.35
644.066	54160.45
644.419	53926.56
644.771	53663.52
645.124	53368.16
645.477	53290.19
645.83	53067.38
646.182	52956.64
646.535	52912.13
646.888	53006.13
647.24	52873.48
647.593	53077.32
647.945	53033.93
648.298	52791
648.65	52773.37
649.002	52631.91
649.355	52667.61
649.707	52656.09
650.059	52776.31
650.411	53066.92
650.763	53084.55
651.115	53372
651.467	53235.73
651.819	53245.9
652.171	53082.52
652.523	53067.15
652.875	53031.67
653.227	52861.28
653.578	53150.99
653.93	53093.82
654.282	52905.35
654.633	52857.89
654.985	52912.8
655.337	52933.37
655.688	52845.69
656.039	52927.04
656.391	52729.08
656.742	52739.93
657.094	52670.55
657.445	52889.53
657.796	52712.81
658.147	52635.97
658.498	52574.73
658.849	52698.57
659.2	52577.67
659.551	52483.89
659.902	52533.38
660.253	52542.64
660.604	52518.69
660.955	52381.52
661.306	52585.81
661.656	52499.48
662.007	52457.45
662.358	52521.63
662.708	52401.4
663.059	52389.43
663.409	52160.28
663.76	52412.25
664.11	52426.04
664.461	52446.38
664.811	52332.25
665.161	52370.9
665.511	52267.4
665.862	52280.28
666.212	52272.14
666.562	52205.7
666.912	52322.99
667.262	52200.05
667.612	52171.35
667.962	52214.29
668.312	52044.13
668.662	52262.43
669.011	52109.43
669.361	52083.22
669.711	51965.94
670.06	51968.2
670.41	51908.54
670.76	51841.87
671.109	52040.28
671.459	51887.75
671.808	51802.78
672.157	52001.19
672.507	51685.72
672.856	51702.44
673.205	51748.99
673.554	51724.59
673.904	51669.22
674.253	51753.29
674.602	51694.98
674.951	51237.14
675.3	51082.34
675.649	51367.76
675.998	51400.08
676.346	51414.76
676.695	51438.04
677.044	51190.14
677.393	51295.67
677.741	51327.53
678.09	51171.61
678.438	51053.19
678.787	51176.13
679.135	51207.99
679.484	50923.48
679.832	50959.18
680.181	50890.71
680.529	51023.14
680.877	50706.31
681.225	50794.89
681.573	50898.17
681.922	50681.22
682.27	50612.07
682.618	50532.3
682.966	50543.83
683.314	50539.98
683.661	50334.11
684.009	50163.72
684.357	50152.88
684.705	50187.23
685.053	50092.76
685.4	50239.2
685.748	49873.34
686.095	49942.26
686.443	49866.56
686.79	49800.34
687.138	49807.8
687.485	49758.54
687.832	49557.41
688.18	49618.2
688.527	49393.57
688.874	49406.46
689.221	49284.65
689.568	49293.69
689.915	49025.22
690.262	49056.41
690.609	48919.69
690.956	48812.8
691.303	48697.55
691.65	48602.86
691.997	48515.41
692.344	48291
692.69	48296.88
693.037	48204.68
693.383	47985.7
693.73	48040.62
694.077	47907.96
694.423	47821.19
694.769	47556.33
695.116	47615.32
695.462	47617.35
695.808	47532.38
696.155	47589.78
696.501	47180.52
696.847	47270.92
697.193	46898.05
697.539	47049.23
697.885	46879.97
698.231	46702.57
698.577	46668
698.923	46566.76
699.269	46315.46
699.614	46251.74
699.96	46135.35
700.306	46106.2
700.651	45806.78
700.997	45763.84
701.342	45678.19
701.688	45657.18
702.033	45402.49
702.379	45427.12
702.724	45299.22
703.069	45253.8
703.415	44781.49
703.76	44924.99
704.105	44808.84
704.45	44783.07
704.795	44524.55
705.14	44445.46
705.485	44424.89
705.83	44229.87
706.175	44275.97
706.52	44122.98
706.865	44076.2
707.209	43883.89
707.554	43744.01
707.899	43784
708.243	43480.96
708.588	43508.31
708.932	43232.61
709.277	43208.2
709.621	43330.91
709.966	42982.44
710.31	43106.96
710.654	42690.7
710.998	42666.52
711.342	42815.44
711.687	42479.86
712.031	42368.22
712.375	42174.55
712.719	42259.07
713.063	42250.26
713.407	42378.39
713.75	41988.8
714.094	42013.66
714.438	41795.36
714.782	41855.69
715.125	41659.09
715.469	41667.68
715.812	41552.42
716.156	41392.43
716.499	41369.15
716.843	41370.28
717.186	41128.03
717.53	41225.2
717.873	41230.85
718.216	41043.06
718.559	40848.94
718.902	40515.84
719.246	40554.94
719.589	40460.7
719.932	40535.73
720.275	40413.47
720.617	40354.94
720.96	40318.78
721.303	40114.95
721.646	40305.9
721.989	40076.08
722.331	40110.65
722.674	39998.11
723.016	39914.95
723.359	39755.18
723.701	39789.53
724.044	39581.4
724.386	39387.28
724.729	39529.2
725.071	39439.03
725.413	39367.17
725.755	39342.99
726.097	39110
726.439	39051.93
726.782	39056.44
727.124	39186.16
727.465	38897.35
727.807	38836.34
728.149	38782.55
728.491	38677.7
728.833	38633.63
729.175	38642.67
729.516	38514.09
729.858	38416.69
730.199	38474.31
730.541	38265.28
730.882	38309.12
731.224	38357.93
731.565	37980.31
731.906	38008.79
732.248	38031.39
732.589	37875.01
732.93	37703.49
733.271	37724.05
733.612	37809.47
733.953	37816.48
734.294	37595.24
734.635	37527.22
734.976	37588.91
735.317	37335.36
735.658	37413.1
735.999	37340.33
736.339	37137.17
736.68	37435.47
737.021	37109.83
737.361	36997.29
737.702	37145.76
738.042	37058.08
738.383	36925.43
738.723	36933.79
739.063	36830.74
739.404	36870.97
739.744	36726.79
740.084	36535.83
740.424	36586.68
740.764	36474.82
741.104	36571.09
741.444	36460.81
741.784	36197.31
742.124	36269.85
742.464	36175.39
742.804	36121.38
743.143	36012.68
743.483	36169.74
743.823	35836.42
744.162	35714.39
744.502	35814.04
744.841	35649.75
745.181	35739.92
745.52	35532.24
745.86	35600.26
746.199	35536.09
746.538	35429.87
746.877	35368.63
747.216	35502.64
747.556	35276.88
747.895	35156.89
748.234	35067.62
748.573	35132.48
748.911	34836.67
749.25	34988.3
749.589	34766.16
749.928	34763.45
750.267	34727.07
750.605	34791.7
750.944	34474.19
751.283	34470.58
751.621	34441.42
751.96	34359.62
752.298	34120.98
752.636	34280.3
752.975	34040.76
753.313	33831.95
753.651	33919.86
753.989	33732.52
754.327	33748.79
754.666	33492.3
755.004	33526.87
755.342	33444.16
755.679	33352.41
756.017	33251.63
756.355	33299.53
756.693	33163.04
757.031	33057.28
757.368	32889.38
757.706	32759.21
758.044	32673.11
758.381	32694.58
758.719	32498.2
759.056	32681.02
759.394	32472.44
759.731	32317.86
760.068	32276.74
760.405	32072.9
760.743	31953.58
761.08	32065.22
761.417	31847.59
761.754	31785.68
762.091	31711.1
762.428	31589.97
762.765	31485.57
763.102	31521.95
763.438	31294.84
763.775	31160.61
764.112	31168.74
764.449	31125.35
764.785	31037.45
765.122	30741.41
765.458	30638.59
765.795	30671.58
766.131	30467.07
766.467	30439.5
766.804	30309.33
767.14	30084.93
767.476	30213.06
767.812	30015.78
768.148	30005.38
768.485	29793.86
768.821	29661.66
769.157	29740.76
769.492	29557.71
769.828	29670.02
770.164	29385.74
770.5	29291.05
770.836	29241.11
771.171	29170.15
771.507	29065.07
771.842	28818.52
772.178	28829.14
772.513	28759.54
772.849	28691.07
773.184	28461.24
773.519	28443.39
773.855	28356.39
774.19	28062.16
774.525	28024.64
774.86	27975.61
775.195	28054.47
775.53	27819.68
775.865	27732.67
776.2	27461.04
776.535	27324.1
776.87	27287.49
777.205	27193.03
777.539	27054.27
777.874	27269.64
778.209	26878.23
778.543	26946.93
778.878	26722.76
779.212	26696.54
779.547	26565.25
779.881	26487.74
780.215	26405.03
780.55	26304.24
780.884	26190.12
781.218	26269.21
781.552	26062.44
781.886	25907.19
782.22	25838.49
782.554	25622.67
782.888	25462.9
783.222	25394.66
783.556	25193.31
783.889	25201.67
784.223	25001.67
784.557	24939.75
784.89	25001.67
785.224	24838.74
785.557	24685.52
785.891	24564.4
786.224	24485.98
786.558	24487.34
786.891	24186.55
787.224	24091.41
787.557	24075.14
787.891	24039.66
788.224	23982.26
788.557	23893.68
788.89	23882.15
789.223	23887.58
789.556	23625.44
789.888	23575.72
790.221	23473.13
790.554	23321.72
790.887	23241.72
791.219	23236.75
791.552	23192.23
791.884	22944.33
792.217	23012.8
792.549	22885.8
792.882	22645.35
793.214	22544.56
793.546	22755.63
793.879	22506.6
794.211	22428.18
794.543	22452.14
794.875	22370.78
795.207	22423.66
795.539	22261.18
795.871	22195.65
796.203	22003.11
796.535	21933.51
796.867	21949.78
797.198	21823.9
797.53	21752.94
797.862	21638.6
798.193	21627.3
798.525	21566.74
798.856	21513.18
799.188	21329.91
799.519	21250.59
799.85	21274.31
800.182	21072.96
800.513	21143.7
800.844	20985.96
801.175	21027.54
801.506	21037.71
801.837	20882.23
802.168	20786.87
802.499	20738.28
802.83	20611.96
803.161	20519.76
803.491	20487.67
803.822	20474.33
804.153	20259.2
804.483	20238.18
804.814	20183.95
805.145	20118.41
805.475	20195.02
805.805	20036.83
806.136	20024.4
806.466	20037.28
806.796	19927.68
807.126	19782.6
807.457	19791.64
807.787	19893.33
808.117	19615.15
808.447	19554.36
808.777	19645.66
809.107	19535.83
809.436	19418.32
809.766	19515.04
810.096	19345.78
810.426	19363.86
810.755	19293.57
811.085	19287.25
811.414	19235.27
811.744	19052.45
812.073	19026.91
812.403	19029.17
812.732	18946.47
813.061	18907.6
813.39	18827.82
813.719	18800.25
814.049	18790.54
814.378	18729.3
814.707	18662.63
815.036	18596.42
815.365	18597.55
815.693	18322.07
816.022	18390.32
816.351	18353.49
816.68	18238.91
817.008	18327.5
817.337	18067.84
817.665	18022.2
817.994	18058.13
818.322	18083.66
818.651	18046.15
818.979	17858.13
819.307	18064.91
819.636	17948.3
819.964	17695.42
820.292	17783.78
820.62	17702.2
820.948	17649.78
821.276	17747.17
821.604	17687.52
821.932	17780.85
822.259	17672.83
822.587	17605.48
822.915	17567.07
823.243	17641.41
823.57	17588.08
823.898	17596.22
824.225	17564.58
824.553	17529.78
824.88	17567.97
825.207	17650.45
825.535	17552.83
825.862	17630.12
826.189	17533.17
826.516	17585.14
826.843	17567.07
827.17	17624.24
827.497	17655.88
827.824	17629.89
828.151	17626.05
828.478	17556.45
828.805	17606.84
829.131	17513.96
829.458	17532.26
829.785	17395.32
830.111	17477.8
830.438	17647.52
830.764	17445.04
831.09	17497.92
831.417	17509.89
831.743	17438.03
832.069	17469.44
832.395	17334.98
832.722	17445.71
833.048	17304.47
833.374	17413.85
833.7	17236.23
834.026	17286.85
834.351	17277.81
834.677	17347.41
835.003	17315.55
835.329	17226.96
835.654	17248.66
835.98	17140.18
836.306	17210.24
836.631	17078.94
836.956	17179.96
837.282	17108.55
837.607	17124.37
837.932	17036.23
838.258	16986.74
838.583	16976.8
838.908	16911.26
839.233	16908.78
839.558	16859.97
839.883	16792.17
840.208	16781.32
840.533	16775.22
840.858	16751.27
841.182	16706.3
841.507	16645.28
841.832	16540.88
842.156	16573.65
842.481	16499.07
842.805	16524.83
843.13	16527.32
843.454	16468.11
843.778	16372.07
844.103	16216.82
844.427	16298.17
844.751	16241
845.075	16270.6
845.399	16146.54
845.723	16090.49
846.047	16199.42
846.371	15944.06
846.695	15991.06
847.019	15763.27
847.343	15795.59
847.666	15732.99
847.99	15661.58
848.313	15610.28
848.637	15493.45
848.96	15566.67
849.284	15381.36
849.607	15353.34
849.931	15355.6
850.254	15192.44
850.577	15121.93
850.9	14987.02
851.223	15058.43
851.546	14972.56
851.869	14874.93
852.192	14812.56
852.515	14660.93
852.838	14606.92
853.161	14646.01
853.483	14548.61
853.806	14425.23
854.129	14491.67
854.451	14396.53
854.774	14402.63
855.096	14326.7
855.419	14302.75
855.741	14277.89
856.063	14126.93
856.385	14186.82
856.708	14158.57
857.03	14008.52
857.352	14136.42
857.674	14024.33
857.996	14000.15
858.318	13915.64
858.64	13915.18
858.961	13849.88
859.283	13705.25
859.605	13619.15
859.926	13758.13
860.248	13627.28
860.57	13674.74
860.891	13611.69
861.212	13514.29
861.534	13564.91
861.855	13515.42
862.176	13546.61
862.498	13483.11
862.819	13478.81
863.14	13434.07
863.461	13291.92
863.782	13314.75
864.103	13349.55
864.424	13381.87
864.745	13335.09
865.065	13218.71
865.386	13179.39
865.707	13160.85
866.027	13232.27
866.348	13096.68
866.668	13192.72
866.989	13072.95
867.309	13051.93
867.63	13050.35
867.95	13009.22
868.27	12873.18
868.59	12961.76
868.91	12926.51
869.23	12861.65
869.55	12886.29
869.87	12911.6
870.19	12856
870.51	12819.39
870.83	12839.73
871.15	12735.33
871.469	12664.82
871.789	12770.58
872.109	12740.53
872.428	12561.32
872.748	12654.2
873.067	12569.46
873.386	12599.29
873.706	12672.28
874.025	12588.21
874.344	12595.22
874.663	12586.63
874.982	12501.66
875.301	12485.17
875.62	12433.87
875.939	12393.19
876.258	12355.45
876.577	12347.99
876.896	12337.6
877.214	12346.41
877.533	12252.63
877.852	12253.08
878.17	12279.75
878.489	12296.02
878.807	12283.82
879.125	12287.66
879.444	12117.94
879.762	12213.99
880.08	12212.18
880.398	12092.63
880.716	12091.73
881.034	12032.75
881.352	12059.19
881.67	11911.62
881.988	11954.56
882.306	12000.66
882.624	11916.37
882.941	11881.57
883.259	11767.22
883.577	11750.5
883.894	11706.66
884.212	11755.47
884.529	11670.95
884.846	11647
885.164	11607.9
885.481	11636.15
885.798	11606.32
886.115	11541.91
886.432	11532.65
886.75	11517.96
887.067	11493.33
887.383	11432.76
887.7	11429.83
888.017	11397.96
888.334	11411.07
888.651	11383.27
888.967	11301.69
889.284	11272.54
889.6	11288.36
889.917	11158.2
890.233	11234.58
890.55	11118.2
890.866	11204.97
891.182	11048.14
891.498	11076.62
891.815	10994.81
892.131	11030.74
892.447	10898.54
892.763	10944.64
893.079	10893.57
893.395	10827.58
893.71	10729.73
894.026	10842.72
894.342	10823.97
894.657	10647.7
894.973	10695.16
895.289	10651.77
895.604	10585.78
895.92	10495.84
896.235	10381.72
896.55	10456.52
896.865	10450.42
897.181	10347.6
897.496	10429.63
897.811	10323.87
898.126	10204.1
898.441	10218.78
898.756	10235.06
899.071	10197.32
899.386	10169.52
899.7	10114.83
900.015	10073.03
900.33	10032.12
900.644	10043.65
900.959	10040.94
901.273	9969.3
901.588	9813.6
901.902	9840.26
902.216	9786.71
902.531	9751
902.845	9771.34
903.159	9641.4
903.473	9631.68
903.787	9595.3
904.101	9522.08
904.415	9585.36
904.729	9567.95
905.042	9560.95
905.356	9453.83
905.67	9407.28
905.984	9426.04
906.297	9383.55
906.611	9330.22
906.924	9310.33
907.237	9296.78
907.551	9211.13
907.864	9191.47
908.177	9200.05
908.491	9144.46
908.804	9137.23
909.117	9007.52
909.43	8963.45
909.743	8961.19
910.056	8934.07
910.368	8966.84
910.681	8817.92
910.994	8760.74
911.307	8777.69
911.619	8760.52
911.932	8723.68
912.244	8678.49
912.557	8638.49
912.869	8551.71
913.181	8548.09
913.494	8559.85
913.806	8443.92
914.118	8440.3
914.43	8420.64
914.742	8354.43
915.054	8356.69
915.366	8274.66
915.678	8240.98
915.99	8161.89
916.302	8156.24
916.613	8152.17
916.925	8112.85
917.236	8134.55
917.548	8059.75
917.859	8055.9
918.171	7987.21
918.482	7916.92
918.794	7935.91
919.105	7915.34
919.416	7846.42
919.727	7729.58
920.038	7743.6
920.349	7667.44
920.66	7657.27
920.971	7639.64
921.282	7655.24
921.593	7604.62
921.903	7547.67
922.214	7523.26
922.525	7528.23
922.835	7411.63
923.146	7404.85
923.456	7411.85
923.767	7416.37
924.077	7346.54
924.387	7311.97
924.697	7271.52
925.008	7268.81
925.318	7227.23
925.628	7169.15
925.938	7162.14
926.248	7054.12
926.558	7029.94
926.867	6979.55
927.177	7063.61
927.487	6947.91
927.796	6909.04
928.106	6947.01
928.416	6877.63
928.725	6872.66
929.034	6862.04
929.344	6779.33
929.653	6763.96
929.962	6762.15
930.271	6681.02
930.581	6666.56
930.89	6641.03
931.199	6588.6
931.508	6560.35
931.817	6555.15
932.125	6558.09
932.434	6508.37
932.743	6453.01
933.051	6452.1
933.36	6347.7
933.669	6344.99
933.977	6376.17
934.286	6337.53
934.594	6317.42
934.902	6283.07
935.21	6257.53
935.519	6211.88
935.827	6199
936.135	6136.41
936.443	6114.71
936.751	6082.4
937.059	6074.94
937.367	6028.39
937.674	6027.26
937.982	5991.33
938.29	6013.25
938.597	5936.86
938.905	5929.41
939.213	5883.53
939.52	5867.71
939.827	5912.68
940.135	5709.75
940.442	5817.09
940.749	5825.68
941.056	5714.72
941.363	5684.21
941.67	5696.42
941.977	5609.19
942.284	5585.91
942.591	5617.78
942.898	5569.42
943.205	5537.33
943.511	5540.94
943.818	5488.06
944.125	5421.62
944.431	5474.05
944.738	5460.49
945.044	5392.02
945.35	5338.46
945.657	5360.16
945.963	5327.61
946.269	5314.51
946.575	5238.12
946.881	5218.46
947.187	5207.39
947.493	5173.72
947.799	5137.34
948.105	5129.65
948.41	5091.24
948.716	5087.39
949.022	5102.31
949.327	4979.6
949.633	4993.16
949.938	4992.03
950.244	4997.23
950.549	4934.4
950.854	4924.46
951.16	4919.94
951.465	4917.23
951.77	4833.84
952.075	4827.74
952.38	4821.41
952.685	4830.68
952.99	4783.9
953.294	4800.17
953.599	4761.98
953.904	4700.74
954.209	4723.11
954.513	4683.34
954.818	4697.12
955.122	4648.99
955.426	4600.18
955.731	4602.44
956.035	4595.43
956.339	4565.37
956.643	4551.14
956.948	4519.5
957.252	4514.53
957.556	4523.79
957.86	4448.09
958.163	4445.38
958.467	4448.32
958.771	4414.19
959.075	4404.7
959.378	4376.68
959.682	4364.48
959.985	4343.23
960.289	4289
960.592	4286.29
960.896	4277.02
961.199	4260.07
961.502	4224.37
961.805	4247.42
962.108	4141.66
962.411	4173.07
962.714	4176.23
963.017	4156.57
963.32	4115.67
963.623	4093.3
963.926	4088.55
964.228	4075.9
964.531	4023.24
964.833	4075.22
965.136	4051.72
965.438	3987.99
965.741	3957.71
966.043	3902.79
966.345	3920.65
966.648	3924.26
966.95	3870.03
967.252	3815.79
967.554	3850.36
967.856	3830.7
968.158	3836.58
968.46	3848.11
968.761	3786.86
969.063	3792.97
969.365	3747.77
969.666	3762.91
969.968	3709.13
970.269	3704.38
970.571	3718.84
970.872	3670.26
971.174	3615.12
971.475	3601.78
971.776	3629.35
972.077	3612.41
972.378	3620.99
972.679	3628.45
972.98	3512.52
973.281	3547.32
973.582	3508.23
973.883	3498.96
974.183	3452.64
974.484	3496.25
974.785	3461.9
975.085	3493.09
975.386	3464.61
975.686	3417.38
975.986	3421.22
976.287	3408.57
976.587	3342.81
976.887	3388.68
977.187	3347.33
977.487	3319.98
977.787	3336.03
978.087	3305.97
978.387	3272.75
978.687	3251.74
978.987	3247.44
979.286	3209.7
979.586	3242.7
979.885	3166.32
980.185	3163.15
980.484	3189.37
980.784	3152.53
981.083	3062.59
981.382	3136.94
981.682	3082.93
981.981	3103.49
982.28	3072.53
982.579	3105.3
982.878	3097.16
983.177	3033.44
983.475	3061.46
983.774	3020.56
984.073	2989.82
984.372	2970.84
984.67	3032.76
984.969	2964.06
985.267	2958.64
985.566	2975.36
985.864	2945.98
986.162	2921.8
986.461	2929.26
986.759	2904.18
987.057	2842.26
987.355	2864.18
987.653	2811.75
987.951	2838.19
988.249	2813.78
988.547	2845.19
988.844	2789.15
989.142	2790.96
989.44	2748.25
989.737	2703.28
990.035	2751.86
990.332	2705.54
990.63	2693.79
990.927	2727.68
991.224	2697.63
991.521	2654.24
991.819	2600.91
992.116	2627.12
992.413	2612.21
992.71	2614.69
993.006	2616.72
993.303	2589.83
993.6	2597.74
993.897	2568.36
994.193	2563.62
994.49	2539.89
994.787	2528.37
995.083	2485.2
995.379	2475.49
995.676	2498.54
995.972	2484.07
996.268	2449.05
996.565	2450.63
996.861	2432.1
997.157	2412.44
997.453	2413.11
997.749	2404.53
998.044	2397.3
998.34	2382.38
998.636	2325.66
998.932	2359.1
999.227	2341.25
999.523	2314.36
999.818	2293.8
1000.114	2317.75
1000.409	2281.82
1000.704	2276.85
1001	2288.15
1001.295	2239.56
1001.59	2260.8
1001.885	2262.61
1002.18	2218.09
1002.475	2207.92
1002.77	2167.25
1003.065	2187.81
1003.359	2148.94
1003.654	2151.2
1003.949	2108.72
1004.243	2101.03
1004.538	2080.02
1004.832	2096.06
1005.127	2072.78
1005.421	2097.19
1005.715	2079.79
1006.009	2071.2
1006.304	2031.66
1006.598	2003.41
1006.892	2000.24
1007.186	2001.83
1007.48	1962.05
1007.773	1989.17
1008.067	1951.66
1008.361	1948.49
1008.655	1948.04
1008.948	1939.23
1009.242	1942.84
1009.535	1908.5
1009.829	1916.86
1010.122	1861.26
1010.415	1898.55
1010.708	1890.42
1011.001	1877.08
1011.295	1811.32
1011.588	1821.94
1011.881	1841.15
1012.173	1849.29
1012.466	1810.19
1012.759	1813.13
1013.052	1789.63
1013.344	1767.03
1013.637	1789.63
1013.93	1764.09
1014.222	1746.92
1014.514	1730.87
1014.807	1726.35
1015.099	1716.41
1015.391	1682.29
1015.683	1699.46
1015.976	1676.41
1016.268	1698.56
1016.56	1638.9
1016.851	1651.33
1017.143	1647.03
1017.435	1638.67
1017.727	1642.74
1018.018	1605.9
1018.31	1593.7
1018.602	1612.46
1018.893	1607.03
1019.185	1558.22
1019.476	1562.29
1019.767	1567.94
1020.058	1567.26
1020.35	1530.88
1020.641	1513.25
1020.932	1522.52
1021.223	1501.95
1021.514	1490.65
1021.804	1477.55
1022.095	1458.11
1022.386	1470.77
1022.677	1426.25
1022.967	1422.18
1023.258	1434.16
1023.548	1398.68
1023.839	1426.93
1024.129	1396.87
1024.419	1404.55
1024.709	1371.79
1025	1362.07
1025.29	1356.42
1025.58	1336.98
1025.87	1327.27
1026.16	1313.03
1026.449	1331.34
1026.739	1311.67
1027.029	1278.46
1027.319	1309.19
1027.608	1279.36
1027.898	1276.65
1028.187	1303.99
1028.477	1268.06
1028.766	1254.05
1029.055	1238.91
1029.344	1257.44
1029.634	1227.83
1029.923	1218.8
1030.212	1223.54
1030.501	1196.88
1030.79	1196.2
1031.078	1199.36
1031.367	1185.8
1031.656	1185.58
1031.945	1162.75
1032.233	1146.48
1032.522	1155.97
1032.81	1134.96
1033.099	1134.05
1033.387	1134.5
1033.675	1133.37
1033.963	1123.66
1034.251	1100.83
1034.54	1087.05
1034.828	1087.27
1035.116	1084.11
1035.403	1105.8
1035.691	1077.1
1035.979	1068.29
1036.267	1073.94
1036.554	1049.31
1036.842	1033.72
1037.129	1041.17
1037.417	1004.79
1037.704	1035.07
1037.992	1037.78
1038.279	1017.67
1038.566	1017.22
1038.853	1017.22
1039.14	1017.22
