Data from white_poster_card_FLMS001491_00050.txt Node
Date: Wed Feb 08 11:51:35 GMT 2017
User: dcchb
Spectrometer: FLMS00149
Trigger mode: 0
Integration Time (sec): 2.000000E-2
Scans to average: 10
Electric dark correction enabled: true
Nonlinearity correction enabled: false
Boxcar width: 0
XAxis mode: Wavelengths
Number of Pixels in Spectrum: 2048
>>>>>Begin Spectral Data<<<<<
341.393	-9.73
341.776	-9.73
342.16	-9.73
342.543	-59.67
342.927	-54.93
343.31	-71.88
343.693	-70.29
344.077	-54.7
344.46	-75.27
344.843	-63.52
345.226	-37.08
345.61	-45.44
345.993	-37.53
346.376	-4.53
346.759	12.87
347.142	49.48
347.525	44.73
347.908	47.44
348.291	93.32
348.674	111.62
349.057	100.77
349.44	131.28
349.823	137.38
350.206	175.12
350.588	204.05
350.971	186.42
351.354	219.42
351.737	242.24
352.119	261.9
352.502	258.28
352.884	283.59
353.267	283.82
353.65	287.89
354.032	303.71
354.414	295.35
354.797	320.88
355.179	315.46
355.562	326.08
355.944	335.34
356.326	339.64
356.709	342.58
357.091	349.81
357.473	348.45
357.855	329.02
358.238	349.81
358.62	352.29
359.002	340.32
359.384	338.73
359.766	339.41
360.148	340.99
360.53	348.9
360.912	326.3
361.294	342.35
361.676	338.73
362.057	341.9
362.439	328.79
362.821	343.71
363.203	324.5
363.584	332.63
363.966	330.37
364.348	329.92
364.729	327.89
365.111	335.12
365.493	334.89
365.874	311.16
366.256	333.99
366.637	290.15
367.019	326.08
367.4	334.89
367.781	342.35
368.163	314.33
368.544	327.43
368.925	309.81
369.306	329.02
369.688	306.87
370.069	324.27
370.45	288.57
370.831	314.55
371.212	315.91
371.593	324.72
371.974	309.81
372.355	311.16
372.736	310.49
373.117	303.48
373.498	342.8
373.879	310.49
374.26	308.68
374.641	318.85
375.021	305.06
375.402	301.9
375.783	329.47
376.163	327.89
376.544	329.92
376.925	352.29
377.305	346.64
377.686	331.05
378.066	339.19
378.447	321.79
378.827	332.86
379.208	303.25
379.588	316.59
379.968	348.9
380.349	337.83
380.729	328.34
381.109	340.99
381.489	356.13
381.87	344.84
382.25	342.58
382.63	320.66
383.01	345.74
383.39	360.2
383.77	343.48
384.15	350.49
384.53	340.09
384.91	356.13
385.29	364.95
385.67	373.54
386.049	353.65
386.429	348.45
386.809	338.96
387.189	372.86
387.568	349.13
387.948	375.34
388.328	350.94
388.707	387.09
389.087	367.89
389.466	366.3
389.846	368.56
390.225	369.02
390.605	414.66
390.984	376.7
391.363	398.62
391.743	417.15
392.122	402.01
392.501	390.71
392.881	420.09
393.26	400.88
393.639	403.14
394.018	426.19
394.397	413.31
394.776	416.47
395.155	433.65
395.534	408.79
395.913	419.64
396.292	429.13
396.671	413.31
397.05	420.77
397.429	418.28
397.808	424.38
398.186	446.98
398.565	433.19
398.944	438.39
399.323	434.78
399.701	433.19
400.08	436.36
400.458	448.34
400.837	447.21
401.215	431.39
401.594	448.56
401.972	454.44
402.351	480.65
402.729	452.18
403.107	479.3
403.486	492.4
403.864	464.15
404.242	500.31
404.62	496.24
404.999	483.14
405.377	506.87
405.755	509.8
406.133	492.4
406.511	518.39
406.889	513.87
407.267	512.51
407.645	525.17
408.023	555
408.401	535.34
408.779	560.42
409.156	575.34
409.534	567.2
409.912	576.47
410.29	583.02
410.667	587.09
411.045	619.18
411.422	620.53
411.8	621.44
412.178	641.55
412.555	640.65
412.933	652.4
413.31	687.88
413.687	723.36
414.065	706.86
414.442	746.41
414.819	730.14
415.197	742.57
415.574	749.57
415.951	796.35
416.328	776.91
416.705	805.61
417.082	788.67
417.46	831.15
417.837	828.66
418.214	844.94
418.591	888.55
418.967	880.87
419.344	886.06
419.721	927.42
420.098	897.14
420.475	962.9
420.852	974.65
421.228	959.28
421.605	974.2
421.982	979.4
422.358	1006.74
422.735	1035.21
423.111	1011.94
423.488	1058.49
423.864	1068.43
424.241	1067.75
424.617	1113.18
424.994	1105.04
425.37	1140.75
425.746	1126.28
426.123	1148.43
426.499	1152.27
426.875	1194.98
427.251	1201.08
427.627	1209.45
428.003	1254.19
428.379	1242.89
428.756	1251.03
429.132	1270.69
429.507	1288.77
429.883	1301.65
430.259	1331.7
430.635	1386.62
431.011	1384.81
431.387	1401.53
431.763	1421.64
432.138	1428.42
432.514	1453.28
432.89	1493.73
433.265	1529.44
433.641	1524.69
434.016	1512.26
434.392	1563.33
434.767	1589.32
435.143	1594.07
435.518	1606.95
435.894	1635.42
436.269	1676.33
436.644	1697.34
437.02	1681.3
437.395	1691.47
437.77	1722.65
438.145	1744.12
438.52	1762.2
438.895	1796.32
439.271	1773.05
439.646	1826.15
440.021	1854.63
440.395	1861.41
440.77	1835.19
441.145	1859.15
441.52	1888.07
441.895	1873.83
442.27	1917.68
442.645	1914.96
443.019	1951.12
443.394	1954.74
443.769	1964
444.143	1962.42
444.518	1998.58
444.892	2004.45
445.267	2014.62
445.641	2026.83
446.016	2046.03
446.39	2021.63
446.764	2093.26
447.139	2064.56
447.513	2074.06
447.887	2094.62
448.262	2111.57
448.636	2135.3
449.01	2141.4
449.384	2159.48
449.758	2195.63
450.132	2182.3
450.506	2198.12
450.88	2180.95
451.254	2196.09
451.628	2248.51
452.002	2279.93
452.376	2293.71
452.75	2325.35
453.123	2308.4
453.497	2356.31
453.871	2406.48
454.244	2436.98
454.618	2443.09
454.992	2456.87
455.365	2490.77
455.739	2574.83
456.112	2535.96
456.486	2583.42
456.859	2616.19
457.232	2648.28
457.606	2624.55
457.979	2669.52
458.352	2736.41
458.725	2767.14
459.099	2779.35
459.472	2813.25
459.845	2854.37
460.218	2897.08
460.591	2908.38
460.964	2916.07
461.337	2990.19
461.71	3027.93
462.083	3076.29
462.456	3055.95
462.829	3063.41
463.201	3126.01
463.574	3169.17
463.947	3208.72
464.32	3269.5
464.692	3310.18
465.065	3312.67
465.438	3382.72
465.81	3379.33
466.183	3410.07
466.555	3494.58
466.928	3506.11
467.3	3528.93
467.672	3545.66
468.045	3655.48
468.417	3696.39
468.789	3690.96
469.161	3723.05
469.534	3840.34
469.906	3873.1
470.278	3925.08
470.65	3935.48
471.022	3991.97
471.394	4071.29
471.766	4104.51
472.138	4164.17
472.51	4203.94
472.882	4339.76
473.253	4339.76
473.625	4416.82
473.997	4528.68
474.369	4532.52
474.74	4589.47
475.112	4658.62
475.484	4739.75
475.855	4825.62
476.227	4821.78
476.598	4928.9
476.97	5028.78
477.341	5125.05
477.713	5180.64
478.084	5230.58
478.455	5343.57
478.827	5391.71
479.198	5494.08
479.569	5570.69
479.94	5675.77
480.311	5743.56
480.682	5915.08
481.053	6007.29
481.424	6093.16
481.795	6122.76
482.166	6240.27
482.537	6330.44
482.908	6482.08
483.279	6469.19
483.65	6631.9
484.021	6779.24
484.391	6890.65
484.762	6912.57
485.133	6910.31
485.503	7090.87
485.874	7240.02
486.244	7227.14
486.615	7409.28
486.985	7443.86
487.356	7635.94
487.726	7720.23
488.097	7924.07
488.467	7840.68
488.837	8025.09
489.207	8147.34
489.578	8239.54
489.948	8292.88
490.318	8492.19
490.688	8496.94
491.058	8665.52
491.428	8758.4
491.798	8853.99
492.168	8968.11
492.538	9046.75
492.908	9167.2
493.278	9213.3
493.648	9269.35
494.017	9442.68
494.387	9469.12
494.757	9589.11
495.126	9703.69
495.496	9695.32
495.866	9797.24
496.235	9914.98
496.605	9978.93
496.974	10117.46
497.344	10194.07
497.713	10246.72
498.082	10335.31
498.452	10373.05
498.821	10494.4
499.19	10507.05
499.559	10542.99
499.928	10715.18
500.298	10810.32
500.667	10894.16
501.036	10843.09
501.405	10964.44
501.774	11012.35
502.143	11121.28
502.512	11207.37
502.88	11329.18
503.249	11329.18
503.618	11439.46
503.987	11459.8
504.356	11556.52
504.724	11711.99
505.093	11687.59
505.462	11823.18
505.83	11884.65
506.199	11987.92
506.567	12114.02
506.936	12071.08
507.304	12299.32
507.672	12401.47
508.041	12385.42
508.409	12432.65
508.777	12581.8
509.145	12684.85
509.514	12702.93
509.882	12893.43
510.25	12808.01
510.618	12972.07
510.986	12994.45
511.354	13214.55
511.722	13198.96
512.09	13416.13
512.458	13404.38
512.826	13562.12
513.193	13598.27
513.561	13673.3
513.929	13789.45
514.297	13938.83
514.664	13941.54
515.032	14119.16
515.4	14286.62
515.767	14308.31
516.135	14407.06
516.502	14377.46
516.869	14576.78
517.237	14736.55
517.604	14722.31
517.972	14861.74
518.339	15011.34
518.706	14991
519.073	15102.19
519.44	15178.12
519.808	15489.75
520.175	15437.77
520.542	15536.75
520.909	15661.72
521.276	15722.06
521.643	15904.65
522.009	15989.17
522.376	16090.64
522.743	16157.98
523.11	16403.4
523.477	16599.1
523.843	16671.41
524.21	16851.97
524.577	16956.83
524.943	17113.21
525.31	17148.91
525.676	17336.93
526.043	17500.32
526.409	17537.15
526.776	17842.45
527.142	17784.38
527.508	17881.1
527.874	18101.43
528.241	18233.4
528.607	18213.52
528.973	18366.28
529.339	18369.67
529.705	18614.64
530.071	18768.08
530.437	18824.12
530.803	19053.27
531.169	19121.97
531.535	19020.5
531.901	19185.02
532.267	19317.67
532.632	19421.62
532.998	19568.96
533.364	19684.44
533.73	19677.21
534.095	19812.12
534.461	19903.19
534.826	20079.68
535.192	20122.62
535.557	20303.63
535.923	20252.11
536.288	20337.76
536.653	20498.66
537.019	20432.89
537.384	20571.42
537.749	20759.44
538.114	20766.9
538.479	20831.3
538.845	20959.21
539.21	20916.95
539.575	21043.73
539.94	21040.11
540.305	21278.07
540.67	21236.72
541.034	21333.44
541.399	21478.97
541.764	21538.18
542.129	21590.38
542.494	21719.64
542.858	21755.12
543.223	21782.46
543.587	21933.42
543.952	21951.73
544.316	21941.1
544.681	22054.32
545.045	22218.16
545.41	22304.48
545.774	22273.75
546.138	22408.44
546.503	22400.3
546.867	22481.2
547.231	22637.13
547.595	22684.59
547.959	22833.74
548.324	22799.84
548.688	23014.07
549.052	23007.74
549.416	23088.87
549.779	23118.47
550.143	23228.08
550.507	23388.07
550.871	23425.81
551.235	23472.82
551.599	23672.13
551.962	23708.29
552.326	23753.03
552.689	23936.76
553.053	23844.1
553.417	23953.25
553.78	24295.62
554.143	24125.91
554.507	24382.62
554.87	24430.08
555.234	24722.5
555.597	24520.47
555.96	24673.24
556.323	24800.24
556.686	24806.11
557.05	25004.53
557.413	24984.41
557.776	25233.22
558.139	25380.79
558.502	25403.61
558.865	25525.64
559.228	25680.44
559.59	25707.11
559.953	25821.23
560.316	26109.13
560.679	26147.77
561.041	26296.47
561.404	26370.82
561.767	26592.28
562.129	26489.01
562.492	26731.94
562.854	26801.32
563.217	26819.62
563.579	26997.69
563.941	27216.45
564.304	27290.57
564.666	27338.93
565.028	27465.93
565.39	27536.66
565.753	27760.16
566.115	27950.21
566.477	28036.54
566.839	28036.76
567.201	28230.66
567.563	28254.38
567.925	28456.19
568.287	28469.07
568.648	28482.85
569.01	28733.02
569.372	28845.78
569.734	28759.23
570.095	28923.97
570.457	29041.03
570.819	29150.18
571.18	29270.85
571.542	29384.98
571.903	29431.75
572.265	29602.82
572.626	29567.12
572.987	29660.22
573.349	29715.14
573.71	29919.65
574.071	29923.49
574.432	30037.16
574.794	30210.72
575.155	30311.73
575.516	30054.79
575.877	30334.1
576.238	30327.1
576.599	30530.48
576.96	30581.55
577.32	30393.99
577.681	30712.17
578.042	30746.97
578.403	30693.42
578.763	30708.78
579.124	30869
579.485	31025.16
579.845	31071.26
580.206	30954.43
580.566	30937.03
580.927	30972.96
581.287	31120.3
581.648	30988.1
582.008	31188.09
582.368	31220.18
582.728	31183.8
583.089	31204.59
583.449	31220.41
583.809	31164.82
584.169	31220.41
584.529	31285.26
584.889	31458.37
585.249	31141.31
585.609	31157.58
585.969	31353.29
586.329	31380.18
586.688	31304.25
587.048	31362.33
587.408	31194.65
587.768	31304.93
588.127	31244.36
588.487	31347.86
588.846	31583.11
589.206	31293.17
589.565	31384.02
589.925	31411.59
590.284	31502.43
590.643	31387.18
591.003	31583.56
591.362	31654.97
591.721	31484.81
592.08	31506.5
592.44	31638.7
592.799	31621.98
593.158	31606.39
593.517	31573.17
593.876	31541.98
594.235	31428.09
594.593	31550.57
594.952	31537.69
595.311	31591.25
595.67	31622.88
596.029	31793.95
596.387	31867.62
596.746	31889.54
597.104	31701.75
597.463	31727.06
597.822	31768.42
598.18	31759.15
598.538	31760.05
598.897	31905.36
599.255	31617.46
599.613	32193.94
599.972	31894.97
600.33	31962.54
600.688	31806.38
601.046	31953.95
601.404	32165.47
601.762	32016.77
602.12	32267.84
602.478	32258.57
602.836	32255.18
603.194	31991.46
603.552	32211.12
603.91	32002.31
604.268	32229.87
604.625	32118.46
604.983	32249.53
605.341	32048.41
605.698	32300.15
606.056	32329.53
606.413	32328.63
606.771	32404.11
607.128	32612.69
607.485	32396.42
607.843	32364.78
608.2	32582.86
608.557	32704.44
608.914	32559.36
609.272	32787.82
609.629	32808.39
609.986	32856.75
610.343	32645.46
610.7	33003.19
611.057	32956.18
611.414	32892.23
611.771	32901.04
612.127	32970.19
612.484	33074.37
612.841	33101.04
613.198	32957.99
613.554	32975.84
613.911	33176.06
614.267	33077.53
614.624	33203.63
614.98	33179.9
615.337	33318.43
615.693	33328.83
616.05	33229.85
616.406	33419.45
616.762	33331.31
617.118	33423.51
617.475	33282.27
617.831	33466.68
618.187	33401.14
618.543	33407.47
618.899	33604.98
619.255	33588.71
619.611	33552.55
619.967	33620.8
620.323	33765.43
620.678	33582.15
621.034	33585.09
621.39	33604.53
621.746	33665.54
622.101	33839.32
622.457	33641.14
622.812	33707.8
623.168	33694.02
623.523	33735.6
623.879	33941.92
624.234	33688.37
624.589	33764.75
624.945	33717.29
625.3	33675.26
625.655	33756.61
626.01	33691.98
626.365	33863.5
626.72	33682.72
627.075	33718.87
627.43	33688.14
627.785	33594.58
628.14	33599.55
628.495	33639.1
628.85	33612.66
629.205	33439.56
629.559	33693.34
629.914	33460.57
630.269	33618.99
630.623	33421.25
630.978	33391.42
631.332	33458.99
631.687	33443.17
632.041	33292.9
632.396	33239.11
632.75	33289.51
633.104	33478.88
633.459	33157.98
633.813	33280.92
634.167	33097.19
634.521	33252.22
634.875	33124.31
635.229	33127.25
635.583	32860.59
635.937	33016.52
636.291	32926.35
636.645	32925.22
636.999	32884.54
637.352	32870.08
637.706	32595.06
638.06	32872.34
638.413	32690.65
638.767	32602.52
639.121	32708.73
639.474	32337.44
639.828	32453.37
640.181	32478.45
640.534	32463.77
640.888	32458.57
641.241	32279.59
641.594	32285.69
641.947	32386.7
642.301	32307.61
642.654	32158.01
643.007	32313.94
643.36	32209.99
643.713	32108.75
644.066	32247.95
644.419	32057.45
644.771	31868.53
645.124	31611.58
645.477	31420.4
645.83	31267.86
646.182	31165.27
646.535	30982.45
646.888	31215.44
647.24	31010.47
647.593	31046.4
647.945	31085.5
648.298	30813.86
648.65	30895.67
649.002	30733.64
649.355	30868.78
649.707	30829.91
650.059	30967.76
650.411	31344.92
650.763	31270.58
651.115	31657.01
651.467	31531.81
651.819	31517.8
652.171	31372.04
652.523	31387.41
652.875	31321.65
653.227	31123.46
653.578	31360.97
653.93	31292.5
654.282	31191.48
654.633	31140.41
654.985	31112.61
655.337	31117.59
655.688	31052.95
656.039	31177.92
656.391	30914.2
656.742	30968.89
657.094	30926.86
657.445	31009.11
657.796	30838.5
658.147	30845.05
658.498	30777.48
658.849	30998.94
659.2	30934.99
659.551	30759.4
659.902	30936.8
660.253	30870.81
660.604	30876.01
660.955	30529.35
661.306	30777.26
661.656	30741.55
662.007	30749.69
662.358	30576.81
662.708	30747.65
663.059	30587.43
663.409	30345.63
663.76	30731.61
664.11	30527.09
664.461	30600.76
664.811	30551.72
665.161	30540.2
665.511	30449.13
665.862	30580.42
666.212	30599.18
666.562	30528
666.912	30387.89
667.262	30530.26
667.612	30526.41
667.962	30412.75
668.312	30306.53
668.662	30516.47
669.011	30385.63
669.361	30259.3
669.711	30370.94
670.06	30366.87
670.41	30166.65
670.76	30279.87
671.109	30304.5
671.459	30169.36
671.808	30115.13
672.157	30266.08
672.507	29925.53
672.856	30099.99
673.205	30081.68
673.554	30222.69
673.904	30108.35
674.253	30188.8
674.602	30090.95
674.951	29540.23
675.3	29383.39
675.649	29951.29
675.998	29962.59
676.346	30041.23
676.695	29945.87
677.044	29661.8
677.393	29841.46
677.741	29763.95
678.09	29727.11
678.438	29701.13
678.787	29723.95
679.135	29647.12
679.484	29483.28
679.832	29643.05
680.181	29446.22
680.529	29671.3
680.877	29633.11
681.225	29490.06
681.573	29688.47
681.922	29358.76
682.27	29332.32
682.618	29328.03
682.966	29192.89
683.314	29214.58
683.661	29205.32
684.009	29010.97
684.357	29063.63
684.705	28965.78
685.053	28987.25
685.4	28911.54
685.748	28741.15
686.095	28803.07
686.443	28686.92
686.79	28527.15
687.138	28655.5
687.485	28640.59
687.832	28529.63
688.18	28558.78
688.527	28276.76
688.874	28440.37
689.221	28218.45
689.568	28208.96
689.915	28142.97
690.262	28178.91
690.609	28001.51
690.956	27824.56
691.303	27970.1
691.65	27874.73
691.997	27788.18
692.344	27692.82
692.69	27666.83
693.037	27564.68
693.383	27430.68
693.73	27519.49
694.077	27237.24
694.423	27338.25
694.769	27171.93
695.116	27109.1
695.462	27173.73
695.808	26845.38
696.155	27040.18
696.501	26856
696.847	26846.74
697.193	26491.04
697.539	26667.31
697.885	26529.68
698.231	26498.72
698.577	26452.4
698.923	26365.39
699.269	26242.23
699.614	26157.72
699.96	26086.31
700.306	26164.72
700.651	26062.8
700.997	25890.83
701.342	25884.5
701.688	25870.27
702.033	25735.58
702.379	25630.5
702.724	25578.75
703.069	25725.86
703.415	25401.58
703.76	25444.06
704.105	25394.12
704.45	25343.5
704.795	25174.47
705.14	25142.6
705.485	25046.78
705.83	24944.87
706.175	24985.77
706.52	24866
706.865	24782.39
707.209	24861.71
707.554	24704.2
707.899	24748.49
708.243	24580.13
708.588	24463.75
708.932	24414.26
709.277	24398.89
709.621	24389.18
709.966	24216.3
710.31	24405.22
710.654	24036.19
710.998	24051.56
711.342	24191.44
711.687	24016.53
712.031	23994.16
712.375	23790.32
712.719	23879.81
713.063	23847.27
713.407	23948.73
713.75	23686.14
714.094	23629.2
714.438	23583.77
714.782	23650.21
715.125	23442.08
715.469	23628.74
715.812	23463.78
716.156	23329.54
716.499	23303.1
716.843	23454.74
717.186	23209.77
717.53	23106.27
717.873	23196.66
718.216	23214.74
718.559	23025.6
718.902	22911.93
719.246	22991.7
719.589	22915.54
719.932	22714.19
720.275	22805.49
720.617	22826.5
720.96	22733.63
721.303	22694.3
721.646	22766.62
721.989	22594.42
722.331	22718.26
722.674	22614.53
723.016	22601.65
723.359	22607.98
723.701	22489.79
724.044	22360.3
724.386	22368.21
724.729	22425.61
725.071	22273.98
725.413	22246.18
725.755	22197.82
726.097	21976.13
726.439	22034.66
726.782	21973.87
727.124	22142
727.465	21920.54
727.807	21999.41
728.149	21872.41
728.491	21853.42
728.833	21853.87
729.175	21729.36
729.516	21723.26
729.858	21674.44
730.199	21602.36
730.541	21611.17
730.882	21622.47
731.224	21613.88
731.565	21534.79
731.906	21554.45
732.248	21620.21
732.589	21351.29
732.93	21297.96
733.271	21339.54
733.612	21276.26
733.953	21262.7
734.294	21266.09
734.635	21133.89
734.976	21288.24
735.317	21109.71
735.658	21134.12
735.999	21099.77
736.339	21064.74
736.68	21079.88
737.021	21067.45
737.361	20961.69
737.702	21068.36
738.042	21032.65
738.383	20820.68
738.723	20896.84
739.063	20855.93
739.404	20893.67
739.744	20773.22
740.084	20652.1
740.424	20731.87
740.764	20612.33
741.104	20687.8
741.444	20551.31
741.784	20514.02
742.124	20587.47
742.464	20483.74
742.804	20448.26
743.143	20475.61
743.483	20511.54
743.823	20289.85
744.162	20323.97
744.502	20429.05
744.841	20161.72
745.181	20248.27
745.52	20174.37
745.86	20249.85
746.199	20112.23
746.538	20107.93
746.877	20096.41
747.216	20037.65
747.556	20038.33
747.895	19931.21
748.234	19855.73
748.573	19892.8
748.911	19832.01
749.25	19804.44
749.589	19762.63
749.928	19747.04
750.267	19752.91
750.605	19676.08
750.944	19529.64
751.283	19506.14
751.621	19625.91
751.96	19504.78
752.298	19602.86
752.636	19409.42
752.975	19372.36
753.313	19231.57
753.651	19360.38
753.989	19307.05
754.327	19337.56
754.666	19157
755.004	19243.77
755.342	19246.71
755.679	19117.9
756.017	18991.58
756.355	19002.65
756.693	18999.03
757.031	19007.85
757.368	18879.49
757.706	18898.92
758.044	18738.25
758.381	18766.5
758.719	18733.96
759.056	18681.98
759.394	18573.06
759.731	18433.85
760.068	18506.62
760.405	18405.38
760.743	18373.51
761.08	18372.16
761.417	18236.57
761.754	18190.02
762.091	18183.46
762.428	18091.71
762.765	18038.38
763.102	18011.94
763.438	17900.53
763.775	17886.52
764.112	17802.91
764.449	17783.47
764.785	17695.11
765.122	17620.99
765.458	17479.98
765.795	17601.33
766.131	17555.68
766.467	17349.36
766.804	17400.66
767.14	17289.02
767.476	17303.49
767.812	17183.26
768.148	17190.27
768.485	17042.48
768.821	16992.31
769.157	17019.65
769.492	16959.77
769.828	16892.42
770.164	16685.87
770.5	16724.74
770.836	16581.24
771.171	16655.82
771.507	16564.3
771.842	16443.85
772.178	16360.46
772.513	16367.24
772.849	16362.72
773.184	16306.22
773.519	16242.5
773.855	16103.07
774.19	16061.03
774.525	15992.33
774.86	16011.09
775.195	15940.36
775.53	15885.9
775.865	15888.61
776.2	15682.06
776.535	15589.86
776.87	15615.39
777.205	15531.78
777.539	15576.75
777.874	15575.17
778.209	15354.38
778.543	15329.07
778.878	15269.64
779.212	15211.34
779.547	15159.14
779.881	15210.43
780.215	15149.19
780.55	15180.6
780.884	15018.8
781.218	15007.27
781.552	14968.41
781.886	14832.82
782.22	14756.43
782.554	14736.32
782.888	14619.04
783.222	14564.12
783.556	14533.16
783.889	14565.48
784.223	14385.37
784.557	14400.29
784.89	14322.32
785.224	14318.25
785.557	14242.1
785.891	14198.03
786.224	14179.5
786.558	14216.34
786.891	13936.79
787.224	13943.12
787.557	13939.73
787.891	13862.9
788.224	13883.01
788.557	13822
788.89	13858.83
789.223	13818.61
789.556	13660.64
789.888	13680.3
790.221	13505.62
790.554	13457.94
790.887	13498.61
791.219	13414.1
791.552	13379.75
791.884	13248.9
792.217	13227.21
792.549	13240.99
792.882	13073.09
793.214	13142.24
793.546	13076.7
793.879	13021.56
794.211	12995.35
794.543	12989.47
794.875	12849.37
795.207	12897.05
795.539	12865.18
795.871	12891.62
796.203	12741.8
796.535	12737.5
796.867	12649.6
797.198	12591.29
797.53	12622.7
797.862	12560.79
798.193	12597.17
798.525	12453.67
798.856	12456.16
799.188	12331.64
799.519	12293.67
799.85	12229.72
800.182	12298.42
800.513	12285.76
800.844	12140.91
801.175	12278.99
801.506	12237.4
801.837	12108.59
802.168	12078.31
802.499	11951.08
802.83	11942.72
803.161	11909.05
803.491	11908.6
803.822	11882.84
804.153	11868.83
804.483	11701.37
804.814	11736.63
805.145	11727.36
805.475	11710.41
805.805	11645.33
806.136	11688.04
806.466	11576.86
806.796	11582.51
807.126	11549.51
807.457	11534.82
807.787	11511.32
808.117	11398.78
808.447	11388.61
808.777	11446.46
809.107	11338.67
809.436	11314.04
809.766	11300.25
810.096	11272.91
810.426	11232.01
810.755	11199.24
811.085	11227.49
811.414	11193.36
811.744	11088.28
812.073	11032.69
812.403	11102.52
812.732	11047.83
813.061	10995.85
813.39	10932.58
813.719	10900.26
814.049	10913.15
814.378	10952.69
814.707	10875.18
815.036	10784.11
815.365	10742.08
815.693	10667.5
816.022	10667.5
816.351	10632.47
816.68	10528.52
817.008	10604.68
817.337	10563.1
817.665	10482.65
817.994	10483.55
818.322	10511.12
818.651	10419.82
818.979	10492.59
819.307	10464.8
819.636	10444.01
819.964	10352.48
820.292	10460.05
820.62	10363.56
820.948	10240.85
821.276	10382.99
821.604	10327.62
821.932	10359.71
822.259	10353.39
822.587	10351.8
822.915	10229.1
823.243	10314.74
823.57	10280.17
823.898	10248.98
824.225	10204.46
824.553	10293.27
824.88	10247.17
825.207	10314.74
825.535	10219.83
825.862	10284.01
826.189	10244.69
826.516	10292.82
826.843	10300.96
827.17	10289.88
827.497	10259.38
827.824	10312.03
828.151	10322.88
828.478	10258.47
828.805	10270.68
829.131	10270
829.458	10279.72
829.785	10225.03
830.111	10256.44
830.438	10283.33
830.764	10238.59
831.09	10261.41
831.417	10265.48
831.743	10289.88
832.069	10257.8
832.395	10276.33
832.722	10196.55
833.048	10159.04
833.374	10180.06
833.7	10184.35
834.026	10186.16
834.351	10180.96
834.677	10147.97
835.003	10202.88
835.329	10069.33
835.654	10177.35
835.98	10072.72
836.306	10186.38
836.631	10074.3
836.956	10055.77
837.282	10099.61
837.607	9955.88
837.932	9967.63
838.258	9980.29
838.583	10018.03
838.908	9966.05
839.233	9973.06
839.558	9916.11
839.883	9857.58
840.208	9862.55
840.533	9884.02
840.858	9804.47
841.182	9829.33
841.507	9809.9
841.832	9730.58
842.156	9810.8
842.481	9767.41
842.805	9741.2
843.13	9681.99
843.454	9660.75
843.778	9672.05
844.103	9627.98
844.427	9625.5
844.751	9669.34
845.075	9564.48
845.399	9563.58
845.723	9489.68
846.047	9561.09
846.371	9446.52
846.695	9467.08
847.019	9387.31
847.343	9304.83
847.666	9256.69
847.99	9276.8
848.313	9256.01
848.637	9117.03
848.96	9110.48
849.284	9123.81
849.607	9055.57
849.931	9068
850.254	9042.01
850.577	8939.86
850.9	8859.41
851.223	8805.4
851.546	8793.88
851.869	8805.18
852.192	8785.07
852.515	8766.31
852.838	8702.81
853.161	8696.48
853.483	8680.89
853.806	8604.05
854.129	8608.35
854.451	8567.22
854.774	8511.17
855.096	8537.84
855.419	8530.38
855.741	8453.55
856.063	8441.8
856.385	8390.95
856.708	8428.24
857.03	8362.25
857.352	8336.94
857.674	8300.78
857.996	8304.63
858.318	8216.49
858.64	8265.08
858.961	8198.64
859.283	8182.82
859.605	8151.18
859.926	8206.55
860.248	8220.79
860.57	8118.19
860.891	8161.35
861.212	8115.03
861.534	8013.56
861.855	8039.32
862.176	8022.83
862.498	8062.82
862.819	7976.5
863.14	8010.85
863.461	7983.73
863.782	7913.45
864.103	7942.83
864.424	7888.37
864.745	7898.08
865.065	7866.67
865.386	7893.79
865.707	7803.62
866.027	7842.72
866.348	7822.83
866.668	7837.97
866.989	7807.92
867.309	7703.74
867.63	7762.95
867.95	7774.7
868.27	7676.17
868.59	7695.83
868.91	7719.56
869.23	7706.45
869.55	7579.9
869.87	7695.6
870.19	7670.97
870.51	7652.21
870.83	7587.81
871.15	7637.98
871.469	7624.64
871.789	7643.17
872.109	7521.37
872.428	7570.86
872.748	7509.39
873.067	7541.03
873.386	7550.97
873.706	7491.77
874.025	7463.74
874.344	7447.25
874.663	7395.5
874.982	7449.51
875.301	7459.22
875.62	7396.18
875.939	7369.28
876.258	7489.05
876.577	7380.81
876.896	7367.48
877.214	7310.3
877.533	7315.5
877.852	7385.33
878.17	7320.02
878.489	7313.69
878.807	7391.66
879.125	7330.87
879.444	7323.64
879.762	7299.23
880.08	7320.7
880.398	7219.23
880.716	7246.35
881.034	7237.76
881.352	7202.73
881.67	7183.53
881.988	7181.94
882.306	7235.73
882.624	7080.25
882.941	7119.57
883.259	7080.03
883.577	7111.21
883.894	7065.56
884.212	7065.79
884.529	7077.54
884.846	7070.31
885.164	7031.89
885.481	6985.11
885.798	6958.45
886.115	6947.6
886.432	6902.86
886.75	6965
887.067	6931.56
887.383	6903.31
887.7	6920.93
888.017	6864.66
888.334	6815.4
888.651	6827.38
888.967	6842.52
889.284	6810.65
889.6	6781.05
889.917	6765.01
890.233	6721.39
890.55	6694.27
890.866	6705.57
891.182	6640.94
891.498	6682.97
891.815	6634.16
892.131	6586.93
892.447	6617.44
892.763	6555.07
893.079	6558.68
893.395	6503.32
893.71	6537.44
894.026	6489.53
894.342	6509.19
894.657	6448.4
894.973	6438.69
895.289	6415.86
895.604	6370.89
895.92	6399.82
896.235	6359.37
896.55	6300.16
896.865	6276.66
897.181	6303.77
897.496	6283.21
897.811	6250.44
898.126	6230.78
898.441	6236.21
898.756	6143.1
899.071	6138.81
899.386	6139.49
899.7	6116.89
900.015	6108.98
900.33	6049.77
900.644	6057.68
900.959	6062.2
901.273	6058.13
901.588	5996.21
901.902	5934.52
902.216	5952.6
902.531	5925.93
902.845	5900.85
903.159	5885.03
903.473	5873.5
903.787	5791.7
904.101	5813.62
904.415	5797.12
904.729	5813.17
905.042	5779.49
905.356	5758.48
905.67	5706.73
905.984	5718.93
906.297	5738.59
906.611	5653.17
906.924	5648.65
907.237	5696.79
907.551	5625.6
907.864	5609.56
908.177	5617.24
908.491	5582.21
908.804	5536.34
909.117	5471.25
909.43	5505.6
909.743	5468.54
910.056	5428.32
910.368	5464.25
910.681	5430.58
910.994	5410.01
911.307	5313.74
911.619	5318.49
911.932	5327.53
912.244	5310.81
912.557	5249.34
912.869	5302.45
913.181	5292.05
913.494	5229.45
913.806	5183.8
914.118	5194.65
914.43	5163.69
914.742	5103.35
915.054	5146.07
915.366	5104.48
915.678	5060.64
915.99	5077.82
916.302	4989.46
916.613	4984.26
916.925	4992.85
917.236	4964.6
917.548	4939.07
917.859	4937.03
918.171	4939.07
918.482	4894.32
918.794	4916.69
919.105	4854.32
919.416	4808.9
919.727	4859.29
920.038	4798.28
920.349	4738.39
920.66	4765.28
920.971	4755.34
921.282	4743.14
921.593	4684.16
921.903	4619.75
922.214	4622.69
922.525	4657.26
922.835	4611.39
923.146	4579.07
923.456	4587.89
923.767	4544.05
924.077	4560.32
924.387	4527.78
924.697	4514.44
925.008	4528.45
925.318	4464.5
925.628	4486.65
925.938	4463.37
926.248	4436.93
926.558	4382.24
926.867	4325.75
927.177	4338.4
927.487	4354.22
927.796	4306.77
928.106	4297.05
928.416	4287.1
928.725	4308.12
929.034	4259.08
929.344	4261.34
929.653	4234.22
929.962	4196.71
930.271	4183.15
930.581	4169.82
930.89	4177.28
931.199	4149.03
931.508	4106.32
931.817	4164.17
932.125	4106.54
932.434	4119.88
932.743	4003.04
933.051	4024.29
933.36	4034.68
933.669	4031.74
933.977	3988.58
934.286	3968.24
934.594	3973.21
934.902	3956.27
935.21	3926.44
935.519	3881.92
935.827	3911.3
936.135	3881.47
936.443	3840.56
936.751	3817.74
937.059	3851.64
937.367	3808.02
937.674	3751.3
937.982	3814.35
938.29	3737.51
938.597	3778.87
938.905	3693.45
939.213	3688.48
939.52	3688.25
939.827	3699.32
940.135	3651.19
940.442	3602.38
940.749	3628.82
941.056	3645.09
941.363	3567.12
941.67	3623.62
941.977	3522.38
942.284	3564.19
942.591	3564.86
942.898	3518.76
943.205	3511.98
943.511	3515.37
943.818	3485.09
944.125	3514.47
944.431	3475.6
944.738	3441.48
945.044	3442.61
945.35	3420.46
945.657	3368.26
945.963	3424.3
946.269	3408.48
946.575	3376.17
946.881	3346.11
947.187	3311.99
947.493	3317.86
947.799	3294.14
948.105	3292.55
948.41	3297.75
948.716	3236.28
949.022	3250.75
949.327	3235.16
949.633	3226.12
949.938	3173.91
950.244	3203.29
950.549	3174.37
950.854	3201.03
951.16	3179.56
951.465	3144.99
951.77	3132.11
952.075	3149.28
952.38	3104.54
952.685	3102.96
952.99	3108.83
953.294	3082.16
953.599	3044.88
953.904	3046.01
954.209	3017.76
954.513	3016.4
954.818	2976.63
955.122	3017.08
955.426	3011.88
955.731	2963.3
956.035	2976.4
956.339	2938.44
956.643	2898.89
956.948	2904.09
957.252	2890.53
957.556	2884.43
957.86	2865.22
958.163	2873.58
958.467	2876.97
958.771	2820.25
959.075	2817.76
959.378	2804.21
959.682	2843.07
959.985	2791.55
960.289	2806.47
960.592	2776.86
960.896	2758.11
961.199	2742.51
961.502	2717.43
961.805	2742.74
962.108	2723.53
962.411	2719.69
962.714	2693.7
963.017	2676.3
963.32	2689.41
963.623	2643.98
963.926	2676.98
964.228	2579.35
964.531	2620.03
964.833	2627.49
965.136	2619.35
965.438	2580.03
965.741	2602.18
966.043	2607.37
966.345	2553.37
966.648	2565.34
966.95	2556.3
967.252	2553.37
967.554	2531.44
967.856	2495.06
968.158	2474.27
968.46	2475.85
968.761	2499.81
969.063	2493.03
969.365	2477.89
969.666	2434.95
969.968	2406.25
970.269	2434.72
970.571	2401.5
970.872	2418.68
971.174	2406.7
971.475	2369.87
971.776	2351.79
972.077	2365.35
972.378	2374.16
972.679	2387.49
972.98	2339.81
973.281	2304.78
973.582	2352.01
973.883	2328.96
974.183	2320.83
974.484	2306.14
974.785	2288.29
975.085	2328.51
975.386	2296.65
975.686	2252.36
975.986	2267.72
976.287	2227.95
976.587	2213.26
976.887	2222.98
977.187	2237.67
977.487	2208.06
977.787	2202.41
978.087	2164.9
978.387	2174.39
978.687	2188.18
978.987	2168.29
979.286	2141.4
979.586	2178.69
979.885	2109.99
980.185	2136.65
980.484	2091.68
980.784	2112.7
981.083	2094.17
981.382	2090.78
981.682	2093.94
981.981	2079.48
982.28	2029.54
982.579	2073.83
982.878	2022.98
983.177	2053.94
983.475	2027.5
983.774	2021.85
984.073	2015.07
984.372	2001.06
984.67	1989.99
984.969	2000.61
985.267	1989.31
985.566	1964.91
985.864	1961.52
986.162	1961.97
986.461	1926.71
986.759	1933.72
987.057	1946.38
987.355	1945.7
987.653	1937.56
987.951	1884.68
988.249	1926.94
988.547	1896.66
988.844	1874.06
989.142	1882.2
989.44	1848.98
989.737	1834.06
990.035	1860.95
990.332	1848.3
990.63	1812.82
990.927	1817.11
991.224	1833.38
991.521	1800.62
991.819	1794.74
992.116	1800.39
992.413	1794.51
992.71	1782.76
993.006	1761.52
993.303	1753.39
993.6	1777.79
993.897	1732.37
994.193	1731.69
994.49	1739.83
994.787	1732.14
995.083	1716.78
995.379	1673.84
995.676	1689.43
995.972	1677.91
996.268	1672.03
996.565	1673.61
996.861	1662.09
997.157	1664.57
997.453	1650.56
997.749	1635.2
998.044	1606.27
998.34	1623.22
998.636	1631.58
998.932	1620.06
999.227	1613.28
999.523	1600.4
999.818	1577.8
1000.114	1553.39
1000.409	1588.42
1000.704	1552.94
1001	1542.09
1001.295	1567.18
1001.59	1544.8
1001.885	1557.91
1002.18	1533.73
1002.475	1541.19
1002.77	1517.23
1003.065	1498.25
1003.359	1501.42
1003.654	1453.28
1003.949	1466.61
1004.243	1451.47
1004.538	1451.25
1004.832	1454.18
1005.127	1445.37
1005.421	1446.05
1005.715	1443.56
1006.009	1430.91
1006.304	1427.52
1006.598	1392.72
1006.892	1402.66
1007.186	1385.71
1007.48	1403.79
1007.773	1371.25
1008.067	1361.31
1008.361	1366.73
1008.655	1375.32
1008.948	1368.09
1009.242	1358.59
1009.535	1381.87
1009.829	1331.93
1010.122	1309.1
1010.415	1328.76
1010.708	1344.81
1011.001	1328.09
1011.295	1305.04
1011.588	1312.72
1011.881	1280.18
1012.173	1280.63
1012.466	1266.39
1012.759	1264.59
1013.052	1263
1013.344	1243.57
1013.637	1264.81
1013.93	1247.18
1014.222	1264.81
1014.514	1243.79
1014.807	1190.46
1015.099	1182.33
1015.391	1213.51
1015.683	1179.16
1015.976	1192.04
1016.268	1174.64
1016.56	1177.58
1016.851	1164.93
1017.143	1172.16
1017.435	1156.11
1017.727	1162.22
1018.018	1152.05
1018.31	1150.69
1018.602	1163.35
1018.893	1147.75
1019.185	1149.11
1019.476	1112.72
1019.767	1128.32
1020.058	1123.35
1020.35	1091.48
1020.641	1100.52
1020.932	1099.39
1021.223	1082.22
1021.514	1064.14
1021.804	1063.46
1022.095	1077.02
1022.386	1075.89
1022.677	1060.3
1022.967	1050.13
1023.258	1037.7
1023.548	1042.44
1023.839	1017.59
1024.129	1013.29
1024.419	1027.08
1024.709	991.6
1025	1014.42
1025.29	1022.11
1025.58	971.03
1025.87	983.91
1026.16	985.27
1026.449	1001.54
1026.739	977.59
1027.029	960.19
1027.319	933.75
1027.608	952.5
1027.898	942.56
1028.187	961.54
1028.477	923.13
1028.766	933.75
1029.055	920.19
1029.344	923.58
1029.634	901.43
1029.923	894.65
1030.212	884.48
1030.501	883.58
1030.79	886.29
1031.078	891.94
1031.367	871.6
1031.656	883.13
1031.945	862.56
1032.233	866.63
1032.522	862.11
1032.81	867.99
1033.099	859.62
1033.387	840.87
1033.675	824.37
1033.963	826.86
1034.251	830.25
1034.54	834.54
1034.828	820.76
1035.116	823.69
1035.403	814.2
1035.691	833.86
1035.979	816.01
1036.267	802
1036.554	782.11
1036.842	785.28
1037.129	791.15
1037.417	775.78
1037.704	765.84
1037.992	778.27
1038.279	761.55
1038.566	745.73
1038.853	745.73
1039.14	745.73
