Data from white_poster_card_FLMS001491_00093.txt Node
Date: Wed Feb 08 11:52:17 GMT 2017
User: dcchb
Spectrometer: FLMS00149
Trigger mode: 0
Integration Time (sec): 2.000000E-2
Scans to average: 10
Electric dark correction enabled: true
Nonlinearity correction enabled: false
Boxcar width: 0
XAxis mode: Wavelengths
Number of Pixels in Spectrum: 2048
>>>>>Begin Spectral Data<<<<<
341.393	-6.48
341.776	-6.48
342.16	-6.48
342.543	-83.32
342.927	-72.7
343.31	-77.67
343.693	-86.25
344.077	-73.37
344.46	-60.49
344.843	-34.96
345.226	-39.48
345.61	-33.37
345.993	-18.46
346.376	-4.45
346.759	-1.29
347.142	23.8
347.525	63.8
347.908	61.31
348.291	81.42
348.674	94.08
349.057	105.38
349.44	117.81
349.823	125.49
350.206	157.58
350.588	207.52
350.971	213.85
351.354	230.57
351.737	238.26
352.119	240.29
352.502	244.81
352.884	268.99
353.267	283.23
353.65	275.77
354.032	290.68
354.414	298.14
354.797	308.54
355.179	317.8
355.562	311.25
355.944	324.13
356.326	333.4
356.709	327.97
357.091	311.47
357.473	355.54
357.855	347.41
358.238	340.63
358.62	323.9
359.002	365.48
359.384	346.5
359.766	329.33
360.148	317.35
360.53	342.43
360.912	335.66
361.294	339.5
361.676	324.58
362.057	314.86
362.439	326.84
362.821	325.94
363.203	325.71
363.584	325.49
363.966	311.93
364.348	323
364.729	332.94
365.111	322.77
365.493	326.84
365.874	338.59
366.256	318.25
366.637	316.67
367.019	318.71
367.4	316.9
367.781	306.96
368.163	312.38
368.544	317.58
368.925	308.31
369.306	326.84
369.688	304.7
370.069	320.29
370.45	340.85
370.831	308.31
371.212	333.17
371.593	308.31
371.974	314.19
372.355	308.76
372.736	310.57
373.117	308.99
373.498	307.86
373.879	312.15
374.26	323.45
374.641	307.41
375.021	305.37
375.402	339.95
375.783	338.59
376.163	325.71
376.544	326.39
376.925	318.93
377.305	330.46
377.686	328.65
378.066	352.83
378.447	327.52
378.827	329.1
379.208	339.04
379.588	351.02
379.968	343.56
380.349	318.71
380.729	308.31
381.109	343.56
381.489	326.62
381.87	361.64
382.25	349.21
382.63	330.46
383.01	333.17
383.39	359.38
383.77	348.31
384.15	337.69
384.53	355.77
384.91	356.67
385.29	342.89
385.67	366.39
386.049	356.67
386.429	344.92
386.809	365.03
387.189	356.22
387.568	360.97
387.948	366.16
388.328	373.85
388.707	363.45
389.087	372.26
389.466	374.3
389.846	384.02
390.225	381.53
390.605	376.33
390.984	386.28
391.363	386.5
391.743	396.67
392.122	388.53
392.501	400.06
392.881	405.48
393.26	401.19
393.639	403.45
394.018	391.25
394.397	394.64
394.776	384.92
395.155	405.48
395.534	409.55
395.913	416.1
396.292	424.69
396.671	426.27
397.05	400.29
397.429	417.46
397.808	404.58
398.186	420.17
398.565	436.44
398.944	442.77
399.323	424.01
399.701	444.35
400.08	458.82
400.458	437.12
400.837	462.88
401.215	436.44
401.594	435.77
401.972	434.18
402.351	450
402.729	464.01
403.107	449.32
403.486	463.56
403.864	450.68
404.242	470.57
404.62	453.17
404.999	495.42
405.377	472.37
405.755	472.37
406.133	490.91
406.511	502.66
406.889	504.01
407.267	517.35
407.645	529.1
408.023	510.57
408.401	506.5
408.779	528.87
409.156	527.97
409.534	554.86
409.912	564.58
410.29	557.12
410.667	561.41
411.045	607.29
411.422	595.99
411.8	615.65
412.178	624.46
412.555	649.55
412.933	633.27
413.31	652.71
413.687	645.03
414.065	687.74
414.442	685.25
414.819	692.93
415.197	685.7
415.574	737.45
415.951	731.12
416.328	747.4
416.705	777.45
417.082	779.49
417.46	747.85
417.837	811.35
418.214	814.51
418.591	837.34
418.967	834.62
419.344	852.7
419.721	856.55
420.098	871.01
420.475	891.35
420.852	888.41
421.228	925.7
421.605	925.02
421.982	945.13
422.358	958.46
422.735	960.95
423.111	923.44
423.488	995.52
423.864	1010.44
424.241	1031.23
424.617	1041.17
424.994	1046.14
425.37	1070.32
425.746	1052.25
426.123	1105.13
426.499	1052.92
426.875	1108.29
427.251	1127.5
427.627	1165.46
428.003	1193.94
428.379	1176.31
428.756	1221.51
429.132	1182.19
429.507	1243.43
429.883	1233.71
430.259	1263.09
430.635	1285.69
431.011	1282.07
431.387	1340.6
431.763	1346.02
432.138	1357.55
432.514	1383.31
432.89	1381.73
433.265	1411.56
433.641	1405.91
434.016	1455.17
434.392	1457.89
434.767	1502.18
435.143	1504.21
435.518	1539.24
435.894	1542.63
436.269	1512.12
436.644	1603.19
437.02	1590.54
437.395	1633.02
437.77	1641.38
438.145	1650.65
438.52	1654.72
438.895	1654.04
439.271	1709.86
439.646	1738.56
440.021	1708.73
440.395	1715.28
440.77	1740.82
441.145	1741.49
441.52	1770.19
441.895	1795.28
442.27	1771.55
442.645	1814.03
443.019	1835.05
443.394	1837.54
443.769	1859.46
444.143	1820.81
444.518	1861.94
444.892	1850.64
445.267	1901.94
445.641	1917.08
446.016	1900.36
446.39	1928.16
446.764	1936.74
447.139	1919.57
447.513	1941.26
447.887	1969.06
448.262	1957.99
448.636	1991.43
449.01	2027.59
449.384	2022.39
449.758	2052.22
450.132	2065.33
450.506	2037.31
450.88	2066.91
451.254	2093.12
451.628	2139.68
452.002	2143.07
452.376	2120.47
452.75	2180.8
453.123	2204.98
453.497	2235.72
453.871	2267.13
454.244	2283.4
454.618	2296.96
454.992	2332.89
455.365	2333.79
455.739	2376.96
456.112	2421.02
456.486	2423.96
456.859	2402.27
457.232	2467.12
457.606	2455.83
457.979	2505.09
458.352	2562.94
458.725	2603.84
459.099	2596.39
459.472	2658.76
459.845	2651.07
460.218	2702.6
460.591	2728.36
460.964	2737.63
461.337	2767.46
461.71	2809.49
462.083	2862.82
462.456	2912.76
462.829	2925.42
463.201	2912.31
463.574	2952.54
463.947	3021.91
464.32	3075.24
464.692	3051.06
465.065	3090.16
465.438	3169.25
465.81	3202.92
466.183	3218.74
466.555	3281.79
466.928	3248.57
467.3	3298.06
467.672	3322.92
468.045	3418.96
468.417	3424.61
468.789	3411.51
469.161	3553.2
469.534	3563.14
469.906	3600.65
470.278	3673.65
470.65	3695.57
471.022	3772.4
471.394	3823.92
471.766	3830.03
472.138	3884.94
472.51	3962.23
472.882	4017.14
473.253	4038.38
473.625	4095.78
473.997	4219.17
474.369	4241.09
474.74	4256.68
475.112	4400.86
475.484	4396.11
475.855	4456
476.227	4523.79
476.598	4652.6
476.97	4637.69
477.341	4802.2
477.713	4806.95
478.084	4834.52
478.455	4982.76
478.827	5053.95
479.198	5196.77
479.569	5221.4
479.94	5295.98
480.311	5417.33
480.682	5501.85
481.053	5587.27
481.424	5645.35
481.795	5703.2
482.166	5873.81
482.537	5827.04
482.908	5978.67
483.279	6083.98
483.65	6148.61
484.021	6257.08
484.391	6325.33
484.762	6383.86
485.133	6480.8
485.503	6563.06
485.874	6704.3
486.244	6758.09
486.615	6918.98
486.985	6940.68
487.356	7147.23
487.726	7076.49
488.097	7300.44
488.467	7338.63
488.837	7474.9
489.207	7539.08
489.578	7667.44
489.948	7755.57
490.318	7891.84
490.688	7840.32
491.058	8049.35
491.428	8137.26
491.798	8160.53
492.168	8372.28
492.538	8375.9
492.908	8435.78
493.278	8630.8
493.648	8620.41
494.017	8706.28
494.387	8796
494.757	8919.84
495.126	8990.12
495.496	9004.13
495.866	9049.55
496.235	9260.84
496.605	9233.95
496.974	9306.27
497.344	9465.13
497.713	9444.12
498.082	9537.45
498.452	9648.86
498.821	9729.76
499.19	9777.89
499.559	9816.76
499.928	9981.05
500.298	10006.81
500.667	10081.61
501.036	10130.88
501.405	10275.51
501.774	10232.57
502.143	10357.99
502.512	10419.91
502.88	10501.72
503.249	10451.77
503.618	10553.69
503.987	10668.72
504.356	10680.47
504.724	10800.46
505.093	10875.26
505.462	10953.91
505.83	10997.75
506.199	11044.53
506.567	11248.36
506.936	11185.77
507.304	11349.83
507.672	11458.53
508.041	11506.21
508.409	11582.36
508.777	11663.94
509.145	11751.4
509.514	11778.52
509.882	11900.77
510.25	11866.2
510.618	12063.26
510.986	12019.42
511.354	12231.39
511.722	12354.1
512.09	12431.61
512.458	12512.74
512.826	12530.81
513.193	12663.24
513.561	12738.72
513.929	12851.03
514.297	12887.19
514.664	13023.23
515.032	13053.29
515.4	13241.98
515.767	13339.38
516.135	13348.87
516.502	13276.78
516.869	13450.34
517.237	13565.59
517.604	13585.7
517.972	13812.14
518.339	13872.25
518.706	13898.46
519.073	13989.99
519.44	14136.2
519.808	14294.16
520.175	14193.6
520.542	14477.66
520.909	14562.4
521.276	14649.85
521.643	14711.1
522.009	14826.12
522.376	14936.85
522.743	15012.78
523.11	15270.4
523.477	15340.68
523.843	15492.77
524.21	15594.24
524.577	15686.89
524.943	15827.23
525.31	15882.36
525.676	16044.17
526.043	16108.35
526.409	16228.57
526.776	16371.62
527.142	16471.73
527.508	16649.12
527.874	16772.74
528.241	16922.34
528.607	16940.87
528.973	17126.17
529.339	17073.29
529.705	17191.71
530.071	17349.44
530.437	17469.44
530.803	17568.65
531.169	17733.84
531.535	17660.4
531.901	17760.51
532.267	17904.46
532.632	18046.6
532.998	18025.36
533.364	18232.59
533.73	18195.07
534.095	18355.29
534.461	18435.74
534.826	18640.26
535.192	18652.69
535.557	18787.6
535.923	18831.44
536.288	18829.86
536.653	19006.8
537.019	18879.12
537.384	19086.12
537.749	19176.06
538.114	19146.23
538.479	19303.74
538.845	19344.19
539.21	19319.56
539.575	19459.67
539.94	19571.76
540.305	19737.18
540.67	19641.81
541.034	19763.17
541.399	19935.82
541.764	19973.56
542.129	19985.08
542.494	20173.33
542.858	20177.17
543.223	20235.47
543.587	20362.25
543.952	20277.5
544.316	20526.54
544.681	20471.85
545.045	20598.17
545.41	20625.97
545.774	20675.46
546.138	20668.91
546.503	20810.14
546.867	20864.15
547.231	21070.03
547.595	21121.78
547.959	21159.97
548.324	21206.29
548.688	21278.16
549.052	21394.99
549.416	21383.69
549.779	21528.54
550.143	21521.31
550.507	21787.75
550.871	21625.04
551.235	21755.43
551.599	21887.86
551.962	21973.28
552.326	22017.57
552.689	22148.87
553.053	22158.36
553.417	22111.58
553.78	22453.94
554.143	22394.28
554.507	22470.67
554.87	22641.96
555.234	22682.64
555.597	22751.34
555.96	22850.32
556.323	22878.79
556.686	23050.31
557.05	23169.18
557.413	23217.31
557.776	23337.76
558.139	23423.86
558.502	23418.66
558.865	23617.75
559.228	23789.73
559.59	23803.06
559.953	23858.65
560.316	24121.47
560.679	24053.9
561.041	24159.66
561.404	24299.54
561.767	24541.35
562.129	24397.17
562.492	24827.21
562.854	24735.69
563.217	24761.91
563.579	24784.05
563.941	25084.61
564.304	25127.55
564.666	25355.11
565.028	25370.03
565.39	25518.04
565.753	25591.71
566.115	25701.77
566.477	25809.34
566.839	25919.16
567.201	26016.34
567.563	26080.97
567.925	26404.35
568.287	26293.62
568.648	26316.21
569.01	26534.06
569.372	26756.88
569.734	26653.16
570.095	26865.58
570.457	26960.49
570.819	26982.86
571.18	27026.25
571.542	27208.62
571.903	27287.04
572.265	27278
572.626	27377.2
572.987	27548.95
573.349	27474.6
573.71	27627.59
574.071	27740.36
574.432	27749.62
574.794	27852.22
575.155	27997.53
575.516	27938.77
575.877	28088.15
576.238	28122.95
576.599	28111.2
576.96	28206.33
577.32	28173.79
577.681	28306.44
578.042	28346.22
578.403	28389.61
578.763	28515.25
579.124	28517.06
579.485	28657.4
579.845	28667.34
580.206	28643.39
580.566	28571.52
580.927	28721.35
581.287	28667.34
581.648	28676.83
582.008	28901.23
582.368	28823.49
582.728	28840.89
583.089	28852.65
583.449	28914.79
583.809	28981.46
584.169	29070.72
584.529	28922.47
584.889	29022.81
585.249	28934.23
585.609	28852.19
585.969	29224.84
586.329	28898.52
586.688	29003.15
587.048	29027.56
587.408	28805.87
587.768	29037.73
588.127	29049.48
588.487	28883.38
588.846	29150.72
589.206	28888.8
589.565	29032.98
589.925	29182.58
590.284	29010.61
590.643	29013.09
591.003	29153.43
591.362	29292.41
591.721	29108.01
592.08	29183.26
592.44	29144.16
592.799	29281.33
593.158	29194.78
593.517	29183.71
593.876	29230.04
594.235	29127.44
594.593	29140.55
594.952	29129.93
595.311	29156.82
595.67	29205.86
596.029	29389.81
596.387	29415.57
596.746	29325.85
597.104	29269.13
597.463	29197.49
597.822	29324.72
598.18	29393.42
598.538	29320.88
598.897	29563.81
599.255	29269.58
599.613	29646.75
599.972	29596.58
600.33	29573.53
600.688	29427.32
601.046	29620.76
601.404	29654.66
601.762	29569.24
602.12	29832.51
602.478	29748.67
602.836	29692.17
603.194	29514.77
603.552	29711.15
603.91	29693.3
604.268	29778.04
604.625	29779.4
604.983	29800.42
605.341	29707.54
605.698	29996.8
606.056	29937.36
606.413	29907.53
606.771	29983.46
607.128	30059.39
607.485	29999.28
607.843	29906.4
608.2	30182.55
608.557	30218.26
608.914	30110.24
609.272	30347.97
609.629	30311.14
609.986	30455.09
610.343	30240.63
610.7	30402.89
611.057	30328.31
611.414	30369.89
611.771	30390.91
612.127	30573.5
612.484	30488.76
612.841	30606.27
613.198	30472.04
613.554	30529.44
613.911	30708.42
614.267	30612.37
614.624	30658.02
614.98	30644.24
615.337	30768.08
615.693	30706.83
616.05	30625.03
616.406	30831.12
616.762	30695.76
617.118	30676.33
617.475	30762.43
617.831	30812.37
618.187	30876.32
618.543	30937.56
618.899	31078.8
619.255	31073.15
619.611	30935.53
619.967	31113.6
620.323	31083.1
620.678	30973.95
621.034	31040.84
621.39	30956.54
621.746	30940.73
622.101	31229.31
622.457	31026.83
622.812	31098.91
623.168	31113.6
623.523	31188.4
623.879	31178.23
624.234	31051.68
624.589	31203.54
624.945	31194.5
625.3	31185.69
625.655	31083.1
626.01	31287.16
626.365	31251
626.72	31169.65
627.075	31078.8
627.43	31162.42
627.785	31063.66
628.14	31128.29
628.495	31113.83
628.85	31124.22
629.205	30953.38
629.559	31095.52
629.914	30952.03
630.269	30981.63
630.623	30917.22
630.978	30759.04
631.332	30872.25
631.687	31054.4
632.041	30778.02
632.396	30855.08
632.75	30798.81
633.104	30742.99
633.459	30696.44
633.813	30665.93
634.167	30602.88
634.521	30591.58
634.875	30557.46
635.229	30543.45
635.583	30451.02
635.937	30375.54
636.291	30389.55
636.645	30372.61
636.999	30400.63
637.352	30354.3
637.706	30133.52
638.06	30286.05
638.413	30271.59
638.767	30129
639.121	30159.28
639.474	30004.93
639.828	29878.61
640.181	30105.04
640.534	29990.02
640.888	29856.23
641.241	29793.19
641.594	29889.91
641.947	29960.41
642.301	29740.31
642.654	29752.06
643.007	29730.14
643.36	29736.24
643.713	29609.91
644.066	29812.85
644.419	29570.14
644.771	29344.16
645.124	29175.8
645.477	28977.39
645.83	28820.78
646.182	28727
646.535	28598.19
646.888	28646.32
647.24	28569.71
647.593	28757.28
647.945	28717.06
648.298	28410.17
648.65	28365.65
649.002	28343.28
649.355	28461.92
649.707	28328.59
650.059	28564.29
650.411	28731.52
650.763	28764.74
651.115	29100.32
651.467	29040.44
651.819	29010.38
652.171	28910.72
652.523	28786.66
652.875	28829.82
653.227	28673.44
653.578	28893.32
653.93	28825.98
654.282	28678.19
654.633	28606.78
654.985	28598.19
655.337	28732.87
655.688	28607.91
656.039	28604.06
656.391	28357.07
656.742	28563.39
657.094	28569.04
657.445	28609.04
657.796	28578.75
658.147	28489.49
658.498	28411.07
658.849	28503.28
659.2	28345.31
659.551	28385.54
659.902	28430.28
660.253	28288.37
660.604	28342.15
660.955	28161.14
661.306	28325.2
661.656	28231.87
662.007	28263.06
662.358	28304.86
662.708	28282.72
663.059	28173.34
663.409	28011.31
663.76	28124.98
664.11	28231.42
664.461	28186.22
664.811	28291.98
665.161	28056.96
665.511	28042.72
665.862	28082.5
666.212	28247.01
666.562	28110.07
666.912	28090.18
667.262	28094.02
667.612	28016.74
667.962	28097.41
668.312	28002.95
668.662	28148.26
669.011	28055.6
669.361	27984.42
669.711	28122.5
670.06	27958.66
670.41	27845.44
670.76	27896.06
671.109	27973.35
671.459	27894.48
671.808	27817.42
672.157	27877.76
672.507	27712.56
672.856	27668.5
673.205	27757.76
673.554	27830.07
673.904	27655.61
674.253	27857.87
674.602	27669.4
674.951	27272.35
675.3	27129.98
675.649	27512.12
675.998	27568.84
676.346	27602.51
676.695	27661.94
677.044	27481.38
677.393	27488.61
677.741	27606.8
678.09	27475.73
678.438	27323.65
678.787	27438.22
679.135	27323.87
679.484	27230.09
679.832	27281.84
680.181	27113.26
680.529	27285.45
680.877	27102.86
681.225	27057.89
681.573	27230.77
681.922	27092.92
682.27	26974.5
682.618	27133.82
682.966	26943.32
683.314	26981.51
683.661	26918.68
684.009	26795.98
684.357	26796.88
684.705	26637.34
685.053	26665.58
685.4	26638.47
685.748	26442.09
686.095	26370.45
686.443	26410.68
686.79	26413.39
687.138	26316.67
687.485	26351.92
687.832	26158.48
688.18	26242.77
688.527	26054.07
688.874	26096.79
689.221	25940.18
689.568	25941.08
689.915	25924.59
690.262	25939.5
690.609	25814.53
690.956	25755.55
691.303	25768.43
691.65	25587.65
691.997	25549.91
692.344	25479.85
692.69	25416.58
693.037	25388.1
693.383	25130.71
693.73	25311.04
694.077	25109.47
694.423	25059.52
694.769	25005.06
695.116	24936.82
695.462	24844.16
695.808	24756.26
696.155	24808.91
696.501	24657.28
696.847	24646.43
697.193	24416.15
697.539	24632.19
697.885	24363.95
698.231	24282.37
698.577	24361.92
698.923	24285.31
699.269	24115.14
699.614	24125.99
699.96	23948.14
700.306	23935.94
700.651	24004.86
700.997	23855.49
701.342	23788.15
701.688	23693.68
702.033	23559.45
702.379	23472.9
702.724	23599.45
703.069	23568.04
703.415	23212.34
703.76	23371.21
704.105	23317.65
704.45	23308.84
704.795	23134.38
705.14	23076.3
705.485	23144.77
705.83	22999.69
706.175	22977.55
706.52	22931.45
706.865	22823.43
707.209	22793.14
707.554	22686.48
707.899	22757.21
708.243	22473.6
708.588	22514.28
708.932	22380.95
709.277	22495.98
709.621	22362.87
709.966	22320.16
710.31	22272.25
710.654	22102.99
710.998	22277.68
711.342	22181.18
711.687	22106.16
712.031	22033.16
712.375	21800.18
712.719	22025.25
713.063	21953.84
713.407	21890.12
713.75	21892.6
714.094	21791.59
714.438	21738.71
714.782	21786.62
715.125	21722.44
715.469	21600.18
715.812	21543.01
716.156	21446.29
716.499	21461.88
716.843	21489.45
717.186	21220.3
717.53	21400.86
717.873	21350.02
718.216	21309.79
718.559	21152.96
718.902	21078.16
719.246	21150.25
719.589	21007.43
719.932	20999.29
720.275	20884.04
720.617	20916.36
720.96	20857.83
721.303	20909.13
721.646	20917.03
721.989	20727.66
722.331	20750.94
722.674	20715.01
723.016	20743.25
723.359	20681.56
723.701	20637.27
724.044	20498.97
724.386	20331.06
724.729	20593.88
725.071	20407.67
725.413	20419.19
725.755	20331.29
726.097	20267.33
726.439	20215.36
726.782	20194.34
727.124	20295.58
727.465	20230.27
727.807	20231.4
728.149	20096.94
728.491	20002.26
728.833	20072.99
729.175	20018.75
729.516	19950.28
729.858	19942.6
730.199	20004.06
730.541	19837.52
730.882	19814.46
731.224	19807.01
731.565	19797.29
731.906	19754.81
732.248	19765.88
732.589	19672.77
732.93	19475.72
733.271	19533.57
733.612	19515.72
733.953	19536.28
734.294	19520.46
734.635	19437.07
734.976	19455.38
735.317	19287.7
735.658	19382.39
735.999	19312.78
736.339	19218.77
736.68	19334.7
737.021	19279.11
737.361	19095.39
737.702	19259.9
738.042	19204.31
738.383	19084.99
738.723	19216.29
739.063	19124.54
739.404	19097.87
739.744	19042.73
740.084	18940.36
740.424	19099.91
740.764	18969.06
741.104	18955.28
741.444	19003.86
741.784	18833.02
742.124	18882.74
742.464	18792.34
742.804	18743.98
743.143	18758.45
743.483	18723.42
743.823	18643.42
744.162	18658.34
744.502	18647.49
744.841	18550.09
745.181	18586.02
745.52	18438.68
745.86	18521.62
746.199	18384.9
746.538	18423.77
746.877	18396.65
747.216	18428.51
747.556	18385.8
747.895	18279.59
748.234	18249.99
748.573	18148.75
748.911	18101.97
749.25	18193.04
749.589	18062.65
749.928	18121.63
750.267	18133.38
750.605	18143.32
750.944	18078.47
751.283	17887.74
751.621	17912.14
751.96	17911.46
752.298	17784.69
752.636	17891.13
752.975	17827.4
753.313	17667.4
753.651	17780.85
753.989	17635.31
754.327	17574.52
754.666	17484.58
755.004	17564.35
755.342	17598.25
755.679	17555.77
756.017	17386.96
756.355	17501.98
756.693	17308.54
757.031	17405.94
757.368	17333.63
757.706	17305.38
758.044	17237.81
758.381	17211.14
758.719	17121.65
759.056	17196.23
759.394	17006.4
759.731	17003.92
760.068	16944.48
760.405	16899.51
760.743	16758.27
761.08	16800.98
761.417	16706.98
761.754	16765.51
762.091	16627.2
762.428	16577.26
762.765	16542.69
763.102	16564.38
763.438	16408.45
763.775	16430.83
764.112	16351.28
764.449	16368.91
764.785	16276.93
765.122	16155.13
765.458	16068.8
765.795	16066.54
766.131	16083.04
766.467	15996.03
766.804	15967.56
767.14	15902.7
767.476	15832.42
767.812	15712.88
768.148	15710.17
768.485	15633.33
768.821	15595.14
769.157	15605.08
769.492	15518.53
769.828	15554.46
770.164	15393.56
770.5	15366.9
770.836	15330.97
771.171	15223.4
771.507	15132.1
771.842	15103.63
772.178	15157.86
772.513	15021.6
772.849	15022.05
773.184	14943.18
773.519	14947.7
773.855	14829.96
774.19	14750.42
774.525	14742.73
774.86	14725.56
775.195	14712.23
775.53	14598.56
775.865	14548.16
776.2	14434.27
776.535	14468.16
776.87	14302.52
777.205	14304.33
777.539	14232.46
777.874	14245.8
778.209	14133.26
778.543	14208.28
778.878	14051.9
779.212	13990.66
779.547	13920.16
779.881	14005.35
780.215	13831.8
780.55	13905.69
780.884	13753.16
781.218	13737.56
781.552	13753.61
781.886	13605.81
782.22	13550
782.554	13501.86
782.888	13426.16
783.222	13331.47
783.556	13343
783.889	13286.27
784.223	13211.25
784.557	13196.79
784.89	13198.59
785.224	13119.95
785.557	13047.19
785.891	12937.81
786.224	12944.81
786.558	12951.82
786.891	12822.56
787.224	12803.35
787.557	12683.8
787.891	12739.62
788.224	12710.7
788.557	12672.51
788.89	12656.24
789.223	12606.74
789.556	12488.78
789.888	12506.86
790.221	12408.11
790.554	12358.39
790.887	12390.93
791.219	12272.06
791.552	12242.46
791.884	12168.11
792.217	12164.27
792.549	12138.51
792.882	11981.22
793.214	12006.99
793.546	12016.7
793.879	11866.88
794.211	11873.2
794.543	11861.91
794.875	11800.89
795.207	11918.18
795.539	11747.56
795.871	11775.58
796.203	11641.12
796.535	11523.38
796.867	11623.95
797.198	11470.28
797.53	11558.41
797.862	11387.57
798.193	11477.51
798.525	11377.85
798.856	11416.49
799.188	11319.55
799.519	11275.48
799.85	11190.74
800.182	11230.28
800.513	11235.48
800.844	11082.04
801.175	11172.21
801.506	11106.67
801.837	11044.53
802.168	11118.42
802.499	10939.67
802.83	10951.65
803.161	10926.34
803.491	10899.22
803.822	10880.24
804.153	10768.83
804.483	10779.45
804.814	10776.96
805.145	10791.65
805.475	10751.88
805.805	10696.06
806.136	10713.91
806.466	10687.93
806.796	10637.76
807.126	10522.51
807.457	10510.75
807.787	10575.39
808.117	10460.59
808.447	10389.63
808.777	10458.55
809.107	10401.61
809.436	10396.18
809.766	10343.53
810.096	10300.14
810.426	10221.27
810.755	10369.74
811.085	10262.4
811.414	10197.99
811.744	10154.83
812.073	10126.58
812.403	10109.41
812.732	10138.11
813.061	10068.05
813.39	9981.28
813.719	9991.9
814.049	10047.26
814.378	9972.01
814.707	9961.84
815.036	9860.6
815.365	9884.56
815.693	9733.15
816.022	9796.65
816.351	9792.58
816.68	9738.8
817.008	9685.01
817.337	9658.35
817.665	9626.48
817.994	9652.7
818.322	9679.59
818.651	9556.2
818.979	9535.41
819.307	9551.68
819.636	9606.6
819.964	9527.96
820.292	9473.04
820.62	9485.7
820.948	9496.54
821.276	9572.25
821.604	9539.93
821.932	9498.8
822.259	9466.49
822.587	9469.43
822.915	9466.49
823.243	9510.56
823.57	9407.96
823.898	9485.7
824.225	9427.17
824.553	9461.97
824.88	9367.73
825.207	9407.96
825.535	9365.7
825.862	9441.4
826.189	9422.87
826.516	9433.49
826.843	9442.76
827.17	9445.92
827.497	9453.38
827.824	9395.3
828.151	9387.62
828.478	9379.94
828.805	9470.1
829.131	9366.6
829.458	9417.22
829.785	9377.9
830.111	9369.54
830.438	9440.05
830.764	9355.3
831.09	9418.35
831.417	9318.92
831.743	9385.36
832.069	9410.44
832.395	9327.06
832.722	9380.16
833.048	9303.78
833.374	9311.92
833.7	9306.94
834.026	9301.97
834.351	9372.03
834.677	9290.22
835.003	9347.62
835.329	9273.5
835.654	9318.92
835.98	9218.59
836.306	9280.96
836.631	9179.26
836.956	9173.61
837.282	9202.77
837.607	9187.4
837.932	9196.66
838.258	9174.52
838.583	9192.15
838.908	9083
839.233	9141.3
839.558	9093.16
839.883	9095.2
840.208	9062.88
840.533	9061.3
840.858	9068.76
841.182	9010
841.507	9017.23
841.832	8931.81
842.156	8920.51
842.481	8981.53
842.805	8942.89
843.13	8899.5
843.454	8939.27
843.778	8903.34
844.103	8871.48
844.427	8845.94
844.751	8840.97
845.075	8847.3
845.399	8719.16
845.723	8713.29
846.047	8735.89
846.371	8648.2
846.695	8657.92
847.019	8548.09
847.343	8493.63
847.666	8545.61
847.99	8485.05
848.313	8425.16
848.637	8386.97
848.96	8426.52
849.284	8408.44
849.607	8370.92
849.931	8231.04
850.254	8197.14
850.577	8247.31
850.9	8134.77
851.223	8169.8
851.546	8138.84
851.869	8053.19
852.192	8096.81
852.515	8064.27
852.838	7972.97
853.161	7943.14
853.483	7993.98
853.806	7882.12
854.129	7899.3
854.451	7868.79
854.774	7862.24
855.096	7813.88
855.419	7774.1
855.741	7746.76
856.063	7699.08
856.385	7725.97
856.708	7681.9
857.03	7613.2
857.352	7700.89
857.674	7630.38
857.996	7561.91
858.318	7565.3
858.64	7523.49
858.961	7563.04
859.283	7488.46
859.605	7462.93
859.926	7432.87
860.248	7412.76
860.57	7405.75
860.891	7411.85
861.212	7401.91
861.534	7336.37
861.855	7384.74
862.176	7328.69
862.498	7394.9
862.819	7345.64
863.14	7325.98
863.461	7298.64
863.782	7261.12
864.103	7266.32
864.424	7201.46
864.745	7188.58
865.065	7237.17
865.386	7221.58
865.707	7178.41
866.027	7200.56
866.348	7142.03
866.668	7183.61
866.989	7089.6
867.309	7104.74
867.63	7110.62
867.95	7083.5
868.27	7097.74
868.59	7055.03
868.91	7029.49
869.23	7038.98
869.55	7022.03
869.87	7089.83
870.19	6991.98
870.51	7021.35
870.83	7002.82
871.15	6939.1
871.469	6962.6
871.789	7022.03
872.109	6919.89
872.428	6881.47
872.748	6896.39
873.067	6905.2
873.386	6881.25
873.706	6910.85
874.025	6894.58
874.344	6860.23
874.663	6876.5
874.982	6845.77
875.301	6837.63
875.62	6792.21
875.939	6839.44
876.258	6795.82
876.577	6776.84
876.896	6768.03
877.214	6774.58
877.533	6806.45
877.852	6733.68
878.17	6749.72
878.489	6721.25
878.807	6744.53
879.125	6675.83
879.444	6726.45
879.762	6614.59
880.08	6667.24
880.398	6636.05
880.716	6613.68
881.034	6614.36
881.352	6619.33
881.67	6613.23
881.988	6599.67
882.306	6579.33
882.624	6590.41
882.941	6532.78
883.259	6522.61
883.577	6504.31
883.894	6540.92
884.212	6443.74
884.529	6472.89
884.846	6486.23
885.164	6464.08
885.481	6454.82
885.798	6413.01
886.115	6415.04
886.432	6435.83
886.75	6330.53
887.067	6395.83
887.383	6358.32
887.7	6330.75
888.017	6241.26
888.334	6353.35
888.651	6275.16
888.967	6319.68
889.284	6199.91
889.6	6204.88
889.917	6153.58
890.233	6183.18
890.55	6198.1
890.866	6169.85
891.182	6124.43
891.498	6100.93
891.815	6105.67
892.131	6084.43
892.447	6054.15
892.763	6065.9
893.079	6020.48
893.395	6001.72
893.71	5901.16
894.026	5938.67
894.342	5948.61
894.657	5947.71
894.973	5939.35
895.289	5874.72
895.604	5861.16
895.92	5850.99
896.235	5831.56
896.55	5761.05
896.865	5827.49
897.181	5775.29
897.496	5783.87
897.811	5735.06
898.126	5696.19
898.441	5746.36
898.756	5719.69
899.071	5663.88
899.386	5645.8
899.7	5660.94
900.015	5615.97
900.33	5589.53
900.644	5575.74
900.959	5603.54
901.273	5504.33
901.588	5480.6
901.902	5503.43
902.216	5469.98
902.531	5426.59
902.845	5446.93
903.159	5413.49
903.473	5380.04
903.787	5368.07
904.101	5375.52
904.415	5398.57
904.729	5340.27
905.042	5286.26
905.356	5294.85
905.67	5260.05
905.984	5308.18
906.297	5249.88
906.611	5212.14
906.924	5227.5
907.237	5162.65
907.551	5161.74
907.864	5168.52
908.177	5150.9
908.491	5075.42
908.804	5027.06
909.117	5036.77
909.43	5039.26
909.743	5029.09
910.056	5008.3
910.368	4968.08
910.681	4992.71
910.994	4972.6
911.307	4940.96
911.619	4938.02
911.932	4881.52
912.244	4819.6
912.557	4837.68
912.869	4828.19
913.181	4818.25
913.494	4798.59
913.806	4714.75
914.118	4727.18
914.43	4732.83
914.742	4686.73
915.054	4651.7
915.366	4685.15
915.678	4680.63
915.99	4619.84
916.302	4608.31
916.613	4587.29
916.925	4553.62
917.236	4580.97
917.548	4566.5
917.859	4543.68
918.171	4557.69
918.482	4473.63
918.794	4477.92
919.105	4436.34
919.416	4393.18
919.727	4436.11
920.038	4437.92
920.349	4338.71
920.66	4335.78
920.971	4374.87
921.282	4321.54
921.593	4296.91
921.903	4258.49
922.214	4321.09
922.525	4241.99
922.835	4227.98
923.146	4266.63
923.456	4231.15
923.767	4233.86
924.077	4159.74
924.387	4172.16
924.697	4137.81
925.008	4141.66
925.318	4115.44
925.628	4125.84
925.938	4073.86
926.248	4027.54
926.558	4058.49
926.867	4011.94
927.177	4016.46
927.487	4001.32
927.796	3963.58
928.106	3964.26
928.416	3982.34
928.725	3924.26
929.034	3896.47
929.344	3929.23
929.653	3889.46
929.962	3869.57
930.271	3831.83
930.581	3821.89
930.89	3813.53
931.199	3826.18
931.508	3807.65
931.817	3784.38
932.125	3807.65
932.434	3749.35
932.743	3739.63
933.051	3703.25
933.36	3676.81
933.669	3708.45
933.977	3616.02
934.286	3659.86
934.594	3655.12
934.902	3592.52
935.21	3605.4
935.519	3590.94
935.827	3611.73
936.135	3548.23
936.443	3521.79
936.751	3519.75
937.059	3532.41
937.367	3547.77
937.674	3466.19
937.982	3485.4
938.29	3474.56
938.597	3446.53
938.905	3406.08
939.213	3438.62
939.52	3440.43
939.827	3430.49
940.135	3362.92
940.442	3364.95
940.749	3347.78
941.056	3323.15
941.363	3298.97
941.67	3282.7
941.977	3274.79
942.284	3271.85
942.591	3285.18
942.898	3249.02
943.205	3220.32
943.511	3210.16
943.818	3226.65
944.125	3191.63
944.431	3159.54
944.738	3171.96
945.044	3201.79
945.35	3131.97
945.657	3096.26
945.963	3091.74
946.269	3086.32
946.575	3087.9
946.881	3095.36
947.187	3090.61
947.493	3082.93
947.799	3087.9
948.105	3091.06
948.41	3062.59
948.716	3028.24
949.022	2963.16
949.327	2975.59
949.633	2976.26
949.938	2968.58
950.244	2953.67
950.549	2927.68
950.854	2902.82
951.16	2906.66
951.465	2915.25
951.77	2903.27
952.075	2861.92
952.38	2861.69
952.685	2870.28
952.99	2872.76
953.294	2823.73
953.599	2829.83
953.904	2804.29
954.209	2801.35
954.513	2812.88
954.818	2769.26
955.122	2795.93
955.426	2756.16
955.731	2728.59
956.035	2715.25
956.339	2698.3
956.643	2726.78
956.948	2669.6
957.252	2677.29
957.556	2665.09
957.86	2639.55
958.163	2664.18
958.467	2648.59
958.771	2613.34
959.075	2623.96
959.378	2613.34
959.682	2609.27
959.985	2566.78
960.289	2545.77
960.592	2570.17
960.896	2541.7
961.199	2521.81
961.502	2502.38
961.805	2546.44
962.108	2474.36
962.411	2519.33
962.714	2482.49
963.017	2482.72
963.32	2455.15
963.623	2456.5
963.926	2453.11
964.228	2457.18
964.531	2415.15
964.833	2437.52
965.136	2418.76
965.438	2391.87
965.741	2361.14
966.043	2376.05
966.345	2371.08
966.648	2347.35
966.95	2362.72
967.252	2339.22
967.554	2323.85
967.856	2335.83
968.158	2301.03
968.46	2285.43
968.761	2315.49
969.063	2272.78
969.365	2286.79
969.666	2276.85
969.968	2267.58
970.269	2254.7
970.571	2231.2
970.872	2189.62
971.174	2187.81
971.475	2185.55
971.776	2211.54
972.077	2162.5
972.378	2173.57
972.679	2189.17
972.98	2165.44
973.281	2150.3
973.582	2159.79
973.883	2157.98
974.183	2133.8
974.484	2100.13
974.785	2135.83
975.085	2105.78
975.386	2119.34
975.686	2079.34
975.986	2067.36
976.287	2101.94
976.587	2047.7
976.887	2056.06
977.187	2061.03
977.487	2047.25
977.787	2032.56
978.087	2014.03
978.387	2026.01
978.687	1962.5
978.987	1996.63
979.286	1966.35
979.586	1970.87
979.885	1966.35
980.185	1967.48
980.484	1947.36
980.784	1959.12
981.083	1948.95
981.382	1922.73
981.682	1928.16
981.981	1919.79
982.28	1929.51
982.579	1910.98
982.878	1896.74
983.177	1854.49
983.475	1900.13
983.774	1868.72
984.073	1872.56
984.372	1849.51
984.67	1832.79
984.969	1826.46
985.267	1805.22
985.566	1837.54
985.864	1812.9
986.162	1814.94
986.461	1803.41
986.759	1781.94
987.057	1750.53
987.355	1802.96
987.653	1762.28
987.951	1752.57
988.249	1738.1
988.547	1763.41
988.844	1732
989.142	1764.09
989.44	1735.62
989.737	1712.12
990.035	1700.36
990.332	1706.24
990.63	1708.05
990.927	1710.31
991.224	1680.25
991.521	1688.61
991.819	1676.41
992.116	1673.02
992.413	1633.93
992.71	1673.47
993.006	1657.2
993.303	1632.8
993.6	1621.04
993.897	1625.34
994.193	1616.53
994.49	1627.37
994.787	1607.03
995.083	1598.9
995.379	1581.27
995.676	1561.84
995.972	1593.48
996.268	1582.85
996.565	1537.66
996.861	1547.6
997.157	1534.49
997.453	1547.6
997.749	1521.61
998.044	1506.02
998.34	1518.67
998.636	1495.17
998.932	1492.46
999.227	1466.02
999.523	1473.93
999.818	1484.55
1000.114	1488.85
1000.409	1445.23
1000.704	1456.76
1001	1465.34
1001.295	1446.13
1001.59	1459.02
1001.885	1474.83
1002.18	1409.75
1002.475	1403.88
1002.77	1420.82
1003.065	1398.23
1003.359	1403.2
1003.654	1399.36
1003.949	1396.64
1004.243	1388.73
1004.538	1374.05
1004.832	1352.8
1005.127	1348.51
1005.421	1356.42
1005.715	1340.37
1006.009	1350.09
1006.304	1333.59
1006.598	1319.58
1006.892	1309.64
1007.186	1299.25
1007.48	1327.04
1007.773	1308.96
1008.067	1280.94
1008.361	1311.67
1008.655	1280.26
1008.948	1261.96
1009.242	1261.73
1009.535	1246.82
1009.829	1242.3
1010.122	1208.4
1010.415	1257.21
1010.708	1216.31
1011.001	1224.9
1011.295	1208.63
1011.588	1254.73
1011.881	1204.56
1012.173	1217.89
1012.466	1204.78
1012.759	1216.08
1013.052	1170.21
1013.344	1170.89
1013.637	1187.84
1013.93	1174.95
1014.222	1169.53
1014.514	1140.15
1014.807	1131.34
1015.099	1169.98
1015.391	1137.67
1015.683	1136.54
1015.976	1123.2
1016.268	1118.46
1016.56	1080.27
1016.851	1092.47
1017.143	1098.57
1017.435	1085.92
1017.727	1079.14
1018.018	1064.9
1018.31	1068.52
1018.602	1061.51
1018.893	1077.33
1019.185	1031.23
1019.476	1038.91
1019.767	1049.99
1020.058	1042.98
1020.35	1028.52
1020.641	1002.08
1020.932	1026.26
1021.223	1004.56
1021.514	1014.73
1021.804	1010.44
1022.095	992.36
1022.386	1000.04
1022.677	1013.6
1022.967	965.69
1023.258	975.41
1023.548	977.67
1023.839	967.5
1024.129	963.44
1024.419	954.4
1024.709	953.49
1025	950.1
1025.29	939.48
1025.58	922.31
1025.87	940.16
1026.16	927.73
1026.449	923.89
1026.739	904.45
1027.029	895.41
1027.319	909.88
1027.608	894.51
1027.898	893.61
1028.187	891.8
1028.477	865.58
1028.766	881.18
1029.055	873.27
1029.344	855.19
1029.634	875.75
1029.923	851.8
1030.212	842.53
1030.501	833.72
1030.79	847.73
1031.078	821.29
1031.367	832.82
1031.656	828.07
1031.945	817.68
1032.233	807.73
1032.522	816.32
1032.81	801.63
1033.099	821.29
1033.387	799.37
1033.675	797.79
1033.963	770.67
1034.251	784.68
1034.54	777
1034.828	778.36
1035.116	761.41
1035.403	742.65
1035.691	772.03
1035.979	780.62
1036.267	736.55
1036.554	752.59
1036.842	737.68
1037.129	738.58
1037.417	733.61
1037.704	732.25
1037.992	750.11
1038.279	726.83
1038.566	733.84
1038.853	733.84
1039.14	733.84
