Data from whiteboard_FLMS001491_00025.txt Node
Date: Wed Feb 08 11:25:50 GMT 2017
User: dcchb
Spectrometer: FLMS00149
Trigger mode: 0
Integration Time (sec): 2.000000E-2
Scans to average: 10
Electric dark correction enabled: true
Nonlinearity correction enabled: false
Boxcar width: 0
XAxis mode: Wavelengths
Number of Pixels in Spectrum: 2048
>>>>>Begin Spectral Data<<<<<
341.393	-2.56
341.776	-2.56
342.16	-2.56
342.543	-61.31
342.927	-79.62
343.31	-68.54
343.693	-56.34
344.077	-67.19
344.46	-81.65
344.843	-46.4
345.226	-41.43
345.61	-20.86
345.993	-20.86
346.376	-10.24
346.759	-4.59
347.142	25.24
347.525	33.15
347.908	65.01
348.291	86.03
348.674	95.52
349.057	113.15
349.44	123.32
349.823	134.62
350.206	168.51
350.588	221.39
350.971	245.35
351.354	267.94
351.737	249.19
352.119	288.74
352.502	297.55
352.884	326.25
353.267	326.25
353.65	333.03
354.032	317.89
354.414	336.42
354.797	362.41
355.179	340.26
355.562	388.17
355.944	372.35
356.326	369.19
356.709	392.46
357.091	381.84
357.473	375.29
357.855	384.78
358.238	375.74
358.62	399.24
359.002	374.61
359.384	396.76
359.766	389.52
360.148	418.68
360.53	384.1
360.912	380.71
361.294	376.19
361.676	383.2
362.057	386.59
362.439	392.91
362.821	382.52
363.203	376.42
363.584	360.82
363.966	380.26
364.348	365.57
364.729	396.3
365.111	384.33
365.493	380.48
365.874	399.24
366.256	369.19
366.637	372.57
367.019	369.19
367.4	383.87
367.781	376.64
368.163	380.71
368.544	375.74
368.925	382.29
369.306	368.96
369.688	397.21
370.069	389.07
370.45	365.57
370.831	375.06
371.212	396.53
371.593	381.61
371.974	392.69
372.355	401.73
372.736	376.87
373.117	414.16
373.498	402.18
373.879	415.74
374.26	391.11
374.641	406.47
375.021	413.7
375.402	401.95
375.783	402.4
376.163	410.77
376.544	414.61
376.925	432.01
377.305	396.98
377.686	444.66
378.066	418.68
378.447	418.45
378.827	419.58
379.208	437.88
379.588	441.73
379.968	440.82
380.349	454.61
380.729	454.38
381.109	458.9
381.489	449.86
381.87	463.65
382.25	448.28
382.63	463.19
383.01	471.56
383.39	473.36
383.77	465.45
384.15	478.56
384.53	493.25
384.91	470.88
385.29	501.39
385.67	490.09
386.049	527.15
386.429	507.71
386.809	514.49
387.189	505.9
387.568	532.57
387.948	528.5
388.328	541.38
388.707	562.63
389.087	538.67
389.466	547.26
389.846	560.59
390.225	585.9
390.605	557.88
390.984	558.78
391.363	590.42
391.743	580.03
392.122	596.52
392.501	580.48
392.881	604.66
393.26	604.21
393.639	608.05
394.018	604.21
394.397	664.09
394.776	632.23
395.155	639.01
395.534	660.25
395.913	684.21
396.292	680.59
396.671	698.44
397.05	690.31
397.429	685.34
397.808	713.58
398.186	716.07
398.565	718.33
398.944	727.82
399.323	737.54
399.701	740.7
400.08	763.75
400.458	777.54
400.837	796.29
401.215	810.98
401.594	811.66
401.972	828.38
402.351	831.55
402.729	827.7
403.107	862.05
403.486	863.64
403.864	872.45
404.242	881.71
404.62	897.98
404.999	924.88
405.377	948.38
405.755	940.7
406.133	974.59
406.511	985.67
406.889	990.19
407.267	1030.64
407.645	1040.13
408.023	1070.41
408.401	1103.4
408.779	1101.6
409.156	1145.66
409.534	1138.2
409.912	1168.94
410.29	1173.23
410.667	1217.3
411.045	1240.35
411.422	1221.37
411.8	1260.91
412.178	1294.36
412.555	1304.53
412.933	1317.41
413.31	1394.24
413.687	1369.16
414.065	1409.84
414.442	1414.13
414.819	1417.07
415.197	1429.72
415.574	1504.97
415.951	1511.08
416.328	1507.46
416.705	1525.31
417.082	1570.06
417.46	1562.6
417.837	1597.63
418.214	1631.07
418.591	1639.66
418.967	1647.8
419.344	1685.76
419.721	1689.6
420.098	1718.53
420.475	1729.38
420.852	1743.61
421.228	1781.13
421.605	1761.69
421.982	1796.94
422.358	1839.2
422.735	1876.94
423.111	1889.15
423.488	1928.47
423.864	1970.5
424.241	1978.18
424.617	1950.16
424.994	2005.75
425.37	2028.12
425.746	2045.53
426.123	2065.41
426.499	2119.65
426.875	2109.03
427.251	2168.91
427.627	2177.5
428.003	2201.68
428.379	2250.94
428.756	2283.94
429.132	2314.67
429.507	2329.59
429.883	2392.86
430.259	2444.16
430.635	2437.61
431.011	2465.4
431.387	2499.75
431.763	2589.47
432.138	2572.07
432.514	2664.27
432.89	2675.11
433.265	2691.84
433.641	2726.86
434.016	2765.96
434.392	2839.63
434.767	2893.19
435.143	2878.72
435.518	2915.11
435.894	2962.56
436.269	2982.45
436.644	3011.15
437.02	3078.04
437.395	3080.53
437.77	3122.56
438.145	3156
438.52	3187.87
438.895	3232.39
439.271	3245.72
439.646	3338.15
440.021	3329.11
440.395	3353.97
440.77	3360.74
441.145	3437.35
441.52	3516.22
441.895	3470.35
442.27	3528.42
442.645	3546.5
443.019	3579.04
443.394	3573.39
443.769	3641.87
444.143	3613.62
444.518	3665.6
444.892	3688.65
445.267	3682.32
445.641	3746.72
446.016	3774.52
446.39	3825.14
446.764	3829.66
447.139	3813.61
447.513	3918.7
447.887	3912.82
448.262	3914.85
448.636	3950.33
449.01	4021.52
449.384	4118.47
449.758	4111.46
450.132	4194.4
450.506	4201.17
450.88	4219.93
451.254	4237.33
451.628	4324.56
452.002	4373.6
452.376	4385.12
452.75	4428.74
453.123	4468.74
453.497	4500.6
453.871	4642.75
454.244	4663.31
454.618	4703.53
454.992	4751.67
455.365	4772.46
455.739	4915.05
456.112	4985.11
456.486	4968.84
456.859	5036.63
457.232	5172.45
457.606	5178.78
457.979	5196.4
458.352	5363.18
458.725	5433.91
459.099	5427.58
459.472	5570.4
459.845	5649.5
460.218	5715.49
460.591	5755.71
460.964	5773.11
461.337	5930.39
461.71	5978.3
462.083	6114.34
462.456	6047.45
462.829	6114.57
463.201	6268.24
463.574	6307.79
463.947	6350.5
464.32	6566.76
464.692	6592.98
465.065	6624.84
465.438	6747.55
465.81	6818.51
466.183	6921.1
466.555	7060.08
466.928	7081.55
467.3	7106.41
467.672	7234.77
468.045	7416.23
468.417	7440.64
468.789	7520.64
469.161	7618.03
469.534	7758.14
469.906	7895.54
470.278	7953.17
470.65	8077.91
471.022	8237.23
471.394	8401.74
471.766	8483.77
472.138	8586.37
472.51	8802.64
472.882	8920.82
473.253	9001.27
473.625	9197.88
473.997	9354.26
474.369	9456.63
474.74	9509.51
475.112	9727.58
475.484	9897.07
475.855	10095.71
476.227	10118.31
476.598	10435.59
476.97	10528.69
477.341	10798.97
477.713	10964.39
478.084	10983.37
478.455	11268.11
478.827	11338.16
479.198	11722.11
479.569	11775.21
479.94	12148.76
480.311	12258.36
480.682	12483.67
481.053	12725.92
481.424	12958.68
481.795	13136.08
482.166	13330.2
482.537	13440.71
482.908	13740.81
483.279	13902.84
483.65	14164.3
484.021	14378.31
484.391	14577.85
484.762	14809.26
485.133	14834.79
485.503	15019.2
485.874	15427.32
486.244	15637.03
486.615	15971.03
486.985	16056
487.356	16491.47
487.726	16565.37
488.097	16946.6
488.467	17019.82
488.837	17364.22
489.207	17583.65
489.578	17829.29
489.948	18046.69
490.318	18255.72
490.688	18308.37
491.058	18687.8
491.428	18952.2
491.798	19078.3
492.168	19459.53
492.538	19474.45
492.908	19795.12
493.278	20029.23
493.648	20026.75
494.017	20396.91
494.387	20540.41
494.757	20721.64
495.126	20954.41
495.496	21031.92
495.866	21154.63
496.235	21334.28
496.605	21552.36
496.974	21766.81
497.344	21921.84
497.713	22061.72
498.082	22200.48
498.452	22463.52
498.821	22458.55
499.19	22596.62
499.559	22895.15
499.928	23049.94
500.298	23159.32
500.667	23398.86
501.036	23443.38
501.405	23709.36
501.774	23678.4
502.143	24017.6
502.512	24160.65
502.88	24477.25
503.249	24333.53
503.618	24818.94
503.987	24794.31
504.356	24992.94
504.724	25225.71
505.093	25252.82
505.462	25472.25
505.83	25629.54
506.199	25820.49
506.567	26159.47
506.936	26248.73
507.304	26535.05
507.672	26515.39
508.041	26714.48
508.409	26906.79
508.777	27119.44
509.145	27363.96
509.514	27413.9
509.882	27644.63
510.25	27688.47
510.618	27928.01
510.986	28001.23
511.354	28219.3
511.722	28470.37
512.09	28784.03
512.458	28796.46
512.826	29078.03
513.193	29063.35
513.561	29235.54
513.929	29595.31
514.297	29822.42
514.664	29928.86
515.032	30162.3
515.4	30441.61
515.767	30543.99
516.135	30736.97
516.502	30645.23
516.869	31184.87
517.237	31357.3
517.604	31438.2
517.972	31878.87
518.339	31934
518.706	32045.87
519.073	32408.57
519.44	32448.12
519.808	32916.58
520.175	32861.89
520.542	33441.31
520.909	33638.14
521.276	33632.94
521.643	33984.35
522.009	34336.88
522.376	34422.3
522.743	34775.06
523.11	35224.54
523.477	35418.66
523.843	35596.28
524.21	35960.34
524.577	36183.61
524.943	36377.28
525.31	36736.36
525.676	37016.13
526.043	37167.09
526.409	37382.9
526.776	37707.64
527.142	37906.28
527.508	38099.94
527.874	38296.55
528.241	38492.93
528.607	38725.92
528.973	39035.06
529.339	38975.63
529.705	39511.43
530.071	39830.29
530.437	39770.41
530.803	40018.54
531.169	40327
531.535	40172.21
531.901	40553.44
532.267	40653.32
532.632	40852.41
532.998	41109.36
533.364	41284.72
533.73	41512.06
534.095	41828.66
534.461	41817.36
534.826	42044.02
535.192	42141.87
535.557	42624.57
535.923	42509.09
536.288	42658.69
536.653	43014.84
537.019	42907.28
537.384	43246.25
537.749	43445.11
538.114	43531.67
538.479	43609.86
538.845	43844.2
539.21	43945.89
539.575	44173.23
539.94	44248.48
540.305	44608.02
540.67	44568.7
541.034	44656.38
541.399	45000.33
541.764	44900.67
542.129	45117.16
542.494	45305.18
542.858	45417.94
543.223	45472.63
543.587	45768.67
543.952	45681.44
544.316	45836.24
544.681	45878.72
545.045	46076.91
545.41	46311.03
545.774	46460.63
546.138	46394.87
546.503	46632.6
546.867	46640.06
547.231	47036.21
547.595	47093.61
547.959	47161.85
548.324	47162.98
548.688	47171.12
549.052	47394.62
549.416	47472.58
549.779	47645.46
550.143	47724.1
550.507	48006.58
550.871	48124.99
551.235	48102.39
551.599	48476.62
551.962	48479.11
552.326	48656.05
552.689	48835.93
553.053	48728.14
553.417	48882.03
553.78	49408.57
554.143	49239.09
554.507	49446.09
554.87	49518.63
555.234	49955.23
555.597	49714.78
555.96	49990.25
556.323	50104.6
556.686	50076.13
557.05	50411.71
557.413	50553.18
557.776	50570.13
558.139	50829.33
558.502	50830.46
558.865	50898.93
559.228	51255.53
559.59	51239.71
559.953	51215.08
560.316	51620.72
560.679	51669.08
561.041	51849.87
561.404	51904.1
561.767	52158.56
562.129	52135.28
562.492	52395.84
562.854	52368.5
563.217	52477.87
563.579	52668.6
563.941	52758.54
564.304	53000.34
564.666	53141.81
565.028	53178.42
565.39	53365.08
565.753	53474.23
566.115	53572.31
566.477	53750.61
566.839	53810.27
567.201	53981.33
567.563	54039.86
567.925	54185.85
568.287	54193.31
568.648	54347.88
569.01	54460.64
569.372	54656.12
569.734	54540.87
570.095	54764.37
570.457	54857.24
570.819	54960.52
571.18	54961.65
571.542	55205.94
571.903	55224.69
572.265	55338.14
572.626	55321.41
572.987	55442.99
573.349	55501.75
573.71	55583.33
574.071	55665.13
574.432	55708.75
574.794	55977.44
575.155	55881.4
575.516	55878.23
575.877	56117.32
576.238	56069.87
576.599	56183.99
576.96	56237.55
577.32	56218.11
577.681	56289.52
578.042	56423.3
578.403	56426.92
578.763	56348.05
579.124	56447.48
579.485	56612
579.845	56611.1
580.206	56541.27
580.566	56564.09
580.927	56620.36
581.287	56735.16
581.648	56588.5
582.008	56646.35
582.368	56686.8
582.728	56714.37
583.089	56679.34
583.449	56644.32
583.809	56729.06
584.169	56843.63
584.529	56742.62
584.889	56962.5
585.249	56751.43
585.609	56699.23
585.969	56899.68
586.329	56828.72
586.688	56820.81
587.048	56806.35
587.408	56774.26
587.768	56811.54
588.127	56809.96
588.487	56833.69
588.846	56905.78
589.206	56802.05
589.565	56835.95
589.925	56993.46
590.284	56936.29
590.643	56958.66
591.003	57067.36
591.362	57095.83
591.721	57033.68
592.08	57052.21
592.44	57073.46
592.799	57074.81
593.158	56994.59
593.517	57079.56
593.876	57134.7
594.235	57067.81
594.593	57041.14
594.952	57184.64
595.311	57132.21
595.67	57152.1
596.029	57319.55
596.387	57310.74
596.746	57377.18
597.104	57243.85
597.463	57174.92
597.822	57389.15
598.18	57216.5
598.538	57208.59
598.897	57389.83
599.255	57165.43
599.613	57531.07
599.972	57362.71
600.33	57428.25
600.688	57341.25
601.046	57421.02
601.404	57476.16
601.762	57356.84
602.12	57564.52
602.478	57453.79
602.836	57433.22
603.194	57332.89
603.552	57439.1
603.91	57280.91
604.268	57443.84
604.625	57349.38
604.983	57452.66
605.341	57330.63
605.698	57520.9
606.056	57533.11
606.413	57498.3
606.771	57534.01
607.128	57568.13
607.485	57463.5
607.843	57584.86
608.2	57719.77
608.557	57767.9
608.914	57620.11
609.272	57769.71
609.629	57885.64
609.986	57858.52
610.343	57741.91
610.7	57905.75
611.057	57959.76
611.414	57955.24
611.771	57965.41
612.127	58061.91
612.484	58066.43
612.841	58085.18
613.198	58053.77
613.554	58127.89
613.911	58256.93
614.267	58205.4
614.624	58160.21
614.98	58206.08
615.337	58322.46
615.693	58302.35
616.05	58324.95
616.406	58455.57
616.762	58299.87
617.118	58379.19
617.475	58399.98
617.831	58531.05
618.187	58537.37
618.543	58503.93
618.899	58655.11
619.255	58613.53
619.611	58511.84
619.967	58698.95
620.323	58680.87
620.678	58578.28
621.034	58538.05
621.39	58505.06
621.746	58422.35
622.101	58707.31
622.457	58560.42
622.812	58646.75
623.168	58644.26
623.523	58627.31
623.879	58721.1
624.234	58498.05
624.589	58540.99
624.945	58654.66
625.3	58634.32
625.655	58621.44
626.01	58579.18
626.365	58571.04
626.72	58495.34
627.075	58515.23
627.43	58474.55
627.785	58353.2
628.14	58386.64
628.495	58465.28
628.85	58364.5
629.205	58409.69
629.559	58444.95
629.914	58264.84
630.269	58287.44
630.623	58210.15
630.978	58136.03
631.332	58250.15
631.687	58237.27
632.041	58164.5
632.396	58154.78
632.75	58093.32
633.104	58127.89
633.459	57986.2
633.813	58032.3
634.167	57934.23
634.521	57969.48
634.875	58034.34
635.229	57986.43
635.583	57848.13
635.937	57905.07
636.291	57849.03
636.645	57899.88
636.999	57891.29
637.352	57862.36
637.706	57799.77
638.06	57891.51
638.413	57783.95
638.767	57728.13
639.121	57793.44
639.474	57711.86
639.828	57695.14
640.181	57744.4
640.534	57723.84
640.888	57615.14
641.241	57541.92
641.594	57576.27
641.947	57738.75
642.301	57597.96
642.654	57582.82
643.007	57573.78
643.36	57576.49
643.713	57557.29
644.066	57619.21
644.419	57511.86
644.771	57257.86
645.124	57041.37
645.477	57046.34
645.83	56882.73
646.182	56720.47
646.535	56598.89
646.888	56661.04
647.24	56488.61
647.593	56695.39
647.945	56614.71
648.298	56469.18
648.65	56321.16
649.002	56356.87
649.355	56442.51
649.707	56398.22
650.059	56506.47
650.411	56774.26
650.763	56819.68
651.115	57026.45
651.467	56840.69
651.819	56795.95
652.171	56746.01
652.523	56669.85
652.875	56747.14
653.227	56653.36
653.578	56731.09
653.93	56617.65
654.282	56521.83
654.633	56436.19
654.985	56532.68
655.337	56515.73
655.688	56503.98
656.039	56587.37
656.391	56224.44
656.742	56353.48
657.094	56281.84
657.445	56348.5
657.796	56337.88
658.147	56296.75
658.498	56268.96
658.849	56336.3
659.2	56160.26
659.551	56173.14
659.902	56254.95
660.253	56157.1
660.604	56273.7
660.955	56045.01
661.306	56210.65
661.656	56043.88
662.007	56024.67
662.358	56066.03
662.708	55977.21
663.059	55970.21
663.409	55947.84
663.76	56065.8
664.11	55958.01
664.461	55999.36
664.811	56007.5
665.161	56007.27
665.511	55962.07
665.862	56016.08
666.212	56125.46
666.562	56152.8
666.912	56068.06
667.262	55984.9
667.612	55951.9
667.962	56075.74
668.312	56006.82
668.662	56021.73
669.011	55996.88
669.361	55920.04
669.711	55878.69
670.06	55845.24
670.41	55904.22
670.76	55774.06
671.109	55887.5
671.459	55863.77
671.808	55777.45
672.157	55793.72
672.507	55649.99
672.856	55617.9
673.205	55724.34
673.554	55756.2
673.904	55626.26
674.253	55813.6
674.602	55589.43
674.951	55134.3
675.3	55106.5
675.649	55513.5
675.998	55492.03
676.346	55453.61
676.695	55550.33
677.044	55300.17
677.393	55432.37
677.741	55468.98
678.09	55329.55
678.438	55208.2
678.787	55324.8
679.135	55253.39
679.484	55092.94
679.832	55134.07
680.181	54980.63
680.529	54973.4
680.877	54936.11
681.225	54849.11
681.573	55008.88
681.922	54774.76
682.27	54818.83
682.618	54720.52
682.966	54623.35
683.314	54727.08
683.661	54589.45
684.009	54518.27
684.357	54461.55
684.705	54357.14
685.053	54355.11
685.4	54286.86
685.748	54149.01
686.095	54154.44
686.443	53994.44
686.79	54009.58
687.138	54077.6
687.485	54072.18
687.832	53812.53
688.18	53935.01
688.527	53711.96
688.874	53718.29
689.221	53632.19
689.568	53505.87
689.915	53444.85
690.262	53404.63
690.609	53354.46
690.956	53201.24
691.303	53223.39
691.65	52997.63
691.997	53084.86
692.344	52896.62
692.69	52827.47
693.037	52990.4
693.383	52703.85
693.73	52792.67
694.077	52653.46
694.423	52589.06
694.769	52544.08
695.116	52434.71
695.462	52361.04
695.808	52269.06
696.155	52384.99
696.501	52005.57
696.847	52006.7
697.193	51740.94
697.539	51999.47
697.885	51666.14
698.231	51679.47
698.577	51578.69
698.923	51567.84
699.269	51418.92
699.614	51328.07
699.96	51221.63
700.306	51288.3
700.651	51119.04
700.997	50914.07
701.342	50977.12
701.688	50804.7
702.033	50788.65
702.379	50758.82
702.724	50707.3
703.069	50734.19
703.415	50264.6
703.76	50328.55
704.105	50286.29
704.45	50221.21
704.795	49869.8
705.14	49825.29
705.485	49892.63
705.83	49662.8
706.175	49769.92
706.52	49737.6
706.865	49468.23
707.209	49467.33
707.554	49344.17
707.899	49327.9
708.243	49171.74
708.588	49007.68
708.932	48827.8
709.277	48788.48
709.621	48741.92
709.966	48512.55
710.31	48476.17
710.654	48176.52
710.998	48318.88
711.342	48237.31
711.687	48135.61
712.031	47951.21
712.375	47779.46
712.719	47840.03
713.063	47774.49
713.407	47742.4
713.75	47574.95
714.094	47518.68
714.438	47377.89
714.782	47298.35
715.125	47114.85
715.469	47202.08
715.812	46970.9
716.156	46853.61
716.499	46888.41
716.843	46721.86
717.186	46430.35
717.53	46725.71
717.873	46635.54
718.216	46468.31
718.559	46218.15
718.902	45962.34
719.246	46154.87
719.589	45936.57
719.932	45743.81
720.275	45886.18
720.617	45871.72
720.96	45750.14
721.303	45722.34
721.646	45555.79
721.989	45438.96
722.331	45636.24
722.674	45441.67
723.016	45415.68
723.359	45194
723.701	45307.21
724.044	45040.1
724.386	44837.17
724.729	45067.9
725.071	44857.06
725.413	44888.69
725.755	44692.09
726.097	44550.62
726.439	44437.86
726.782	44401.25
727.124	44556.05
727.465	44410.74
727.807	44305.88
728.149	44309.95
728.491	44180.46
728.833	44307.24
729.175	44161.03
729.516	43879.23
729.858	43896.85
730.199	43922.62
730.541	43906.35
730.882	43928.94
731.224	44095.72
731.565	43688.27
731.906	43719.68
732.248	43774.37
732.589	43533.25
732.93	43400.37
733.271	43416.41
733.612	43614.15
733.953	43580.48
734.294	43371.22
734.635	43262.52
734.976	43317.66
735.317	43120.6
735.658	43160.15
735.999	43075.63
736.339	42907.73
736.68	43140.26
737.021	42846.03
737.361	42743.21
737.702	42868.63
738.042	42761.29
738.383	42366.73
738.723	42455.31
739.063	42314.97
739.404	42557
739.744	42272.72
740.084	42040.41
740.424	42235.43
740.764	42086.05
741.104	42195.88
741.444	41977.81
741.784	41821.65
742.124	42061.65
742.464	41679.51
742.804	41613.07
743.143	41475.67
743.483	41571.04
743.823	41442.91
744.162	41376.47
744.502	41237.26
744.841	41130.15
745.181	41149.13
745.52	41024.16
745.86	41108.45
746.199	40929.7
746.538	40889.48
746.877	40812.87
747.216	40695.36
747.556	40473.22
747.895	40538.75
748.234	40343.28
748.573	40245.2
748.911	40156.16
749.25	40190.06
749.589	40050.85
749.928	40044.98
750.267	40099.44
750.605	39906.9
750.944	39588.49
751.283	39542.17
751.621	39655.61
751.96	39435.95
752.298	39399.12
752.636	39371.55
752.975	39177.43
753.313	39005.91
753.651	39120.03
753.989	38920.04
754.327	38849.98
754.666	38760.27
755.004	38727.05
755.342	38588.07
755.679	38697.22
756.017	38405.47
756.355	38549.2
756.693	38202.31
757.031	38378.13
757.368	38106.5
757.706	38080.51
758.044	37919.16
758.381	37911.7
758.719	37767.07
759.056	37866.05
759.394	37793.96
759.731	37390.36
760.068	37429.23
760.405	37241.44
760.743	37177.71
761.08	37237.59
761.417	37043.25
761.754	36912.41
762.091	36988.34
762.428	36878.51
762.765	36592.64
763.102	36835.8
763.438	36565.97
763.775	36455.02
764.112	36373.66
764.449	36367.56
764.785	36229.71
765.122	36019.55
765.458	35764.64
765.795	35850.29
766.131	35733.91
766.467	35610.97
766.804	35454.59
767.14	35289.62
767.476	35360.58
767.812	35195.61
768.148	35256.63
768.485	35037.2
768.821	34815.96
769.157	34850.09
769.492	34716.53
769.828	34739.13
770.164	34280.38
770.5	34242.42
770.836	34274.51
771.171	34026.83
771.507	33993.84
771.842	33830
772.178	33747.06
772.513	33649.44
772.849	33626.16
773.184	33486.73
773.519	33497.35
773.855	33316.12
774.19	33133.3
774.525	33053.52
774.86	32939.63
775.195	32882.68
775.53	32642.23
775.865	32465.74
776.2	32235.92
776.535	32095.13
776.87	32162.02
777.205	31959.77
777.539	31816.72
777.874	31984.63
778.209	31604.52
778.543	31573.79
778.878	31258.32
779.212	31340.35
779.547	31025.55
779.881	31148.94
780.215	30889.51
780.55	30873.69
780.884	30598.67
781.218	30683.87
781.552	30498.56
781.886	30302.41
782.22	30068.74
782.554	30044.11
782.888	29799.82
783.222	29607.51
783.556	29569.32
783.889	29496.78
784.223	29261.53
784.557	29312.15
784.89	29144.02
785.224	29093.63
785.557	28882.33
785.891	28783.13
786.224	28695.67
786.558	28643.92
786.891	28468.79
787.224	28207.55
787.557	28175.69
787.891	28091.85
788.224	28134.56
788.557	28086.87
788.89	27958.06
789.223	27966.88
789.556	27667
789.888	27702.48
790.221	27443.28
790.554	27312.88
790.887	27390.17
791.219	27248.7
791.552	27074.7
791.884	26958.32
792.217	26816.17
792.549	26694.59
792.882	26633.35
793.214	26544.09
793.546	26478.1
793.879	26323.98
794.211	26163.08
794.543	26328.28
794.875	26074.27
795.207	26212.12
795.539	26034.73
795.871	26031.11
796.203	25748.86
796.535	25636.77
796.867	25617.79
797.198	25601.29
797.53	25621.63
797.862	25438.13
798.193	25423.44
798.525	25285.37
798.856	25337.12
799.188	25029.1
799.519	24945.71
799.85	24942.55
800.182	24867.52
800.513	24787.53
800.844	24630.69
801.175	24811.25
801.506	24688.55
801.837	24597.47
802.168	24484.48
802.499	24462.79
802.83	24334.43
803.161	24412.62
803.491	24389.8
803.822	24356.58
804.153	24256.69
804.483	24038.85
804.814	23950.71
805.145	23912.75
805.475	23888.34
805.805	23768.8
806.136	23861.67
806.466	23785.29
806.796	23779.87
807.126	23577.16
807.457	23525.86
807.787	23668.01
808.117	23441.12
808.447	23337.85
808.777	23480.44
809.107	23353.21
809.436	23269.37
809.766	23166.1
810.096	23141.92
810.426	23018.53
810.755	23031.87
811.085	23096.72
811.414	22936.73
811.744	22878.65
812.073	22876.16
812.403	22733.79
812.732	22625.32
813.061	22554.14
813.39	22385.33
813.719	22403.86
814.049	22596.17
814.378	22341.71
814.707	22316.18
815.036	22262.62
815.365	22224.43
815.693	22022.85
816.022	22058.11
816.351	21864.44
816.68	21732.01
817.008	21925.45
817.337	21690.88
817.665	21650.43
817.994	21590.77
818.322	21613.82
818.651	21474.62
818.979	21426.71
819.307	21474.17
819.636	21370.67
819.964	21216.32
820.292	21242.08
820.62	21185.36
820.948	21181.29
821.276	21238.69
821.604	21139.94
821.932	21026.72
822.259	21027.63
822.587	21185.14
822.915	21059.71
823.243	21062.65
823.57	21032.37
823.898	21000.28
824.225	20945.59
824.553	20947.63
824.88	20816.78
825.207	21064.91
825.535	20953.73
825.862	21015.87
826.189	20841.87
826.516	20866.73
826.843	20925.48
827.17	20948.76
827.497	20884.13
827.824	20798.93
828.151	20925.25
828.478	20743.56
828.805	20785.15
829.131	20724.36
829.458	20700.85
829.785	20497.02
830.111	20653.4
830.438	20626.05
830.764	20685.94
831.09	20617.47
831.417	20444.14
831.743	20643.68
832.069	20568.88
832.395	20469
832.722	20568.2
833.048	20429
833.374	20489.56
833.7	20363.46
834.026	20404.36
834.351	20352.61
834.677	20209.34
835.003	20363.24
835.329	20389
835.654	20370.02
835.98	20293.86
836.306	20243.69
836.631	20263.13
836.956	20371.15
837.282	20255.67
837.607	20090.02
837.932	20134.54
838.258	20194.43
838.583	20142
838.908	20071.49
839.233	20103.58
839.558	19931.61
839.883	19949.24
840.208	19789.47
840.533	19792.63
840.858	19857.03
841.182	19887.09
841.507	19844.83
841.832	19827.66
842.156	19780.65
842.481	19700.43
842.805	19676.47
843.13	19684.61
843.454	19693.65
843.778	19607.32
844.103	19536.59
844.427	19467.21
844.751	19608.91
845.075	19435.12
845.399	19430.15
845.723	19244.62
846.047	19357.39
846.371	19325.52
846.695	19311.74
847.019	19058.19
847.343	19023.16
847.666	18876.5
847.99	18869.49
848.313	18846.89
848.637	18724.63
848.96	18709.49
849.284	18695.71
849.607	18527.58
849.931	18514.02
850.254	18382.5
850.577	18242.61
850.9	18245.33
851.223	18239.68
851.546	18154.48
851.869	17951.77
852.192	18207.13
852.515	17918.1
852.838	17839.46
853.161	17835.84
853.483	17698.22
853.806	17700.03
854.129	17708.39
854.451	17601.73
854.774	17584.55
855.096	17446.02
855.419	17360.83
855.741	17379.81
856.063	17320.15
856.385	17223.66
856.708	17112.7
857.03	17241.28
857.352	17166.03
857.674	17048.75
857.996	17024.79
858.318	16852.82
858.64	16822.09
858.961	16799.71
859.283	16799.04
859.605	16712.26
859.926	16697.12
860.248	16511.36
860.57	16533.05
860.891	16589.1
861.212	16463.68
861.534	16437.69
861.855	16387.07
862.176	16415.99
862.498	16351.59
862.819	16303.68
863.14	16165.61
863.461	16180.07
863.782	16107.53
864.103	16066.63
864.424	16004.71
864.745	16072.05
865.065	15938.95
865.386	15907.31
865.707	15914.31
866.027	15953.86
866.348	15858.5
866.668	15839.51
866.989	15730.59
867.309	15676.13
867.63	15715
867.95	15685.39
868.27	15504.38
868.59	15682.68
868.91	15603.13
869.23	15538.28
869.55	15407.66
869.87	15452.4
870.19	15431.39
870.51	15358.4
870.83	15429.58
871.15	15275.91
871.469	15340.99
871.789	15314.1
872.109	15316.36
872.428	15108.91
872.748	15153.43
873.067	15171.96
873.386	15147.55
873.706	15106.2
874.025	15035.47
874.344	15092.19
874.663	15064.17
874.982	15074.34
875.301	14879.54
875.62	14919.09
875.939	14820.78
876.258	14892.19
876.577	14774.46
876.896	14791.18
877.214	14776.26
877.533	14775.13
877.852	14722.48
878.17	14810.39
878.489	14668.7
878.807	14652.88
879.125	14603.16
879.444	14608.58
879.762	14557.51
880.08	14566.55
880.398	14430.96
880.716	14465.31
881.034	14419.89
881.352	14421.02
881.67	14301.93
881.988	14423.5
882.306	14363.17
882.624	14221.02
882.941	14221.02
883.259	14254.02
883.577	14211.08
883.894	14199.56
884.212	14210.86
884.529	14188.26
884.846	14188.03
885.164	14087.47
885.481	14081.59
885.798	14047.92
886.115	13984.87
886.432	13966.57
886.75	13890.64
887.067	13962.5
887.383	13900.13
887.7	13993.69
888.017	13822.62
888.334	13921.82
888.651	13791.43
888.967	13812.9
889.284	13711.66
889.6	13729.29
889.917	13559.8
890.233	13687.03
890.55	13552.12
890.866	13647.25
891.182	13595.73
891.498	13524.32
891.815	13523.42
892.131	13349.63
892.447	13409.75
892.763	13268.73
893.079	13301.73
893.395	13290.65
893.71	13279.58
894.026	13245
894.342	13215.85
894.657	13120.49
894.973	13057.89
895.289	13124.1
895.604	13069.19
895.92	12993.26
896.235	12923.43
896.55	12929.53
896.865	12956.42
897.181	12924.56
897.496	12847.05
897.811	12831.91
898.126	12704.23
898.441	12675.98
898.756	12754.85
899.071	12639.82
899.386	12702.19
899.7	12537.68
900.015	12429.89
900.33	12381.3
900.644	12462.88
900.959	12455.42
901.273	12325.26
901.588	12286.61
901.902	12236.44
902.216	12216.11
902.531	12193.73
902.845	12169.1
903.159	12091.81
903.473	12087.75
903.787	12084.36
904.101	11976.34
904.415	11957.81
904.729	11954.19
905.042	11882.33
905.356	11777.47
905.67	11788.77
905.984	11728.21
906.297	11648.89
906.611	11661.77
906.924	11567.76
907.237	11553.52
907.551	11509.91
907.864	11441.66
908.177	11451.38
908.491	11365.05
908.804	11264.94
909.117	11230.14
909.43	11278.5
909.743	11175.23
910.056	11108.34
910.368	11071.05
910.681	10942.69
910.994	11032.63
911.307	10942.24
911.619	10827.22
911.932	10879.19
912.244	10793.32
912.557	10788.8
912.869	10671.29
913.181	10664.28
913.494	10561.46
913.806	10552.87
914.118	10530.27
914.43	10406.89
914.742	10464.29
915.054	10435.81
915.366	10329.83
915.678	10295.25
915.99	10317.62
916.302	10151.75
916.613	10110.62
916.925	10036.5
917.236	10055.26
917.548	9976.84
917.859	10050.96
918.171	9924.19
918.482	9844.87
918.794	9797.86
919.105	9721.93
919.416	9638.09
919.727	9644.42
920.038	9604.42
920.349	9520.13
920.66	9464.54
920.971	9422.28
921.282	9456.4
921.593	9323.07
921.903	9290.53
922.214	9265.45
922.525	9185.68
922.835	9173.25
923.146	9066.81
923.456	9037.21
923.767	9019.81
924.077	8949.07
924.387	8963.76
924.697	8880.15
925.008	8804.22
925.318	8843.99
925.628	8785.24
925.938	8741.62
926.248	8606.03
926.558	8689.19
926.867	8586.82
927.177	8561.96
927.487	8461.63
927.796	8472.47
928.106	8443.55
928.416	8437.67
928.725	8409.43
929.034	8321.29
929.344	8288.53
929.653	8298.24
929.962	8145.93
930.271	8159.04
930.581	8105.7
930.89	8056.89
931.199	8021.19
931.508	7976.67
931.817	7992.26
932.125	7929.21
932.434	7943.68
932.743	7879.27
933.051	7834.07
933.36	7818.71
933.669	7757.24
933.977	7775.77
934.286	7707.07
934.594	7674.3
934.902	7630.46
935.21	7597.92
935.519	7522.22
935.827	7559.73
936.135	7470.47
936.443	7425.72
936.751	7319.96
937.059	7341.88
937.367	7352.5
937.674	7350.7
937.982	7255.33
938.29	7286.74
938.597	7233.64
938.905	7218.04
939.213	7127.88
939.52	7087.2
939.827	7098.27
940.135	7002.01
940.442	7076.81
940.749	7032.51
941.056	7056.47
941.363	6970.82
941.67	6981.67
941.977	6948.22
942.284	6903.48
942.591	6829.81
942.898	6834.55
943.205	6873.65
943.511	6831.61
943.818	6834.33
944.125	6779.86
944.431	6755.01
944.738	6713.65
945.044	6676.59
945.35	6664.16
945.657	6574.9
945.963	6611.51
946.269	6590.04
946.575	6615.8
946.881	6483.15
947.187	6461.23
947.493	6461
947.799	6486.76
948.105	6423.94
948.41	6395.02
948.716	6448.8
949.022	6360.89
949.327	6293.1
949.633	6312.31
949.938	6329.25
950.244	6280.44
950.549	6270.72
950.854	6227.79
951.16	6227.79
951.465	6138.53
951.77	6198.86
952.075	6145.76
952.38	6112.76
952.685	6141.24
952.99	6039.09
953.294	6026.21
953.599	6063.5
953.904	6002.48
954.209	5992.31
954.513	5977.63
954.818	6006.78
955.122	5929.27
955.426	5889.49
955.731	5884.75
956.035	5827.8
956.339	5827.57
956.643	5802.71
956.948	5773.79
957.252	5770.63
957.556	5720.23
957.86	5737.41
958.163	5721.13
958.467	5684.75
958.771	5647.46
959.075	5614.7
959.378	5630.29
959.682	5644.53
959.985	5543.06
960.289	5508.94
960.592	5489.5
960.896	5490.86
961.199	5435.72
961.502	5455.38
961.805	5362.27
962.108	5397.75
962.411	5354.36
962.714	5308.49
963.017	5323.63
963.32	5352.78
963.623	5234.82
963.926	5269.85
964.228	5172.9
964.531	5171.54
964.833	5172.45
965.136	5139.46
965.438	5119.79
965.741	5082.51
966.043	5068.95
966.345	5047.71
966.648	5002.06
966.95	5007.03
967.252	5003.64
967.554	4914.38
967.856	4962.51
968.158	4887.71
968.46	4873.25
968.761	4861.27
969.063	4819.01
969.365	4765.91
969.666	4760.03
969.968	4746.7
970.269	4728.84
970.571	4715.29
970.872	4705.34
971.174	4659.69
971.475	4618.79
971.776	4605.91
972.077	4586.25
972.378	4536.31
972.679	4565.69
972.98	4518.91
973.281	4517.78
973.582	4452.24
973.883	4441.62
974.183	4433.26
974.484	4411.34
974.785	4367.5
975.085	4365.46
975.386	4351
975.686	4327.5
975.986	4293.83
976.287	4252.92
976.587	4180.61
976.887	4275.52
977.187	4220.38
977.487	4182.19
977.787	4171.57
978.087	4127.96
978.387	4139.48
978.687	4089.99
978.987	4055.64
979.286	4064
979.586	4040.05
979.885	4025.59
980.185	3922.99
980.484	3969.99
980.784	3969.09
981.083	3918.7
981.382	3912.14
981.682	3870.56
981.981	3883.44
982.28	3843.22
982.579	3833.73
982.878	3815.42
983.177	3760.73
983.475	3803.9
983.774	3707.85
984.073	3726.16
984.372	3690.23
984.67	3669.21
984.969	3665.14
985.267	3647.52
985.566	3606.16
985.864	3595.32
986.162	3584.69
986.461	3536.33
986.759	3518.48
987.057	3530.68
987.355	3492.72
987.653	3526.84
987.951	3455.66
988.249	3487.75
988.547	3416.79
988.844	3374.08
989.142	3403.46
989.44	3390.8
989.737	3372.27
990.035	3329.56
990.332	3372.04
990.63	3351.03
990.927	3314.87
991.224	3291.37
991.521	3283.01
991.819	3228.09
992.116	3240.3
992.413	3228.09
992.71	3214.31
993.006	3226.29
993.303	3161.88
993.6	3136.34
993.897	3131.37
994.193	3141.32
994.49	3127.08
994.787	3109.45
995.083	3088.44
995.379	3083.92
995.676	3029.23
995.972	3045.95
996.268	3037.59
996.565	3012.96
996.861	2996.69
997.157	2978.83
997.453	2955.56
997.749	2975.44
998.044	2978.61
998.34	2950.81
998.636	2923.24
998.932	2882.79
999.227	2866.07
999.523	2884.83
999.818	2847.09
1000.114	2837.59
1000.409	2845.96
1000.704	2791.95
1001	2809.57
1001.295	2803.7
1001.59	2748.78
1001.885	2765.73
1002.18	2744.49
1002.475	2738.39
1002.77	2747.65
1003.065	2681.44
1003.359	2670.14
1003.654	2700.42
1003.949	2678.28
1004.243	2628.11
1004.538	2622.46
1004.832	2599.86
1005.127	2652.29
1005.421	2574.78
1005.715	2587.66
1006.009	2603.7
1006.304	2584.27
1006.598	2575.23
1006.892	2509.69
1007.186	2513.31
1007.48	2522.8
1007.773	2507.66
1008.067	2471.95
1008.361	2450.03
1008.655	2434.22
1008.948	2432.41
1009.242	2436.93
1009.535	2386.99
1009.829	2422.01
1010.122	2406.42
1010.415	2380.88
1010.708	2335.69
1011.001	2374.78
1011.295	2335.46
1011.588	2331.39
1011.881	2299.76
1012.173	2285.97
1012.466	2258.63
1012.759	2248.46
1013.052	2254.56
1013.344	2231.74
1013.637	2253.43
1013.93	2218.63
1014.222	2196.71
1014.514	2222.92
1014.807	2165.3
1015.099	2175.47
1015.391	2158.74
1015.683	2155.8
1015.976	2136.14
1016.268	2131.85
1016.56	2125.75
1016.851	2082.81
1017.143	2049.14
1017.435	2075.81
1017.727	2062.02
1018.018	2033.55
1018.31	2047.33
1018.602	2014.11
1018.893	2012.53
1019.185	1978.41
1019.476	2001.01
1019.767	1996.04
1020.058	1964.62
1020.35	1936.83
1020.641	1927.79
1020.932	1902.03
1021.223	1908.58
1021.514	1915.36
1021.804	1874.68
1022.095	1836.27
1022.386	1829.94
1022.677	1841.01
1022.967	1795.36
1023.258	1795.59
1023.548	1803.27
1023.839	1787.23
1024.129	1778.87
1024.419	1755.14
1024.709	1752.65
1025	1757.17
1025.29	1724.4
1025.58	1703.16
1025.87	1673.56
1026.16	1672.88
1026.449	1675.14
1026.739	1667.68
1027.029	1642.37
1027.319	1619.1
1027.608	1641.69
1027.898	1620.45
1028.187	1594.69
1028.477	1567.8
1028.766	1577.74
1029.055	1555.37
1029.344	1541.81
1029.634	1550.62
1029.923	1539.55
1030.212	1510.4
1030.501	1550.62
1030.79	1476.73
1031.078	1481.25
1031.367	1488.25
1031.656	1477.86
1031.945	1469.5
1032.233	1430.4
1032.522	1433.11
1032.81	1438.99
1033.099	1436.73
1033.387	1420.23
1033.675	1405.99
1033.963	1408.48
1034.251	1393.11
1034.54	1348.59
1034.828	1353.79
1035.116	1361.02
1035.403	1331.87
1035.691	1345.2
1035.979	1315.6
1036.267	1327.35
1036.554	1298.2
1036.842	1288.03
1037.129	1274.92
1037.417	1246.68
1037.704	1226.56
1037.992	1245.77
1038.279	1219.78
1038.566	1248.26
1038.853	1248.26
1039.14	1248.26
