Data from whiteboard_FLMS001491_00089.txt Node
Date: Wed Feb 08 11:28:30 GMT 2017
User: dcchb
Spectrometer: FLMS00149
Trigger mode: 0
Integration Time (sec): 2.000000E-2
Scans to average: 10
Electric dark correction enabled: true
Nonlinearity correction enabled: false
Boxcar width: 0
XAxis mode: Wavelengths
Number of Pixels in Spectrum: 2048
>>>>>Begin Spectral Data<<<<<
341.393	-22.54
341.776	-22.54
342.16	-22.54
342.543	-52.82
342.927	-55.31
343.31	-67.06
343.693	-68.64
344.077	-55.76
344.46	-57.57
344.843	-65.48
345.226	-50.34
345.61	-19.38
345.993	-46.5
346.376	2.32
346.759	-6.27
347.142	35.54
347.525	46.38
347.908	74.63
348.291	75.99
348.674	89.55
349.057	112.6
349.44	134.97
349.823	124.12
350.206	153.95
350.588	207.51
350.971	232.14
351.354	257
351.737	257.45
352.119	261.07
352.502	272.37
352.884	298.13
353.267	292.25
353.65	300.84
354.032	313.27
354.414	330.22
354.797	322.31
355.179	346.94
355.562	346.26
355.944	367.96
356.326	374.96
356.709	341.74
357.091	378.8
357.473	384.91
357.855	370.22
358.238	367.96
358.62	354.4
359.002	371.12
359.384	362.31
359.766	368.63
360.148	372.48
360.53	374.96
360.912	381.29
361.294	365.92
361.676	369.54
362.057	355.98
362.439	363.44
362.821	344.68
363.203	370.67
363.584	367.5
363.966	359.82
364.348	363.21
364.729	372.7
365.111	349.65
365.493	365.02
365.874	349.2
366.256	367.28
366.637	370.44
367.019	363.44
367.4	337.9
367.781	379.71
368.163	339.48
368.544	351.91
368.925	355.53
369.306	362.31
369.688	336.32
370.069	381.74
370.45	347.84
370.831	358.47
371.212	357.34
371.593	359.37
371.974	356.43
372.355	348.97
372.736	367.05
373.117	380.61
373.498	375.64
373.879	362.76
374.26	370.44
374.641	359.6
375.021	346.04
375.402	384.23
375.783	380.39
376.163	412.25
376.544	391.23
376.925	400.27
377.305	375.64
377.686	423.1
378.066	409.54
378.447	392.59
378.827	392.59
379.208	416.09
379.588	383.55
379.968	400.95
380.349	405.47
380.729	396.88
381.109	423.32
381.489	415.86
381.87	396.66
382.25	398.24
382.63	400.5
383.01	427.62
383.39	423.77
383.77	442.98
384.15	418.8
384.53	437.11
384.91	443.43
385.29	433.72
385.67	433.27
386.049	426.71
386.429	444.34
386.809	445.69
387.189	480.5
387.568	443.89
387.948	466.26
388.328	475.98
388.707	492.7
389.087	471.91
389.466	479.59
389.846	495.18
390.225	502.64
390.605	509.42
390.984	513.72
391.363	503.09
391.743	511.68
392.122	522.3
392.501	523.43
392.881	523.88
393.26	529.53
393.639	577.89
394.018	557.78
394.397	574.28
394.776	582.19
395.155	590.78
395.534	571.57
395.913	588.74
396.292	609.31
396.671	616.76
397.05	613.15
397.429	633.71
397.808	629.87
398.186	631.45
398.565	637.1
398.944	649.3
399.323	680.04
399.701	680.94
400.08	711.68
400.458	701.73
400.837	705.8
401.215	716.2
401.594	744.22
401.972	741.28
402.351	762.3
402.729	775.86
403.107	786.93
403.486	781.73
403.864	809.3
404.242	821.73
404.62	850.43
404.999	837.77
405.377	860.37
405.755	883.42
406.133	902.41
406.511	928.39
406.889	922.07
407.267	975.17
407.645	989.41
408.023	999.13
408.401	984.21
408.779	1036.64
409.156	1036.64
409.534	1065.11
409.912	1097.2
410.29	1124.09
410.667	1133.81
411.045	1149.18
411.422	1179.46
411.8	1197.09
412.178	1234.6
412.555	1270.31
412.933	1262.62
413.31	1320.93
413.687	1319.34
414.065	1353.47
414.442	1336.29
414.819	1355.05
415.197	1375.39
415.574	1415.84
415.951	1455.61
416.328	1470.3
416.705	1472.79
417.082	1512.33
417.46	1532.9
417.837	1531.54
418.214	1556.4
418.591	1556.63
418.967	1592.11
419.344	1583.52
419.721	1648.83
420.098	1620.13
420.475	1673.01
420.852	1701.93
421.228	1721.82
421.605	1776.05
421.982	1744.64
422.358	1767.47
422.735	1804.53
423.111	1818.54
423.488	1854.47
423.864	1841.59
424.241	1886.56
424.617	1914.36
424.994	1903.96
425.37	1932.66
425.746	1947.12
426.123	1988.48
426.499	2022.15
426.875	2046.56
427.251	2071.19
427.627	2145.76
428.003	2168.36
428.379	2155.71
428.756	2168.81
429.132	2240
429.507	2265.53
429.883	2293.1
430.259	2330.39
430.635	2339.2
431.011	2388.47
431.387	2437.51
431.763	2484.96
432.138	2465.3
432.514	2509.37
432.89	2560.44
433.265	2599.08
433.641	2622.13
434.016	2689.7
434.392	2726.54
434.767	2726.99
435.143	2745.97
435.518	2818.29
435.894	2814.9
436.269	2881.34
436.644	2929.02
437.02	2926.76
437.395	2945.52
437.77	2998.62
438.145	3050.15
438.52	3030.71
438.895	3107.55
439.271	3102.57
439.646	3217.37
440.021	3162.91
440.395	3222.8
440.77	3211.95
441.145	3290.14
441.52	3305.05
441.895	3318.84
442.27	3356.13
442.645	3350.7
443.019	3377.37
443.394	3389.35
443.769	3460.98
444.143	3449.46
444.518	3511.38
444.892	3464.6
445.267	3507.76
445.641	3587.53
446.016	3606.97
446.39	3638.6
446.764	3659.62
447.139	3623.24
447.513	3705.5
447.887	3751.14
448.262	3760.41
448.636	3805.83
449.01	3843.35
449.384	3891.03
449.758	3894.87
450.132	3944.81
450.506	3975.32
450.88	3991.14
451.254	4011.25
451.628	4079.05
452.002	4117.24
452.376	4106.62
452.75	4266.38
453.123	4241.53
453.497	4255.99
453.871	4323.56
454.244	4428.64
454.618	4439.71
454.992	4532.82
455.365	4520.39
455.739	4622.53
456.112	4672.48
456.486	4733.04
456.859	4750.44
457.232	4914.05
457.606	4867.95
457.979	4905.46
458.352	5050.77
458.725	5057.55
459.099	5104.33
459.472	5194.27
459.845	5310.2
460.218	5311.78
460.591	5385.45
460.964	5389.29
461.337	5540.93
461.71	5622.96
462.083	5728.27
462.456	5700.02
462.829	5749.96
463.201	5835.61
463.574	5859.11
463.947	5966.45
464.32	6091.42
464.692	6189.72
465.065	6194.02
465.438	6232.21
465.81	6355.14
466.183	6429.04
466.555	6571.64
466.928	6666.55
467.3	6617.96
467.672	6714.91
468.045	6897.73
468.417	6907.67
468.789	6994.9
469.161	7106.99
469.534	7185.18
469.906	7386.53
470.278	7390.82
470.65	7563.02
471.022	7654.77
471.394	7762.56
471.766	7869.45
472.138	7981.99
472.51	8169.56
472.882	8221.76
473.253	8333.85
473.625	8414.3
473.997	8668.53
474.369	8675.76
474.74	8809.99
475.112	8997.11
475.484	9119.14
475.855	9353.71
476.227	9414.05
476.598	9633.02
476.97	9670.76
477.341	9907.37
477.713	10072.33
478.084	10207.25
478.455	10422.16
478.827	10514.81
479.198	10749.6
479.569	10779.89
479.94	11129.03
480.311	11274.11
480.682	11427.1
481.053	11705.06
481.424	11940.53
481.795	12012.4
482.166	12281.77
482.537	12392.05
482.908	12698.03
483.279	12787.74
483.65	13019.6
484.021	13278.58
484.391	13415.3
484.762	13565.12
485.133	13682.86
485.503	13883.08
485.874	14165.33
486.244	14287.82
486.615	14649.84
486.985	14625.43
487.356	15057.51
487.726	15175.25
488.097	15504.96
488.467	15570.27
488.837	15783.37
489.207	16098.16
489.578	16269.91
489.948	16413.41
490.318	16580.19
490.688	16750.58
491.058	16926.84
491.428	17261.07
491.798	17423.78
492.168	17722.53
492.538	17760.04
492.908	17998
493.278	18268.95
493.648	18223.08
494.017	18501.49
494.387	18758.89
494.757	18872.78
495.126	18947.58
495.496	19057.86
495.866	19259.21
496.235	19498.07
496.605	19623.95
496.974	19713.44
497.344	19968.35
497.713	20041.79
498.082	20044.5
498.452	20395.45
498.821	20507.09
499.19	20488.78
499.559	20662.11
499.928	20763.8
500.298	20999.28
500.667	21301.87
501.036	21330.57
501.405	21473.16
501.774	21604.91
502.143	21814.85
502.512	21916.09
502.88	22103.88
503.249	22126.71
503.618	22272.92
503.987	22462.52
504.356	22482.86
504.724	22709.06
505.093	22824.99
505.462	22975.72
505.83	23147.92
506.199	23424.07
506.567	23683.73
506.936	23646.89
507.304	23891.18
507.672	23962.59
508.041	24181.79
508.409	24247.55
508.777	24410.26
509.145	24567.32
509.514	24612.29
509.882	24877.59
510.25	24954.43
510.618	25162.56
510.986	25243.91
511.354	25383.57
511.722	25684.8
512.09	26004.8
512.458	25937.68
512.826	26167.73
513.193	26259.48
513.561	26473.94
513.929	26556.42
514.297	26920.03
514.664	26998.22
515.032	27218.55
515.4	27415.83
515.767	27491.54
516.135	27690.63
516.502	27606.56
516.869	28176.04
517.237	28392.3
517.604	28286.09
517.972	28672.52
518.339	28903.25
518.706	28877.49
519.073	28999.52
519.44	29310.47
519.808	29711.37
520.175	29745.26
520.542	30009.89
520.909	30180.05
521.276	30245.59
521.643	30669.53
522.009	30705.92
522.376	30943.88
522.743	31212.57
523.11	31414.15
523.477	31809.62
523.843	31914.25
524.21	32156.05
524.577	32411.63
524.943	32594.91
525.31	32697.5
525.676	33008.91
526.043	33315.79
526.409	33449.12
526.776	33724.82
527.142	33754.2
527.508	33962.33
527.874	34406.61
528.241	34476.66
528.607	34591.69
528.973	34769.54
529.339	34806.6
529.705	35303.54
530.071	35542.17
530.437	35601.61
530.803	35872.56
531.169	36131.76
531.535	36154.13
531.901	36317.75
532.267	36625.08
532.632	36845.87
532.998	36894.23
533.364	37137.84
533.73	37167.89
534.095	37615.56
534.461	37656.24
534.826	37845.62
535.192	38053.52
535.557	38316.79
535.923	38274.3
536.288	38488.54
536.653	38645.37
537.019	38534.86
537.384	38800.17
537.749	38960.16
538.114	39137.56
538.479	39143.21
538.845	39444.67
539.21	39296.2
539.575	39482.41
539.94	39530.09
540.305	39850.31
540.67	39855.28
541.034	39961.94
541.399	40289.17
541.764	40422.95
542.129	40486.9
542.494	40475.15
542.858	40677.41
543.223	40740.45
543.587	40980.67
543.952	40936.83
544.316	41126.66
544.681	41305.86
545.045	41395.13
545.41	41552.86
545.774	41792.86
546.138	41794.66
546.503	41827.43
546.867	42029.91
547.231	42363.01
547.595	42424.25
547.959	42681.65
548.324	42590.8
548.688	42755.32
549.052	42919.61
549.416	43058.13
549.779	43209.09
550.143	43390.1
550.507	43563.2
550.871	43752.35
551.235	43777.66
551.599	44075.73
551.962	44144.21
552.326	44087.03
552.689	44398.44
553.053	44290.19
553.417	44344.43
553.78	44990.51
554.143	44808.14
554.507	45081.81
554.87	45159.55
555.234	45561.8
555.597	45252.2
555.96	45640.21
556.323	45750.04
556.686	45710.94
557.05	46064.38
557.413	46180.76
557.776	46387.31
558.139	46563.58
558.502	46450.81
558.865	46794.53
559.228	46867.07
559.59	47008.76
559.953	47166.95
560.316	47552.7
560.679	47463.89
561.041	47652.81
561.404	47966.25
561.767	48159.47
562.129	48045.12
562.492	48468.84
562.854	48471.78
563.217	48607.14
563.579	48738.89
563.941	49003.51
564.304	49183.85
564.666	49374.35
565.028	49439.21
565.39	49593.1
565.753	49719.88
566.115	49830.16
566.477	49983.83
566.839	50076.71
567.201	50311.05
567.563	50401.9
567.925	50730.25
568.287	50727.08
568.648	50713.53
569.01	51007.3
569.372	51167.3
569.734	50990.58
570.095	51299.27
570.457	51377.91
570.819	51422.21
571.18	51559.83
571.542	51740.62
571.903	51685.03
572.265	51822.2
572.626	52041.4
572.987	52020.61
573.349	52070.1
573.71	52221.06
574.071	52341.05
574.432	52407.72
574.794	52630.09
575.155	52600.93
575.516	52560.71
575.877	52768.61
576.238	52818.1
576.599	52861.94
576.96	52919.57
577.32	52971.09
577.681	52991.43
578.042	53190.3
578.403	53152.78
578.763	53243.63
579.124	53195.04
579.485	53345.09
579.845	53477.07
580.206	53280.92
580.566	53315.26
580.927	53393.91
581.287	53571.53
581.648	53447.69
582.008	53549.16
582.368	53458.31
582.728	53619.21
583.089	53480.91
583.449	53587.35
583.809	53602.71
584.169	53764.07
584.529	53593.22
584.889	53893.1
585.249	53670.96
585.609	53619.89
585.969	53771.52
586.329	53706.44
586.688	53756.61
587.048	53682.71
587.408	53669.15
587.768	53646.56
588.127	53640
588.487	53668.93
588.846	53875.48
589.206	53712.77
589.565	53615.6
589.925	53770.39
590.284	53718.42
590.643	53783.05
591.003	53850.17
591.362	53924.06
591.721	53929.49
592.08	53845.87
592.44	53960.9
592.799	53945.3
593.158	53916.15
593.517	53872.31
593.876	53883.61
594.235	53832.77
594.593	53845.42
594.952	53908.24
595.311	53912.31
595.67	53868.92
596.029	54061.91
596.387	54021.23
596.746	54095.81
597.104	54008.35
597.463	53922.48
597.822	54150.05
598.18	53970.16
598.538	54068.24
598.897	54186.65
599.255	54054.45
599.613	54410.15
599.972	54189.37
600.33	54320.89
600.688	54209.93
601.046	54396.82
601.404	54366.31
601.762	54378.74
602.12	54485.4
602.478	54406.76
602.836	54451.51
603.194	54288.12
603.552	54353.66
603.91	54269.14
604.268	54463.94
604.625	54251.96
604.983	54478.17
605.341	54260.32
605.698	54404.73
606.056	54395.91
606.413	54394.11
606.771	54472.97
607.128	54531.96
607.485	54377.38
607.843	54418.29
608.2	54536.02
608.557	54571.05
608.914	54632.52
609.272	54648.56
609.629	54769.24
609.986	54845.85
610.343	54656.7
610.7	54865.28
611.057	54791.84
611.414	54793.19
611.771	54809.91
612.127	54919.52
612.484	54831.38
612.841	54951.83
613.198	54849.24
613.554	54888.33
613.911	55084.94
614.267	55002.23
614.624	54986.86
614.98	55051.04
615.337	55197.93
615.693	55227.76
616.05	55170.81
616.406	55359.05
616.762	55210.58
617.118	55206.51
617.475	55250.13
617.831	55294.65
618.187	55329.9
618.543	55320.64
618.899	55483.8
619.255	55391.82
619.611	55374.42
619.967	55494.64
620.323	55507.75
620.678	55371.48
621.034	55283.12
621.39	55314.08
621.746	55210.81
622.101	55542.55
622.457	55244.03
622.812	55299.17
623.168	55379.17
623.523	55376.91
623.879	55478.15
624.234	55255.55
624.589	55379.17
624.945	55384.14
625.3	55414.87
625.655	55278.83
626.01	55314.99
626.365	55364.7
626.72	55303.46
627.075	55265.72
627.43	55273.41
627.785	55222.33
628.14	55194.54
628.495	55251.49
628.85	55201.09
629.205	55091.04
629.559	55237.93
629.914	55120.19
630.269	55089
630.623	55020.98
630.978	54903.02
631.332	55065.95
631.687	55164.48
632.041	54923.36
632.396	55047.87
632.75	54844.94
633.104	54886.75
633.459	54849.01
633.813	54780.76
634.167	54809.24
634.521	54812.17
634.875	54777.6
635.229	54763.14
635.583	54661.22
635.937	54649.02
636.291	54628.68
636.645	54599.98
636.999	54536.7
637.352	54619.86
637.706	54438.63
638.06	54559.07
638.413	54524.05
638.767	54444.27
639.121	54450.38
639.474	54253.55
639.828	54295.8
640.181	54319.76
640.534	54363.6
640.888	54169.25
641.241	54129.48
641.594	54208.12
641.947	54236.37
642.301	54091.29
642.654	54129.93
643.007	54101.01
643.36	54047.22
643.713	54009.48
644.066	53997.73
644.419	53932.65
644.771	53664.18
645.124	53343.29
645.477	53259.9
645.83	53040.92
646.182	52965.67
646.535	52929.29
646.888	53030.07
647.24	52796.86
647.593	53036.4
647.945	52994.6
648.298	52819.01
648.65	52632.12
649.002	52712.12
649.355	52761.38
649.707	52623.31
650.059	52673.47
650.411	53017.19
650.763	53004.76
651.115	53392.1
651.467	53250.63
651.819	53217.19
652.171	53174.25
652.523	53083.18
652.875	53108.04
653.227	52968.61
653.578	53162.73
653.93	53030.53
654.282	52875.05
654.633	52842.28
654.985	52866.46
655.337	52876.63
655.688	52936.52
656.039	52864.43
656.391	52652.23
656.742	52711.21
657.094	52730.87
657.445	52832.57
657.796	52643.64
658.147	52619.01
658.498	52628.05
658.849	52628.5
659.2	52602.06
659.551	52558.45
659.902	52603.19
660.253	52564.1
660.604	52563.19
660.955	52335.63
661.306	52509.64
661.656	52376.53
662.007	52431.45
662.358	52403.42
662.708	52463.99
663.059	52380.6
663.409	52202.98
663.76	52444.33
664.11	52351.67
664.461	52371.56
664.811	52335.86
665.161	52228.06
665.511	52286.14
665.862	52304.67
666.212	52319.58
666.562	52291.11
666.912	52273.94
667.262	52200.04
667.612	52098.8
667.962	52249.76
668.312	52145.13
668.662	52308.06
669.011	52097.22
669.361	52161.62
669.711	51965.47
670.06	52026.94
670.41	51815.64
670.76	51858.13
671.109	51945.81
671.459	51871.69
671.808	51780.16
672.157	51881.86
672.507	51719.6
672.856	51706.27
673.205	51684.8
673.554	51763.89
673.904	51676.44
674.253	51716.44
674.602	51691.13
674.951	51213.17
675.3	50979.06
675.649	51472.6
675.998	51296.79
676.346	51407.74
676.695	51424.24
677.044	51231.25
677.393	51264.02
677.741	51263.79
678.09	51143.12
678.438	51017.02
678.787	51184.25
679.135	51230.57
679.484	50881.88
679.832	51028.32
680.181	50819.51
680.529	50953.29
680.877	50859.96
681.225	50857.25
681.573	50915.1
681.922	50593.3
682.27	50517.82
682.618	50617.26
682.966	50466.98
683.314	50462.91
683.661	50389.92
684.009	50196.25
684.357	50173.43
684.705	50152.18
685.053	50172.97
685.4	50012.07
685.748	49918.97
686.095	49954.9
686.443	49723.72
686.79	49825.64
687.138	49695.7
687.485	49803.72
687.832	49543.16
688.18	49625.64
688.527	49474.01
688.874	49320.79
689.221	49241.7
689.568	49128.93
689.915	49010.52
690.262	49045.77
690.609	49016.17
690.956	48862.5
691.303	48821.15
691.65	48541.83
691.997	48605.33
692.344	48391.33
692.69	48265.45
693.037	48265.23
693.383	48007.16
693.73	48077.44
694.077	47758.57
694.423	47755.19
694.769	47752.02
695.116	47560.61
695.462	47569.2
695.808	47534.4
696.155	47445.14
696.501	47190.45
696.847	47082.66
697.193	46930.35
697.539	47057.8
697.885	46693.52
698.231	46672.28
698.577	46746.85
698.923	46602.45
699.269	46413.75
699.614	46154.1
699.96	46072.29
700.306	46081.1
700.651	45840.66
700.997	45702.13
701.342	45646.99
701.688	45605.86
702.033	45359.32
702.379	45339.66
702.724	45223.05
703.069	45297.85
703.415	44864.41
703.76	44952.09
704.105	44797.3
704.45	44675.94
704.795	44477.31
705.14	44422.84
705.485	44292.9
705.83	44064.66
706.175	44247.71
706.52	44051.33
706.865	43825.12
707.209	43807.72
707.554	43608.18
707.899	43681.39
708.243	43464.22
708.588	43487.95
708.932	43219.26
709.277	43235.98
709.621	43237.79
709.966	42963.22
710.31	42973.16
710.654	42578.15
710.998	42703.57
711.342	42801.64
711.687	42520.52
712.031	42245.05
712.375	42172.96
712.719	42263.8
713.063	42094.77
713.407	42433.97
713.75	41995.79
714.094	42007.09
714.438	41799.41
714.782	41791.95
715.125	41733.2
715.469	41685.97
715.812	41497.04
716.156	41295.92
716.499	41331.85
716.843	41338.4
717.186	41040.33
717.53	41194.45
717.873	41048.02
718.216	41066.55
718.559	40763.73
718.902	40511.53
719.246	40639.44
719.589	40356.51
719.932	40487.35
720.275	40476.51
720.617	40288.71
720.96	40171.66
721.303	40174.14
721.646	40299.79
721.989	39901.61
722.331	40185.44
722.674	39989.29
723.016	39916.97
723.359	39789.29
723.701	39805.11
724.044	39646.02
724.386	39422.52
724.729	39479.24
725.071	39472.69
725.413	39408.74
725.755	39377.78
726.097	39172.13
726.439	38869.32
726.782	39003.1
727.124	39045.58
727.465	38921.97
727.807	38730.79
728.149	38726.95
728.491	38559.04
728.833	38660.96
729.175	38463.68
729.516	38251.25
729.858	38300.74
730.199	38358.6
730.541	38260.07
730.882	38108.43
731.224	38251.71
731.565	38013.07
731.906	38031.15
732.248	38012.84
732.589	37872.51
732.93	37825.05
733.271	37792.06
733.612	37586.19
733.953	37798.38
734.294	37604.72
734.635	37571.27
734.976	37627.09
735.317	37402.91
735.658	37396.36
735.999	37352.97
736.339	37142.58
736.68	37333.76
737.021	37058.29
737.361	36995.47
737.702	37281.79
738.042	37034.56
738.383	36823.04
738.723	37003.38
739.063	36864.62
739.404	36903.27
739.744	36729.94
740.084	36687.23
740.424	36484.29
740.764	36466.44
741.104	36495.82
741.444	36313.9
741.784	36195.71
742.124	36199.1
742.464	36195.94
742.804	36145.55
743.143	36092.44
743.483	36096.28
743.823	35732.68
744.162	35667.82
744.502	35891.32
744.841	35661.49
745.181	35770.19
745.52	35612.23
745.86	35633.47
746.199	35508.05
746.538	35420.37
746.877	35487.94
747.216	35374.72
747.556	35240.26
747.895	35206.14
748.234	35152.35
748.573	34986.26
748.911	34915.07
749.25	34939.48
749.589	34737.22
749.928	34682.76
750.267	34908.29
750.605	34578.36
750.944	34542.43
751.283	34372.49
751.621	34379.27
751.96	34257.23
752.298	34214.3
752.636	34124.81
752.975	33924.14
753.313	33753.52
753.651	34028.31
753.989	33729.79
754.327	33661.32
754.666	33514.88
755.004	33459.52
755.342	33460.42
755.679	33230.6
756.017	33140.2
756.355	33322.8
756.693	33081.9
757.031	33164.16
757.368	32894.33
757.706	32854.56
758.044	32831.74
758.381	32659.99
758.719	32673.1
759.056	32542.03
759.394	32436.94
759.731	32367.34
760.068	32227.23
760.405	32137.74
760.743	32053.9
761.08	32081.92
761.417	31894.13
761.754	31765.77
762.091	31709.73
762.428	31604.88
762.765	31342.96
763.102	31487.82
763.438	31352.45
763.775	31197.88
764.112	31150.2
764.449	31149.75
764.785	31025.46
765.122	30773.26
765.458	30718.8
765.795	30582.3
766.131	30620.27
766.467	30564.45
766.804	30434.51
767.14	30244.68
767.476	30109.1
767.812	29970.57
768.148	29987.52
768.485	29845.6
768.821	29783
769.157	29677.02
769.492	29642.21
769.828	29548.43
770.164	29286.52
770.5	29325.16
770.836	29183.92
771.171	29149.8
771.507	28927.43
771.842	28730.6
772.178	28781.67
772.513	28692.41
772.849	28514.56
773.184	28570.6
773.519	28398.86
773.855	28312.53
774.19	28213.78
774.525	28009.04
774.86	28075.7
775.195	27925.2
775.53	27787.57
775.865	27681.81
776.2	27551.2
776.535	27327.47
776.87	27443.63
777.205	27242.05
777.539	27084.77
777.874	27177.2
778.209	27002.74
778.543	26931.33
778.878	26776.08
779.212	26754.83
779.547	26511
779.881	26583.09
780.215	26405.92
780.55	26530.66
780.884	26284.56
781.218	26132.48
781.552	25988.53
781.886	25984.91
782.22	25705.37
782.554	25715.99
782.888	25461.76
783.222	25435.32
783.556	25243.23
783.889	25132.28
784.223	24966.86
784.557	24936.12
784.89	25054.54
785.224	24776.35
785.557	24654.78
785.891	24699.52
786.224	24488.9
786.558	24426.53
786.891	24244.16
787.224	24223.37
787.557	24059.31
787.891	24020.67
788.224	24024.74
788.557	24031.74
788.89	23830.39
789.223	23798.07
789.556	23543.62
789.888	23535.03
790.221	23467.46
790.554	23238.77
790.887	23248.48
791.219	23254.81
791.552	23137.98
791.884	23015.95
792.217	22989.96
792.549	22916.52
792.882	22686.47
793.214	22639.91
793.546	22604.89
793.879	22492.35
794.211	22436.53
794.543	22451.44
794.875	22424.78
795.207	22370.54
795.539	22253.03
795.871	22171
796.203	22002.87
796.535	21842.65
796.867	21912.47
797.198	21757.22
797.53	21779.82
797.862	21627.51
798.193	21700.05
798.525	21510.9
798.856	21616.89
799.188	21375.77
799.519	21238.59
799.85	21070.91
800.182	21112.5
800.513	21074.3
800.844	20916.57
801.175	21074.76
801.506	21041.54
801.837	20834.76
802.168	20804.03
802.499	20800.19
802.83	20562.45
803.161	20568.1
803.491	20560.42
803.822	20461.21
804.153	20341.89
804.483	20184.38
804.814	20227.55
805.145	20235
805.475	20132.86
805.805	20002.02
806.136	19946.65
806.466	19962.02
806.796	19910.04
807.126	19832.08
807.457	19884.28
807.787	19734.23
808.117	19671.4
808.447	19517.74
808.777	19659.65
809.107	19512.99
809.436	19536.49
809.766	19412.2
810.096	19420.56
810.426	19271.64
810.755	19390.28
811.085	19277.52
811.414	19069.84
811.744	19002.72
812.073	18979.67
812.403	19000.69
812.732	18917.75
813.061	18881.14
813.39	18802.95
813.719	18680.47
814.049	18879.56
814.378	18921.14
814.707	18685.89
815.036	18557.99
815.365	18530.64
815.693	18328.39
816.022	18412.45
816.351	18266.24
816.68	18179.92
817.008	18343.08
817.337	18057.89
817.665	18092.91
817.994	18152.8
818.322	18086.81
818.651	17961.17
818.979	17896.08
819.307	18081.61
819.636	17859.25
819.964	17728.18
820.292	17827.16
820.62	17762.3
820.948	17706.03
821.276	17732.47
821.604	17732.47
821.932	17693.83
822.259	17678.69
822.587	17631.01
822.915	17553.72
823.243	17720.04
823.57	17602.98
823.898	17605.47
824.225	17532.7
824.553	17555.08
824.88	17572.02
825.207	17543.78
825.535	17565.02
825.862	17649.76
826.189	17541.52
826.516	17574.74
826.843	17669.2
827.17	17506.94
827.497	17584.45
827.824	17544.45
828.151	17562.76
828.478	17544
828.805	17599.37
829.131	17504
829.458	17410.9
829.785	17471.69
830.111	17419.49
830.438	17459.03
830.764	17444.34
831.09	17462.2
831.417	17473.5
831.743	17419.49
832.069	17480.05
832.395	17381.29
832.722	17386.04
833.048	17383.78
833.374	17353.05
833.7	17328.87
834.026	17371.13
834.351	17318.02
834.677	17345.59
835.003	17217.46
835.329	17184.69
835.654	17191.92
835.98	17139.49
836.306	17176.78
836.631	17104.24
836.956	17221.3
837.282	17130.23
837.607	17088.87
837.932	16979.95
838.258	17064.92
838.583	16948.09
838.908	16912.83
839.233	16908.09
839.558	16817.47
839.883	16789.45
840.208	16838.71
840.533	16791.93
840.858	16737.7
841.182	16704.48
841.507	16684.36
841.832	16513.29
842.156	16494.31
842.481	16525.05
842.805	16573.41
843.13	16458.38
843.454	16470.58
843.778	16365.05
844.103	16224.49
844.427	16347.42
844.751	16265.62
845.075	16227.2
845.399	16149.69
845.723	16055.23
846.047	16092.29
846.371	15880.09
846.695	15916.25
847.019	15808.23
847.343	15693.66
847.666	15698.17
847.99	15629.48
848.313	15663.15
848.637	15520.33
848.96	15494.34
849.284	15477.39
849.607	15289.6
849.931	15322.37
850.254	15108.81
850.577	15094.8
850.9	15013.22
851.223	15069.04
851.546	14915.82
851.869	14835.15
852.192	14878.08
852.515	14691.2
852.838	14678.09
853.161	14603.51
853.483	14535.72
853.806	14529.39
854.129	14418.66
854.451	14402.39
854.774	14419.11
855.096	14303.41
855.419	14334.59
855.741	14248.72
856.063	14195.16
856.385	14209.17
856.708	14153.36
857.03	14078.33
857.352	14092.79
857.674	13992.68
857.996	14030.65
858.318	13938
858.64	13928.5
858.961	13863.42
859.283	13753.37
859.605	13714.72
859.926	13783.65
860.248	13706.81
860.57	13674.95
860.891	13689.41
861.212	13549.3
861.534	13583.65
861.855	13516.76
862.176	13500.04
862.498	13476.09
862.819	13496.42
863.14	13390.89
863.461	13284.23
863.782	13288.52
864.103	13331.23
864.424	13253.49
864.745	13343.43
865.065	13158.13
865.386	13208.3
865.707	13153.38
866.027	13183.66
866.348	13122.42
866.668	13138.92
866.989	13122.42
867.309	12998.81
867.63	13008.3
867.95	12919.49
868.27	12839.04
868.59	12885.37
868.91	12903.45
869.23	12935.54
869.55	12841.07
869.87	12840.62
870.19	12844.92
870.51	12825.03
870.83	12782.32
871.15	12727.63
871.469	12724.92
871.789	12764.47
872.109	12718.14
872.428	12641.76
872.748	12669.1
873.067	12665.94
873.386	12653.51
873.706	12567.64
874.025	12573.74
874.344	12522.21
874.663	12587.07
874.982	12448.32
875.301	12499.61
875.62	12394.98
875.939	12360.86
876.258	12350.01
876.577	12318.15
876.896	12304.59
877.214	12281.32
877.533	12306.17
877.852	12259.4
878.17	12290.81
878.489	12257.81
878.807	12239.73
879.125	12220.07
879.444	12159.06
879.762	12170.36
880.08	12076.58
880.398	12058.27
880.716	12106.4
881.034	12004.49
881.352	12050.36
881.67	11955.22
881.988	11958.61
882.306	11930.82
882.624	11928.1
882.941	11869.57
883.259	11722.01
883.577	11787.09
883.894	11821.67
884.212	11765.85
884.529	11688.34
884.846	11664.61
885.164	11690.82
885.481	11647.89
885.798	11638.17
886.115	11529.24
886.432	11591.62
886.75	11498.51
887.067	11482.24
887.383	11449.92
887.7	11491.73
888.017	11437.04
888.334	11339.87
888.651	11362.92
888.967	11318.18
889.284	11239.53
889.6	11238.41
889.917	11137.62
890.233	11116.37
890.55	11097.84
890.866	11093.32
891.182	11112.31
891.498	11050.16
891.815	11086.77
892.131	10944.63
892.447	10896.49
892.763	10910.96
893.079	10927.68
893.395	10824.18
893.71	10839.32
894.026	10755.25
894.342	10783.05
894.657	10653.11
894.973	10671.19
895.289	10653.34
895.604	10596.61
895.92	10510.74
896.235	10443.85
896.55	10451.76
896.865	10425.09
897.181	10372.21
897.496	10409.05
897.811	10322.72
898.126	10325.43
898.441	10243.4
898.756	10245.66
899.071	10184.87
899.386	10181.71
899.7	10088.15
900.015	10034.14
900.33	10010.41
900.644	10014.71
900.959	9991.21
901.273	9846.35
901.588	9882.51
901.902	9779.46
902.216	9821.95
902.531	9743.76
902.845	9750.99
903.159	9687.03
903.473	9621.95
903.787	9654.94
904.101	9585.34
904.415	9572.23
904.729	9511.67
905.042	9428.06
905.356	9429.87
905.67	9469.19
905.984	9441.39
906.297	9337.66
906.611	9334.95
906.924	9288.85
907.237	9295.86
907.551	9228.29
907.864	9196.42
908.177	9110.55
908.491	9121.62
908.804	9038.46
909.117	8974.96
909.43	8927.05
909.743	8979.48
910.056	8919.6
910.368	8907.39
910.681	8887.96
910.994	8806.38
911.307	8840.73
911.619	8646.83
911.932	8715.99
912.244	8628.76
912.557	8650.9
912.869	8540.4
913.181	8538.36
913.494	8523
913.806	8431.93
914.118	8450.91
914.43	8319.61
914.742	8424.24
915.054	8294.75
915.366	8302.89
915.678	8233.96
915.99	8195.77
916.302	8224.92
916.613	8159.39
916.925	8126.85
917.236	8065.38
917.548	8038.72
917.859	8058.6
918.171	7927.98
918.482	7983.12
918.794	7875.33
919.105	7948.1
919.416	7826.07
919.727	7843.01
920.038	7713.07
920.349	7708.1
920.66	7699.97
920.971	7664.94
921.282	7678.27
921.593	7568.45
921.903	7546.07
922.214	7497.49
922.525	7467.2
922.835	7474.89
923.146	7430.82
923.456	7376.36
923.767	7336.36
924.077	7375.46
924.387	7257.49
924.697	7260.2
925.008	7224.5
925.318	7183.37
925.628	7186.31
925.938	7127.55
926.248	7073.77
926.558	7053.43
926.867	7039.65
927.177	6996.26
927.487	6986.99
927.796	6906.54
928.106	6897.28
928.416	6870.61
928.725	6877.84
929.034	6790.16
929.344	6798.75
929.653	6726.21
929.962	6670.16
930.271	6692.99
930.581	6652.08
930.89	6666.1
931.199	6619.32
931.508	6613.22
931.817	6553.33
932.125	6516.72
932.434	6519.66
932.743	6407.12
933.051	6417.97
933.36	6411.41
933.669	6333
933.977	6354.24
934.286	6342.26
934.594	6303.62
934.902	6266.33
935.21	6226.79
935.519	6156.73
935.827	6133.91
936.135	6119.44
936.443	6087.13
936.751	6063.63
937.059	6093.68
937.367	6038.09
937.674	6084.19
937.982	5995.15
938.29	5947.24
938.597	5946.57
938.905	5905.21
939.213	5901.6
939.52	5786.12
939.827	5877.87
940.135	5730.98
940.442	5752.9
940.749	5710.41
941.056	5752.9
941.363	5685.1
941.67	5686.23
941.977	5632.45
942.284	5559.46
942.591	5634.94
942.898	5556.52
943.205	5511.1
943.511	5483.75
943.818	5530.53
944.125	5454.83
944.431	5439.46
944.738	5412.12
945.044	5347.49
945.35	5392.01
945.657	5327.15
945.963	5309.07
946.269	5328.96
946.575	5252.8
946.881	5218
947.187	5214.83
947.493	5150.66
947.799	5199.47
948.105	5181.16
948.41	5109.98
948.716	5126.25
949.022	5057.78
949.327	5083.31
949.633	4960.15
949.938	5044.22
950.244	5024.11
950.549	4981.17
950.854	4905.69
951.16	4932.13
951.465	4905.92
951.77	4884.45
952.075	4869.76
952.38	4855.75
952.685	4836.77
952.99	4789.99
953.294	4809.87
953.599	4720.84
953.904	4732.59
954.209	4697.56
954.513	4725.13
954.818	4690.1
955.122	4638.8
955.426	4616.66
955.731	4582.76
956.035	4599.03
956.339	4554.51
956.643	4530.78
956.948	4512.71
957.252	4462.76
957.556	4519.26
957.86	4484.46
958.163	4452.82
958.467	4430.45
958.771	4440.39
959.075	4384.35
959.378	4354.74
959.682	4380.51
959.985	4338.93
960.289	4314.07
960.592	4275.88
960.896	4297.8
961.199	4257.12
961.502	4259.15
961.805	4232.04
962.108	4176.9
962.411	4203.79
962.714	4160.17
963.017	4130.57
963.32	4172.83
963.623	4150.23
963.926	4079.27
964.228	4064.13
964.531	4074.53
964.833	4041.76
965.136	4004.47
965.438	3980.97
965.741	3957.01
966.043	3975.55
966.345	3933.51
966.648	3904.59
966.95	3923.34
967.252	3863.01
967.554	3892.61
967.856	3844.7
968.158	3782.33
968.46	3816.91
968.761	3780.75
969.063	3707.98
969.365	3742.56
969.666	3718.38
969.968	3682.22
970.269	3709.11
970.571	3675.44
970.872	3656.46
971.174	3662.33
971.475	3645.38
971.776	3618.27
972.077	3626.4
972.378	3573.75
972.679	3597.02
972.98	3520.19
973.281	3531.49
973.582	3513.64
973.883	3507.99
974.183	3505.05
974.484	3487.2
974.785	3453.07
975.085	3441.77
975.386	3445.39
975.686	3416.01
975.986	3400.19
976.287	3400.87
976.587	3369.23
976.887	3338.5
977.187	3323.58
977.487	3340.31
977.787	3284.04
978.087	3265.96
978.387	3276.81
978.687	3260.54
978.987	3234.77
979.286	3251.72
979.586	3208.33
979.885	3211.27
980.185	3174.66
980.484	3141.44
980.784	3148.45
981.083	3137.15
981.382	3098.73
981.682	3165.85
981.981	3124.04
982.28	3091.73
982.579	3081.78
982.878	3102.8
983.177	3049.92
983.475	3031.84
983.774	2994.1
984.073	2986.87
984.372	2977.15
984.67	2981.22
984.969	2962.69
985.267	2963.37
985.566	2942.58
985.864	2921.11
986.162	2898.06
986.461	2896.03
986.759	2890.83
987.057	2862.58
987.355	2823.71
987.653	2843.6
987.951	2840.21
988.249	2818.51
988.547	2792.07
988.844	2767.44
989.142	2774.45
989.44	2742.36
989.737	2730.38
990.035	2701.91
990.332	2698.74
990.63	2669.82
990.927	2689.03
991.224	2646.31
991.521	2682.02
991.819	2666.2
992.116	2651.74
992.413	2626.65
992.71	2616.03
993.006	2609.93
993.303	2602.25
993.6	2628.24
993.897	2585.07
994.193	2512.08
994.49	2497.17
994.787	2526.54
995.083	2512.76
995.379	2488.8
995.676	2478.64
995.972	2462.59
996.268	2471.63
996.565	2441.57
996.861	2434.79
997.157	2389.37
997.453	2383.27
997.749	2379.88
998.044	2421.91
998.34	2354.34
998.636	2350.05
998.932	2363.84
999.227	2350.5
999.523	2300.56
999.818	2287.23
1000.114	2294.01
1000.409	2281.8
1000.704	2269.38
1001	2251.97
1001.295	2243.61
1001.59	2252.2
1001.885	2225.53
1002.18	2193.22
1002.475	2196.38
1002.77	2168.81
1003.065	2162.94
1003.359	2150.51
1003.654	2122.26
1003.949	2093.79
1004.243	2110.28
1004.538	2086.56
1004.832	2101.92
1005.127	2083.39
1005.421	2098.53
1005.715	2055.14
1006.009	2059.66
1006.304	2085.88
1006.598	2041.81
1006.892	2043.84
1007.186	1991.42
1007.48	1991.64
1007.773	1990.51
1008.067	1959.55
1008.361	1958.42
1008.655	1979.21
1008.948	1915.03
1009.242	1908.71
1009.535	1907.12
1009.829	1911.87
1010.122	1907.12
1010.415	1893.57
1010.708	1863.74
1011.001	1853.34
1011.295	1874.13
1011.588	1831.87
1011.881	1841.82
1012.173	1835.04
1012.466	1793.46
1012.759	1804.98
1013.052	1802.95
1013.344	1780.57
1013.637	1788.26
1013.93	1723.18
1014.222	1743.97
1014.514	1716.62
1014.807	1696.74
1015.099	1705.1
1015.391	1706.23
1015.683	1698.32
1015.976	1659.67
1016.268	1676.62
1016.56	1705.32
1016.851	1642.73
1017.143	1639.34
1017.435	1620.58
1017.727	1613.8
1018.018	1606.34
1018.31	1606.34
1018.602	1575.61
1018.893	1576.74
1019.185	1575.16
1019.476	1554.59
1019.767	1567.02
1020.058	1545.55
1020.35	1515.04
1020.641	1523.86
1020.932	1502.84
1021.223	1475.27
1021.514	1481.83
1021.804	1451.09
1022.095	1459.45
1022.386	1455.84
1022.677	1452.67
1022.967	1422.39
1023.258	1424.2
1023.548	1395.27
1023.839	1368.61
1024.129	1391.43
1024.419	1404.99
1024.709	1381.72
1025	1377.65
1025.29	1372.68
1025.58	1359.79
1025.87	1376.74
1026.16	1313.47
1026.449	1322.96
1026.739	1301.27
1027.029	1309.4
1027.319	1286.35
1027.608	1286.58
1027.898	1315.05
1028.187	1248.39
1028.477	1282.06
1028.766	1241.15
1029.055	1251.55
1029.344	1220.59
1029.634	1206.13
1029.923	1206.58
1030.212	1210.65
1030.501	1207.71
1030.79	1205.45
1031.078	1176.3
1031.367	1170.65
1031.656	1200.48
1031.945	1181.04
1032.233	1156.86
1032.522	1150.53
1032.81	1146.69
1033.099	1132.91
1033.387	1118.45
1033.675	1126.58
1033.963	1095.62
1034.251	1117.77
1034.54	1094.04
1034.828	1083.19
1035.116	1078.45
1035.403	1090.88
1035.691	1036.64
1035.979	1049.52
1036.267	1068.95
1036.554	1042.06
1036.842	1049.97
1037.129	1026.47
1037.417	1031.22
1037.704	1013.14
1037.992	1006.36
1038.279	991.22
1038.566	1012.01
1038.853	1012.01
1039.14	1012.01
