Data from White_reflection_standard_FLMS001491_075.txt Node
Date: Tue Feb 07 10:32:10 GMT 2017
User: dcchb
Spectrometer: FLMS00149
Trigger mode: 0
Integration Time (sec): 2.000000E-2
Scans to average: 10
Electric dark correction enabled: true
Nonlinearity correction enabled: false
Boxcar width: 0
XAxis mode: Wavelengths
Number of Pixels in Spectrum: 2048
>>>>>Begin Spectral Data<<<<<
341.393	-10.54
341.776	-10.54
342.16	-10.54
342.543	-63.19
342.927	-65.68
343.31	-42.17
343.693	-74.26
344.077	-74.49
344.46	-59.8
344.843	-50.08
345.226	-42.85
345.61	-30.87
345.993	-9.18
346.376	0.54
346.759	3.7
347.142	42.57
347.525	25.62
347.908	42.57
348.291	84.15
348.674	85.96
349.057	98.61
349.44	127.99
349.823	134.54
350.206	155.56
350.588	217.71
350.971	260.87
351.354	247.08
351.737	283.92
352.119	276.69
352.502	294.31
352.884	310.81
353.267	315.56
353.65	311.71
354.032	360.98
354.414	342.67
354.797	369.57
355.179	383.8
355.562	376.57
355.944	372.5
356.326	374.54
356.709	398.49
357.091	378.38
357.473	409.34
357.855	395.33
358.238	402.33
358.62	374.54
359.002	399.17
359.384	383.8
359.766	400.53
360.148	382.45
360.53	388.55
360.912	396.01
361.294	369.79
361.676	393.52
362.057	390.58
362.439	403.46
362.821	402.11
363.203	393.07
363.584	377.48
363.966	396.68
364.348	403.24
364.729	404.59
365.111	394.65
365.493	415.22
365.874	402.56
366.256	421.09
366.637	416.57
367.019	408.89
367.4	424.03
367.781	424.71
368.163	405.5
368.544	403.01
368.925	417.7
369.306	421.99
369.688	413.41
370.069	422.45
370.45	418.83
370.831	441.2
371.212	428.32
371.593	420.86
371.974	432.62
372.355	440.53
372.736	436.68
373.117	438.27
373.498	455.21
373.879	453.41
374.26	435.78
374.641	447.08
375.021	431.94
375.402	469.9
375.783	471.03
376.163	481.65
376.544	491.82
376.925	477.81
377.305	482.33
377.686	462.9
378.066	511.03
378.447	472.84
378.827	498.38
379.208	504.03
379.588	517.36
379.968	523.46
380.349	523.69
380.729	530.01
381.109	543.12
381.489	551.93
381.87	514.42
382.25	524.59
382.63	532.5
383.01	548.09
383.39	561.43
383.77	554.19
384.15	557.58
384.53	568.88
384.91	577.24
385.29	568.88
385.67	590.8
386.049	596.45
386.429	618.83
386.809	620.86
387.189	609.79
387.568	632.84
387.948	645.04
388.328	648.66
388.707	648.66
389.087	652.95
389.466	668.99
389.846	695.21
390.225	664.93
390.605	679.61
390.984	696.34
391.363	717.81
391.743	690.69
392.122	703.57
392.501	712.61
392.881	719.61
393.26	724.81
393.639	740.63
394.018	779.73
394.397	768.43
394.776	760.74
395.155	798.26
395.534	792.83
395.913	777.24
396.292	817.24
396.671	802.1
397.05	835.09
397.429	828.09
397.808	834.64
398.186	858.14
398.565	852.94
398.944	880.97
399.323	866.05
399.701	873.06
400.08	909.44
400.458	900.17
400.837	923
401.215	912.83
401.594	926.84
401.972	938.59
402.351	945.82
402.729	985.82
403.107	971.36
403.486	976.1
403.864	971.13
404.242	1001.64
404.62	1020.4
404.999	1034.63
405.377	1026.27
405.755	1047.06
406.133	1066.5
406.511	1077.34
406.889	1075.54
407.267	1100.62
407.645	1099.26
408.023	1144.91
408.401	1161.41
408.779	1152.14
409.156	1189.66
409.534	1217.23
409.912	1204.8
410.29	1250.22
410.667	1234.63
411.045	1272.82
411.422	1314.85
411.8	1300.16
412.178	1323.89
412.555	1329.54
412.933	1359.82
413.31	1383.55
413.687	1413.38
414.065	1393.27
414.442	1424.68
414.819	1449.31
415.197	1466.03
415.574	1465.81
415.951	1508.29
416.328	1499.71
416.705	1506.94
417.082	1520.72
417.46	1532.47
417.837	1569.76
418.214	1582.42
418.591	1602.98
418.967	1623.09
419.344	1638.01
419.721	1649.08
420.098	1660.38
420.475	1659.93
420.852	1696.31
421.228	1708.74
421.605	1734.05
421.982	1750.1
422.358	1750.77
422.735	1788.29
423.111	1828.29
423.488	1853.82
423.864	1865.12
424.241	1878.91
424.617	1912.8
424.994	1929.3
425.37	1950.77
425.746	1950.32
426.123	1988.51
426.499	1982.41
426.875	2035.51
427.251	2058.56
427.627	2102.4
428.003	2103.31
428.379	2135.62
428.756	2172.68
429.132	2231.44
429.507	2240.7
429.883	2265.11
430.259	2331.1
430.635	2333.81
431.011	2358.21
431.387	2377.65
431.763	2410.19
432.138	2471.66
432.514	2485.67
432.89	2527.02
433.265	2568.83
433.641	2604.54
434.016	2625.78
434.392	2659.22
434.767	2736.96
435.143	2695.61
435.518	2788.94
435.894	2797.75
436.269	2779.9
436.644	2849.73
437.02	2877.75
437.395	2918.43
437.77	2929.27
438.145	3013.79
438.52	2990.29
438.895	3055.15
439.271	3086.33
439.646	3136.05
440.021	3154.58
440.395	3156.39
440.77	3171.3
441.145	3219.89
441.52	3261.69
441.895	3286.1
442.27	3314.8
442.645	3296.95
443.019	3370.17
443.394	3354.12
443.769	3364.29
444.143	3394.35
444.518	3482.93
444.892	3448.13
445.267	3504.4
445.641	3519.99
446.016	3555.02
446.39	3583.49
446.764	3643.6
447.139	3594.57
447.513	3675.02
447.887	3644.28
448.262	3680.21
448.636	3739.42
449.01	3790.49
449.384	3824.62
449.758	3865.07
450.132	3866.88
450.506	3913.43
450.88	3946.87
451.254	3904.39
451.628	4005.63
452.002	4084.72
452.376	4136.93
452.75	4128.11
453.123	4155.46
453.497	4240.88
453.871	4299.86
454.244	4330.37
454.618	4385.28
454.992	4449.23
455.365	4446.97
455.739	4539.63
456.112	4627.31
456.486	4637.25
456.859	4730.81
457.232	4803.57
457.606	4793.18
457.979	4903.68
458.352	4987.3
458.725	5054.87
459.099	5049.67
459.472	5165.82
459.845	5255.31
460.218	5237.69
460.591	5302.54
460.964	5327.18
461.337	5486.49
461.71	5548.64
462.083	5658.92
462.456	5615.53
462.829	5674.06
463.201	5801.97
463.574	5804.45
463.947	5883.77
464.32	6040.38
464.692	6094.16
465.065	6089.19
465.438	6243.31
465.81	6295.29
466.183	6386.81
466.555	6485.34
466.928	6533.47
467.3	6590.42
467.672	6662.28
468.045	6900.69
468.417	6899.56
468.789	6930.98
469.161	7017.98
469.534	7154.25
469.906	7365.77
470.278	7325.77
470.65	7471.98
471.022	7636.04
471.394	7747.23
471.766	7822.48
472.138	7869.93
472.51	8039.2
472.882	8218.4
473.253	8282.35
473.625	8399.64
473.997	8605.28
474.369	8683.25
474.74	8718.5
475.112	8967.31
475.484	9123.01
475.855	9265.38
476.227	9316.9
476.598	9628.53
476.97	9662.66
477.341	9871.01
477.713	10119.14
478.084	10067.84
478.455	10428.06
478.827	10541.05
479.198	10790.08
479.569	10819.69
479.94	11163.63
480.311	11197.08
480.682	11481.59
481.053	11726.1
481.424	11984.4
481.795	12055.81
482.166	12237.73
482.537	12419.87
482.908	12690.82
483.279	12782.8
483.65	13051.72
484.021	13236.12
484.391	13412.16
484.762	13575.32
485.133	13693.96
485.503	13916.33
485.874	14211.24
486.244	14345.02
486.615	14610.32
486.985	14792.01
487.356	15039.01
487.726	15148.16
488.097	15552.22
488.467	15597.41
488.837	15885.32
489.207	16114.46
489.578	16331.63
489.948	16480.56
490.318	16728.01
490.688	16730.04
491.058	16983.37
491.428	17259.97
491.798	17388.78
492.168	17814.31
492.538	17872.16
492.908	18114.41
493.278	18285.93
493.648	18320.96
494.017	18581.97
494.387	18786.94
494.757	18972.69
495.126	19123.88
495.496	19151.22
495.866	19363.42
496.235	19608.83
496.605	19721.6
496.974	19850.64
497.344	20115.49
497.713	20160.46
498.082	20405.65
498.452	20522.48
498.821	20678.41
499.19	20770.61
499.559	20951.17
499.928	21142.13
500.298	21180.09
500.667	21488.33
501.036	21364.04
501.405	21746.41
501.774	21701.44
502.143	21926.74
502.512	22047.87
502.88	22348.2
503.249	22326.96
503.618	22524.01
503.987	22635.42
504.356	22829.09
504.724	22938.46
505.093	23055.98
505.462	23164
505.83	23481.73
506.199	23572.57
506.567	23851.66
506.936	23808.95
507.304	24202.39
507.672	24371.42
508.041	24462.49
508.409	24544.3
508.777	24854.12
509.145	25059.54
509.514	25023.83
509.882	25293.88
510.25	25385.41
510.618	25479.41
510.986	25675.12
511.354	25943.36
511.722	26097.03
512.09	26253.86
512.458	26360.75
512.826	26627.41
513.193	26686.84
513.561	26889.55
513.929	27113.72
514.297	27381.29
514.664	27523.43
515.032	27616.31
515.4	27967.71
515.767	28108.05
516.135	28325.44
516.502	28154.82
516.869	28661.7
517.237	28727.69
517.604	28794.58
517.972	29156.61
518.339	29336.49
518.706	29458.97
519.073	29652.64
519.44	29841.11
519.808	30196.8
520.175	30133.98
520.542	30695.32
520.909	30878.37
521.276	30914.3
521.643	31247.85
522.009	31566.03
522.376	31657.11
522.743	31929.19
523.11	32267.94
523.477	32422.28
523.843	32785.21
524.21	32964.42
524.577	33219.32
524.943	33426.78
525.31	33593.1
525.676	34001.45
526.043	34224.95
526.409	34221.78
526.776	34733.86
527.142	34843.01
527.508	34980.41
527.874	35308.99
528.241	35468.3
528.607	35594.4
528.973	35927.95
529.339	36081.85
529.705	36310.99
530.071	36632.34
530.437	36843.41
530.803	36999.34
531.169	37116.62
531.535	37178.54
531.901	37329.05
532.267	37602.94
532.632	37866.66
532.998	37977.84
533.364	38144.84
533.73	38225.07
534.095	38551.61
534.461	38743.25
534.826	39034.09
535.192	39064.37
535.557	39351.37
535.923	39342.33
536.288	39587.74
536.653	39771.69
537.019	39762.66
537.384	39903.67
537.749	40025.25
538.114	40358.35
538.479	40177.33
538.845	40515.4
539.21	40454.61
539.575	40604.67
539.94	40803.08
540.305	41046.46
540.67	41045.79
541.034	41240.58
541.399	41479.9
541.764	41692.32
542.129	41742.26
542.494	41814.35
542.858	42052.54
543.223	41969.15
543.587	42342.47
543.952	42262.25
544.316	42444.84
544.681	42572.3
545.045	42762.58
545.41	42928
545.774	43163.02
546.138	43128.67
546.503	43179.51
546.867	43310.13
547.231	43687.3
547.595	43694.76
547.959	43888.2
548.324	43936.1
548.688	44141.52
549.052	44214.74
549.416	44325.92
549.779	44465.36
550.143	44486.37
550.507	44835.29
550.871	45046.36
551.235	44990.77
551.599	45268.5
551.962	45421.04
552.326	45433.01
552.689	45843.4
553.053	45694.02
553.417	45723.85
553.78	46290.17
554.143	46128.36
554.507	46252.43
554.87	46396.15
555.234	46817.61
555.597	46641.34
555.96	46920.66
556.323	47111.16
556.686	47163.59
557.05	47372.85
557.413	47572.17
557.776	47697.36
558.139	47932.61
558.502	48006.73
558.865	48131.7
559.228	48386.38
559.59	48505.02
559.953	48623.67
560.316	49055.97
560.679	48997.89
561.041	49267.72
561.404	49330.77
561.767	49605.56
562.129	49571.89
562.492	50009.17
562.854	49923.29
563.217	49940.24
563.579	50212.55
563.941	50413.67
564.304	50406.89
564.666	50756.26
565.028	50767.11
565.39	50921.01
565.753	51080.1
566.115	51219.98
566.477	51325.29
566.839	51437.6
567.201	51735.9
567.563	51689.12
567.925	51922.79
568.287	51942.67
568.648	52034.87
569.01	52249.33
569.372	52471.25
569.734	52278.48
570.095	52546.73
570.457	52753.73
570.819	52883.44
571.18	52729.32
571.542	52987.84
571.903	53122.08
572.265	53106.94
572.626	53273.49
572.987	53242.75
573.349	53430.54
573.71	53346.48
574.071	53515.29
574.432	53637.09
574.794	53834.38
575.155	53764.55
575.516	53814.94
575.877	53942.62
576.238	53971.55
576.599	54103.29
576.96	54109.85
577.32	54168.6
577.681	54306.23
578.042	54241.14
578.403	54279.11
578.763	54290.63
579.124	54411.54
579.485	54409.28
579.845	54571.08
580.206	54471.42
580.566	54497.41
580.927	54592.32
581.287	54730.62
581.648	54528.37
582.008	54744.63
582.368	54569.72
582.728	54756.61
583.089	54702.38
583.449	54691.98
583.809	54781.92
584.169	54834.12
584.529	54671.42
584.889	54960.22
585.249	54779.89
585.609	54713
585.969	54924.29
586.329	54735.37
586.688	54777.4
587.048	54856.27
587.408	54813.33
587.768	54796.38
588.127	54831.19
588.487	54788.47
588.846	54990.05
589.206	54734.01
589.565	54753
589.925	54926.78
590.284	54777.63
590.643	54943.5
591.003	54968.58
591.362	54929.71
591.721	54881.13
592.08	54955.93
592.44	54975.36
592.799	55006.55
593.158	54938.98
593.517	54975.59
593.876	55018.75
594.235	54906.66
594.593	55006.55
594.952	55063.5
595.311	54937.4
595.67	55097.62
596.029	55264.17
596.387	55141.01
596.746	55170.61
597.104	55028.47
597.463	55074.79
597.822	55256.71
598.18	55048.13
598.538	55094.23
598.897	55256.03
599.255	55039.99
599.613	55408.57
599.972	55227.33
600.33	55271.17
600.688	55224.4
601.046	55290.83
601.404	55393.43
601.762	55349.36
602.12	55501.9
602.478	55513.2
602.836	55487.21
603.194	55343.04
603.552	55531.73
603.91	55345.3
604.268	55458.97
604.625	55420.1
604.983	55600.88
605.341	55510.49
605.698	55599.98
606.056	55690.82
606.413	55610.6
606.771	55709.35
607.128	55727.66
607.485	55609.47
607.843	55718.39
608.2	55793.42
608.557	55845.4
608.914	55818.28
609.272	55885.17
609.629	55991.83
609.986	56015.56
610.343	55899.86
610.7	56161.09
611.057	56011.27
611.414	55964.94
611.771	56059.4
612.127	56186.18
612.484	56156.12
612.841	56248.1
613.198	56104.15
613.554	56160.64
613.911	56259.17
614.267	56206.97
614.624	56205.84
614.98	56352.95
615.337	56362.9
615.693	56346.85
616.05	56306.85
616.406	56489.67
616.762	56358.15
617.118	56394.31
617.475	56297.14
617.831	56418.49
618.187	56466.85
618.543	56446.06
618.899	56643.57
619.255	56552.04
619.611	56552.95
619.967	56644.25
620.323	56628.88
620.678	56541.42
621.034	56498.03
621.39	56559.28
621.746	56493.06
622.101	56779.16
622.457	56540.29
622.812	56549.11
623.168	56605.38
623.523	56691.7
623.879	56735.09
624.234	56444.25
624.589	56616.68
624.945	56590.69
625.3	56713.4
625.655	56601.53
626.01	56601.99
626.365	56693.28
626.72	56522.21
627.075	56571.25
627.43	56543.23
627.785	56495.77
628.14	56574.64
628.495	56616.9
628.85	56572.16
629.205	56482.44
629.559	56601.31
629.914	56440.41
630.269	56484.7
630.623	56440.41
630.978	56375.55
631.332	56443.57
631.687	56483.12
632.041	56361.99
632.396	56445.38
632.75	56326.74
633.104	56244.93
633.459	56184.37
633.813	56169.68
634.167	56194.77
634.521	56163.58
634.875	56150.7
635.229	56052.17
635.583	56019.85
635.937	55991.83
636.291	55959.07
636.645	55903.47
636.999	55879.97
637.352	55924.49
637.706	55775.34
638.06	55936.02
638.413	55895.34
638.767	55697.15
639.121	55756.13
639.474	55653.31
639.828	55625.97
640.181	55656.7
640.534	55626.42
640.888	55600.2
641.241	55499.19
641.594	55492.86
641.947	55559.53
642.301	55506.65
642.654	55419.87
643.007	55416.03
643.36	55317.73
643.713	55251.06
644.066	55355.69
644.419	55176.94
644.771	55011.07
645.124	54771.07
645.477	54717.29
645.83	54440.91
646.182	54333.12
646.535	54219
646.888	54364.08
647.24	54241.82
647.593	54281.14
647.945	54319.33
648.298	54092.22
648.65	54025.56
649.002	54012.68
649.355	54087.7
649.707	53995.73
650.059	54121.6
650.411	54448.82
650.763	54466
651.115	54731.08
651.467	54637.29
651.819	54621.93
652.171	54554.58
652.523	54490.18
652.875	54466.9
653.227	54343.74
653.578	54549.61
653.93	54504.19
654.282	54304.65
654.633	54182.39
654.985	54344.19
655.337	54303.74
655.688	54259.22
656.039	54390.29
656.391	54100.36
656.742	54147.81
657.094	54083.86
657.445	54181.48
657.796	54165.21
658.147	54053.13
658.498	54080.92
658.849	54139.23
659.2	54080.7
659.551	53993.92
659.902	54039.34
660.253	53943.07
660.604	53965.45
660.955	53901.04
661.306	53995.05
661.656	53859.46
662.007	53945.33
662.358	53889.74
662.708	53773.81
663.059	53833.02
663.409	53612.46
663.76	53841.15
664.11	53795.05
664.461	53825.56
664.811	53729.97
665.161	53727.94
665.511	53718.9
665.862	53654.95
666.212	53786.69
666.562	53749.18
666.912	53635.06
667.262	53648.84
667.612	53604.33
667.962	53608.62
668.312	53497.21
668.662	53647.71
669.011	53636.41
669.361	53548.06
669.711	53586.25
670.06	53424.89
670.41	53353.71
670.76	53438.68
671.109	53401.62
671.459	53461.96
671.808	53276.2
672.157	53383.54
672.507	53229.65
672.856	53221.74
673.205	53259.48
673.554	53339.47
673.904	53183.09
674.253	53399.58
674.602	53132.02
674.951	52777.23
675.3	52616.1
675.649	53146.71
675.998	53037.79
676.346	52999.6
676.695	53096.09
677.044	52946.04
677.393	52992.82
677.741	53068.29
678.09	52940.39
678.438	52837.11
678.787	52987.62
679.135	52905.81
679.484	52641.86
679.832	52690
680.181	52622.2
680.529	52705.59
680.877	52615.65
681.225	52571.58
681.573	52770.22
681.922	52505.14
682.27	52365.94
682.618	52396.22
682.966	52301.08
683.314	52404.58
683.661	52254.08
684.009	52031.26
684.357	52042.33
684.705	51911.26
685.053	51980.86
685.4	52055.67
685.748	51700.87
686.095	51717.14
686.443	51619.07
686.79	51590.14
687.138	51606.19
687.485	51602.8
687.832	51472.18
688.18	51436.7
688.527	51337.49
688.874	51223.82
689.221	51177.27
689.568	51143.15
689.915	50899.31
690.262	50895.02
690.609	50855.7
690.956	50760.78
691.303	50709.26
691.65	50566.21
691.997	50528.93
692.344	50277.63
692.69	50317.86
693.037	50265.43
693.383	49912.44
693.73	50055.27
694.077	49822.73
694.423	49827.7
694.769	49759.68
695.116	49634.26
695.462	49538.9
695.808	49476.07
696.155	49451.67
696.501	49224.1
696.847	49259.58
697.193	48924.67
697.539	49134.39
697.885	48765.36
698.231	48659.82
698.577	48733.27
698.923	48659.37
699.269	48473.39
699.614	48359.27
699.96	48231.36
700.306	48293.5
700.651	48131.02
700.997	47844.93
701.342	47863.01
701.688	47802.67
702.033	47654.42
702.379	47681.77
702.724	47480.64
703.069	47475.22
703.415	47141.9
703.76	47152.52
704.105	47049.7
704.45	46894.44
704.795	46706.88
705.14	46697.16
705.485	46637.5
705.83	46391.41
706.175	46614.45
706.52	46354.57
706.865	46254.24
707.209	46155.71
707.554	45914.58
707.899	46167.68
708.243	45896.96
708.588	45789.39
708.932	45559.56
709.277	45536.06
709.621	45626
709.966	45295.39
710.31	45347.59
710.654	44949.41
710.998	45068.73
711.342	45046.81
711.687	44926.36
712.031	44749.64
712.375	44598.91
712.719	44647.72
713.063	44504.68
713.407	44531.57
713.75	44438.46
714.094	44311.91
714.438	44191.92
714.782	44212.93
715.125	44036.89
715.469	44079.38
715.812	43908.08
716.156	43650.69
716.499	43695.66
716.843	43745.83
717.186	43362.56
717.53	43598.03
717.873	43629.45
718.216	43462.22
718.559	43217.03
718.902	42970.25
719.246	43113.75
719.589	42949.24
719.932	42886.87
720.275	42690.94
720.617	42623.82
720.96	42681.22
721.303	42741.33
721.646	42577.5
721.989	42355.58
722.331	42484.17
722.674	42474
723.016	42373.43
723.359	42264.74
723.701	42252.99
724.044	41973.44
724.386	41738.87
724.729	41877.4
725.071	41846.44
725.413	41836.72
725.755	41710.63
726.097	41526.45
726.439	41241.03
726.782	41274.25
727.124	41615.71
727.465	41350.41
727.807	41227.48
728.149	41199.68
728.491	41029.29
728.833	41167.36
729.175	40964.88
729.516	40765.11
729.858	40847.6
730.199	40877.88
730.541	40682.86
730.882	40769.18
731.224	40796.07
731.565	40387.5
731.906	40609.19
732.248	40558.34
732.589	40268.63
732.93	40155.87
733.271	40289.42
733.612	40191.34
733.953	40095.08
734.294	39932.14
734.635	40060.95
734.976	40024.12
735.317	39744.58
735.658	39721.98
735.999	39687.18
736.339	39549.1
736.68	39764.01
737.021	39539.84
737.361	39472.95
737.702	39531.7
738.042	39360.63
738.383	39284.02
738.723	39310.46
739.063	39217.58
739.404	39233.63
739.744	39154.54
740.084	38898.72
740.424	39071.37
740.764	38849.91
741.104	38998.16
741.444	38704.6
741.784	38689.24
742.124	38750.25
742.464	38632.97
742.804	38518.17
743.143	38452.63
743.483	38496.7
743.823	38183.94
744.162	38194.56
744.502	38311.62
744.841	38007.67
745.181	38300.32
745.52	37912.31
745.86	38010.16
746.199	37930.39
746.538	37846.77
746.877	38009.03
747.216	37774.68
747.556	37573.33
747.895	37775.59
748.234	37623.28
748.573	37559.55
748.911	37484.75
749.25	37322.95
749.589	37255.15
749.928	37203.17
750.267	37311.65
750.605	37124.53
750.944	36982.16
751.283	36902.62
751.621	36998.21
751.96	36631.89
752.298	36750.08
752.636	36828.72
752.975	36597.09
753.313	36509.41
753.651	36483.65
753.989	36315.29
754.327	36267.15
754.666	35958.91
755.004	36147.61
755.342	35985.13
755.679	35978.12
756.017	35694.97
756.355	35880.27
756.693	35551.24
757.031	35622.65
757.368	35430.34
757.706	35386.95
758.044	35212.49
758.381	35333.17
758.719	35099.5
759.056	35180.18
759.394	35000.97
759.731	34790.58
760.068	34688.21
760.405	34706.29
760.743	34313.76
761.08	34499.06
761.417	34324.61
761.754	34163.93
762.091	34066.76
762.428	33940.66
762.765	33896.82
763.102	33842.36
763.438	33728.46
763.775	33532.54
764.112	33676.94
764.449	33461.13
764.785	33349.26
765.122	33236.27
765.458	33076.73
765.795	32985.21
766.131	32907.47
766.467	32899.11
766.804	32618.66
767.14	32571.88
767.476	32518.55
767.812	32387.26
768.148	32322.62
768.485	32088.28
768.821	32062.07
769.157	32060.71
769.492	31923.31
769.828	31891.22
770.164	31592.7
770.5	31406.72
770.836	31513.38
771.171	31161.07
771.507	31231.58
771.842	30983.68
772.178	31004.92
772.513	30830.23
772.849	30622.1
773.184	30635.66
773.519	30726.96
773.855	30421.21
774.19	30407.65
774.525	30241.55
774.86	30243.13
775.195	30104.38
775.53	29924.27
775.865	29839.07
776.2	29584.39
776.535	29448.8
776.87	29361.8
777.205	29225.31
777.539	29287.9
777.874	29115.93
778.209	29020.56
778.543	29016.5
778.878	28678.65
779.212	28736.28
779.547	28589.62
779.881	28606.11
780.215	28369.73
780.55	28529.73
780.884	28142.62
781.218	28055.84
781.552	28093.81
781.886	28028.95
782.22	27802.97
782.554	27705.8
782.888	27424.22
783.222	27397.1
783.556	27315.07
783.889	27203.66
784.223	27077.56
784.557	26948.08
784.89	27069.43
785.224	26855.2
785.557	26829.44
785.891	26683.22
786.224	26649.33
786.558	26514.87
786.891	26352.39
787.224	26262.9
787.557	26142.9
787.891	26030.59
788.224	26196.01
788.557	25943.36
788.89	25918.95
789.223	25870.14
789.556	25702.01
789.888	25571.39
790.221	25543.59
790.554	25372.3
790.887	25307.89
791.219	25099.31
791.552	25238.52
791.884	25044.62
792.217	24852.09
792.549	24821.8
792.882	24676.5
793.214	24651.19
793.546	24630.85
793.879	24412.32
794.211	24389.27
794.543	24421.36
794.875	24265.44
795.207	24386.56
795.539	24143.4
795.871	24033.8
796.203	23977.99
796.535	23782.28
796.867	23760.14
797.198	23731.21
797.53	23628.39
797.862	23500.03
798.193	23509.3
798.525	23381.84
798.856	23318.57
799.188	23216.65
799.519	23044.22
799.85	22927.17
800.182	22938.24
800.513	22872.25
800.844	22820.73
801.175	22897.56
801.506	22820.73
801.837	22658.92
802.168	22630.68
802.499	22505.03
802.83	22559.27
803.161	22368.76
803.491	22363.11
803.822	22288.99
804.153	22271.14
804.483	22117.24
804.814	22051.03
805.145	21895.1
805.475	21981.65
805.805	21894.2
806.136	21844.93
806.466	21834.09
806.796	21876.8
807.126	21675.22
807.457	21556.35
807.787	21538.5
808.117	21388
808.447	21397.26
808.777	21423.02
809.107	21246.76
809.436	21075.69
809.766	21154.78
810.096	21056.25
810.426	21071.62
810.755	21088.57
811.085	20966.99
811.414	20957.95
811.744	20854.9
812.073	20687
812.403	20676.38
812.732	20474.35
813.061	20527.68
813.39	20437.74
813.719	20448.81
814.049	20500.79
814.378	20413.11
814.707	20232.32
815.036	20214.24
815.365	20225.54
815.693	19983.06
816.022	19915.04
816.351	19979.22
816.68	19820.13
817.008	19920.46
817.337	19658.32
817.665	19712.79
817.994	19670.98
818.322	19681.83
818.651	19569.74
818.979	19526.58
819.307	19679.57
819.636	19542.85
819.964	19349.86
820.292	19535.39
820.62	19515.28
820.948	19448.61
821.276	19426.47
821.604	19387.15
821.932	19396.41
822.259	19393.25
822.587	19339.92
822.915	19267.37
823.243	19300.59
823.57	19296.07
823.898	19287.71
824.225	19234.61
824.553	19299.24
824.88	19314.83
825.207	19359.8
825.535	19310.99
825.862	19372.68
826.189	19197.32
826.516	19260.37
826.843	19257.88
827.17	19274.38
827.497	19384.66
827.824	19238.67
828.151	19302.18
828.478	19210.2
828.805	19268.73
829.131	19229.86
829.458	19266.92
829.785	19055.4
830.111	19158.9
830.438	19222.86
830.764	19211.56
831.09	19209.3
831.417	19019.92
831.743	19169.52
832.069	19089.53
832.395	18953.48
832.722	19113.48
833.048	19001.39
833.374	19089.3
833.7	18908.29
834.026	18977.89
834.351	19153.03
834.677	18976.99
835.003	18955.52
835.329	18876.88
835.654	18934.95
835.98	18873.26
836.306	18802.53
836.631	18699.25
836.956	18766.37
837.282	18758.69
837.607	18780.16
837.932	18707.39
838.258	18660.84
838.583	18750.1
838.908	18555.76
839.233	18545.36
839.558	18570.22
839.883	18450
840.208	18448.64
840.533	18375.19
840.858	18292.71
841.182	18409.77
841.507	18379.49
841.832	18233.5
842.156	18191.24
842.481	18229.44
842.805	18174.3
843.13	18054.53
843.454	18131.13
843.778	17947.18
844.103	18018.59
844.427	17894.98
844.751	17883.23
845.075	17945.83
845.399	17869.9
845.723	17678.26
846.047	17734.31
846.371	17514.2
846.695	17628.32
847.019	17404.6
847.343	17294.77
847.666	17230.37
847.99	17130.71
848.313	17216.13
848.637	17083.03
848.96	16970.26
849.284	17089.8
849.607	16878.06
849.931	16826.99
850.254	16631.06
850.577	16613.43
850.9	16432.65
851.223	16478.75
851.546	16379.77
851.869	16220.22
852.192	16301.35
852.515	16271.3
852.838	16174.57
853.161	16219.09
853.483	16112.88
853.806	15965.31
854.129	15934.58
854.451	15911.98
854.774	15774.13
855.096	15842.61
855.419	15797.41
855.741	15761.7
856.063	15673.57
856.385	15589.73
856.708	15578.43
857.03	15514.03
857.352	15544.31
857.674	15434.71
857.996	15417.53
858.318	15322.85
858.64	15359.91
858.961	15186.8
859.283	15210.98
859.605	15188.16
859.926	15105.45
860.248	15062.51
860.57	15048.28
860.891	15020.93
861.212	14919.01
861.534	14974.61
861.855	14971.22
862.176	14998.11
862.498	14834.95
862.819	14872.01
863.14	14785.01
863.461	14777.1
863.782	14772.13
864.103	14627.72
864.424	14665.46
864.745	14655.74
865.065	14632.47
865.386	14558.57
865.707	14560.15
866.027	14566.93
866.348	14429.99
866.668	14495.3
866.989	14402.19
867.309	14314.74
867.63	14357.67
867.95	14435.64
868.27	14244.68
868.59	14330.78
868.91	14300.05
869.23	14234.06
869.55	14198.81
869.87	14254.17
870.19	14167.4
870.51	14180.73
870.83	14212.37
871.15	14055.53
871.469	14048.75
871.789	14112.71
872.109	14109.54
872.428	14014.63
872.748	14050.79
873.067	13987.74
873.386	14056.66
873.706	13886.73
874.025	13870.45
874.344	13784.36
874.663	13972.6
874.982	13850.34
875.301	13796.56
875.62	13745.71
875.939	13707.07
876.258	13743
876.577	13650.12
876.896	13707.29
877.214	13597.02
877.533	13617.58
877.852	13601.54
878.17	13649.9
878.489	13681.31
878.807	13626.85
879.125	13492.61
879.444	13612.38
879.762	13483.35
880.08	13534.19
880.398	13382.11
880.716	13383.91
881.034	13358.83
881.352	13332.62
881.67	13287.64
881.988	13326.29
882.306	13228.44
882.624	13169.23
882.941	13129.91
883.259	13165.84
883.577	13132.85
883.894	13076.35
884.212	13088.78
884.529	13020.99
884.846	12968.11
885.164	12986.18
885.481	13025.5
885.798	12954.55
886.115	12905.28
886.432	12808.34
886.75	12788.45
887.067	12890.82
887.383	12717.49
887.7	12814.89
888.017	12626.42
888.334	12585.52
888.651	12682.46
888.967	12570.83
889.284	12529.92
889.6	12506.65
889.917	12403.37
890.233	12501.45
890.55	12354.11
890.866	12449.47
891.182	12330.16
891.498	12315.24
891.815	12325.64
892.131	12251.29
892.447	12164.06
892.763	12130.61
893.079	12157.73
893.395	12109.6
893.71	11989.83
894.026	12023.5
894.342	11945.76
894.657	11892.2
894.973	11937.62
895.289	11886.55
895.604	11926.78
895.92	11736.95
896.235	11778.08
896.55	11620.34
896.865	11612.89
897.181	11630.29
897.496	11642.26
897.811	11468.94
898.126	11480.23
898.441	11434.13
898.756	11515.94
899.071	11351.2
899.386	11375.15
899.7	11268.04
900.015	11255.16
900.33	11182.62
900.644	11119.79
900.959	11156.63
901.273	11110.75
901.588	11082.96
901.902	10996.63
902.216	10999.8
902.531	10914.15
902.845	10956.86
903.159	10791.89
903.473	10772.91
903.787	10759.58
904.101	10691.56
904.415	10678.67
904.729	10617.21
905.042	10583.08
905.356	10558.45
905.67	10575.4
905.984	10496.53
906.297	10453.14
906.611	10355.97
906.924	10345.58
907.237	10330.89
907.551	10295.18
907.864	10272.13
908.177	10225.58
908.491	10136.77
908.804	10136.54
909.117	10052.7
909.43	10006.6
909.743	9976.55
910.056	9901.07
910.368	9908.52
910.681	9909.88
910.994	9865.36
911.307	9845.7
911.619	9831.46
911.932	9741.98
912.244	9651.58
912.557	9668.98
912.869	9549.21
913.181	9567.52
913.494	9499.95
913.806	9449.55
914.118	9464.24
914.43	9390.57
914.742	9362.55
915.054	9323
915.366	9283
915.678	9220.86
915.99	9200.75
916.302	9140.41
916.613	9086.63
916.925	9079.17
917.236	9033.75
917.548	9061.99
917.859	9021.99
918.171	8894.99
918.482	8936.8
918.794	8833.07
919.105	8850.93
919.416	8762.34
919.727	8782.23
920.038	8726.86
920.349	8700.65
920.66	8666.52
920.971	8591.5
921.282	8565.06
921.593	8512.86
921.903	8526.41
922.214	8458.85
922.525	8410.71
922.835	8336.14
923.146	8267.44
923.456	8252.75
923.767	8267.66
924.077	8259.53
924.387	8208.68
924.697	8111.06
925.008	8056.6
925.318	8043.94
925.628	8024.96
925.938	8061.34
926.248	7995.58
926.558	7931.18
926.867	7937.05
927.177	7866.09
927.487	7838.75
927.796	7747.68
928.106	7697.28
928.416	7714.46
928.725	7652.09
929.034	7666.1
929.344	7656.15
929.653	7618.64
929.962	7528.47
930.271	7570.96
930.581	7441.7
930.89	7470.17
931.199	7421.36
931.508	7381.13
931.817	7404.86
932.125	7352.66
932.434	7283.06
932.743	7236.5
933.051	7219.1
933.36	7191.31
933.669	7139.11
933.977	7114.47
934.286	7135.72
934.594	7058.66
934.902	6994.7
935.21	6997.19
935.519	6999.22
935.827	6927.59
936.135	6925.78
936.443	6886.46
936.751	6811.21
937.059	6841.94
937.367	6724.88
937.674	6762.17
937.982	6692.11
938.29	6690.3
938.597	6690.08
938.905	6597.65
939.213	6551.1
939.52	6580.7
939.827	6551.32
940.135	6495.96
940.442	6466.81
940.749	6449.63
941.056	6470.2
941.363	6386.13
941.67	6332.8
941.977	6338
942.284	6299.13
942.591	6267.94
942.898	6236.53
943.205	6248.96
943.511	6180.71
943.818	6192.92
944.125	6131
944.431	6101.17
944.738	6106.14
945.044	6064.56
945.35	6048.74
945.657	6019.14
945.963	6041.73
946.269	5953.15
946.575	5983.66
946.881	5860.5
947.187	5880.83
947.493	5857.78
947.799	5865.47
948.105	5755.41
948.41	5780.27
948.716	5766.71
949.022	5762.19
949.327	5724.23
949.633	5676.32
949.938	5651.69
950.244	5647.62
950.549	5585.02
950.854	5559.49
951.16	5539.15
951.465	5513.84
951.77	5448.3
952.075	5454.18
952.38	5413.73
952.685	5439.04
952.99	5415.08
953.294	5390.23
953.599	5318.59
953.904	5286.05
954.209	5328.76
954.513	5301.41
954.818	5218.03
955.122	5194.98
955.426	5195.88
955.731	5184.36
956.035	5188.42
956.339	5091.25
956.643	5154.3
956.948	5053.06
957.252	5064.58
957.556	5034.3
957.86	5010.8
958.163	5030.46
958.467	4994.08
958.771	4992.72
959.075	4950.46
959.378	4902.1
959.682	4877.7
959.985	4897.36
960.289	4821.65
960.592	4837.02
960.896	4781.2
961.199	4787.98
961.502	4752.05
961.805	4721.99
962.108	4747.53
962.411	4694.65
962.714	4654.43
963.017	4643.13
963.32	4625.05
963.623	4625.5
963.926	4597.25
964.228	4578.95
964.531	4585.73
964.833	4576.69
965.136	4491.49
965.438	4479.29
965.741	4435.45
966.043	4426.64
966.345	4427.99
966.648	4426.18
966.95	4396.58
967.252	4346.86
967.554	4357.71
967.856	4325.85
968.158	4291.72
968.46	4325.62
968.761	4289.69
969.063	4270.48
969.365	4239.52
969.666	4206.3
969.968	4184.16
970.269	4193.19
970.571	4171.27
970.872	4174.21
971.174	4106.87
971.475	4085.4
971.776	4075.46
972.077	4047.44
972.378	3995.01
972.679	3981
972.98	4018.06
973.281	3978.29
973.582	3972.86
973.883	3924.95
974.183	3968.34
974.484	3968.79
974.785	3907.1
975.085	3895.35
975.386	3908
975.686	3835.69
975.986	3848.57
976.287	3797.95
976.587	3792.75
976.887	3792.98
977.187	3770.38
977.487	3764.73
977.787	3741.68
978.087	3720.44
978.387	3678.63
978.687	3678.18
978.987	3629.14
979.286	3609.26
979.586	3637.73
979.885	3598.41
980.185	3557.28
980.484	3546.88
980.784	3580.78
981.083	3542.36
981.382	3527.68
981.682	3527.22
981.981	3492.87
982.28	3473.67
982.579	3458.98
982.878	3429.6
983.177	3427.57
983.475	3418.07
983.774	3403.16
984.073	3362.48
984.372	3327.91
984.67	3362.26
984.969	3360
985.267	3325.65
985.566	3303.73
985.864	3265.99
986.162	3250.17
986.461	3263.05
986.759	3242.26
987.057	3265.31
987.355	3213.33
987.653	3176.27
987.951	3189.61
988.249	3162.49
988.547	3142.15
988.844	3130.4
989.142	3163.17
989.44	3136.95
989.737	3071.87
990.035	3072.09
990.332	3087.46
990.63	3051.53
990.927	3024.19
991.224	3033.23
991.521	3043.17
991.819	2988.25
992.116	2998.42
992.413	2936.28
992.71	3003.62
993.006	2907.35
993.303	2945.54
993.6	2908.93
993.897	2875.72
994.193	2868.48
994.49	2855.6
994.787	2827.13
995.083	2804.53
995.379	2815.15
995.676	2783.29
995.972	2795.04
996.268	2781.48
996.565	2762.95
996.861	2791.88
997.157	2759.11
997.453	2731.99
997.749	2695.38
998.044	2662.16
998.34	2673.46
998.636	2682.27
998.932	2650.86
999.227	2618.1
999.523	2603.41
999.818	2634.59
1000.114	2584.42
1000.409	2573.35
1000.704	2552.79
1001	2537.65
1001.295	2502.17
1001.59	2519.79
1001.885	2528.83
1002.18	2466.23
1002.475	2501.49
1002.77	2491.32
1003.065	2451.77
1003.359	2403.41
1003.654	2451.09
1003.949	2410.87
1004.243	2395.95
1004.538	2379.23
1004.832	2372
1005.127	2355.05
1005.421	2330.19
1005.715	2350.76
1006.009	2345.79
1006.304	2309.85
1006.598	2313.24
1006.892	2254.04
1007.186	2247.48
1007.48	2240.93
1007.773	2200.7
1008.067	2239.8
1008.361	2209.29
1008.655	2181.27
1008.948	2168.62
1009.242	2171.55
1009.535	2173.81
1009.829	2137.2
1010.122	2106.92
1010.415	2088.62
1010.708	2074.61
1011.001	2106.92
1011.295	2080.71
1011.588	2062.86
1011.881	2032.57
1012.173	2047.71
1012.466	2017.21
1012.759	2016.08
1013.052	2014.72
1013.344	1952.8
1013.637	2017.88
1013.93	1994.83
1014.222	1971.33
1014.514	1942.41
1014.807	1941.5
1015.099	1912.12
1015.391	1875.74
1015.683	1872.58
1015.976	1892.92
1016.268	1890.2
1016.56	1850.21
1016.851	1848.62
1017.143	1831.45
1017.435	1806.36
1017.727	1840.49
1018.018	1804.56
1018.31	1794.39
1018.602	1785.57
1018.893	1791.45
1019.185	1750.1
1019.476	1733.15
1019.767	1714.84
1020.058	1734.5
1020.35	1682.07
1020.641	1701.96
1020.932	1657.22
1021.223	1665.35
1021.514	1654.96
1021.804	1661.96
1022.095	1656.54
1022.386	1605.01
1022.677	1618.35
1022.967	1594.62
1023.258	1580.38
1023.548	1571.34
1023.839	1579.03
1024.129	1567.73
1024.419	1526.82
1024.709	1517.78
1025	1526.37
1025.29	1532.47
1025.58	1490.89
1025.87	1496.32
1026.16	1486.15
1026.449	1511.01
1026.739	1472.36
1027.029	1458.58
1027.319	1442.53
1027.608	1457.45
1027.898	1414.96
1028.187	1391.23
1028.477	1437.79
1028.766	1401.63
1029.055	1347.85
1029.344	1400.5
1029.634	1363.66
1029.923	1338.13
1030.212	1344.23
1030.501	1365.7
1030.79	1342.42
1031.078	1294.97
1031.367	1293.61
1031.656	1292.25
1031.945	1291.35
1032.233	1308.98
1032.522	1289.09
1032.81	1243.89
1033.099	1240.5
1033.387	1268.53
1033.675	1228.98
1033.963	1224.23
1034.251	1219.04
1034.54	1225.82
1034.828	1218.13
1035.116	1213.16
1035.403	1162.31
1035.691	1185.14
1035.979	1186.27
1036.267	1176.1
1036.554	1141.75
1036.842	1169.32
1037.129	1140.39
1037.417	1113.05
1037.704	1112.82
1037.992	1129.77
1038.279	1125.7
1038.566	1102.2
1038.853	1102.2
1039.14	1102.2
