Data from white_steel_sheet_FLMS001491_030.txt Node
Date: Tue Feb 07 10:57:38 GMT 2017
User: dcchb
Spectrometer: FLMS00149
Trigger mode: 0
Integration Time (sec): 2.000000E-2
Scans to average: 10
Electric dark correction enabled: true
Nonlinearity correction enabled: false
Boxcar width: 0
XAxis mode: Wavelengths
Number of Pixels in Spectrum: 2048
>>>>>Begin Spectral Data<<<<<
341.393	-4.34
341.776	-4.34
342.16	-4.34
342.543	-66.48
342.927	-67.16
343.31	-60.83
343.693	-56.09
344.077	-63.32
344.46	-61.74
344.843	-54.05
345.226	-39.82
345.61	-22.87
345.993	-9.31
346.376	-7.27
346.759	-8.4
347.142	29.79
347.525	35.21
347.908	59.39
348.291	66.17
348.674	82.22
349.057	110.92
349.44	141.2
349.823	154.08
350.206	156.79
350.588	189.33
350.971	212.38
351.354	231.14
351.737	258.93
352.119	249.67
352.502	267.52
352.884	295.32
353.267	296.45
353.65	294.41
354.032	312.04
354.414	325.6
354.797	327.41
355.179	341.42
355.562	341.64
355.944	318.82
356.326	341.42
356.709	335.32
357.091	365.37
357.473	343.23
357.855	353.17
358.238	359.04
358.62	339.38
359.002	346.16
359.384	350.46
359.766	356.11
360.148	340.51
360.53	351.59
360.912	338.03
361.294	353.85
361.676	348.42
362.057	350.23
362.439	341.42
362.821	347.97
363.203	318.37
363.584	330.57
363.966	326.73
364.348	329.67
364.729	350.46
365.111	345.94
365.493	331.93
365.874	338.25
366.256	315.88
366.637	329.21
367.019	333.51
367.4	328.54
367.781	340.51
368.163	335.54
368.544	328.99
368.925	353.39
369.306	347.75
369.688	324.92
370.069	326.5
370.45	301.19
370.831	350.23
371.212	319.72
371.593	333.96
371.974	333.73
372.355	337.8
372.736	337.35
373.117	355.88
373.498	343.45
373.879	324.69
374.26	335.09
374.641	330.8
375.021	331.02
375.402	336.22
375.783	351.81
376.163	355.43
376.544	339.38
376.925	359.95
377.305	348.88
377.686	364.92
378.066	361.3
378.447	326.73
378.827	357.69
379.208	351.36
379.588	360.85
379.968	357.91
380.349	361.53
380.729	367.18
381.109	371.02
381.489	374.86
381.87	369.21
382.25	374.86
382.63	378.48
383.01	379.38
383.39	389.33
383.77	380.06
384.15	378.25
384.53	372.6
384.91	372.15
385.29	374.41
385.67	376.44
386.049	402.21
386.429	412.83
386.809	411.47
387.189	374.86
387.568	395.2
387.948	399.04
388.328	415.77
388.707	403.56
389.087	400.17
389.466	399.27
389.846	404.01
390.225	427.52
390.605	417.57
390.984	419.16
391.363	422.55
391.743	448.53
392.122	431.58
392.501	441.53
392.881	444.47
393.26	450.12
393.639	450.57
394.018	459.15
394.397	482.2
394.776	471.13
395.155	479.49
395.534	476.78
395.913	486.95
396.292	492.6
396.671	479.04
397.05	509.77
397.429	503.45
397.808	499.38
398.186	501.87
398.565	529.66
398.944	531.02
399.323	530.57
399.701	534.41
400.08	535.99
400.458	558.14
400.837	577.34
401.215	574.63
401.594	571.47
401.972	576.44
402.351	573.5
402.729	608.53
403.107	619.6
403.486	616.66
403.864	613.5
404.242	613.95
404.62	628.42
404.999	657.34
405.377	639.04
405.755	663.67
406.133	675.42
406.511	703.22
406.889	696.21
407.267	702.54
407.645	694.18
408.023	724.91
408.401	737.79
408.779	735.98
409.156	758.58
409.534	789.09
409.912	792.25
410.29	797
410.667	796.77
411.045	819.6
411.422	834.74
411.8	826.15
412.178	832.7
412.555	863.21
412.933	858.92
413.31	881.06
413.687	909.76
414.065	901.85
414.442	895.53
414.819	909.54
415.197	951.57
415.574	941.18
415.951	964.23
416.328	964.9
416.705	978.69
417.082	970.33
417.46	987.05
417.837	1004.68
418.214	1024.11
418.591	1033.83
418.967	1051.46
419.344	1058.01
419.721	1077.9
420.098	1036.09
420.475	1080.83
420.852	1093.04
421.228	1100.04
421.605	1110.21
421.982	1147.72
422.358	1159.93
422.735	1156.31
423.111	1133.49
423.488	1190.66
423.864	1158.57
424.241	1205.12
424.617	1221.17
424.994	1219.13
425.37	1228.85
425.746	1249.87
426.123	1256.87
426.499	1270.66
426.875	1264.56
427.251	1284.9
427.627	1353.82
428.003	1348.62
428.379	1349.3
428.756	1389.3
429.132	1427.72
429.507	1409.19
429.883	1425.23
430.259	1411.22
430.635	1468.39
431.011	1501.61
431.387	1492.35
431.763	1524.21
432.138	1521.05
432.514	1548.84
432.89	1572.35
433.265	1614.15
433.641	1608.5
434.016	1626.58
434.392	1662.74
434.767	1710.65
435.143	1682.17
435.518	1725.34
435.894	1720.36
436.269	1767.82
436.644	1784.32
437.02	1797.88
437.395	1839.68
437.77	1833.13
438.145	1891.43
438.52	1867.93
438.895	1916.07
439.271	1934.14
439.646	1942.51
440.021	1960.13
440.395	1968.04
440.77	1959.45
441.145	1979.11
441.52	2012.33
441.895	2036.74
442.27	2028.6
442.645	2071.77
443.019	2099.56
443.394	2130.3
443.769	2104.31
444.143	2093.46
444.518	2191.99
444.892	2169.84
445.267	2134.59
445.641	2183.63
446.016	2230.63
446.39	2220.69
446.764	2265.21
447.139	2272.89
447.513	2292.33
447.887	2307.02
448.262	2287.81
448.636	2298.88
449.01	2359.22
449.384	2363.06
449.758	2393.34
450.132	2406
450.506	2421.14
450.88	2434.7
451.254	2442.15
451.628	2511.76
452.002	2470.18
452.376	2516.05
452.75	2556.27
453.123	2547.46
453.497	2644.18
453.871	2611.41
454.244	2693.67
454.618	2686.44
454.992	2721.69
455.365	2748.36
455.739	2795.36
456.112	2846.44
456.486	2868.36
456.859	2922.37
457.232	2956.72
457.606	2927.79
457.979	2989.94
458.352	3029.48
458.725	3085.07
459.099	3136.15
459.472	3166.65
459.845	3179.99
460.218	3234.22
460.591	3255.47
460.964	3249.14
461.337	3304.05
461.71	3374.78
462.083	3429.7
462.456	3375.69
462.829	3464.73
463.201	3510.6
463.574	3499.75
463.947	3572.07
464.32	3636.7
464.692	3675.34
465.065	3740.2
465.438	3742.01
465.81	3829.01
466.183	3836.24
466.555	3923.7
466.928	3921.89
467.3	3931.15
467.672	4012.96
468.045	4132.05
468.417	4135.67
468.789	4152.16
469.161	4231.48
469.534	4339.73
469.906	4348.54
470.278	4398.49
470.65	4463.12
471.022	4510.8
471.394	4653.62
471.766	4645.71
472.138	4722.09
472.51	4755.31
472.882	4902.88
473.253	4956.89
473.625	5020.62
473.997	5129.09
474.369	5123.89
474.74	5174.74
475.112	5296.09
475.484	5332.02
475.855	5502.19
476.227	5496.08
476.598	5665.8
476.97	5736.08
477.341	5851.33
477.713	5932.91
478.084	5954.15
478.455	6165.22
478.827	6146.01
479.198	6350.75
479.569	6327.93
479.94	6495.38
480.311	6534.02
480.682	6750.29
481.053	6841.13
481.424	7014.91
481.795	7085.65
482.166	7161.8
482.537	7278.41
482.908	7361.35
483.279	7492.19
483.65	7617.38
484.021	7835.23
484.391	7936.47
484.762	7881.78
485.133	8025.51
485.503	8174.43
485.874	8356.12
486.244	8383.47
486.615	8537.13
486.985	8672.72
487.356	8805.6
487.726	8909.78
488.097	9055.31
488.467	9101.64
488.837	9330.33
489.207	9388.41
489.578	9453.04
489.948	9595.41
490.318	9728.52
490.688	9807.38
491.058	9977.32
491.428	10092.12
491.798	10267.48
492.168	10410.53
492.538	10356.52
492.908	10580.24
493.278	10718.09
493.648	10768.04
494.017	10900.01
494.387	10982.04
494.757	11137.29
495.126	11262.49
495.496	11282.6
495.866	11400.34
496.235	11474.01
496.605	11603.04
496.974	11690.95
497.344	11787.9
497.713	11759.2
498.082	11980.66
498.452	12083.26
498.821	12076.7
499.19	12163.93
499.559	12251.84
499.928	12458.16
500.298	12499.52
500.667	12606.86
501.036	12617.7
501.405	12743.58
501.774	12715.1
502.143	12894.53
502.512	12869.45
502.88	13080.07
503.249	13152.38
503.618	13281.19
503.987	13348.53
504.356	13438.93
504.724	13506.27
505.093	13621.07
505.462	13670.56
505.83	13803.44
506.199	13914.85
506.567	14035.29
506.936	14036.65
507.304	14273.03
507.672	14369.07
508.041	14437.32
508.409	14554.15
508.777	14663.53
509.145	14732.9
509.514	14796.63
509.882	14904.42
510.25	14953.24
510.618	15061.71
510.986	15115.04
511.354	15339.67
511.722	15501.7
512.09	15568.59
512.458	15584.86
512.826	15887.68
513.193	15792.76
513.561	15909.14
513.929	16068.24
514.297	16214.45
514.664	16373.54
515.032	16398.85
515.4	16564.49
515.767	16704.15
516.135	16781.44
516.502	16774.88
516.869	16988.44
517.237	17186.62
517.604	17023.24
517.972	17333.51
518.339	17436.79
518.706	17439.05
519.073	17663.9
519.44	17720.4
519.808	17968.3
520.175	17950.67
520.542	18211.46
520.909	18339.59
521.276	18368.51
521.643	18627.26
522.009	18742.06
522.376	18839.91
522.743	19082.39
523.11	19218.89
523.477	19340.47
523.843	19495.04
524.21	19711.53
524.577	19852.99
524.943	19969.83
525.31	19988.13
525.676	20313.55
526.043	20454.11
526.409	20553.54
526.776	20742.69
527.142	20860.65
527.508	20873.99
527.874	21220.87
528.241	21177.25
528.607	21356.68
528.973	21551.48
529.339	21537.47
529.705	21786.28
530.071	21972.26
530.437	22023.11
530.803	22162.31
531.169	22372.93
531.535	22299.03
531.901	22485.92
532.267	22494.06
532.632	22764.33
532.998	22910.09
533.364	22960.94
533.73	23038.67
534.095	23300.59
534.461	23306.24
534.826	23473.69
535.192	23649.96
535.557	23727.47
535.923	23714.81
536.288	23831.65
536.653	23978.31
537.019	23974.47
537.384	24085.43
537.749	24206.78
538.114	24339.88
538.479	24366.77
538.845	24454.23
539.21	24479.31
539.575	24624.85
539.94	24730.38
540.305	24833.88
540.67	24833.2
541.034	25031.16
541.399	25122.69
541.764	25254.66
542.129	25275.45
542.494	25473.86
542.858	25454.66
543.223	25424.15
543.587	25677.7
543.952	25719.06
544.316	25888.77
544.681	25885.6
545.045	26019.16
545.41	26190.46
545.774	26143.45
546.138	26169.67
546.503	26257.8
546.867	26350.9
547.231	26519.49
547.595	26440.62
547.959	26687.39
548.324	26721.06
548.688	26931.9
549.052	27030.66
549.416	27007.84
549.779	27087.61
550.143	27175.29
550.507	27285.34
550.871	27441.5
551.235	27401.05
551.599	27666.35
551.962	27643.3
552.326	27641.94
552.689	27901.82
553.053	27829.51
553.417	27883.07
553.78	28327.8
554.143	28056.4
554.507	28318.08
554.87	28544.52
555.234	28649.37
555.597	28660
555.96	28655.02
556.323	28824.74
556.686	28959.42
557.05	29055.01
557.413	29187.89
557.776	29281.45
558.139	29527.54
558.502	29499.97
558.865	29635.56
559.228	29836.46
559.59	29944.26
559.953	29923.24
560.316	30290.01
560.679	30337.92
561.041	30473.05
561.404	30638.7
561.767	30896.77
562.129	30798.02
562.492	31071.68
562.854	31190.55
563.217	31040.27
563.579	31229.87
563.941	31442.75
564.304	31496.76
564.666	31766.81
565.028	31804.09
565.39	31885.22
565.753	32127.47
566.115	32162.73
566.477	32379.22
566.839	32520.23
567.201	32569.95
567.563	32708.93
567.925	32940.11
568.287	32943.72
568.648	32958.41
569.01	33100.1
569.372	33310.27
569.734	33364.05
570.095	33465.97
570.457	33728.11
570.819	33765.62
571.18	33772.85
571.542	33851.5
571.903	33920.2
572.265	34143.01
572.626	34226.18
572.987	34241.77
573.349	34399.05
573.71	34442.22
574.071	34648.09
574.432	34574.19
574.794	34842.21
575.155	34790.23
575.516	34759.27
575.877	34997.68
576.238	35012.14
576.599	35157.68
576.96	35147.73
577.32	35166.26
577.681	35221.63
578.042	35338.24
578.403	35458.91
578.763	35309.31
579.124	35480.38
579.485	35538.23
579.845	35773.25
580.206	35446.94
580.566	35513.37
580.927	35645.57
581.287	35696.19
581.648	35643.09
582.008	35834.27
582.368	35791.56
582.728	35818.45
583.089	35697.1
583.449	35642.41
583.809	35834.72
584.169	35815.74
584.529	35719.24
584.889	36109.52
585.249	35843.76
585.609	35599.02
585.969	35864.78
586.329	35845.34
586.688	35974.83
587.048	35827.72
587.408	35766.25
587.768	35830.88
588.127	35899.35
588.487	35884.89
588.846	36013.47
589.206	35685.8
589.565	35815.74
589.925	36059.57
590.284	35882.63
590.643	35944.55
591.003	36121.95
591.362	36105.45
591.721	35881.73
592.08	35895.51
592.44	36128.95
592.799	36082.4
593.158	35998.33
593.517	35973.02
593.876	36026.13
594.235	35947.94
594.593	35926.7
594.952	36010.99
595.311	35902.06
595.67	36033.81
596.029	36212.34
596.387	36267.03
596.746	36263.64
597.104	36025.68
597.463	36084.21
597.822	36331.43
598.18	36094.83
598.538	36076.52
598.897	36258.67
599.255	35987.49
599.613	36385.22
599.972	36242.85
600.33	36338.66
600.688	36055.28
601.046	36300.02
601.404	36362.62
601.762	36357.42
602.12	36517.42
602.478	36505.66
602.836	36585.66
603.194	36294.6
603.552	36256.86
603.91	36225.45
604.268	36310.87
604.625	36345.67
604.983	36330.98
605.341	36137.76
605.698	36495.04
606.056	36556.51
606.413	36485.55
606.771	36558.32
607.128	36710.4
607.485	36574.14
607.843	36652.78
608.2	36824.07
608.557	36757.18
608.914	36463.63
609.272	36886.9
609.629	36958.99
609.986	36994.47
610.343	36835.15
610.7	37081.24
611.057	37018.42
611.414	36979.32
611.771	36994.01
612.127	37104.74
612.484	37074.69
612.841	37255.48
613.198	37118.3
613.554	37115.82
613.911	37305.87
614.267	37373.89
614.624	37306.77
614.98	37461.12
615.337	37692.75
615.693	37510.16
616.05	37629.7
616.406	37657.05
616.762	37530.72
617.118	37491.18
617.475	37707.89
617.831	37628.35
618.187	37743.6
618.543	37899.98
618.899	37941.78
619.255	37839.64
619.611	37815.69
619.967	38151.04
620.323	38012.29
620.678	37921.22
621.034	37939.07
621.39	37904.27
621.746	37768
622.101	38151.27
622.457	37949.24
622.812	38074.89
623.168	38043.25
623.523	38085.06
623.879	38019.07
624.234	37973.42
624.589	38012.52
624.945	38135
625.3	38074.89
625.655	38122.57
626.01	38047.77
626.365	38187.65
626.72	38088
627.075	37947.43
627.43	37946.08
627.785	37950.37
628.14	38062.46
628.495	38120.99
628.85	37947.21
629.205	37779.08
629.559	38004.61
629.914	37802.35
630.269	37816.36
630.623	37749.25
630.978	37691.4
631.332	37931.16
631.687	37954.67
632.041	37698.85
632.396	37763.03
632.75	37636.03
633.104	37686.65
633.459	37446.2
633.813	37510.61
634.167	37397.84
634.521	37482.81
634.875	37458.63
635.229	37485.07
635.583	37273.1
635.937	37234.23
636.291	37160.79
636.645	37220
636.999	37079.43
637.352	37133.44
637.706	36907.01
638.06	37160.11
638.413	37132.31
638.767	36720.35
639.121	36978.19
639.474	36602.84
639.828	36780.91
640.181	36684.87
640.534	36675.83
640.888	36473.8
641.241	36490.98
641.594	36505.21
641.947	36460.24
642.301	36422.28
642.654	36344.99
643.007	36354.48
643.36	36298.44
643.713	36162.62
644.066	36500.24
644.419	36183.41
644.771	35923.98
645.124	35567.38
645.477	35571.45
645.83	35244.23
646.182	35214.4
646.535	35030.67
646.888	35210.78
647.24	34939.15
647.593	35291.91
647.945	35170.78
648.298	35111.35
648.65	34968.08
649.002	34872.94
649.355	34827.06
649.707	34751.36
650.059	34992.26
650.411	35228.86
650.763	35441.51
651.115	35675.18
651.467	35649.64
651.819	35587.72
652.171	35535.75
652.523	35504.79
652.875	35437.44
653.227	35276.54
653.578	35510.66
653.93	35408.52
654.282	35242.42
654.633	35230.44
654.985	35359.71
655.337	35307.28
655.688	35359.48
656.039	35204.68
656.391	34864.13
656.742	35011.69
657.094	35091.24
657.445	35212.14
657.796	34957
658.147	34996.78
658.498	34973.28
658.849	35053.73
659.2	34867.52
659.551	34891.24
659.902	34945.93
660.253	34734.86
660.604	34923.33
660.955	34644.47
661.306	34740.97
661.656	34579.61
662.007	34668.88
662.358	34512.27
662.708	34570.12
663.059	34444.7
663.409	34260.3
663.76	34396.12
664.11	34406.74
664.461	34470.46
664.811	34345.5
665.161	34207.65
665.511	34161.55
665.862	34078.84
666.212	34144.6
666.562	34062.11
666.912	33860.99
667.262	33917.71
667.612	33770.37
667.962	33814.21
668.312	33550.94
668.662	33690.6
669.011	33548.91
669.361	33533.54
669.711	33473.65
670.06	33284.28
670.41	33193.44
670.76	33027.56
671.109	33156.6
671.459	33164.51
671.808	32941.69
672.157	32961.12
672.507	32790.73
672.856	32756.16
673.205	32631.87
673.554	32778.98
673.904	32622.38
674.253	32884.74
674.602	32590.97
674.951	32057.19
675.3	31945.33
675.649	32352.55
675.998	32310.52
676.346	32444.75
676.695	32484.3
677.044	32205.66
677.393	32343.29
677.741	32255.38
678.09	32090.87
678.438	31958.67
678.787	32144.2
679.135	32212.67
679.484	32033.24
679.832	32164.54
680.181	31890.42
680.529	31960.7
680.877	32022.62
681.225	32027.36
681.573	32221.26
681.922	31956.63
682.27	31996.63
682.618	32033.01
682.966	31846.8
683.314	32019.91
683.661	32062.39
684.009	31860.14
684.357	31861.72
684.705	31800.93
685.053	31934.94
685.4	31853.13
685.748	31764.77
686.095	31701.95
686.443	31698.33
686.79	31554.38
687.138	31824.43
687.485	31831.21
687.832	31737.65
688.18	31804.32
688.527	31738.56
688.874	31815.39
689.221	31655.17
689.568	31670.31
689.915	31580.37
690.262	31636.19
690.609	31440.71
690.956	31387.15
691.303	31497.66
691.65	31412.47
691.997	31351.22
692.344	31257.44
692.69	31374.95
693.037	31393.71
693.383	30948.97
693.73	31255.63
694.077	31065.81
694.423	31114.17
694.769	31042.08
695.116	30904.23
695.462	31018.35
695.808	30880.95
696.155	31018.13
696.501	30760.5
696.847	30727.06
697.193	30540.85
697.539	30697.23
697.885	30398.48
698.231	30330.69
698.577	30351.7
698.923	30375.2
699.269	30171.82
699.614	30049.79
699.96	30098.6
700.306	30106.96
700.651	29893.63
700.997	29769.12
701.342	29841.66
701.688	29838.72
702.033	29657.03
702.379	29691.38
702.724	29642.57
703.069	29636.47
703.415	29211.84
703.76	29289.81
704.105	29355.12
704.45	29243.48
704.795	29117.16
705.14	29020.44
705.485	28940.44
705.83	28927.33
706.175	28951.96
706.52	28834
706.865	28749.48
707.209	28724.4
707.554	28558.53
707.899	28721.91
708.243	28555.59
708.588	28425.2
708.932	28313.11
709.277	28286.67
709.621	28318.54
709.966	28178.2
710.31	28329.38
710.654	28026.34
710.998	27945.21
711.342	28087.35
711.687	27883.07
712.031	27823.18
712.375	27669.06
712.719	27727.59
713.063	27603.3
713.407	27722.84
713.75	27495.73
714.094	27665.67
714.438	27432
714.782	27432
715.125	27328.96
715.469	27302.06
715.812	27245.79
716.156	27092.35
716.499	27078.12
716.843	27000.6
717.186	26895.3
717.53	27023.43
717.873	27082.64
718.216	26910.44
718.559	26693.04
718.902	26707.5
719.246	26759.25
719.589	26644
719.932	26571.91
720.275	26462.31
720.617	26624.79
720.96	26440.17
721.303	26490.79
721.646	26445.59
721.989	26286.27
722.331	26409.43
722.674	26296.89
723.016	26233.84
723.359	26130.12
723.701	26125.82
724.044	26073.85
724.386	25881.31
724.729	26037.92
725.071	25894.19
725.413	25832.05
725.755	25862.78
726.097	25760.41
726.439	25578.72
726.782	25602.45
727.124	25858.71
727.465	25652.39
727.807	25620.3
728.149	25574.43
728.491	25441.1
728.833	25604.48
729.175	25380.99
729.516	25340.31
729.858	25332.4
730.199	25303.02
730.541	25246.98
730.882	25218.05
731.224	25216.92
731.565	25137.6
731.906	25031.62
732.248	25088.11
732.589	24926.76
732.93	24920.21
733.271	25033.42
733.612	24989.36
733.953	24796.14
734.294	24897.16
734.635	24710.27
734.976	24776.48
735.317	24670.04
735.658	24701
735.999	24627.11
736.339	24551.4
736.68	24535.58
737.021	24462.37
737.361	24418.52
737.702	24493.32
738.042	24405.19
738.383	24256.72
738.723	24395.7
739.063	24309.6
739.404	24271.86
739.744	24302.37
740.084	24220.79
740.424	24132.66
740.764	24248.13
741.104	24253.78
741.444	24025.99
741.784	24130.4
742.124	24117.29
742.464	23939.67
742.804	23889.95
743.143	23902.15
743.483	23962.27
743.823	23741.71
744.162	23891.08
744.502	23843.85
744.841	23744.19
745.181	23715.04
745.52	23661.26
745.86	23656.06
746.199	23463.97
746.538	23508.94
746.877	23516.63
747.216	23488.61
747.556	23537.42
747.895	23361.83
748.234	23364.54
748.573	23326.12
748.911	23275.05
749.25	23280.7
749.589	23143.53
749.928	23121.84
750.267	23174.26
750.605	23126.36
750.944	23043.19
751.283	22960.48
751.621	22919.13
751.96	22900.37
752.298	22850.88
752.636	22766.36
752.975	22762.52
753.313	22673.03
753.651	22676.42
753.989	22600.72
754.327	22608.18
754.666	22339.71
755.004	22503.09
755.342	22435.07
755.679	22420.61
756.017	22056.33
756.355	22199.37
756.693	22145.82
757.031	22123.9
757.368	21996.89
757.706	21959.15
758.044	21881.19
758.381	21883.9
758.719	21829.67
759.056	21827.63
759.394	21766.39
759.731	21515.32
760.068	21561.2
760.405	21484.36
760.743	21292.05
761.08	21403.46
761.417	21331.15
761.754	21305.16
762.091	21174.77
762.428	21033.75
762.765	21027.43
763.102	20982.23
763.438	20931.84
763.775	20757.83
764.112	20860.65
764.449	20788.11
764.785	20655.01
765.122	20593.54
765.458	20543.82
765.795	20473.32
766.131	20395.81
766.467	20267
766.804	20325.52
767.14	20179.77
767.476	20212.31
767.812	20041.69
768.148	20076.94
768.485	19949.04
768.821	19926.44
769.157	19858.64
769.492	19745.2
769.828	19823.84
770.164	19585.88
770.5	19468.6
770.836	19520.35
771.171	19426.34
771.507	19439.22
771.842	19180.7
772.178	19152.9
772.513	19149.06
772.849	19086.46
773.184	19020.25
773.519	19015.05
773.855	18877.65
774.19	18773.02
774.525	18773.93
774.86	18698.9
775.195	18734.61
775.53	18597.43
775.865	18571.67
776.2	18431.79
776.535	18310.21
776.87	18218.46
777.205	18187.28
777.539	18011.69
777.874	18135.75
778.209	17977.34
778.543	18006.49
778.878	17835.65
779.212	17853.5
779.547	17780.51
779.881	17808.53
780.215	17617.12
780.55	17622.09
780.884	17615.31
781.218	17456.9
781.552	17388.2
781.886	17356.34
782.22	17268.2
782.554	17198.83
782.888	17121.32
783.222	17017.82
783.556	16879.29
783.889	16963.13
784.223	16776.47
784.557	16760.87
784.89	16779.63
785.224	16676.36
785.557	16700.08
785.891	16479.98
786.224	16572.4
786.558	16519.07
786.891	16421.9
787.224	16289.92
787.557	16135.8
787.891	16154.56
788.224	16143.71
788.557	16224.16
788.89	16090.83
789.223	16015.58
789.556	15879.77
789.888	15946.88
790.221	15786.89
790.554	15734.46
790.887	15688.81
791.219	15665.31
791.552	15545.09
791.884	15530.17
792.217	15451.53
792.549	15410.63
792.882	15317.97
793.214	15274.36
793.546	15263.96
793.879	15194.59
794.211	15087.92
794.543	15127.02
794.875	15037.98
795.207	15074.36
795.539	15011.99
795.871	15053.57
796.203	14808.83
796.535	14817.2
796.867	14698.1
797.198	14722.73
797.53	14692.23
797.862	14632.79
798.193	14667.37
798.525	14524.55
798.856	14497.43
799.188	14336.53
799.519	14266.93
799.85	14256.31
800.182	14268.96
800.513	14312.12
800.844	14204.78
801.175	14111
801.506	14138.79
801.837	14074.84
802.168	14028.06
802.499	14031.45
802.83	13922.76
803.161	13921.4
803.491	13956.2
803.822	13840.72
804.153	13814.28
804.483	13674.63
804.814	13637.11
805.145	13671.91
805.475	13577
805.805	13546.04
806.136	13567.96
806.466	13605.25
806.796	13548.3
807.126	13324.35
807.457	13349.21
807.787	13302.43
808.117	13354.86
808.447	13224.02
808.777	13258.82
809.107	13220.85
809.436	13113.74
809.766	13097.01
810.096	13039.61
810.426	13024.47
810.755	12981.76
811.085	12983.57
811.414	12921.43
811.744	12838.26
812.073	12783.8
812.403	12848.21
812.732	12746.52
813.061	12757.59
813.39	12702.67
813.719	12734.09
814.049	12737.93
814.378	12693.64
814.707	12617.03
815.036	12549.01
815.365	12476.92
815.693	12343.81
816.022	12436.24
816.351	12410.48
816.68	12294.55
817.008	12354.66
817.337	12339.75
817.665	12251.84
817.994	12221.78
818.322	12252.97
818.651	12206.42
818.979	12133.42
819.307	12200.09
819.636	12148.56
819.964	12069.92
820.292	12083.48
820.62	11989.92
820.948	12043.03
821.276	11991.05
821.604	11942.92
821.932	12120.09
822.259	12003.03
822.587	11950.38
822.915	11925.07
823.243	12015.46
823.57	11898.18
823.898	11989.47
824.225	11866.31
824.553	11895.24
824.88	11939.98
825.207	11965.52
825.535	11926.2
825.862	11947.67
826.189	11913.77
826.516	12000.32
826.843	11925.29
827.17	11971.62
827.497	11942.92
827.824	11888.68
828.151	11983.82
828.478	11883.94
828.805	11998.06
829.131	11906.54
829.458	11882.58
829.785	11820.66
830.111	11860.44
830.438	11982.92
830.764	11921
831.09	11855.01
831.417	11775.24
831.743	11765.07
832.069	11859.53
832.395	11778.63
832.722	11860.44
833.048	11821.34
833.374	11808.91
833.7	11749.03
834.026	11845.97
834.351	11880.55
834.677	11690.72
835.003	11844.39
835.329	11759.42
835.654	11797.61
835.98	11672.19
836.306	11645.53
836.631	11633.78
836.956	11701.8
837.282	11628.35
837.607	11553.33
837.932	11555.13
838.258	11590.84
838.583	11530.05
838.908	11549.26
839.233	11557.39
839.558	11499.32
839.883	11379.77
840.208	11376.83
840.533	11424.06
840.858	11431.07
841.182	11504.74
841.507	11337.96
841.832	11324.63
842.156	11343.39
842.481	11315.14
842.805	11265.2
843.13	11217.06
843.454	11234.69
843.778	11201.02
844.103	11150.4
844.427	11101.36
844.751	11114.02
845.075	10988.14
845.399	10954.47
845.723	10944.75
846.047	10951.76
846.371	10872.67
846.695	10886.68
847.019	10882.16
847.343	10749.96
847.666	10693.91
847.99	10689.85
848.313	10682.39
848.637	10629.28
848.96	10584.09
849.284	10505.22
849.607	10489.63
849.931	10503.64
850.254	10435.39
850.577	10366.46
850.9	10336.18
851.223	10256.41
851.546	10270.65
851.869	10194.49
852.192	10226.36
852.515	10147.71
852.838	10057.55
853.161	10080.6
853.483	10031.11
853.806	9992.01
854.129	9998.11
854.451	9888.51
854.774	9909.3
855.096	9823.43
855.419	9791.34
855.741	9745.01
856.063	9740.94
856.385	9726.03
856.708	9693.94
857.03	9657.78
857.352	9686.93
857.674	9625.02
857.996	9566.71
858.318	9523.55
858.64	9573.72
858.961	9546.83
859.283	9431.57
859.605	9377.56
859.926	9491.01
860.248	9463.21
860.57	9349.99
860.891	9366.72
861.212	9314.97
861.534	9281.07
861.855	9311.58
862.176	9303.22
862.498	9305.7
862.819	9258.47
863.14	9207.85
863.461	9201.07
863.782	9142.99
864.103	9144.35
864.424	9102.09
864.745	9149.55
865.065	9124.24
865.386	9046.95
865.707	9013.96
866.027	9131.69
866.348	8990.91
866.668	9001.08
866.989	9018.03
867.309	8985.26
867.63	8954.98
867.95	8995.65
868.27	8944.58
868.59	8868.88
868.91	8913.85
869.23	8894.41
869.55	8874.75
869.87	8854.41
870.19	8870.01
870.51	8822.32
870.83	8881.98
871.15	8792.95
871.469	8802.21
871.789	8842.21
872.109	8783.46
872.428	8755.21
872.748	8757.92
873.067	8719.73
873.386	8696.9
873.706	8708.43
874.025	8659.16
874.344	8727.86
874.663	8688.77
874.982	8590.01
875.301	8619.17
875.62	8587.75
875.939	8622.78
876.258	8574.87
876.577	8565.38
876.896	8557.92
877.214	8536
877.533	8510.24
877.852	8493.97
878.17	8498.27
878.489	8476.57
878.807	8465.5
879.125	8478.15
879.444	8388.66
879.762	8421.43
880.08	8435.67
880.398	8336.69
880.716	8440.41
881.034	8360.19
881.352	8373.52
881.67	8314.32
881.988	8350.7
882.306	8282.23
882.624	8257.37
882.941	8224.37
883.259	8209.23
883.577	8168.33
883.894	8163.81
884.212	8163.13
884.529	8117.03
884.846	8151.61
885.164	8085.17
885.481	8043.59
885.798	8090.82
886.115	8035
886.432	8027.77
886.75	7997.49
887.067	7945.74
887.383	7937.6
887.7	7968.34
888.017	7932.18
888.334	7916.13
888.651	7867.55
888.967	7897.38
889.284	7795.23
889.6	7797.49
889.917	7751.17
890.233	7832.97
890.55	7822.35
890.866	7802.92
891.182	7769.92
891.498	7776.02
891.815	7672.3
892.131	7613.32
892.447	7581.23
892.763	7564.05
893.079	7536.26
893.395	7524.96
893.71	7543.71
894.026	7485.41
894.342	7435.69
894.657	7465.07
894.973	7416.03
895.289	7356.6
895.604	7410.16
895.92	7309.82
896.235	7251.74
896.55	7299.88
896.865	7304.62
897.181	7226.89
897.496	7282.7
897.811	7216.94
898.126	7286.09
898.441	7169.03
898.756	7136.72
899.071	7092.65
899.386	7098.75
899.7	7066.44
900.015	7038.87
900.33	6990.06
900.644	7029.6
900.959	6940.79
901.273	6953.45
901.588	6923.84
901.902	6910.96
902.216	6851.53
902.531	6844.07
902.845	6890.4
903.159	6795.03
903.473	6766.56
903.787	6753.68
904.101	6688.82
904.415	6685.66
904.729	6615.15
905.042	6675.71
905.356	6632.55
905.67	6561.59
905.984	6577.19
906.297	6509.62
906.611	6533.57
906.924	6494.02
907.237	6453.12
907.551	6402.95
907.864	6391.43
908.177	6396.85
908.491	6347.59
908.804	6315.05
909.117	6289.96
909.43	6262.84
909.743	6261.94
910.056	6211.55
910.368	6229.85
910.681	6215.84
910.994	6180.36
911.307	6113.47
911.619	6113.24
911.932	6152.79
912.244	6030.08
912.557	6073.92
912.869	6012.23
913.181	6026.69
913.494	5979.69
913.806	5863.53
914.118	5890.65
914.43	5868.96
914.742	5917.77
915.054	5848.84
915.366	5814.04
915.678	5788.96
915.99	5772.91
916.302	5726.81
916.613	5761.61
916.925	5725.46
917.236	5732.01
917.548	5658.34
917.859	5649.75
918.171	5710.99
918.482	5576.53
918.794	5548.06
919.105	5572.24
919.416	5536.76
919.727	5529.53
920.038	5486.82
920.349	5458.35
920.66	5434.17
920.971	5471.23
921.282	5384.9
921.593	5341.96
921.903	5321.4
922.214	5297.45
922.525	5296.77
922.835	5311.23
923.146	5271.91
923.456	5263.55
923.767	5202.76
924.077	5225.58
924.387	5172.7
924.697	5134.74
925.008	5129.31
925.318	5123.66
925.628	5135.87
925.938	5076.21
926.248	5055.42
926.558	5025.14
926.867	4988.53
927.177	4978.36
927.487	5044.57
927.796	4928.19
928.106	4924.12
928.416	4914.86
928.725	4869.89
929.034	4785.82
929.344	4806.84
929.653	4791.24
929.962	4733.39
930.271	4759.61
930.581	4692.49
930.89	4720.74
931.199	4690.68
931.508	4701.3
931.817	4673.51
932.125	4652.94
932.434	4610.46
932.743	4630.8
933.051	4535.66
933.36	4574.53
933.669	4487.3
933.977	4548.54
934.286	4486.39
934.594	4488.43
934.902	4485.04
935.21	4441.65
935.519	4465.15
935.827	4436.68
936.135	4374.76
936.443	4354.42
936.751	4384.7
937.059	4380.86
937.367	4319.39
937.674	4347.64
937.982	4278.26
938.29	4264.25
938.597	4272.84
938.905	4227.19
939.213	4216.57
939.52	4163.01
939.827	4195.55
940.135	4186.06
940.442	4144.03
940.749	4190.13
941.056	4121.21
941.363	4085.27
941.67	4072.62
941.977	4050.7
942.284	4041.89
942.591	3994.65
942.898	4018.16
943.205	4012.73
943.511	4014.09
943.818	3954.66
944.125	3960.08
944.431	3932.28
944.738	3925.5
945.044	3885.28
945.35	3903.13
945.657	3836.47
945.963	3821.33
946.269	3779.07
946.575	3807.09
946.881	3773.87
947.187	3779.07
947.493	3749.69
947.799	3757.15
948.105	3732.06
948.41	3689.58
948.716	3713.08
949.022	3661.1
949.327	3662.23
949.633	3645.74
949.938	3651.39
950.244	3623.14
950.549	3564.16
950.854	3548.79
951.16	3563.93
951.465	3587.21
951.77	3488.68
952.075	3520.77
952.38	3482.13
952.685	3473.76
952.99	3455.23
953.294	3461.79
953.599	3465.4
953.904	3437.83
954.209	3406.65
954.513	3411.17
954.818	3365.97
955.122	3368.68
955.426	3390.15
955.731	3349.7
956.035	3355.8
956.339	3327.1
956.643	3306.54
956.948	3279.42
957.252	3257.27
957.556	3269.7
957.86	3247.56
958.163	3234.45
958.467	3197.39
958.771	3205.3
959.075	3232.87
959.378	3185.64
959.682	3163.04
959.985	3133.66
960.289	3151.51
960.592	3128.46
960.896	3137.28
961.199	3111.06
961.502	3093.89
961.805	3097.5
962.108	3037.17
962.411	3053.66
962.714	3024.51
963.017	3007.79
963.32	3017.28
963.623	2952.87
963.926	2999.2
964.228	2960.33
964.531	2970.28
964.833	2935.02
965.136	2914.91
965.438	2906.55
965.741	2913.33
966.043	2882.82
966.345	2880.33
966.648	2900.22
966.95	2869.49
967.252	2826.1
967.554	2796.95
967.856	2809.38
968.158	2806.21
968.46	2771.18
968.761	2798.98
969.063	2755.37
969.365	2734.35
969.666	2742.26
969.968	2721.24
970.269	2689.6
970.571	2701.58
970.872	2689.38
971.174	2715.82
971.475	2686.67
971.776	2681.92
972.077	2687.12
972.378	2640.11
972.679	2604.86
972.98	2620.68
973.281	2602.6
973.582	2596.05
973.883	2585.43
974.183	2575.71
974.484	2567.8
974.785	2516.28
975.085	2545.2
975.386	2518.99
975.686	2566.67
975.986	2508.82
976.287	2512.43
976.587	2502.94
976.887	2485.99
977.187	2480.57
977.487	2452.77
977.787	2467.46
978.087	2414.13
978.387	2415.26
978.687	2415.26
978.987	2402.83
979.286	2370.52
979.586	2364.87
979.885	2373.91
980.185	2375.04
980.484	2307.47
980.784	2356.51
981.083	2351.08
981.382	2330.07
981.682	2309.5
981.981	2306.56
982.28	2286
982.579	2238.09
982.878	2274.25
983.177	2238.77
983.475	2254.36
983.774	2220.46
984.073	2218.43
984.372	2214.36
984.67	2231.09
984.969	2195.38
985.267	2173.46
985.566	2179.11
985.864	2131.65
986.162	2136.4
986.461	2136.62
986.759	2188.6
987.057	2111.31
987.355	2118.32
987.653	2100.47
987.951	2123.52
988.249	2092.78
988.547	2039.23
988.844	2111.09
989.142	2073.8
989.44	2107.47
989.737	2063.63
990.035	2023.63
990.332	2047.14
990.63	1992
990.927	2031.99
991.224	1970.08
991.521	2006.01
991.819	1975.05
992.116	1999.23
992.413	1992.9
992.71	1961.26
993.006	1952.22
993.303	1957.19
993.6	1906.8
993.897	1956.52
994.193	1910.19
994.49	1911.09
994.787	1893.69
995.083	1871.09
995.379	1879.68
995.676	1859.57
995.972	1864.99
996.268	1844.2
996.565	1800.36
996.861	1820.02
997.157	1850.76
997.453	1815.5
997.749	1814.6
998.044	1793.58
998.34	1798.55
998.636	1761.27
998.932	1779.57
999.227	1776.63
999.523	1763.3
999.818	1743.87
1000.114	1734.15
1000.409	1737.77
1000.704	1722.17
1001	1723.75
1001.295	1712.23
1001.59	1673.59
1001.885	1727.82
1002.18	1682.17
1002.475	1652.34
1002.77	1682.17
1003.065	1660.25
1003.359	1646.02
1003.654	1618.9
1003.949	1650.54
1004.243	1629.07
1004.538	1586.36
1004.832	1609.41
1005.127	1564.44
1005.421	1557.2
1005.715	1583.19
1006.009	1553.36
1006.304	1541.39
1006.598	1532.35
1006.892	1562.85
1007.186	1517.88
1007.48	1493.48
1007.773	1521.73
1008.067	1527.15
1008.361	1484.44
1008.655	1490.09
1008.948	1489.41
1009.242	1481.27
1009.535	1469.3
1009.829	1482.63
1010.122	1443.76
1010.415	1428.62
1010.708	1445.8
1011.001	1417.55
1011.295	1412.12
1011.588	1442.86
1011.881	1392.01
1012.173	1371.9
1012.466	1401.95
1012.759	1380.03
1013.052	1390.66
1013.344	1357.89
1013.637	1344.78
1013.93	1361.5
1014.222	1367.38
1014.514	1332.8
1014.807	1338.45
1015.099	1307.72
1015.391	1305.69
1015.683	1299.13
1015.976	1287.83
1016.268	1317.21
1016.56	1287.38
1016.851	1272.92
1017.143	1245.57
1017.435	1260.72
1017.727	1247.38
1018.018	1255.97
1018.31	1254.16
1018.602	1225.46
1018.893	1218
1019.185	1242.41
1019.476	1215.74
1019.767	1206.71
1020.058	1180.27
1020.35	1185.92
1020.641	1186.59
1020.932	1173.71
1021.223	1170.32
1021.514	1173.94
1021.804	1152.7
1022.095	1121.06
1022.386	1174.39
1022.677	1141.17
1022.967	1108.86
1023.258	1130.55
1023.548	1098.23
1023.839	1120.15
1024.129	1099.14
1024.419	1077.67
1024.709	1086.93
1025	1085.13
1025.29	1109.76
1025.58	1081.29
1025.87	1046.71
1026.16	1067.27
1026.449	1051.23
1026.739	1034.28
1027.029	1018.24
1027.319	1034.51
1027.608	1021.85
1027.898	1024.79
1028.187	1047.61
1028.477	982.76
1028.766	1002.64
1029.055	994.28
1029.344	991.34
1029.634	959.25
1029.923	982.76
1030.212	973.72
1030.501	940.95
1030.79	964.45
1031.078	944.11
1031.367	971.46
1031.656	943.89
1031.945	928.75
1032.233	927.16
1032.522	914.06
1032.81	904.34
1033.099	921.06
1033.387	913.83
1033.675	888.75
1033.963	882.19
1034.251	902.08
1034.54	886.94
1034.828	884.91
1035.116	869.31
1035.403	864.34
1035.691	879.71
1035.979	855.75
1036.267	860.95
1036.554	847.62
1036.842	846.49
1037.129	846.94
1037.417	835.64
1037.704	817.56
1037.992	815.76
1038.279	800.16
1038.566	821.4
1038.853	821.4
1039.14	821.4
