Data from white_poster_card_FLMS001491_00070.txt Node
Date: Wed Feb 08 11:51:52 GMT 2017
User: dcchb
Spectrometer: FLMS00149
Trigger mode: 0
Integration Time (sec): 2.000000E-2
Scans to average: 10
Electric dark correction enabled: true
Nonlinearity correction enabled: false
Boxcar width: 0
XAxis mode: Wavelengths
Number of Pixels in Spectrum: 2048
>>>>>Begin Spectral Data<<<<<
341.393	-12.67
341.776	-12.67
342.16	-12.67
342.543	-37.08
342.927	-59
343.31	-63.06
343.693	-76.17
344.077	-87.7
344.46	-47.47
344.843	-53.8
345.226	-45.66
345.61	-26.68
345.993	-26
346.376	8.57
346.759	-2.27
347.142	25.52
347.525	50.38
347.908	64.16
348.291	61.91
348.674	107.78
349.057	110.49
349.44	133.32
349.823	127.89
350.206	162.02
350.588	199.08
350.971	207.89
351.354	224.61
351.737	232.07
352.119	259.19
352.502	261.9
352.884	282.69
353.267	269.13
353.65	280.66
354.032	305.06
354.414	293.54
354.797	303.25
355.179	321.79
355.562	326.3
355.944	333.31
356.326	329.02
356.709	333.31
357.091	321.79
357.473	336.93
357.855	362.46
358.238	322.46
358.62	350.71
359.002	360.88
359.384	354.33
359.766	335.12
360.148	324.05
360.53	340.54
360.912	338.73
361.294	327.21
361.676	318.17
362.057	337.38
362.439	339.19
362.821	318.17
363.203	332.63
363.584	324.95
363.966	321.11
364.348	325.18
364.729	333.08
365.111	307.1
365.493	331.5
365.874	312.97
366.256	301.22
366.637	326.53
367.019	310.26
367.4	296.7
367.781	297.15
368.163	318.4
368.544	345.97
368.925	313.42
369.306	310.49
369.688	338.51
370.069	312.07
370.45	314.55
370.831	326.53
371.212	320.88
371.593	306.19
371.974	303.03
372.355	311.62
372.736	307.1
373.117	320.88
373.498	314.1
373.879	339.41
374.26	334.67
374.641	328.11
375.021	298.74
375.402	309.58
375.783	318.62
376.163	346.64
376.544	333.54
376.925	334.89
377.305	317.27
377.686	330.6
378.066	326.53
378.447	336.25
378.827	328.56
379.208	329.24
379.588	331.95
379.968	320.2
380.349	315.46
380.729	322.92
381.109	352.97
381.489	341.9
381.87	340.09
382.25	349.13
382.63	343.25
383.01	360.65
383.39	352.97
383.77	362.69
384.15	364.27
384.53	353.42
384.91	345.29
385.29	357.04
385.67	365.63
386.049	372.63
386.429	375.34
386.809	365.63
387.189	379.86
387.568	371.5
387.948	366.3
388.328	368.56
388.707	379.86
389.087	363.37
389.466	395.23
389.846	404.27
390.225	392.29
390.605	403.37
390.984	403.59
391.363	407.43
391.743	385.29
392.122	387.32
392.501	415.79
392.881	413.53
393.26	415.12
393.639	404.04
394.018	411.27
394.397	419.18
394.776	423.25
395.155	419.41
395.534	419.86
395.913	435
396.292	432.74
396.671	408.56
397.05	423.25
397.429	422.35
397.808	431.61
398.186	436.58
398.565	432.06
398.944	419.41
399.323	418.28
399.701	455.34
400.08	450.6
400.458	451.05
400.837	441.33
401.215	454.89
401.594	463.48
401.972	444.27
402.351	459.63
402.729	465.51
403.107	487.43
403.486	481.33
403.864	482.46
404.242	494.89
404.62	511.84
404.999	497.6
405.377	514.77
405.755	521.55
406.133	515.23
406.511	536.24
406.889	517.26
407.267	530.59
407.645	553.42
408.023	563.36
408.401	564.49
408.779	566.98
409.156	567.65
409.534	565.62
409.912	578.73
410.29	592.29
410.667	619.86
411.045	621.66
411.422	626.18
411.8	632.29
412.178	637.94
412.555	702.11
412.933	667.76
413.31	691.72
413.687	733.53
414.065	714.32
414.442	729.01
414.819	754.09
415.197	770.36
415.574	778.72
415.951	804.03
416.328	796.35
416.705	809.91
417.082	841.55
417.46	856.69
417.837	867.53
418.214	877.25
418.591	883.35
418.967	906.18
419.344	919.28
419.721	923.35
420.098	949.79
420.475	986.17
420.852	982.56
421.228	997.25
421.605	1014.2
421.982	1031.15
422.358	1050.81
422.735	1054.2
423.111	1058.72
423.488	1075.21
423.864	1077.92
424.241	1089.9
424.617	1123.8
424.994	1130.8
425.37	1138.49
425.746	1161.31
426.123	1173.06
426.499	1196.34
426.875	1186.4
427.251	1230.46
427.627	1236.11
428.003	1251.25
428.379	1287.41
428.756	1293.06
429.132	1317.47
429.507	1335.54
429.883	1358.59
430.259	1378.25
430.635	1403.11
431.011	1450.57
431.387	1471.13
431.763	1477.46
432.138	1489.44
432.514	1482.43
432.89	1512.04
433.265	1530.79
433.641	1567.18
434.016	1575.09
434.392	1603.33
434.767	1658.7
435.143	1620.96
435.518	1659.15
435.894	1675.42
436.269	1695.99
436.644	1696.66
437.02	1740.51
437.395	1728.98
437.77	1759.26
438.145	1815.08
438.52	1832.93
438.895	1813.5
439.271	1811.69
439.646	1858.69
440.021	1880.84
440.395	1909.99
440.77	1885.13
441.145	1932.36
441.52	1928.3
441.895	1964.45
442.27	1945.47
442.645	1992.93
443.019	1977.11
443.394	1999.71
443.769	2059.37
444.143	2024.79
444.518	2049.2
444.892	2024.34
445.267	2077.67
445.641	2079.03
446.016	2053.04
446.39	2095.75
446.764	2126.94
447.139	2101.63
447.513	2150.21
447.887	2186.6
448.262	2145.92
448.636	2176.88
449.01	2198.57
449.384	2225.01
449.758	2264.11
450.132	2235.18
450.506	2256.2
450.88	2264.33
451.254	2273.37
451.628	2288.29
452.002	2341.17
452.376	2370.77
452.75	2387.95
453.123	2464.78
453.497	2437.89
453.871	2467.72
454.244	2490.54
454.618	2542.74
454.992	2550.88
455.365	2578.22
455.739	2611.22
456.112	2702.29
456.486	2682.85
456.859	2709.52
457.232	2689.86
457.606	2693.25
457.979	2761.04
458.352	2825.67
458.725	2808.05
459.099	2843.07
459.472	2891.89
459.845	2979.34
460.218	2975.27
460.591	3000.36
460.964	3025.67
461.337	3050.98
461.71	3154.93
462.083	3134.59
462.456	3192.67
462.829	3186.79
463.201	3277.64
463.574	3275.83
463.947	3341.14
464.32	3389.73
464.692	3387.69
465.065	3406.22
465.438	3470.86
465.81	3521.25
466.183	3543.4
466.555	3635.82
466.928	3648.25
467.3	3669.72
467.672	3702.71
468.045	3788.36
468.417	3815.25
468.789	3814.57
469.161	3883.5
469.534	3941.35
469.906	4052.76
470.278	4061.8
470.65	4092.31
471.022	4173.66
471.394	4221.57
471.766	4265.64
472.138	4344.5
472.51	4410.27
472.882	4506.31
473.253	4572.52
473.625	4583.14
473.997	4714.21
474.369	4721.9
474.74	4780.88
475.112	4864.49
475.484	4937.48
475.855	5041.21
476.227	5006.86
476.598	5177.7
476.97	5198.27
477.341	5391.71
477.713	5409.11
478.084	5435.32
478.455	5624.92
478.827	5552.83
479.198	5758.25
479.569	5737.01
479.94	5952.15
480.311	5969.09
480.682	6116.21
481.053	6213.38
481.424	6310.55
481.795	6444.79
482.166	6482.08
482.537	6532.02
482.908	6771.56
483.279	6797.77
483.65	6897.88
484.021	6990.99
484.391	7110.76
484.762	7195.95
485.133	7227.59
485.503	7402.96
485.874	7505.33
486.244	7633.46
486.615	7767.92
486.985	7840.68
487.356	7993.22
487.726	8063.5
488.097	8180.34
488.467	8234.57
488.837	8420.56
489.207	8540.78
489.578	8707.78
489.948	8688.57
490.318	8801.34
490.688	8881.56
491.058	9027.55
491.428	9091.95
491.798	9249.23
492.168	9411.94
492.538	9370.36
492.908	9522.67
493.278	9649.22
493.648	9706.17
494.017	9830.01
494.387	9898.03
494.757	9970.12
495.126	10111.81
495.496	10145.26
495.866	10264.12
496.235	10322.2
496.605	10443.55
496.974	10455.76
497.344	10571.69
497.713	10585.02
498.082	10794.28
498.452	10930.55
498.821	10957.66
499.19	10893.71
499.559	11090.77
499.928	11154.72
500.298	11276.75
500.667	11395.84
501.036	11302.74
501.405	11509.29
501.774	11481.27
502.143	11646.23
502.512	11678.1
502.88	11790.41
503.249	11779.34
503.618	11870.41
503.987	11948.37
504.356	12096.62
504.724	12194.02
505.093	12248.7
505.462	12283.96
505.83	12477.4
506.199	12521.69
506.567	12658.18
506.936	12612.31
507.304	12774.79
507.672	12805.3
508.041	12945.18
508.409	12980.21
508.777	13184.72
509.145	13244.16
509.514	13299.3
509.882	13390.37
510.25	13420.2
510.618	13588.1
510.986	13579.29
511.354	13753.52
511.722	13812.73
512.09	13965.04
512.458	13960.3
512.826	14131.59
513.193	14128.65
513.561	14318.03
513.929	14383.34
514.297	14441.19
514.664	14622.43
515.032	14638.02
515.4	14880.5
515.767	14923.66
516.135	15035.75
516.502	15018.57
516.869	15174.95
517.237	15312.8
517.604	15254.73
517.972	15497.88
518.339	15631.89
518.706	15643.42
519.073	15830.53
519.44	15922.05
519.808	15967.48
520.175	16139
520.542	16296.28
520.909	16410.18
521.276	16508.93
521.643	16633.45
522.009	16776.95
522.376	16878.41
522.743	16949.37
523.11	17159.99
523.477	17316.59
523.843	17442.92
524.21	17558.85
524.577	17709.58
524.943	17724.72
525.31	17909.57
525.676	18138.04
526.043	18258.26
526.409	18364.7
526.776	18507.97
527.142	18569.89
527.508	18719.04
527.874	18815.76
528.241	18946.15
528.607	19101.86
528.973	19274.28
529.339	19185.24
529.705	19344.11
530.071	19640.37
530.437	19631.79
530.803	19834.49
531.169	19901.16
531.535	20001.49
531.901	20123.3
532.267	20194.48
532.632	20415.04
532.998	20386.57
533.364	20488.94
533.73	20565.77
534.095	20735.49
534.461	20718.09
534.826	20934.35
535.192	20963.28
535.557	21233.33
535.923	21140.67
536.288	21292.31
536.653	21394.68
537.019	21375.47
537.384	21464.73
537.749	21602.13
538.114	21667.66
538.479	21690.26
538.845	21850.71
539.21	21852.97
539.575	22045.51
539.94	22142.68
540.305	22288.67
540.67	22225.39
541.034	22283.02
541.399	22414.99
541.764	22389.68
542.129	22572.95
542.494	22611.37
542.858	22661.31
543.223	22763.68
543.587	22995.99
543.952	22961.87
544.316	22983.34
544.681	23011.36
545.045	23156.67
545.41	23238.92
545.774	23359.82
546.138	23390.78
546.503	23380.61
546.867	23558.69
547.231	23731.34
547.595	23776.54
547.959	23889.53
548.324	23798.23
548.688	23944.67
549.052	24028.05
549.416	24152.8
549.779	24354.37
550.143	24189.86
550.507	24489.51
550.871	24566.12
551.235	24569.74
551.599	24640.69
551.962	24880.69
552.326	24782.16
552.689	25038.42
553.053	24851.76
553.417	24999.78
553.78	25337.17
554.143	25243.62
554.507	25425.98
554.87	25463.72
555.234	25767.67
555.597	25561.8
555.96	25776.03
556.323	25879.98
556.686	25862.36
557.05	26053.76
557.413	26109.81
557.776	26301.44
558.139	26406.07
558.502	26488.78
558.865	26573.52
559.228	26787.76
559.59	26828.43
559.953	26849.9
560.316	27148.65
560.679	27222.32
561.041	27435.2
561.404	27522.2
561.767	27667.96
562.129	27672.03
562.492	27953.6
562.854	27944.11
563.217	28038.34
563.579	28065.01
563.941	28213.93
564.304	28468.62
564.666	28664.09
565.028	28538.67
565.39	28699.57
565.753	28889.85
566.115	29036.28
566.477	29136.17
566.839	29267.46
567.201	29436.73
567.563	29457.06
567.925	29698.41
568.287	29681.69
568.648	29734.57
569.01	29930.5
569.372	30071.74
569.734	29999.65
570.095	30204.39
570.457	30342.46
570.819	30417.27
571.18	30469.47
571.542	30675.11
571.903	30710.59
572.265	30830.36
572.626	30908.78
572.987	30962.56
573.349	30959.17
573.71	31143.8
574.071	31318.48
574.432	31385.83
574.794	31542.43
575.155	31497.91
575.516	31424.24
575.877	31575.88
576.238	31748.3
576.599	31868.98
576.96	31881.41
577.32	31834.63
577.681	32032.36
578.042	32129.76
578.403	32137.45
578.763	32029.43
579.124	32141.74
579.485	32285.24
579.845	32292.02
580.206	32365.01
580.566	32388.29
580.927	32412.92
581.287	32585.34
581.648	32356.2
582.008	32687.26
582.368	32513.03
582.728	32565.46
583.089	32547.38
583.449	32514.39
583.809	32635.06
584.169	32731.33
584.529	32778.33
584.889	32801.38
585.249	32624.66
585.609	32549.41
585.969	32790.76
586.329	32727.26
586.688	32673.7
587.048	32833.25
587.408	32695.17
587.768	32689.75
588.127	32866.47
588.487	32775.62
588.846	32950.76
589.206	32730.65
589.565	32817.65
589.925	32883.64
590.284	32711.89
590.643	32740.37
591.003	32817.88
591.362	33020.13
591.721	32842.96
592.08	32947.82
592.44	33050.87
592.799	32986.24
593.158	32909.4
593.517	32852.68
593.876	33093.13
594.235	32946.46
594.593	33010.64
594.952	33017.87
595.311	32881.83
595.67	33016.29
596.029	33169.06
596.387	33303.97
596.746	33237.3
597.104	33116.18
597.463	33065.78
597.822	33152.79
598.18	33039.34
598.538	33116.86
598.897	33287.02
599.255	33119.57
599.613	33552.1
599.972	33354.82
600.33	33325.21
600.688	33296.74
601.046	33530.4
601.404	33494.92
601.762	33422.61
602.12	33573.34
602.478	33624.19
602.836	33723.17
603.194	33496.05
603.552	33512.1
603.91	33421.71
604.268	33625.77
604.625	33521.36
604.983	33713.9
605.341	33528.6
605.698	33748.25
606.056	33835.93
606.413	33752.32
606.771	33839.1
607.128	33927
607.485	33685.43
607.843	33793.9
608.2	34033.44
608.557	34135.59
608.914	34003.84
609.272	34153.44
609.629	34206.32
609.986	34314.11
610.343	34125.19
610.7	34422.58
611.057	34266.2
611.414	34211.52
611.771	34341.68
612.127	34282.02
612.484	34466.2
612.841	34559.76
613.198	34366.99
613.554	34580.77
613.911	34586.2
614.267	34654.89
614.624	34446.09
614.98	34636.59
615.337	34785.96
615.693	34744.84
616.05	34650.6
616.406	34746.64
616.762	34696.25
617.118	34763.59
617.475	34853.53
617.831	34798.84
618.187	34840.43
618.543	34863.02
618.899	35172.39
619.255	35058.5
619.611	35002.46
619.967	35234.77
620.323	35244.48
620.678	35151.38
621.034	35050.36
621.39	35037.03
621.746	34934.89
622.101	35376.23
622.457	35040.87
622.812	35245.39
623.168	35190.92
623.523	35098.72
623.879	35356.8
624.234	34981.66
624.589	35155.9
624.945	35271.83
625.3	35132.85
625.655	35128.1
626.01	35190.02
626.365	35194.54
626.72	35139.17
627.075	35062.79
627.43	35026.64
627.785	35058.95
628.14	35125.16
628.495	35189.8
628.85	34957.71
629.205	35022.34
629.559	35139.85
629.914	34956.81
630.269	35107.09
630.623	34916.58
630.978	34793.2
631.332	34998.39
631.687	35011.72
632.041	34754.33
632.396	34926.3
632.75	34712.29
633.104	34725.17
633.459	34497.38
633.813	34677.04
634.167	34540.32
634.521	34581.45
634.875	34664.16
635.229	34398.4
635.583	34338.74
635.937	34452.41
636.291	34322.25
636.645	34486.76
636.999	34176.49
637.352	34376.26
637.706	34133.78
638.06	34273.66
638.413	34149.14
638.767	33940.79
639.121	34214.45
639.474	33956.83
639.828	33963.84
640.181	33844.29
640.534	33941.01
640.888	33790.51
641.241	33601.81
641.594	33759.1
641.947	33752.32
642.301	33658.31
642.654	33748.48
643.007	33598.65
643.36	33519.56
643.713	33654.92
644.066	33651.76
644.419	33469.61
644.771	33287.92
645.124	32942.62
645.477	32842.06
645.83	32735.85
646.182	32655.17
646.535	32456.99
646.888	32412.24
647.24	32301.28
647.593	32570.88
647.945	32504.44
648.298	32078.69
648.65	32152.59
649.002	32122.76
649.355	32192.36
649.707	32169.76
650.059	32200.27
650.411	32634.38
650.763	32672.57
651.115	32918.44
651.467	32775.17
651.819	32811.55
652.171	32819.24
652.523	32612.91
652.875	32714.15
653.227	32530.88
653.578	32818.78
653.93	32723.19
654.282	32525.68
654.633	32419.47
654.985	32489.98
655.337	32448.85
655.688	32393.71
656.039	32539.47
656.391	32040.95
656.742	32350.1
657.094	32431.45
657.445	32449.3
657.796	32273.26
658.147	32225.58
658.498	32109.2
658.849	32406.37
659.2	32173.83
659.551	32077.11
659.902	32237.1
660.253	32156.88
660.604	32255.63
660.955	31972.93
661.306	32082.98
661.656	31960.28
662.007	32020.61
662.358	31972.25
662.708	32006.38
663.059	31907.4
663.409	31644.8
663.76	32007.51
664.11	31973.16
664.461	31941.52
664.811	31911.92
665.161	31905.36
665.511	31755.54
665.862	31915.3
666.212	31872.37
666.562	31942.87
666.912	31824.01
667.262	31808.87
667.612	31769.32
667.962	31897.23
668.312	31774.07
668.662	31917.56
669.011	31685.71
669.361	31710.56
669.711	31621.08
670.06	31645.26
670.41	31455.88
670.76	31552.83
671.109	31585.82
671.459	31447.52
671.808	31612.49
672.157	31511.25
672.507	31391.48
672.856	31403.45
673.205	31322.78
673.554	31501.3
673.904	31279.62
674.253	31550.57
674.602	31273.29
674.951	30939.06
675.3	30717.37
675.649	31158.04
675.998	31191.03
676.346	31203.69
676.695	31434.19
677.044	31066.97
677.393	31171.14
677.741	31157.81
678.09	31099.51
678.438	30969.57
678.787	31107.19
679.135	31022.67
679.484	30893.18
679.832	30914.43
680.181	30812.74
680.529	30862.23
680.877	30697.03
681.225	30655.45
681.573	30933.41
681.922	30542.91
682.27	30563.48
682.618	30517.83
682.966	30474.89
683.314	30556.02
683.661	30531.84
684.009	30350.83
684.357	30222.47
684.705	30211.85
685.053	30237.38
685.4	30202.81
685.748	30036.71
686.095	30026.77
686.443	29919.2
686.79	29909.71
687.138	29762.82
687.485	29831.74
687.832	29772.99
688.18	29789.71
688.527	29566.21
688.874	29603.28
689.221	29440.34
689.568	29428.82
689.915	29344.07
690.262	29309.27
690.609	29297.07
690.956	29165.09
691.303	29137.3
691.65	28970.75
691.997	28970.52
692.344	28794.71
692.69	28750.87
693.037	28670.64
693.383	28608.73
693.73	28627.03
694.077	28524.66
694.423	28445.79
694.769	28421.84
695.116	28454.6
695.462	28235.85
695.808	28132.81
696.155	28064.11
696.501	27879.7
696.847	27918.8
697.193	27680.61
697.539	27946.14
697.885	27718.13
698.231	27647.39
698.577	27612.82
698.923	27565.59
699.269	27386.84
699.614	27331.92
699.96	27334.86
700.306	27271.36
700.651	27097.35
700.997	26998.37
701.342	27015.77
701.688	26860.3
702.033	26827.53
702.379	26810.13
702.724	26771.71
703.069	26876.34
703.415	26530.14
703.76	26501.44
704.105	26496.46
704.45	26448.33
704.795	26175.79
705.14	26259.18
705.485	26231.61
705.83	26112.07
706.175	26169.47
706.52	25990.04
706.865	25916.82
707.209	25864.84
707.554	25851.28
707.899	25952.07
708.243	25551.4
708.588	25524.96
708.932	25351.41
709.277	25351.41
709.621	25475.02
709.966	25213.33
710.31	25318.64
710.654	25091.3
710.998	25183.73
711.342	25146.9
711.687	25093.34
712.031	24962.49
712.375	24967.69
712.719	24910.52
713.063	24898.99
713.407	24841.82
713.75	24697.87
714.094	24672.11
714.438	24580.58
714.782	24609.51
715.125	24458.55
715.469	24605.44
715.812	24537.87
716.156	24303.53
716.499	24351.89
716.843	24349.4
717.186	24199.8
717.53	24306.92
717.873	24270.31
718.216	24142.63
718.559	24162.74
718.902	23881.39
719.246	23878
719.589	23900.15
719.932	23716.2
720.275	23745.12
720.617	23758.23
720.96	23783.99
721.303	23770.89
721.646	23629.2
721.989	23631.45
722.331	23579.7
722.674	23595.07
723.016	23565.47
723.359	23492.02
723.701	23504.45
724.044	23372.03
724.386	23192.6
724.729	23365.02
725.071	23286.38
725.413	23331.35
725.755	23248.87
726.097	23250
726.439	22940.17
726.782	23032.83
727.124	23114.86
727.465	22993.05
727.807	23023.11
728.149	22882.1
728.491	22736.56
728.833	22871.7
729.175	22738.15
729.516	22692.5
729.858	22708.99
730.199	22653.63
730.541	22638.49
730.882	22589.22
731.224	22653.63
731.565	22574.76
731.906	22409.11
732.248	22510.81
732.589	22447.53
732.93	22322.11
733.271	22393.97
733.612	22428.1
733.953	22378.38
734.294	22231.72
734.635	22174.32
734.976	22266.07
735.317	22082.8
735.658	22097.94
735.999	22173.19
736.339	21965.06
736.68	22090.03
737.021	21967.09
737.361	21937.94
737.702	21988.11
738.042	21836.93
738.383	21913.53
738.723	21815.46
739.063	21758.06
739.404	21844.61
739.744	21774.78
740.084	21629.93
740.424	21645.74
740.764	21572.53
741.104	21691.17
741.444	21500.21
741.784	21471.06
742.124	21472.64
742.464	21452.3
742.804	21373.66
743.143	21370.72
743.483	21340.67
743.823	21219.54
744.162	21234.91
744.502	21254.57
744.841	21054.35
745.181	21212.31
745.52	21125.76
745.86	21146.55
746.199	21038.53
746.538	21002.15
746.877	21045.99
747.216	21033.56
747.556	20933.45
747.895	20936.84
748.234	20943.39
748.573	20812.32
748.911	20795.82
749.25	20664.98
749.589	20617.52
749.928	20676.5
750.267	20626.11
750.605	20559.67
750.944	20638.54
751.283	20494.81
751.621	20529.39
751.96	20385.21
752.298	20365.33
752.636	20291.88
752.975	20191.55
753.313	20276.51
753.651	20273.58
753.989	20240.58
754.327	20177.31
754.666	20009.4
755.004	20024.77
755.342	20026.35
755.679	20054.37
756.017	19876.53
756.355	19954.72
756.693	19845.79
757.031	19889.18
757.368	19687.6
757.706	19693.03
758.044	19627.94
758.381	19632.46
758.719	19492.13
759.056	19505.91
759.394	19415.75
759.731	19317.22
760.068	19298.69
760.405	19181.63
760.743	19169.88
761.08	19170.78
761.417	19060.95
761.754	19034.74
762.091	18989.09
762.428	18901.86
762.765	18881.75
763.102	18861.18
763.438	18797.23
763.775	18676.78
764.112	18595.43
764.449	18580.74
764.785	18554.07
765.122	18369.67
765.458	18330.35
765.795	18250.81
766.131	18370.8
766.467	18241.31
766.804	18134.88
767.14	18113.86
767.476	18104.59
767.812	17850.36
768.148	17934.88
768.485	17799.74
768.821	17815.11
769.157	17713.42
769.492	17703.48
769.828	17619.86
770.164	17528.79
770.5	17540.32
770.836	17457.38
771.171	17366.53
771.507	17370.83
771.842	17188.69
772.178	17166.77
772.513	17204.28
772.849	17164.28
773.184	17087.45
773.519	17010.84
773.855	16971.29
774.19	16923.61
774.525	16767.68
774.86	16859.88
775.195	16691.3
775.53	16682.49
775.865	16524.52
776.2	16456.5
776.535	16342.61
776.87	16275.26
777.205	16254.93
777.539	16165.21
777.874	16196.62
778.209	16121.37
778.543	16061.03
778.878	15952.11
779.212	15957.31
779.547	15873.92
779.881	15902.62
780.215	15795.73
780.55	15899.45
780.884	15708.5
781.218	15636.18
781.552	15691.1
781.886	15534.94
782.22	15414.5
782.554	15441.84
782.888	15303.31
783.222	15252.01
783.556	15254.5
783.889	15145.8
784.223	15076.88
784.557	15110.55
784.89	15086.37
785.224	14912.14
785.557	14849.09
785.891	14854.96
786.224	14725.93
786.558	14783.78
786.891	14678.02
787.224	14553.05
787.557	14482.99
787.891	14471.7
788.224	14474.86
788.557	14521.64
788.89	14331.81
789.223	14405.03
789.556	14306.73
789.888	14236.67
790.221	14142.21
790.554	14113.29
790.887	14000.3
791.219	14017.92
791.552	13979.05
791.884	13873.29
792.217	13845.72
792.549	13791.94
792.882	13699.74
793.214	13709.46
793.546	13748.32
793.879	13570.02
794.211	13530.25
794.543	13612.06
794.875	13504.49
795.207	13495.45
795.539	13458.16
795.871	13460.2
796.203	13337.26
796.535	13322.35
796.867	13242.8
797.198	13191.28
797.53	13277.15
797.862	13055.01
798.193	13168
798.525	13027.89
798.856	13006.65
799.188	12911.28
799.519	12858.4
799.85	12786.54
800.182	12867.9
800.513	12821.57
800.844	12661.12
801.175	12777.5
801.506	12651.63
801.837	12643.04
802.168	12612.99
802.499	12587.23
802.83	12496.61
803.161	12465.65
803.491	12420
803.822	12361.47
804.153	12376.61
804.483	12318.76
804.814	12217.52
805.145	12250.29
805.475	12221.81
805.805	12056.39
806.136	12167.8
806.466	12042.61
806.796	12131.64
807.126	12026.34
807.457	11907.02
807.787	11942.5
808.117	11975.04
808.447	11899.79
808.777	11851.43
809.107	11789.96
809.436	11880.8
809.766	11785.66
810.096	11748.38
810.426	11734.82
810.755	11664.76
811.085	11662.5
811.414	11615.5
811.744	11559
812.073	11523.52
812.403	11518.55
812.732	11473.36
813.061	11440.81
813.39	11375.28
813.719	11329.63
814.049	11438.1
814.378	11300.03
814.707	11289.18
815.036	11254.61
815.365	11229.75
815.693	11132.35
816.022	11173.25
816.351	11100.48
816.68	11080.82
817.008	11180.93
817.337	10998.11
817.665	11018.91
817.994	10999.24
818.322	10970.09
818.651	10946.14
818.979	10902.3
819.307	10998.79
819.636	10928.29
819.964	10900.26
820.292	10823.2
820.62	10940.26
820.948	10770.32
821.276	10775.3
821.604	10797.22
821.932	10824.79
822.259	10836.31
822.587	10780.04
822.915	10738.23
823.243	10769.42
823.57	10796.99
823.898	10748.63
824.225	10711.12
824.553	10716.77
824.88	10719.7
825.207	10756.77
825.535	10713.83
825.862	10754.05
826.189	10739.82
826.516	10809.42
826.843	10756.99
827.17	10737.1
827.497	10727.16
827.824	10729.87
828.151	10774.17
828.478	10769.42
828.805	10789.08
829.131	10704.56
829.458	10723.77
829.785	10665.47
830.111	10739.36
830.438	10801.96
830.764	10699.59
831.09	10708.86
831.417	10686.26
831.743	10720.38
832.069	10679.03
832.395	10703.89
832.722	10671.57
833.048	10586.83
833.374	10687.84
833.7	10589.76
834.026	10629.99
834.351	10617.56
834.677	10684.9
835.003	10626.15
835.329	10601.29
835.654	10516.09
835.98	10485.13
836.306	10577.33
836.631	10576.88
836.956	10551.35
837.282	10507.73
837.607	10449.88
837.932	10387.28
838.258	10427.06
838.583	10436.77
838.908	10355.42
839.233	10376.66
839.558	10353.16
839.883	10333.73
840.208	10280.39
840.533	10287.85
840.858	10340.5
841.182	10307.29
841.507	10301.86
841.832	10241.3
842.156	10209.66
842.481	10213.5
842.805	10175.31
843.13	10177.8
843.454	10088.76
843.778	10080.85
844.103	10080.4
844.427	10071.13
844.751	10042.66
845.075	10014.19
845.399	9995.43
845.723	9929.22
846.047	9894.19
846.371	9881.08
846.695	9836.56
847.019	9815.32
847.343	9730.35
847.666	9631.15
847.99	9667.08
848.313	9588.66
848.637	9517.02
848.96	9494.65
849.284	9546.85
849.607	9506.4
849.931	9474.54
850.254	9351.83
850.577	9325.84
850.9	9306.86
851.223	9290.82
851.546	9204.26
851.869	9192.29
852.192	9242.45
852.515	9157.03
852.838	9090.82
853.161	9087.88
853.483	9022.57
853.806	8980.54
854.129	9010.6
854.451	8918.85
854.774	8882.69
855.096	8895.57
855.419	8902.58
855.741	8890.37
856.063	8780.09
856.385	8787.33
856.708	8715.46
857.03	8699.19
857.352	8696.93
857.674	8625.97
857.996	8678.18
858.318	8596.37
858.64	8545.3
858.961	8583.04
859.283	8568.8
859.605	8578.97
859.926	8592.08
860.248	8492.42
860.57	8461.01
860.891	8484.28
861.212	8426.43
861.534	8456.03
861.855	8423.04
862.176	8411.29
862.498	8353.66
862.819	8380.33
863.14	8283.84
863.461	8302.59
863.782	8273.21
864.103	8284.97
864.424	8282.25
864.745	8199.09
865.065	8224.18
865.386	8151.41
865.707	8177.17
866.027	8114.8
866.348	8183.27
866.668	8164.06
866.989	8134.91
867.309	8128.59
867.63	8127.23
867.95	8079.1
868.27	8009.27
868.59	8042.26
868.91	8027.57
869.23	8022.15
869.55	8011.3
869.87	8008.59
870.19	8014.24
870.51	7997.06
870.83	8006.56
871.15	7979.66
871.469	8008.81
871.789	7979.89
872.109	7988.25
872.428	7929.49
872.748	7926.33
873.067	7924.3
873.386	7888.82
873.706	7881.81
874.025	7838.65
874.344	7829.38
874.663	7829.16
874.982	7739.67
875.301	7777.41
875.62	7734.47
875.939	7772.44
876.258	7773.11
876.577	7709.84
876.896	7737.64
877.214	7651.99
877.533	7668.26
877.852	7642.5
878.17	7647.47
878.489	7634.59
878.807	7673.91
879.125	7642.72
879.444	7585.1
879.762	7595.49
880.08	7569.73
880.398	7536.06
880.716	7547.58
881.034	7432.78
881.352	7495.16
881.67	7458.09
881.988	7531.54
882.306	7483.63
882.624	7478.43
882.941	7427.36
883.259	7448.6
883.577	7362.28
883.894	7393.69
884.212	7435.27
884.529	7358.44
884.846	7347.82
885.164	7318.66
885.481	7305.33
885.798	7358.66
886.115	7236.63
886.432	7253.35
886.75	7230.76
887.067	7232.11
887.383	7224.43
887.7	7210.19
888.017	7132.91
888.334	7167.48
888.651	7140.59
888.967	7111.89
889.284	7099.23
889.6	7110.76
889.917	7026.47
890.233	6984.89
890.55	6948.96
890.866	6950.54
891.182	6998.9
891.498	6915.74
891.815	6898.56
892.131	6893.36
892.447	6846.13
892.763	6845.46
893.079	6886.36
893.395	6769.98
893.71	6816.53
894.026	6765.01
894.342	6724.33
894.657	6693.82
894.973	6685.69
895.289	6679.58
895.604	6685.01
895.92	6643.65
896.235	6583.32
896.55	6613.15
896.865	6603.2
897.181	6617.66
897.496	6566.14
897.811	6509.19
898.126	6535.41
898.441	6475.52
898.756	6481.62
899.071	6487.27
899.386	6407.05
899.7	6416.31
900.015	6362.98
900.33	6315.98
900.644	6310.33
900.959	6297
901.273	6290.44
901.588	6255.87
901.902	6205.25
902.216	6183.33
902.531	6219.26
902.845	6209.54
903.159	6178.81
903.473	6139.49
903.787	6105.36
904.101	6065.82
904.415	6115.08
904.729	6108.75
905.042	6022.88
905.356	5990.56
905.67	5952.82
905.984	5963.44
906.297	5981.98
906.611	5907.4
906.924	5866.05
907.237	5889.32
907.551	5863.11
907.864	5856.56
908.177	5824.69
908.491	5831.02
908.804	5735.88
909.117	5768.87
909.43	5709.67
909.743	5658.37
910.056	5697.46
910.368	5686.39
910.681	5673.28
910.994	5548.77
911.307	5641.87
911.619	5596.9
911.932	5613.85
912.244	5515.1
912.557	5516.23
912.869	5478.03
913.181	5489.11
913.494	5400.75
913.806	5400.75
914.118	5376.57
914.43	5363.46
914.742	5363.01
915.054	5376.57
915.366	5288.89
915.678	5281.65
915.99	5299.51
916.302	5207.76
916.613	5229
916.925	5202.56
917.236	5166.18
917.548	5189.45
917.859	5150.13
918.171	5123.69
918.482	5129.79
918.794	5040.31
919.105	5078.95
919.416	4976.8
919.727	5001.66
920.038	5005.73
920.349	4942.45
920.66	4950.82
920.971	4902.46
921.282	4896.35
921.593	4857.03
921.903	4882.57
922.214	4863.13
922.525	4849.12
922.835	4831.72
923.146	4774.78
923.456	4745.85
923.767	4770.71
924.077	4708.11
924.387	4691.61
924.697	4681.9
925.008	4688.68
925.318	4650.71
925.628	4625.4
925.938	4598.28
926.248	4584.95
926.558	4604.84
926.867	4593.76
927.177	4548.11
927.487	4541.11
927.796	4521.22
928.106	4500.66
928.416	4463.82
928.725	4483.94
929.034	4442.58
929.344	4418.17
929.653	4414.11
929.962	4331.85
930.271	4377.5
930.581	4362.81
930.89	4358.52
931.199	4328.46
931.508	4313.77
931.817	4337.05
932.125	4231.51
932.434	4255.24
932.743	4248.01
933.051	4207.11
933.36	4203.49
933.669	4143.15
933.977	4195.36
934.286	4123.27
934.594	4134.79
934.902	4103.83
935.21	4103.38
935.519	4079.65
935.827	4057.96
936.135	4035.59
936.443	3974.8
936.751	3993.55
937.059	4001.69
937.367	3958.53
937.674	3976.38
937.982	3959.43
938.29	3940.45
938.597	3924.18
938.905	3852.31
939.213	3841.01
939.52	3891.86
939.827	3852.54
940.135	3826.1
940.442	3791.52
940.749	3813.67
941.056	3798.98
941.363	3758.31
941.67	3773.22
941.977	3770.73
942.284	3732.32
942.591	3707.68
942.898	3669.49
943.205	3685.31
943.511	3640.34
943.818	3622.94
944.125	3604.86
944.431	3623.39
944.738	3614.58
945.044	3572.32
945.35	3559.89
945.657	3574.58
945.963	3556.05
946.269	3522.38
946.575	3510.18
946.881	3509.05
947.187	3468.82
947.493	3444.42
947.799	3471.53
948.105	3431.99
948.41	3372.33
948.716	3356.96
949.022	3352.44
949.327	3379.33
949.633	3310.63
949.938	3321.93
950.244	3349.5
950.549	3311.99
950.854	3330.07
951.16	3332.55
951.465	3270.18
951.77	3240.58
952.075	3215.49
952.38	3242.16
952.685	3238.32
952.99	3194.48
953.294	3172.56
953.599	3221.14
953.904	3169.85
954.209	3138.21
954.513	3169.17
954.818	3116.97
955.122	3116.97
955.426	3085.78
955.731	3087.36
956.035	3068.61
956.339	3094.37
956.643	3062.73
956.948	3048.95
957.252	3048.95
957.556	3044.88
957.86	3028.38
958.163	3022.96
958.467	2958.55
958.771	2925.11
959.075	2996.52
959.378	2926.46
959.682	2923.52
959.985	2888.5
960.289	2893.02
960.592	2876.52
960.896	2845.11
961.199	2844.66
961.502	2832
961.805	2857.76
962.108	2792.45
962.411	2806.47
962.714	2810.76
963.017	2771.89
963.32	2788.84
963.623	2794.26
963.926	2744.09
964.228	2734.15
964.531	2739.12
964.833	2717.43
965.136	2702.74
965.438	2693.93
965.741	2672.68
966.043	2659.35
966.345	2647.37
966.648	2683.31
966.95	2632.69
967.252	2643.53
967.554	2642.18
967.856	2647.6
968.158	2588.62
968.46	2575.29
968.761	2579.58
969.063	2575.51
969.365	2557.21
969.666	2527.15
969.968	2529.18
970.269	2527.6
970.571	2542.07
970.872	2488.51
971.174	2465.01
971.475	2491.22
971.776	2486.47
972.077	2459.58
972.378	2455.97
972.679	2417.55
972.98	2453.71
973.281	2426.36
973.582	2430.2
973.883	2434.05
974.183	2414.39
974.484	2380.49
974.785	2375.29
975.085	2366.93
975.386	2318.34
975.686	2328.96
975.986	2339.81
976.287	2345.23
976.587	2298
976.887	2312.02
977.187	2285.12
977.487	2299.59
977.787	2281.28
978.087	2283.09
978.387	2252.36
978.687	2269.3
978.987	2237.22
979.286	2227.95
979.586	2210.1
979.885	2201.28
980.185	2164.45
980.484	2187.72
980.784	2189.53
981.083	2183.88
981.382	2175.75
981.682	2167.61
981.981	2091.46
982.28	2132.59
982.579	2127.84
982.878	2125.81
983.177	2111.34
983.475	2127.16
983.774	2073.15
984.073	2110.44
984.372	2114.73
984.67	2075.64
984.969	2045.81
985.267	2040.38
985.566	2026.37
985.864	2017.56
986.162	2041.97
986.461	2025.47
986.759	1991.57
987.057	1980.72
987.355	1978.69
987.653	1983.21
987.951	1985.7
988.249	1940.05
988.547	1949.09
988.844	1942.76
989.142	1957.45
989.44	1913.16
989.737	1933.49
990.035	1908.41
990.332	1873.16
990.63	1872.93
990.927	1888.52
991.224	1865.47
991.521	1869.77
991.819	1847.85
992.116	1846.72
992.413	1850.11
992.71	1829.32
993.006	1805.59
993.303	1825.7
993.6	1842.88
993.897	1801.29
994.193	1799.03
994.49	1776.21
994.787	1766.04
995.083	1774.63
995.379	1778.02
995.676	1756.1
995.972	1753.39
996.268	1737.12
996.565	1730.79
996.861	1706.38
997.157	1705.7
997.453	1698.92
997.749	1710.22
998.044	1695.76
998.34	1694.86
998.636	1678.81
998.932	1636.33
999.227	1642.43
999.523	1666.83
999.818	1632.03
1000.114	1649.66
1000.409	1638.59
1000.704	1613.95
1001	1594.75
1001.295	1613.05
1001.59	1593.62
1001.885	1618.93
1002.18	1558.81
1002.475	1576.44
1002.77	1579.38
1003.065	1545.71
1003.359	1537.57
1003.654	1554.52
1003.949	1549.1
1004.243	1539.61
1004.538	1498.7
1004.832	1502.32
1005.127	1489.44
1005.421	1503.45
1005.715	1474.75
1006.009	1455.99
1006.304	1453.28
1006.598	1470.23
1006.892	1482.21
1007.186	1434.07
1007.48	1441.08
1007.773	1460.96
1008.067	1453.06
1008.361	1396.33
1008.655	1395.66
1008.948	1394.75
1009.242	1403.11
1009.535	1392.49
1009.829	1368.99
1010.122	1372.15
1010.415	1387.29
1010.708	1352.94
1011.001	1353.85
1011.295	1331.7
1011.588	1353.17
1011.881	1332.15
1012.173	1336
1012.466	1339.61
1012.759	1327.86
1013.052	1312.95
1013.344	1338.71
1013.637	1293.74
1013.93	1292.38
1014.222	1277.24
1014.514	1270.01
1014.807	1252.38
1015.099	1231.37
1015.391	1237.02
1015.683	1236.56
1015.976	1224.81
1016.268	1215.77
1016.56	1210.58
1016.851	1219.16
1017.143	1218.71
1017.435	1209.22
1017.727	1195.43
1018.018	1177.13
1018.31	1189.11
1018.602	1180.29
1018.893	1187.3
1019.185	1162.67
1019.476	1116.79
1019.767	1155.66
1020.058	1131.48
1020.35	1108.43
1020.641	1112.72
1020.932	1121.09
1021.223	1107.08
1021.514	1107.98
1021.804	1096
1022.095	1075.21
1022.386	1079.96
1022.677	1075.66
1022.967	1054.2
1023.258	1072.27
1023.548	1047.42
1023.839	1030.92
1024.129	1034.76
1024.419	1053.52
1024.709	1002.67
1025	1042.44
1025.29	1033.41
1025.58	1044.25
1025.87	1014.87
1026.16	1015.1
1026.449	994.76
1026.739	997.7
1027.029	992.5
1027.319	987.08
1027.608	982.11
1027.898	978.72
1028.187	959.73
1028.477	957.02
1028.766	956.8
1029.055	954.54
1029.344	949.34
1029.634	914.31
1029.923	936.23
1030.212	930.36
1030.501	913.86
1030.79	904.14
1031.078	907.76
1031.367	887.19
1031.656	897.36
1031.945	879.06
1032.233	882.67
1032.522	882.45
1032.81	858.49
1033.099	860.98
1033.387	865.5
1033.675	862.34
1033.963	854.43
1034.251	857.14
1034.54	848.55
1034.828	849
1035.116	837.7
1035.403	825.05
1035.691	851.49
1035.979	821.66
1036.267	835.9
1036.554	851.04
1036.842	809.91
1037.129	804.03
1037.417	786.86
1037.704	787.31
1037.992	789.57
1038.279	765.84
1038.566	791.38
1038.853	791.38
1039.14	791.38
