Data from White_paper_FLMS001491_073.txt Node
Date: Tue Feb 07 10:35:32 GMT 2017
User: dcchb
Spectrometer: FLMS00149
Trigger mode: 0
Integration Time (sec): 2.000000E-2
Scans to average: 10
Electric dark correction enabled: true
Nonlinearity correction enabled: false
Boxcar width: 0
XAxis mode: Wavelengths
Number of Pixels in Spectrum: 2048
>>>>>Begin Spectral Data<<<<<
341.393	-8.01
341.776	-8.01
342.16	-8.01
342.543	-53.88
342.927	-69.7
343.31	-69.25
343.693	-80.32
344.077	-65.86
344.46	-71.06
344.843	-53.2
345.226	-38.74
345.61	-21.12
345.993	-23.83
346.376	0.35
346.759	20.69
347.142	17.08
347.525	55.49
347.908	64.98
348.291	76.74
348.674	85.1
349.057	102.95
349.44	125.77
349.823	145.21
350.206	163.74
350.588	219.1
350.971	232.44
351.354	243.51
351.737	269.05
352.119	302.04
352.502	287.13
352.884	309.95
353.267	304.98
353.65	319.89
354.032	321.02
354.414	345.65
354.797	355.37
355.179	356.73
355.562	359.44
355.944	341.14
356.326	357.86
356.709	375.03
357.091	364.41
357.473	389.5
357.855	378.87
358.238	385.43
358.62	382.04
359.002	370.29
359.384	366.9
359.766	385.2
360.148	372.09
360.53	385.43
360.912	360.34
361.294	350.4
361.676	354.47
362.057	379.78
362.439	357.63
362.821	382.72
363.203	402.38
363.584	361.93
363.966	373
364.348	383.85
364.729	366.22
365.111	332.32
365.493	371.64
365.874	359.67
366.256	372.55
366.637	358.99
367.019	348.14
367.4	365.54
367.781	341.59
368.163	360.12
368.544	361.02
368.925	370.06
369.306	368.7
369.688	363.73
370.069	364.86
370.45	393.11
370.831	364.64
371.212	355.82
371.593	388.59
371.974	375.26
372.355	358.99
372.736	390.4
373.117	398.76
373.498	391.3
373.879	385.43
374.26	391.08
374.641	367.35
375.021	384.07
375.402	393.79
375.783	381.59
376.163	411.87
376.544	410.06
376.925	405.77
377.305	395.82
377.686	387.24
378.066	396.73
378.447	395.6
378.827	403.51
379.208	386.78
379.588	411.19
379.968	415.26
380.349	392.43
380.729	405.77
381.109	412.09
381.489	422.04
381.87	421.81
382.25	431.53
382.63	431.08
383.01	403.51
383.39	423.84
383.77	436.95
384.15	444.41
384.53	449.83
384.91	427.91
385.29	467.91
385.67	433.11
386.049	449.38
386.429	468.14
386.809	471.53
387.189	462.71
387.568	481.24
387.948	497.29
388.328	488.93
388.707	469.27
389.087	475.37
389.466	497.52
389.846	495.93
390.225	494.13
390.605	495.26
390.984	522.83
391.363	499.55
391.743	510.17
392.122	521.47
392.501	529.38
392.881	537.51
393.26	543.16
393.639	546.33
394.018	533.22
394.397	563.73
394.776	545.65
395.155	543.62
395.534	577.29
395.913	596.04
396.292	577.51
396.671	570.73
397.05	584.52
397.429	595.37
397.808	593.33
398.186	608.7
398.565	624.29
398.944	617.29
399.323	635.14
399.701	618.19
400.08	658.41
400.458	640.34
400.837	639.88
401.215	680.79
401.594	672.43
401.972	689.83
402.351	685.76
402.729	694.8
403.107	703.84
403.486	728.92
403.864	700.45
404.242	725.53
404.62	761.01
404.999	791.97
405.377	792.42
405.755	789.26
406.133	827.9
406.511	835.81
406.889	841.46
407.267	859.54
407.645	883.27
408.023	892.31
408.401	932.31
408.779	955.58
409.156	967.11
409.534	997.62
409.912	985.64
410.29	1049.14
410.667	1065.64
411.045	1074.45
411.422	1113.54
411.8	1124.17
412.178	1173.88
412.555	1182.69
412.933	1209.81
413.31	1244.84
413.687	1257.27
414.065	1295.91
414.442	1321.22
414.819	1333.2
415.197	1384.95
415.574	1428.11
415.951	1461.56
416.328	1459.52
416.705	1460.65
417.082	1493.2
417.46	1533.19
417.837	1576.13
418.214	1627.65
418.591	1622.23
418.967	1656.13
419.344	1666.98
419.721	1720.31
420.098	1688.67
420.475	1765.73
420.852	1800.08
421.228	1796.69
421.605	1810.47
421.982	1842.11
422.358	1875.33
422.735	1914.43
423.111	1927.08
423.488	1937.48
423.864	1961.21
424.241	2026.97
424.617	2033.29
424.994	2027.42
425.37	2088.43
425.746	2115.1
426.123	2134.76
426.499	2183.12
426.875	2175.66
427.251	2236.23
427.627	2280.52
428.003	2339.73
428.379	2351.93
428.756	2365.26
429.132	2425.37
429.507	2477.58
429.883	2458.59
430.259	2532.72
430.635	2564.35
431.011	2546.73
431.387	2666.05
431.763	2690.23
432.138	2707.4
432.514	2765.48
432.89	2755.53
433.265	2815.87
433.641	2844.57
434.016	2884.35
434.392	2964.12
434.767	3012.03
435.143	3005.92
435.518	3056.77
435.894	3110.55
436.269	3169.08
436.644	3200.27
437.02	3215.86
437.395	3203.21
437.77	3311.9
438.145	3314.39
438.52	3360.94
438.895	3419.02
439.271	3418.57
439.646	3482.3
440.021	3506.93
440.395	3515.97
440.77	3539.24
441.145	3554.84
441.52	3616.08
441.895	3637.77
442.27	3682.06
442.645	3672.57
443.019	3711.67
443.394	3746.24
443.769	3805
444.143	3753.02
444.518	3817.65
444.892	3796.19
445.267	3876.41
445.641	3891.55
446.016	3880.03
446.39	3913.47
446.764	3975.84
447.139	3941.04
447.513	3990.53
447.887	4019.46
448.262	4064.2
448.636	4056.52
449.01	4117.31
449.384	4186.46
449.758	4131.09
450.132	4224.87
450.506	4259.45
450.88	4257.42
451.254	4291.54
451.628	4340.13
452.002	4377.64
452.376	4372.44
452.75	4473
453.123	4467.35
453.497	4524.08
453.871	4626.45
454.244	4673
454.618	4708.93
454.992	4799.55
455.365	4793.45
455.739	4912.09
456.112	4966.78
456.486	5019.66
456.859	5016.72
457.232	5193.66
457.606	5121.35
457.979	5215.13
458.352	5306.88
458.725	5358.18
459.099	5384.39
459.472	5523.6
459.845	5509.13
460.218	5555.01
460.591	5680.66
460.964	5651.28
461.337	5825.96
461.71	5915
462.083	5971.5
462.456	6030.03
462.829	6006.52
463.201	6132.62
463.574	6211.94
463.947	6252.17
464.32	6401.99
464.692	6479.05
465.065	6506.62
465.438	6607.64
465.81	6738.71
466.183	6726.96
466.555	6930.57
466.928	6881.53
467.3	6886.27
467.672	7110.9
468.045	7216.89
468.417	7318.35
468.789	7293.04
469.161	7497.33
469.534	7586.37
469.906	7751.34
470.278	7798.34
470.65	7860.71
471.022	8069.07
471.394	8204.66
471.766	8202.4
472.138	8391.32
472.51	8538.43
472.882	8597.19
473.253	8700.69
473.625	8831.76
473.997	9003.73
474.369	9127.12
474.74	9198.98
475.112	9318.53
475.484	9558.29
475.855	9679.65
476.227	9735.69
476.598	10000.54
476.97	10123.93
477.341	10315.34
477.713	10465.16
478.084	10588.1
478.455	10894.08
478.827	10918.03
479.198	11297.23
479.569	11251.13
479.94	11558.47
480.311	11680.95
480.682	11863.77
481.053	12226.25
481.424	12416.98
481.795	12484.09
482.166	12719.34
482.537	12933.57
482.908	13077.3
483.279	13245.88
483.65	13542.14
484.021	13680.67
484.391	13873.43
484.762	14059.87
485.133	14150.94
485.503	14232.07
485.874	14691.04
486.244	14766.97
486.615	15059.17
486.985	15247.41
487.356	15498.25
487.726	15542.54
488.097	15980.95
488.467	16018.46
488.837	16353.6
489.207	16419.58
489.578	16690.31
489.948	16885.11
490.318	17064.76
490.688	17201.26
491.058	17439.67
491.428	17598.99
491.798	17824.29
492.168	18062.7
492.538	18184.06
492.908	18460.21
493.278	18695.68
493.648	18653.2
494.017	18942.45
494.387	19108.55
494.757	19310.58
495.126	19502.67
495.496	19517.58
495.866	19703.56
496.235	19884.58
496.605	19968.64
496.974	20069.66
497.344	20374.73
497.713	20339.93
498.082	20569.76
498.452	20897.2
498.821	20877.77
499.19	21062.85
499.559	21185.33
499.928	21357.31
500.298	21455.83
500.667	21591.42
501.036	21696.05
501.405	21826.45
501.774	21944.18
502.143	22154.35
502.512	22248.58
502.88	22437.96
503.249	22541.46
503.618	22659.64
503.987	22860.99
504.356	22908.68
504.724	22993.19
505.093	23150.93
505.462	23256.46
505.83	23387.08
506.199	23608.09
506.567	23912.94
506.936	23940.97
507.304	24169.66
507.672	24295.99
508.041	24505.47
508.409	24565.36
508.777	24729.42
509.145	24907.04
509.514	25041.05
509.882	25176.41
510.25	25228.62
510.618	25399.01
510.986	25523.52
511.354	25777.98
511.722	25892.33
512.09	26292.54
512.458	26179.33
512.826	26430.39
513.193	26542.25
513.561	26616.38
513.929	27001
514.297	27134.33
514.664	27415.9
515.032	27418.62
515.4	27599.4
515.767	27732.28
516.135	27883.46
516.502	27803.69
516.869	28268.08
517.237	28367.74
517.604	28405.71
517.972	28659.03
518.339	28803.44
518.706	28860.16
519.073	29171.11
519.44	29363.42
519.808	29677.09
520.175	29628.73
520.542	30075.49
520.909	30129.5
521.276	30185.1
521.643	30625.54
522.009	30746.44
522.376	30933.33
522.743	31097.39
523.11	31481.56
523.477	31722.46
523.843	31806.07
524.21	32274.98
524.577	32433.85
524.943	32547.97
525.31	32777.12
525.676	33058.01
526.043	33264.56
526.409	33353.6
526.776	33761.95
527.142	33669.98
527.508	33981.38
527.874	34283.52
528.241	34420.92
528.607	34396.51
528.973	34732.55
529.339	34919.21
529.705	35123.05
530.071	35350.38
530.437	35493.43
530.803	35884.61
531.169	36058.84
531.535	36090.25
531.901	36103.36
532.267	36400.07
532.632	36712.61
532.998	36698.82
533.364	36920.96
533.73	37143.78
534.095	37299.94
534.461	37521.4
534.826	37647.95
535.192	37660.83
535.557	37929.3
535.923	38129.52
536.288	38252.23
536.653	38475.05
537.019	38249.97
537.384	38425.33
537.749	38807.69
538.114	38805.21
538.479	38963.62
538.845	39197.97
539.21	39160.68
539.575	39300.34
539.94	39454.23
540.305	39678.41
540.67	39638.18
541.034	39866.2
541.399	39984.61
541.764	39986.65
542.129	40372.17
542.494	40361.55
542.858	40614.2
543.223	40704.59
543.587	40881.31
543.952	40903.01
544.316	41032.72
544.681	41104.13
545.045	41335.99
545.41	41527.85
545.774	41710.44
546.138	41801.51
546.503	41757
546.867	41836.77
547.231	42223.2
547.595	42315.17
547.959	42399.69
548.324	42557.2
548.688	42599.23
549.052	42804.88
549.416	42845.55
549.779	42966.45
550.143	43056.62
550.507	43385.88
550.871	43407.35
551.235	43378.87
551.599	43732.99
551.962	43602.37
552.326	43961.23
552.689	44195.35
553.053	44040.78
553.417	44147.21
553.78	44688.67
554.143	44476.02
554.507	44796.46
554.87	44932.73
555.234	45247.52
555.597	45106.06
555.96	45201.65
556.323	45501.98
556.686	45417.69
557.05	45886.38
557.413	45939.48
557.776	45860.62
558.139	46202.08
558.502	46360.94
558.865	46377.21
559.228	46661.27
559.59	46733.14
559.953	46830.99
560.316	47264.87
560.679	47241.6
561.041	47520.46
561.404	47618.76
561.767	47841.13
562.129	47734.24
562.492	48232.53
562.854	48247.22
563.217	48234.11
563.579	48449.25
563.941	48598.85
564.304	48789.13
564.666	49001.78
565.028	49055.33
565.39	49261.88
565.753	49450.35
566.115	49519.73
566.477	49754.3
566.839	49825.94
567.201	50001.75
567.563	50152.48
567.925	50348.41
568.287	50330.1
568.648	50457.78
569.01	50582.75
569.372	50827.94
569.734	50721.96
570.095	51025.9
570.457	51205.79
570.819	51344.31
571.18	51329.17
571.542	51479.45
571.903	51491.88
572.265	51568.26
572.626	51761.93
572.987	51842.61
573.349	51850.74
573.71	52063.39
574.071	52165.99
574.432	52210.28
574.794	52454.12
575.155	52420.44
575.516	52344.74
575.877	52505.64
576.238	52688.46
576.599	52695.24
576.96	52716.03
577.32	52799.64
577.681	52951.96
578.042	52975.01
578.403	53018.17
578.763	53072.4
579.124	53148.33
579.485	53365.96
579.845	53273.3
580.206	53207.54
580.566	53417.71
580.927	53346.3
581.287	53490.02
581.648	53478.27
582.008	53592.39
582.368	53557.14
582.728	53694.08
583.089	53539.74
583.449	53645.72
583.809	53739.05
584.169	53716.91
584.529	53750.13
584.889	53986.05
585.249	53717.36
585.609	53540.64
585.969	53847.98
586.329	53838.71
586.688	53901.08
587.048	53946.28
587.408	53802.1
587.768	53951.7
588.127	53965.04
588.487	53853.17
588.846	54036.22
589.206	53930.69
589.565	53916.68
589.925	54057.01
590.284	54042.55
590.643	54088.65
591.003	54139.72
591.362	54190.11
591.721	54166.39
592.08	54172.49
592.44	54219.94
592.799	54217.91
593.158	54266.5
593.517	54225.14
593.876	54273.05
594.235	54265.37
594.593	54249.55
594.952	54352.14
595.311	54340.62
595.67	54448.64
596.029	54498.58
596.387	54478.47
596.746	54651.57
597.104	54519.15
597.463	54488.64
597.822	54525.93
598.18	54436.66
598.538	54453.38
598.897	54660.16
599.255	54367.96
599.613	54813.38
599.972	54692.02
600.33	54741.06
600.688	54646.6
601.046	54744.68
601.404	54855.63
601.762	54716.2
602.12	54869.19
602.478	54854.05
602.836	54918.68
603.194	54697.9
603.552	54859.7
603.91	54756.88
604.268	54949.42
604.625	54793.49
604.983	54983.09
605.341	54894.5
605.698	54872.58
606.056	54999.36
606.413	54982.41
606.771	55125.68
607.128	55098.57
607.485	55010.66
607.843	55031.45
608.2	55131.78
608.557	55301.05
608.914	55201.39
609.272	55348.73
609.629	55368.39
609.986	55364.1
610.343	55314.38
610.7	55463.75
611.057	55410.42
611.414	55407.03
611.771	55427.14
612.127	55568.38
612.484	55561.15
612.841	55657.42
613.198	55479.35
613.554	55593.02
613.911	55671.21
614.267	55643.41
614.624	55607.93
614.98	55670.53
615.337	55778.55
615.693	55672.34
616.05	55616.29
616.406	55891.09
616.762	55682.96
617.118	55774.71
617.475	55694.26
617.831	55855.61
618.187	55879.56
618.543	55870.97
618.899	56048.37
619.255	55981.71
619.611	55952.33
619.967	56077.3
620.323	56016.96
620.678	55963.85
621.034	55893.12
621.39	55946.23
621.746	55877.53
622.101	56139.44
622.457	56011.99
622.812	56065.09
623.168	56168.37
623.523	56154.58
623.879	56157.97
624.234	55991.2
624.589	56015.38
624.945	56089.05
625.3	56125.66
625.655	56109.16
626.01	56109.61
626.365	56166.11
626.72	55995.94
627.075	56083.85
627.43	56138.54
627.785	56056.73
628.14	56123.17
628.495	56127.46
628.85	56059.67
629.205	56072.78
629.559	56214.47
629.914	56045.43
630.269	56084.08
630.623	56049.05
630.978	56023.29
631.332	56135.15
631.687	56133.79
632.041	56057.18
632.396	56150.29
632.75	55918.66
633.104	55993.68
633.459	55921.82
633.813	55939
634.167	55903.74
634.521	55873.01
634.875	55932.89
635.229	55885.44
635.583	55806.12
635.937	55803.63
636.291	55811.09
636.645	55766.8
636.999	55750.53
637.352	55855.83
637.706	55621.72
638.06	55785.55
638.413	55789.62
638.767	55593.92
639.121	55683.86
639.474	55498.78
639.828	55623.3
640.181	55587.37
640.534	55643.18
640.888	55593.24
641.241	55402.51
641.594	55525.67
641.947	55538.33
642.301	55488.16
642.654	55535.39
643.007	55434.6
643.36	55476.86
643.713	55432.57
644.066	55528.61
644.419	55277.09
644.771	55115.51
645.124	54948.51
645.477	54837.33
645.83	54704.68
646.182	54527.51
646.535	54499.94
646.888	54516.43
647.24	54440.73
647.593	54599.14
647.945	54458.36
648.298	54370.22
648.65	54401.86
649.002	54271.02
649.355	54467.62
649.707	54333.61
650.059	54486.83
650.411	54774.28
650.763	54872.36
651.115	55174.04
651.467	55037.32
651.819	54990.55
652.171	54969.3
652.523	54903.99
652.875	54922.07
653.227	54755.52
653.578	54988.29
653.93	54921.62
654.282	54866.48
654.633	54784.68
654.985	54827.84
655.337	54857.89
655.688	54900.38
656.039	54909.64
656.391	54629.65
656.742	54708.75
657.094	54679.82
657.445	54833.26
657.796	54703.32
658.147	54652.25
658.498	54697.67
658.849	54744.45
659.2	54703.55
659.551	54646.37
659.902	54754.17
660.253	54583.32
660.604	54668.07
660.955	54569.31
661.306	54638.24
661.656	54613.15
662.007	54589.43
662.358	54585.36
662.708	54565.02
663.059	54616.77
663.409	54442.76
663.76	54632.14
664.11	54609.99
664.461	54615.87
664.811	54619.26
665.161	54551.91
665.511	54439.6
665.862	54452.71
666.212	54509.2
666.562	54520.05
666.912	54477.34
667.262	54433.95
667.612	54464.68
667.962	54407.51
668.312	54322.09
668.662	54464.01
669.011	54365.7
669.361	54358.47
669.711	54190.79
670.06	54215.42
670.41	54252.71
670.76	54143.79
671.109	54283.9
671.459	54198.48
671.808	54082.55
672.157	54154.41
672.507	53980.63
672.856	54015.88
673.205	53992.15
673.554	54192.6
673.904	54014.53
674.253	54259.27
674.602	54031.25
674.951	53586.06
675.3	53408.89
675.649	53997.35
675.998	53915.09
676.346	53831.48
676.695	53936.79
677.044	53795.77
677.393	53809.79
677.741	53838.71
678.09	53709.22
678.438	53739.05
678.787	53770.46
679.135	53695.21
679.484	53506.52
679.832	53516.91
680.181	53443.47
680.529	53502.45
680.877	53379.29
681.225	53432.17
681.573	53516.23
681.922	53299.74
682.27	53172.74
682.618	53202.12
682.966	53102.01
683.314	53193.98
683.661	53071.05
684.009	52947.21
684.357	52899.3
684.705	52882.58
685.053	52790.38
685.4	52773.2
685.748	52630.61
686.095	52575.02
686.443	52488.46
686.79	52435.13
687.138	52447.11
687.485	52413.44
687.832	52258.41
688.18	52304.97
688.527	52117.63
688.874	52053.22
689.221	52031.75
689.568	51898.2
689.915	51780.69
690.262	51857.52
690.609	51693.23
690.956	51625.66
691.303	51590.86
691.65	51351.55
691.997	51398.32
692.344	51174.15
692.69	51226.58
693.037	51187.26
693.383	50943.87
693.73	51049.18
694.077	50871.78
694.423	50794.72
694.769	50664.33
695.116	50662.07
695.462	50469.53
695.808	50452.13
696.155	50463.43
696.501	50275.64
696.847	50203.55
697.193	50088.3
697.539	50102.99
697.885	49760.17
698.231	49788.2
698.577	49681.76
698.923	49632.49
699.269	49472.5
699.614	49343.24
699.96	49153.86
700.306	49202.45
700.651	49113.64
700.997	49026.18
701.342	48959.74
701.688	48952.74
702.033	48760.65
702.379	48728.79
702.724	48619.64
703.069	48692.18
703.415	48148.01
703.76	48223.04
704.105	48207
704.45	48027.56
704.795	47979.2
705.14	47847.68
705.485	47784.86
705.83	47595.03
706.175	47626.22
706.52	47567.69
706.865	47461.93
707.209	47429.61
707.554	47194.14
707.899	47304.19
708.243	47005.67
708.588	47003.19
708.932	46835.73
709.277	46847.03
709.621	46654.27
709.966	46493.14
710.31	46596.64
710.654	46247.5
710.998	46388.74
711.342	46482.52
711.687	46274.62
712.031	46033.72
712.375	46028.75
712.719	46075.53
713.063	45866.27
713.407	45976.55
713.75	45749.66
714.094	45763.44
714.438	45608.87
714.782	45690.45
715.125	45411.81
715.469	45508.31
715.812	45273.29
716.156	45094.08
716.499	45042.56
716.843	45183.8
717.186	44845.73
717.53	45063.57
717.873	44901.77
718.216	44914.88
718.559	44781.55
718.902	44444.61
719.246	44572.74
719.589	44425.63
719.932	44332.29
720.275	44269.25
720.617	44249.81
720.96	44117.84
721.303	44190.38
721.646	44078.52
721.989	43769.37
722.331	43997.84
722.674	43739.77
723.016	43941.57
723.359	43747.45
723.701	43779.99
724.044	43402.83
724.386	43165.77
724.729	43400.12
725.071	43396.05
725.413	43204.64
725.755	43109.28
726.097	43029.28
726.439	42912.45
726.782	43064.53
727.124	43250.52
727.465	42774.14
727.807	42795.39
728.149	42836.74
728.491	42569.4
728.833	42672
729.175	42425.9
729.516	42428.62
729.858	42431.33
730.199	42333.48
730.541	42479.24
730.882	42199.02
731.224	42389.3
731.565	42052.58
731.906	42148.85
732.248	42217.32
732.589	42006.93
732.93	41880.38
733.271	41876.54
733.612	41934.39
733.953	41819.59
734.294	41860.04
734.635	41528.98
734.976	41656.21
735.317	41379.83
735.658	41392.94
735.999	41346.16
736.339	41296.89
736.68	41459.15
737.021	41211.25
737.361	41003.34
737.702	41326.95
738.042	41150.46
738.383	41057.35
738.723	41158.82
739.063	40941.65
739.404	41132.83
739.744	40941.88
740.084	40795.21
740.424	40807.87
740.764	40628.89
741.104	40752.95
741.444	40512.51
741.784	40427.99
742.124	40488.33
742.464	40414.88
742.804	40458.72
743.143	40293.53
743.483	40287.2
743.823	40112.52
744.162	40097.15
744.502	40148.22
744.841	39957.95
745.181	40139.64
745.52	39855.8
745.86	40026.65
746.199	39753.43
746.538	39707.78
746.877	39802.7
747.216	39740.78
747.556	39663.94
747.895	39703.72
748.234	39350.5
748.573	39268.7
748.911	39468.02
749.25	39408.81
749.589	39153
749.928	39154.58
750.267	39160.91
750.605	39133.34
750.944	39195.93
751.283	38835.94
751.621	38903.06
751.96	38691.99
752.298	38724.76
752.636	38728.83
752.975	38558.44
753.313	38335.16
753.651	38601.6
753.989	38308.72
754.327	38186.24
754.666	37977.21
755.004	38207.26
755.342	38234.83
755.679	38225.56
756.017	37901.96
756.355	37889.3
756.693	37544.68
757.031	37643.66
757.368	37521.4
757.706	37492.93
758.044	37407.05
758.381	37322.99
758.719	37234.18
759.056	37376.77
759.394	37153.27
759.731	36794.41
760.068	36765.26
760.405	36809.1
760.743	36619.96
761.08	36504.03
761.417	36460.19
761.754	36382.9
762.091	36320.98
762.428	36149.23
762.765	35944.04
763.102	36151.94
763.438	36020.42
763.775	35691.39
764.112	35804.38
764.449	35720.77
764.785	35528.91
765.122	35307.67
765.458	35223.61
765.795	35125.76
766.131	35056.38
766.467	34902.49
766.804	34754.47
767.14	34705.88
767.476	34686.9
767.812	34560.12
768.148	34685.54
768.485	34324.42
768.821	34236.74
769.157	34144.77
769.492	34021.61
769.828	33859.8
770.164	33732.8
770.5	33682.18
770.836	33627.04
771.171	33382.07
771.507	33312.02
771.842	33041.29
772.178	33206.03
772.513	33036.77
772.849	32923.33
773.184	32743.9
773.519	32834.29
773.855	32607.18
774.19	32510.46
774.525	32425.49
774.86	32324.02
775.195	32348.88
775.53	32093.07
775.865	31852.62
776.2	31798.61
776.535	31634.1
776.87	31562.01
777.205	31370.83
777.539	31441.56
777.874	31328.34
778.209	31079.31
778.543	30938.75
778.878	30737.62
779.212	30864.63
779.547	30604.07
779.881	30683.39
780.215	30456.5
780.55	30464.86
780.884	30296.96
781.218	30211.31
781.552	30218.09
781.886	30044.99
782.22	29882.73
782.554	29717.31
782.888	29467.37
783.222	29489.3
783.556	29279.36
783.889	29175.41
784.223	29005.24
784.557	29034.84
784.89	29153.03
785.224	28840.27
785.557	28721.41
785.891	28758.69
786.224	28602.09
786.558	28547.4
786.891	28351.02
787.224	28224.7
787.557	28172.72
787.891	28142.44
788.224	28134.3
788.557	27987.19
788.89	27872.61
789.223	27798.72
789.556	27567.54
789.888	27592.4
790.221	27509.69
790.554	27190.37
790.887	27147.66
791.219	27161.22
791.552	27221.33
791.884	26956.93
792.217	26864.96
792.549	26744.96
792.882	26639.88
793.214	26568.92
793.546	26519.43
793.879	26294.8
794.211	26265.43
794.543	26371.64
794.875	26241.02
795.207	26209.16
795.539	26048.48
795.871	26096.62
796.203	25823.85
796.535	25719.22
796.867	25647.36
797.198	25527.82
797.53	25577.31
797.862	25389.74
798.193	25337.54
798.525	25295.96
798.856	25332.34
799.188	24971.45
799.519	24879.02
799.85	24702.53
800.182	24847.84
800.513	24809.64
800.844	24671.79
801.175	24704.56
801.506	24675.64
801.837	24448.98
802.168	24442.2
802.499	24258.92
802.83	24256.89
803.161	24190.68
803.491	24195.2
803.822	24118.81
804.153	24004.69
804.483	23808.54
804.814	23784.59
805.145	23733.97
805.475	23722.22
805.805	23633.4
806.136	23616.91
806.466	23565.84
806.796	23477.93
807.126	23257.37
807.457	23307.99
807.787	23323.36
808.117	23120.65
808.447	23100.31
808.777	23091.5
809.107	22992.74
809.436	22931.05
809.766	22935.34
810.096	22824.61
810.426	22734.44
810.755	22724.73
811.085	22660.32
811.414	22501.68
811.744	22410.39
812.073	22350.27
812.403	22429.59
812.732	22303.04
813.061	22323.61
813.39	22073.45
813.719	21964.97
814.049	22173.33
814.378	22019.89
814.707	21968.36
815.036	21874.13
815.365	21778.54
815.693	21651.54
816.022	21626.9
816.351	21618.77
816.68	21421.94
817.008	21588.26
817.337	21355.72
817.665	21352.11
817.994	21420.81
818.322	21373.58
818.651	21240.92
818.979	21083.87
819.307	21241.38
819.636	21154.37
819.964	21070.76
820.292	21136.52
820.62	21050.2
820.948	20953.93
821.276	21134.49
821.604	20962.74
821.932	21034.6
822.259	20921.84
822.587	20936.75
822.915	20884.32
823.243	20971.1
823.57	20890.43
823.898	20977.88
824.225	20748.06
824.553	20939.46
824.88	20832.57
825.207	21024.21
825.535	20907.15
825.862	20953.93
826.189	20767.04
826.516	20974.04
826.843	20986.24
827.17	20836.87
827.497	20927.71
827.824	20874.61
828.151	20842.06
828.478	20829.41
828.805	20993.47
829.131	20812.69
829.458	20834.38
829.785	20674.39
830.111	20860.14
830.438	20814.27
830.764	20800.03
831.09	20817.43
831.417	20631.45
831.743	20783.31
832.069	20769.75
832.395	20604.56
832.722	20753.03
833.048	20654.95
833.374	20737.43
833.7	20526.37
834.026	20574.5
834.351	20611.11
834.677	20588.06
835.003	20679.13
835.329	20576.31
835.654	20533.37
835.98	20378.12
836.306	20386.26
836.631	20252.48
836.956	20395.75
837.282	20499.25
837.607	20224.68
837.932	20290.89
838.258	20278.01
838.583	20168.18
838.908	20083.44
839.233	20136.55
839.558	20124.8
839.883	20008.41
840.208	19964.12
840.533	20040.5
840.858	19968.42
841.182	19979.94
841.507	19938.59
841.832	19835.09
842.156	19739.72
842.481	19891.81
842.805	19739.04
843.13	19628.31
843.454	19613.62
843.778	19466.73
844.103	19494.08
844.427	19565.49
844.751	19426.96
845.075	19454.76
845.399	19372.27
845.723	19289.79
846.047	19240.53
846.371	19080.98
846.695	19051.15
847.019	18910.14
847.343	18868.33
847.666	18745.85
847.99	18577.72
848.313	18660.65
848.637	18579.53
848.96	18419.3
849.284	18485.52
849.607	18292.53
849.931	18241
850.254	18111.74
850.577	18096.83
850.9	17946.77
851.223	17888.24
851.546	17827
851.869	17808.25
852.192	17786.55
852.515	17668.82
852.838	17566.22
853.161	17610.74
853.483	17533.68
853.806	17435.37
854.129	17413.23
854.451	17327.58
854.774	17203.29
855.096	17157.64
855.419	17116.97
855.741	17076.97
856.063	16933.92
856.385	16947.93
856.708	16951.77
857.03	16837.2
857.352	16879.46
857.674	16807.59
857.996	16660.71
858.318	16634.27
858.64	16631.78
858.961	16676.3
859.283	16587.94
859.605	16479.47
859.926	16512.69
860.248	16351.11
860.57	16272.92
860.891	16398.34
861.212	16199.25
861.534	16229.98
861.855	16229.76
862.176	16241.96
862.498	16125.13
862.819	16118.12
863.14	16040.16
863.461	15983.66
863.782	15975.07
864.103	15936.66
864.424	15988.41
864.745	15892.36
865.065	15858.24
865.386	15821.18
865.707	15769.88
866.027	15853.27
866.348	15748.41
866.668	15788.86
866.989	15623.45
867.309	15539.38
867.63	15588.19
867.95	15581.86
868.27	15425.48
868.59	15564.69
868.91	15492.38
869.23	15418.48
869.55	15439.95
869.87	15577.8
870.19	15394.07
870.51	15390.68
870.83	15422.55
871.15	15309.33
871.469	15331.25
871.789	15265.49
872.109	15202.44
872.428	15183.23
872.748	15378.48
873.067	15311.14
873.386	15267.3
873.706	15250.57
874.025	14989.56
874.344	15102.1
874.663	15025.04
874.982	15091.93
875.301	14998.83
875.62	15008.32
875.939	14989.34
876.258	14952.05
876.577	14863.69
876.896	14939.62
877.214	14751.6
877.533	14895.78
877.852	14801.09
878.17	14842.22
878.489	14771.26
878.807	14775.78
879.125	14656.01
879.444	14693.53
879.762	14650.36
880.08	14672.28
880.398	14526.98
880.716	14599.29
881.034	14520.88
881.352	14551.16
881.67	14514.32
881.988	14432.29
882.306	14405.17
882.624	14413.08
882.941	14331.28
883.259	14350.94
883.577	14255.35
883.894	14250.83
884.212	14210.37
884.529	14156.37
884.846	14095.58
885.164	14132.18
885.481	14079.76
885.798	14030.72
886.115	14024.39
886.432	13992.3
886.75	13995.69
887.067	13952.53
887.383	13867.33
887.7	13868.46
888.017	13848.58
888.334	13827.11
888.651	13732.87
888.967	13689.94
889.284	13681.8
889.6	13647.45
889.917	13504.4
890.233	13565.19
890.55	13518.64
890.866	13428.25
891.182	13414.69
891.498	13430.06
891.815	13348.02
892.131	13297.63
892.447	13262.6
892.763	13211.98
893.079	13164.07
893.395	13106.68
893.71	13059.67
894.026	13171.98
894.342	13035.26
894.657	12906.91
894.973	12934.25
895.289	12959.11
895.604	12849.28
895.92	12799.11
896.235	12792.11
896.55	12759.79
896.865	12684.54
897.181	12637.31
897.496	12635.5
897.811	12524.54
898.126	12577.65
898.441	12439.8
898.756	12475.28
899.071	12357.09
899.386	12421.95
899.7	12291.1
900.015	12171.11
900.33	12202.97
900.644	12148.73
900.959	12137.21
901.273	12035.74
901.588	12021.28
901.902	11955.74
902.216	11922.53
902.531	11896.76
902.845	11853.6
903.159	11860.61
903.473	11754.62
903.787	11693.38
904.101	11581.29
904.415	11586.49
904.729	11594.62
905.042	11460.84
905.356	11487.96
905.67	11436.89
905.984	11443.22
906.297	11344.46
906.611	11270.34
906.924	11289.77
907.237	11209.78
907.551	11241.64
907.864	11171.58
908.177	11113.73
908.491	11095.2
908.804	11059.72
909.117	10930.46
909.43	10930.46
909.743	10835.77
910.056	10804.14
910.368	10822.89
910.681	10734.76
910.994	10660.86
911.307	10678.49
911.619	10526.86
911.932	10575.67
912.244	10499.51
912.557	10508.55
912.869	10372.96
913.181	10398.05
913.494	10301.78
913.806	10308.1
914.118	10216.58
914.43	10203.25
914.742	10151.27
915.054	10118.73
915.366	10102.23
915.678	10015.23
915.99	9979.98
916.302	9931.62
916.613	9899.98
916.925	9868.79
917.236	9846.42
917.548	9730.04
917.859	9793.99
918.171	9646.88
918.482	9581.57
918.794	9598.97
919.105	9594.68
919.416	9543.38
919.727	9437.17
920.038	9422.25
920.349	9428.13
920.66	9396.49
920.971	9364.85
921.282	9318.53
921.593	9241.24
921.903	9254.12
922.214	9171.41
922.525	9121.47
922.835	9093.9
923.146	8993.34
923.456	9013.45
923.767	8878.31
924.077	8961.7
924.387	8882.38
924.697	8799.44
925.008	8819.78
925.318	8804.42
925.628	8761.48
925.938	8728.94
926.248	8610.07
926.558	8599
926.867	8621.37
927.177	8557.87
927.487	8479.23
927.796	8396.52
928.106	8395.84
928.416	8335.28
928.725	8374.82
929.034	8303.64
929.344	8298.89
929.653	8281.94
929.962	8170.99
930.271	8169.18
930.581	8147.94
930.89	8093.7
931.199	8049.41
931.508	8069.97
931.817	7961.27
932.125	7934.83
932.434	7975.74
932.743	7833.37
933.051	7838.79
933.36	7824.55
933.669	7783.2
933.977	7739.13
934.286	7695.07
934.594	7688.96
934.902	7633.82
935.21	7603.09
935.519	7570.32
935.827	7622.3
936.135	7556.99
936.443	7432.7
936.751	7396.09
937.059	7371.01
937.367	7372.59
937.674	7365.58
937.982	7363.32
938.29	7300.73
938.597	7262.99
938.905	7248.3
939.213	7157.91
939.52	7168.98
939.827	7139.37
940.135	7138.47
940.442	7055.53
940.749	7018.7
941.056	7053.95
941.363	6949.1
941.67	6881.53
941.977	6858.25
942.284	6909.32
942.591	6832.94
942.898	6830.46
943.205	6729.89
943.511	6707.75
943.818	6723.11
944.125	6655.09
944.431	6660.29
944.738	6552.95
945.044	6520.86
945.35	6608.99
945.657	6528.32
945.963	6555.21
946.269	6470.69
946.575	6459.39
946.881	6387.53
947.187	6335.1
947.493	6292.62
947.799	6315.67
948.105	6284.26
948.41	6214.2
948.716	6275.44
949.022	6219.4
949.327	6246.29
949.633	6150.47
949.938	6105.5
950.244	6115.45
950.549	6089.46
950.854	6033.87
951.16	5974.43
951.465	5969.24
951.77	5949.12
952.075	5970.14
952.38	5892.4
952.685	5914.77
952.99	5849.69
953.294	5824.15
953.599	5770.6
953.904	5713.65
954.209	5733.54
954.513	5722.69
954.818	5716.59
955.122	5673.2
955.426	5688.79
955.731	5596.82
956.035	5579.87
956.339	5572.41
956.643	5605.18
956.948	5488.34
957.252	5506.65
957.556	5482.02
957.86	5475.01
958.163	5442.92
958.467	5388.46
958.771	5384.84
959.075	5412.64
959.378	5335.35
959.682	5320.67
959.985	5282.47
960.289	5254.9
960.592	5241.8
960.896	5212.19
961.199	5208.8
961.502	5195.92
961.805	5109.15
962.108	5094
962.411	5102.14
962.714	5034.57
963.017	5046.77
963.32	5041.35
963.623	4996.15
963.926	4947.34
964.228	4981.69
964.531	4963.16
964.833	4929.04
965.136	4829.15
965.438	4849.72
965.741	4847.68
966.043	4849.72
966.345	4769.95
966.648	4787.12
966.95	4744.64
967.252	4741.7
967.554	4712.77
967.856	4740.12
968.158	4691.08
968.46	4642.94
968.761	4639.78
969.063	4623.28
969.365	4566.56
969.666	4550.06
969.968	4500.8
970.269	4543.96
970.571	4467.13
970.872	4502.83
971.174	4417.86
971.475	4435.72
971.776	4367.92
972.077	4394.81
972.378	4395.27
972.679	4387.36
972.98	4362.5
973.281	4293.12
973.582	4285.66
973.883	4259.9
974.183	4258.55
974.484	4295.83
974.785	4190.07
975.085	4203.86
975.386	4221.26
975.686	4153.01
975.986	4111.43
976.287	4132
976.587	4056.74
976.887	4063.07
977.187	4094.93
977.487	4082.28
977.787	4039.57
978.087	4016.29
978.387	3962.51
978.687	3971.77
978.987	3966.12
979.286	3959.12
979.586	3950.76
979.885	3904.88
980.185	3860.14
980.484	3880.48
980.784	3826.47
981.083	3790.76
981.382	3807.48
981.682	3766.13
981.981	3795.51
982.28	3730.88
982.579	3683.19
982.878	3738.79
983.177	3687.04
983.475	3701.05
983.774	3646.36
984.073	3661.05
984.372	3577.21
984.67	3633.25
984.969	3554.61
985.267	3566.81
985.566	3570.43
985.864	3565.23
986.162	3540.37
986.461	3510.09
986.759	3511.22
987.057	3475.29
987.355	3467.15
987.653	3481.17
987.951	3421.51
988.249	3377.67
988.547	3407.5
988.844	3355.07
989.142	3383.99
989.44	3356.42
989.737	3327.27
990.035	3320.27
990.332	3326.59
990.63	3275.52
990.927	3298.8
991.224	3241.85
991.521	3256.99
991.819	3223.32
992.116	3218.35
992.413	3193.26
992.71	3170.67
993.006	3207.73
993.303	3160.72
993.6	3123.43
993.897	3114.4
994.193	3111.46
994.49	3096.32
994.787	3071.91
995.083	3056.54
995.379	3038.47
995.676	3008.18
995.972	3026.26
996.268	2974.06
996.565	2967.51
996.861	2951.24
997.157	2947.39
997.453	2953.72
997.749	2902.65
998.044	2896.55
998.34	2895.64
998.636	2851.8
998.932	2862.2
999.227	2866.04
999.523	2810.9
999.818	2831.92
1000.114	2810.9
1000.409	2766.61
1000.704	2748.76
1001	2768.64
1001.295	2699.49
1001.59	2704.24
1001.885	2719.83
1002.18	2675.99
1002.475	2657.46
1002.77	2660.85
1003.065	2625.37
1003.359	2600.06
1003.654	2619.49
1003.949	2587.18
1004.243	2566.84
1004.538	2534.75
1004.832	2552.38
1005.127	2496.33
1005.421	2520.06
1005.715	2485.49
1006.009	2493.17
1006.304	2479.38
1006.598	2465.37
1006.892	2464.92
1007.186	2449.55
1007.48	2404.13
1007.773	2386.96
1008.067	2380.63
1008.361	2341.53
1008.655	2347.41
1008.948	2353.96
1009.242	2315.09
1009.535	2326.62
1009.829	2299.5
1010.122	2305.15
1010.415	2273.97
1010.708	2251.82
1011.001	2224.7
1011.295	2245.72
1011.588	2228.09
1011.881	2185.38
1012.173	2172.5
1012.466	2159.84
1012.759	2187.87
1013.052	2161.43
1013.344	2141.54
1013.637	2116
1013.93	2104.93
1014.222	2139.28
1014.514	2097.7
1014.807	2085.95
1015.099	2077.81
1015.391	2046.85
1015.683	2044.82
1015.976	2029.23
1016.268	1966.63
1016.56	1969.11
1016.851	1982
1017.143	1973.41
1017.435	1975.89
1017.727	1953.52
1018.018	1930.47
1018.31	1936.12
1018.602	1931.15
1018.893	1895.9
1019.185	1861.77
1019.476	1847.31
1019.767	1854.99
1020.058	1854.32
1020.35	1836.24
1020.641	1799.18
1020.932	1846.41
1021.223	1818.61
1021.514	1737.26
1021.804	1770.93
1022.095	1754.43
1022.386	1772.74
1022.677	1731.16
1022.967	1718.5
1023.258	1713.98
1023.548	1701.55
1023.839	1688.9
1024.129	1679.86
1024.419	1671.72
1024.709	1643.25
1025	1612.29
1025.29	1607.32
1025.58	1597.83
1025.87	1583.36
1026.16	1575.68
1026.449	1601.89
1026.739	1589.24
1027.029	1558.05
1027.319	1536.36
1027.608	1552.4
1027.898	1529.35
1028.187	1510.37
1028.477	1489.13
1028.766	1500.2
1029.055	1483.25
1029.344	1478.96
1029.634	1450.71
1029.923	1468.11
1030.212	1433.76
1030.501	1449.13
1030.79	1445.29
1031.078	1408.68
1031.367	1411.62
1031.656	1387.21
1031.945	1374.55
1032.233	1381.11
1032.522	1382.46
1032.81	1339.98
1033.099	1334.56
1033.387	1350.37
1033.675	1338.17
1033.963	1327.55
1034.251	1299.98
1034.54	1299.53
1034.828	1293.88
1035.116	1279.19
1035.403	1263.14
1035.691	1266.99
1035.979	1268.34
1036.267	1248
1036.554	1241.9
1036.842	1221.34
1037.129	1233.09
1037.417	1215.91
1037.704	1198.97
1037.992	1194.67
1038.279	1177.5
1038.566	1196.48
1038.853	1196.48
1039.14	1196.48
