Data from white_wall_FLMS001491_100.txt Node
Date: Tue Feb 07 11:06:17 GMT 2017
User: dcchb
Spectrometer: FLMS00149
Trigger mode: 0
Integration Time (sec): 2.000000E-2
Scans to average: 10
Electric dark correction enabled: true
Nonlinearity correction enabled: false
Boxcar width: 0
XAxis mode: Wavelengths
Number of Pixels in Spectrum: 2048
>>>>>Begin Spectral Data<<<<<
341.393	-2.19
341.776	-2.19
342.16	-2.19
342.543	-63.66
342.927	-53.94
343.31	-63.2
343.693	-55.52
344.077	-78.12
344.46	-56.88
344.843	-47.16
345.226	-30.66
345.61	-1.96
345.993	-27.95
346.376	-31.79
346.759	1.88
347.142	36.23
347.525	34.65
347.908	41.2
348.291	83.46
348.674	76.23
349.057	119.62
349.44	116.68
349.823	136.56
350.206	178.82
350.588	213.17
350.971	237.58
351.354	240.06
351.737	273.96
352.119	260.18
352.502	277.58
352.884	304.47
353.267	292.04
353.65	306.73
354.032	313.28
354.414	343.11
354.797	339.95
355.179	340.85
355.562	360.51
355.944	349.21
356.326	368.2
356.709	379.72
357.091	350.12
357.473	352.6
357.855	361.64
358.238	363.9
358.62	378.59
359.002	367.97
359.384	346.28
359.766	366.61
360.148	349.89
360.53	382.66
360.912	364.58
361.294	375.65
361.676	361.64
362.057	340.85
362.439	347.63
362.821	383.11
363.203	354.41
363.584	354.19
363.966	380.63
364.348	359.84
364.729	361.64
365.111	350.34
365.493	345.15
365.874	348.54
366.256	342.89
366.637	338.59
367.019	365.71
367.4	339.72
367.781	387.18
368.163	352.15
368.544	326.16
368.925	339.95
369.306	342.21
369.688	335.66
370.069	345.82
370.45	354.86
370.831	348.76
371.212	358.03
371.593	335.66
371.974	350.8
372.355	338.59
372.736	346.05
373.117	365.26
373.498	359.16
373.879	342.66
374.26	346.95
374.641	363.45
375.021	369.78
375.402	365.48
375.783	360.51
376.163	369.33
376.544	362.32
376.925	370
377.305	363.45
377.686	356.9
378.066	370.46
378.447	369.1
378.827	358.25
379.208	351.47
379.588	382.66
379.968	397.35
380.349	365.26
380.729	390.34
381.109	413.85
381.489	379.04
381.87	380.63
382.25	376.11
382.63	386.95
383.01	400.96
383.39	400.74
383.77	390.34
384.15	414.97
384.53	393.51
384.91	412.49
385.29	422.43
385.67	421.98
386.049	435.09
386.429	429.21
386.809	423.11
387.189	428.31
387.568	431.47
387.948	417.01
388.328	442.54
388.707	448.42
389.087	462.21
389.466	467.85
389.846	461.98
390.225	494.97
390.605	477.8
390.984	471.02
391.363	489.78
391.743	502.2
392.122	483.22
392.501	512.83
392.881	511.47
393.26	534.07
393.639	535.65
394.018	545.82
394.397	555.31
394.776	548.08
395.155	546.5
395.534	547.17
395.913	569.32
396.292	585.82
396.671	601.18
397.05	598.02
397.429	598.25
397.808	612.71
398.186	610.45
398.565	635.99
398.944	659.26
399.323	672.82
399.701	652.71
400.08	665.14
400.458	723.44
400.837	708.53
401.215	697.91
401.594	723.67
401.972	724.57
402.351	732.93
402.729	745.14
403.107	751.69
403.486	810.44
403.864	771.8
404.242	790.78
404.62	835.53
404.999	828.52
405.377	854.74
405.755	885.92
406.133	914.85
406.511	926.6
406.889	914.85
407.267	935.41
407.645	986.03
408.023	969.76
408.401	993.26
408.779	1027.16
409.156	1030.1
409.534	1054.96
409.912	1069.87
410.29	1069.42
410.667	1120.49
411.045	1137.67
411.422	1143.77
411.8	1158.91
412.178	1181.28
412.555	1238.46
412.933	1228.06
413.31	1255.63
413.687	1256.08
414.065	1297.21
414.442	1307.38
414.819	1335.4
415.197	1325.46
415.574	1351.45
415.951	1411.11
416.328	1382.63
416.705	1370.2
417.082	1402.75
417.46	1441.84
417.837	1463.99
418.214	1438.68
418.591	1456.08
418.967	1502.18
419.344	1494.95
419.721	1535.85
420.098	1516.64
420.475	1557.09
420.852	1599.12
421.228	1624.21
421.605	1631.21
421.982	1600.71
422.358	1667.6
422.735	1663.3
423.111	1698.11
423.488	1726.58
423.864	1702.62
424.241	1727.48
424.617	1788.95
424.994	1777.2
425.37	1794.83
425.746	1826.69
426.123	1876.63
426.499	1871.66
426.875	1893.81
427.251	1954.37
427.627	1973.8
428.003	1990.98
428.379	1986.23
428.756	2014.03
429.132	2012.45
429.507	2106
429.883	2110.52
430.259	2186.23
430.635	2141.26
431.011	2200.01
431.387	2244.98
431.763	2257.64
432.138	2275.04
432.514	2332.89
432.89	2369.05
433.265	2393.91
433.641	2454.02
434.016	2425.32
434.392	2477.07
434.767	2548.93
435.143	2514.81
435.518	2532.66
435.894	2560.68
436.269	2658.31
436.644	2666.67
437.02	2726.55
437.395	2724.07
437.77	2759.09
438.145	2767.46
438.52	2836.61
438.895	2900.56
439.271	2839.09
439.646	2914.57
440.021	2928.36
440.395	2959.31
440.77	2974
441.145	3001.57
441.52	3092.19
441.895	3075.02
442.27	3082.93
442.645	3103.04
443.019	3109.37
443.394	3150.5
443.769	3177.61
444.143	3176.71
444.518	3245.63
444.892	3256.03
445.267	3242.7
445.641	3279.53
446.016	3308.01
446.39	3341
446.764	3382.81
447.139	3370.15
447.513	3427.78
447.887	3447.21
448.262	3491.5
448.636	3482.24
449.01	3560.2
449.384	3570.82
449.758	3564.5
450.132	3623.48
450.506	3654.89
450.88	3683.36
451.254	3703.25
451.628	3768.11
452.002	3797.71
452.376	3840.65
452.75	3860.31
453.123	3942.11
453.497	3952.28
453.871	4059.4
454.244	4152.5
454.618	4116.57
454.992	4218.72
455.365	4233.63
455.739	4301.65
456.112	4369.67
456.486	4422.55
456.859	4471.37
457.232	4538.03
457.606	4559.05
457.979	4599.95
458.352	4702.09
458.725	4732.83
459.099	4794.75
459.472	4934.63
459.845	4906.16
460.218	4979.6
460.591	5034.29
460.964	5025.25
461.337	5138.47
461.71	5268.41
462.083	5390.21
462.456	5348.63
462.829	5409.19
463.201	5454.39
463.574	5505.46
463.947	5616.65
464.32	5734.84
464.692	5712.24
465.065	5798.34
465.438	5894.6
465.81	5936.41
466.183	6049.63
466.555	6222.05
466.928	6252.11
467.3	6187.7
467.672	6376.4
468.045	6496.62
468.417	6587.69
468.789	6581.14
469.161	6708.14
469.534	6781.36
469.906	7029.72
470.278	7051.64
470.65	7092.09
471.022	7227
471.394	7400.78
471.766	7493.43
472.138	7510.16
472.51	7785.18
472.882	7829.02
473.253	7862.24
473.625	8054.1
473.997	8226.97
474.369	8226.97
474.74	8438.72
475.112	8518.26
475.484	8712.16
475.855	8848.65
476.227	8955.09
476.598	9235.31
476.97	9356.43
477.341	9494.28
477.713	9629.65
478.084	9673.04
478.455	10010.43
478.827	10067.15
479.198	10433.24
479.569	10365.45
479.94	10699.22
480.311	10779.9
480.682	11103.96
481.053	11326.78
481.424	11542.14
481.795	11548.47
482.166	11785.52
482.537	11894.67
482.908	12255.34
483.279	12411.5
483.65	12686.74
484.021	12911.6
484.391	12976.45
484.762	13153.62
485.133	13228.2
485.503	13428.19
485.874	13764.23
486.244	13868.18
486.615	14147.72
486.985	14386.36
487.356	14672
487.726	14825.9
488.097	15104.76
488.467	15138.88
488.837	15441.7
489.207	15545.88
489.578	15844.63
489.948	15931.86
490.318	16289.13
490.688	16255.69
491.058	16585.62
491.428	16835.11
491.798	17017.93
492.168	17351.7
492.538	17456.11
492.908	17649.55
493.278	17997.34
493.648	17981.07
494.017	18169.76
494.387	18306.71
494.757	18551.67
495.126	18751.22
495.496	18772.46
495.866	19035.5
496.235	19176.06
496.605	19414.48
496.974	19577.86
497.344	19740.79
497.713	19924.97
498.082	20039.77
498.452	20256.71
498.821	20323.15
499.19	20399.08
499.559	20618.06
499.928	20822.12
500.298	20872.97
500.667	21181.21
501.036	21193.64
501.405	21425.5
501.774	21509.56
502.143	21757.46
502.512	21855.32
502.88	22002.66
503.249	22069.55
503.618	22339.37
503.987	22466.82
504.356	22621.17
504.724	22751.56
505.093	22903.2
505.462	22989.3
505.83	23274.03
506.199	23376.86
506.567	23768.03
506.936	23733.91
507.304	24048.48
507.672	24045.54
508.041	24231.98
508.409	24323.05
508.777	24597.16
509.145	24805.07
509.514	24899.75
509.882	25140.2
510.25	25317.37
510.618	25450.93
510.986	25462.68
511.354	25916.68
511.722	26160.51
512.09	26457
512.458	26373.16
512.826	26635.08
513.193	26842.3
513.561	26878.01
513.929	27075.29
514.297	27413.81
514.664	27538.56
515.032	27748.04
515.4	27997.3
515.767	28096.73
516.135	28185.77
516.502	28161.14
516.869	28728.35
517.237	28783.27
517.604	28732.2
517.972	29202.01
518.339	29405.4
518.706	29461.44
519.073	29601.1
519.44	29848.55
519.808	30278.37
520.175	30267.07
520.542	30629.55
520.909	30835.19
521.276	30835.42
521.643	31148.4
522.009	31435.4
522.376	31670.2
522.743	31771.89
523.11	32294.81
523.477	32349.28
523.843	32676.5
524.21	32865.2
524.577	33219.99
524.943	33423.82
525.31	33471.05
525.676	33742.46
526.043	33955.56
526.409	34234.2
526.776	34546.96
527.142	34627.63
527.508	34953.73
527.874	35212.25
528.241	35387.16
528.607	35504.9
528.973	35781.5
529.339	35877.55
529.705	36161.15
530.071	36607.24
530.437	36609.96
530.803	36932.43
531.169	37115.03
531.535	37014.69
531.901	37214.46
532.267	37481.34
532.632	37760.43
532.998	37943.48
533.364	38008.11
533.73	38396.58
534.095	38353.41
534.461	38623.24
534.826	38799.28
535.192	38921.76
535.557	39224.12
535.923	39092.6
536.288	39358.13
536.653	39651.46
537.019	39458.92
537.384	39835.18
537.749	39958.57
538.114	40184.55
538.479	40258.45
538.845	40484.88
539.21	40445.56
539.575	40638.1
539.94	40802.84
540.305	41117.63
540.67	41005.32
541.034	41230.4
541.399	41357.63
541.764	41405.99
542.129	41682.82
542.494	41832.42
542.858	42002.81
543.223	42056.37
543.587	42361.44
543.952	42184.95
544.316	42529.12
544.681	42460.42
545.045	42724.37
545.41	42907.87
545.774	43024.48
546.138	43116.68
546.503	43365.71
546.867	43426.73
547.231	43686.61
547.595	43886.15
547.959	43956.88
548.324	44025.81
548.688	44141.28
549.052	44364.33
549.416	44561.38
549.779	44537.2
550.143	44791.89
550.507	45135.61
550.871	45070.52
551.235	45216.96
551.599	45597.06
551.962	45657.4
552.326	45835.02
552.689	46104.4
553.053	45996.6
553.417	46142.81
553.78	46687.43
554.143	46581.22
554.507	46865.96
554.87	47018.27
555.234	47281.31
555.597	47181.65
555.96	47368.54
556.323	47578.03
556.686	47589.33
557.05	48046.26
557.413	48073.16
557.776	48123.33
558.139	48455.07
558.502	48605.35
558.865	48723.54
559.228	49093.47
559.59	49119.46
559.953	49094.37
560.316	49615.49
560.679	49561.25
561.041	49939.1
561.404	50086.21
561.767	50267.45
562.129	50147.9
562.492	50596.93
562.854	50551.28
563.217	50699.08
563.579	50864.72
563.941	51059.75
564.304	51102
564.666	51413.18
565.028	51517.36
565.39	51573.86
565.753	51709.45
566.115	51818.82
566.477	52029.44
566.839	51950.57
567.201	52258.13
567.563	52301.97
567.925	52501.74
568.287	52566.6
568.648	52704.22
569.01	52849.98
569.372	53045
569.734	52881.84
570.095	53222.4
570.457	53231.44
570.819	53312.34
571.18	53378.1
571.542	53449.06
571.903	53550.53
572.265	53679.11
572.626	53645.67
572.987	53815.6
573.349	53889.05
573.71	53967.47
574.071	53979.44
574.432	54143.51
574.794	54281.58
575.155	54321.13
575.516	54265.54
575.877	54506.66
576.238	54460.56
576.599	54634.34
576.96	54638.18
577.32	54588.92
577.681	54726.09
578.042	54805.18
578.403	54768.35
578.763	54826.65
579.124	54926.54
579.485	54974.44
579.845	55077.27
580.206	55027.1
580.566	55084.05
580.927	55054.89
581.287	55115.46
581.648	55122.46
582.008	55264.15
582.368	55212.86
582.728	55220.54
583.089	55213.76
583.449	55211.95
583.809	55249.92
584.169	55310.71
584.529	55201.56
584.889	55489.91
585.249	55311.84
585.609	55217.38
585.969	55329.24
586.329	55243.14
586.688	55340.08
587.048	55410.14
587.408	55277.94
587.768	55312.06
588.127	55328.79
588.487	55270.93
588.846	55501.89
589.206	55375.79
589.565	55344.83
589.925	55481.32
590.284	55439.52
590.643	55442.91
591.003	55427.77
591.362	55498.5
591.721	55418.05
592.08	55488.78
592.44	55526.07
592.799	55598.83
593.158	55494.66
593.517	55464.15
593.876	55571.49
594.235	55512.51
594.593	55523.13
594.952	55579.85
595.311	55592.06
595.67	55595.22
596.029	55724.93
596.387	55712.5
596.746	55798.15
597.104	55597.03
597.463	55627.08
597.822	55823.24
598.18	55610.13
598.538	55595.22
598.897	55845.83
599.255	55609.46
599.613	55994.3
599.972	55790.02
600.33	55846.51
600.688	55774.2
601.046	55841.09
601.404	55953.63
601.762	55925.38
602.12	55980.52
602.478	56006.28
602.836	55985.94
603.194	55903.46
603.552	55937.13
603.91	55858.26
604.268	55980.52
604.625	55951.82
604.983	56119.5
605.341	55956.34
605.698	56051.03
606.056	56162.89
606.413	56146.39
606.771	56219.38
607.128	56310
607.485	56069.78
607.843	56177.58
608.2	56314.52
608.557	56435.42
608.914	56284.47
609.272	56363.56
609.629	56436.1
609.986	56597.9
610.343	56408.98
610.7	56646.49
611.057	56588.87
611.414	56470.68
611.771	56622.31
612.127	56642.65
612.484	56669.77
612.841	56793.83
613.198	56592.03
613.554	56623.21
613.911	56871.57
614.267	56804
614.624	56710.9
614.98	56791.35
615.337	56974.39
615.693	56888.52
616.05	56897.78
616.406	56969.65
616.762	56956.31
617.118	56992.47
617.475	56930.1
617.831	57023.2
618.187	57030.44
618.543	57065.24
618.899	57157.66
619.255	57203.54
619.611	57163.31
619.967	57212.8
620.323	57296.64
620.678	57249.19
621.034	57170.77
621.39	57198.79
621.746	57158.12
622.101	57407.6
622.457	57194.72
622.812	57279.02
623.168	57301.39
623.523	57322.18
623.879	57394.72
624.234	57211.22
624.589	57356.98
624.945	57316.98
625.3	57297.1
625.655	57252.12
626.01	57282.86
626.365	57318.56
626.72	57232.01
627.075	57304.1
627.43	57309.07
627.785	57231.33
628.14	57296.42
628.495	57341.16
628.85	57334.83
629.205	57223.88
629.559	57356.3
629.914	57226.36
630.269	57247.6
630.623	57138.91
630.978	57159.92
631.332	57192.47
631.687	57219.58
632.041	57136.65
632.396	57232.69
632.75	57068.63
633.104	57088.97
633.459	56965.13
633.813	56959.93
634.167	56936.43
634.521	56956.77
634.875	57004
635.229	56947.05
635.583	56900.72
635.937	56829.99
636.291	56798.8
636.645	56768.97
636.999	56724
637.352	56814.85
637.706	56631.12
638.06	56755.64
638.413	56682.65
638.767	56604.01
639.121	56692.59
639.474	56453.73
639.828	56565.81
640.181	56607.17
640.534	56531.69
640.888	56413.05
641.241	56387.97
641.594	56469.09
641.947	56445.14
642.301	56408.53
642.654	56442.88
643.007	56316.78
643.36	56291.25
643.713	56255.09
644.066	56377.57
644.419	56135.09
644.771	56055.55
645.124	55746.4
645.477	55610.13
645.83	55506.18
646.182	55379.41
646.535	55282.46
646.888	55484.26
647.24	55253.31
647.593	55417.37
647.945	55339.41
648.298	55198.62
648.65	55156.36
649.002	55154.55
649.355	55161.11
649.707	55132.41
650.059	55265.06
650.411	55522
650.763	55473.64
651.115	55840.86
651.467	55685.39
651.819	55604.48
652.171	55679.51
652.523	55587.31
652.875	55617.14
653.227	55453.08
653.578	55636.57
653.93	55524.71
654.282	55479.06
654.633	55392.96
654.985	55389.57
655.337	55458.05
655.688	55455.34
656.039	55450.59
656.391	55270.03
656.742	55312.29
657.094	55362.91
657.445	55360.2
657.796	55329.24
658.147	55240.65
658.498	55243.14
658.849	55270.26
659.2	55158.39
659.551	55140.77
659.902	55232.29
660.253	55121.56
660.604	55254.44
660.955	55000.88
661.306	55163.59
661.656	55091.05
662.007	55112.75
662.358	55018.06
662.708	55049.24
663.059	55022.8
663.409	54870.27
663.76	55055.12
664.11	54976.03
664.461	54929.25
664.811	55018.96
665.161	54919.3
665.511	54898.51
665.862	54879.08
666.212	55010.83
666.562	55014.67
666.912	54860.32
667.262	54791.85
667.612	54843.6
667.962	54817.61
668.312	54773.32
668.662	54896.48
669.011	54816.93
669.361	54771.06
669.711	54706.88
670.06	54662.81
670.41	54637.73
670.76	54565.64
671.109	54690.84
671.459	54734.22
671.808	54606.54
672.157	54651.74
672.507	54489.26
672.856	54423.05
673.205	54449.94
673.554	54624.62
673.904	54494.46
674.253	54567
674.602	54482.25
674.951	54090.4
675.3	53935.38
675.649	54334.46
675.998	54293.11
676.346	54368.13
676.695	54448.36
677.044	54247.91
677.393	54290.62
677.741	54269.15
678.09	54265.99
678.438	54183.5
678.787	54153.45
679.135	54112.55
679.484	54039.78
679.832	54098.08
680.181	53898.09
680.529	53986.67
680.877	53889.28
681.225	53911.87
681.573	53943.29
681.922	53783.74
682.27	53732.67
682.618	53705.1
682.966	53658.77
683.314	53686.57
683.661	53560.7
684.009	53454.94
684.357	53398.21
684.705	53344.43
685.053	53394.82
685.4	53317.99
685.748	53089.97
686.095	53146.02
686.443	53080.03
686.79	52957.32
687.138	53009.52
687.485	52949.19
687.832	52790.55
688.18	52810.43
688.527	52559.37
688.874	52620.16
689.221	52471.23
689.568	52418.58
689.915	52412.7
690.262	52376.32
690.609	52296.55
690.956	52163.44
691.303	52126.61
691.65	51972.26
691.997	51999.83
692.344	51690.46
692.69	51819.95
693.037	51879.38
693.383	51460.64
693.73	51616.79
694.077	51393.52
694.423	51428.77
694.769	51234.2
695.116	51185.17
695.462	51222
695.808	50983.14
696.155	51038.73
696.501	50733.43
696.847	50779.3
697.193	50598.06
697.539	50715.35
697.885	50408.91
698.231	50352.87
698.577	50339.09
698.923	50229.26
699.269	50150.62
699.614	50053.22
699.96	49984.07
700.306	49814.58
700.651	49647.58
700.997	49633.57
701.342	49587.92
701.688	49507.24
702.033	49323.07
702.379	49352.45
702.724	49137.54
703.069	49164.43
703.415	48818.67
703.76	48817.09
704.105	48894.38
704.45	48754.72
704.795	48620.94
705.14	48423.43
705.485	48476.54
705.83	48334.62
706.175	48316.54
706.52	48135.75
706.865	48104.12
707.209	48145.7
707.554	47949.09
707.899	47982.54
708.243	47700.51
708.588	47685.14
708.932	47542.32
709.277	47420.74
709.621	47416.45
709.966	47183.24
710.31	47250.58
710.654	46873.64
710.998	47052.17
711.342	46911.15
711.687	46758.16
712.031	46837.26
712.375	46632.29
712.719	46666.64
713.063	46558.85
713.407	46641.56
713.75	46484.27
714.094	46460.54
714.438	46275.24
714.782	46260.78
715.125	46070.05
715.469	46159.99
715.812	45827.79
716.156	45612.66
716.499	45750.96
716.843	45810.62
717.186	45508.93
717.53	45703.28
717.873	45659.89
718.216	45529.49
718.559	45271.87
718.902	45103.29
719.246	45198.43
719.589	44964.76
719.932	44850.19
720.275	44913.69
720.617	44863.3
720.96	44783.98
721.303	44752.34
721.646	44874.82
721.989	44553.48
722.331	44575.17
722.674	44540.14
723.016	44466.92
723.359	44500.82
723.701	44401.39
724.044	44171.79
724.386	44041.62
724.729	44219.92
725.071	43977.67
725.413	43937.9
725.755	43945.58
726.097	43811.8
726.439	43618.36
726.782	43590.34
727.124	43795.08
727.465	43529.1
727.807	43554.86
728.149	43376.11
728.491	43311.47
728.833	43318.93
729.175	43221.08
729.516	43105.6
729.858	42933.41
730.199	43120.74
730.541	42884.37
730.882	42820.64
731.224	42950.13
731.565	42699.74
731.906	42721.43
732.248	42725.27
732.589	42572.96
732.93	42369.58
733.271	42485.51
733.612	42408.67
733.953	42338.17
734.294	42229.69
734.635	42140.66
734.976	42248.45
735.317	41978.18
735.658	41930.95
735.999	41953.32
736.339	41883.04
736.68	42018.63
737.021	41811.4
737.361	41583.84
737.702	41657.51
738.042	41572.31
738.383	41616.6
738.723	41613.89
739.063	41426.78
739.404	41522.59
739.744	41383.39
740.084	41245.99
740.424	41309.27
740.764	41059.33
741.104	41278.08
741.444	41018.2
741.784	40839.9
742.124	40989.95
742.464	41021.36
742.804	40773.24
743.143	40716.97
743.483	40811.88
743.823	40693.24
744.162	40535.28
744.502	40451.21
744.841	40384.32
745.181	40519.01
745.52	40320.14
745.86	40418.89
746.199	40250.76
746.538	40116.76
746.877	40296.19
747.216	40182.74
747.556	40128.06
747.895	40099.13
748.234	39866.37
748.573	39888.06
748.911	39741.17
749.25	39710.21
749.589	39583.21
749.928	39719.48
750.267	39735.07
750.605	39488.52
750.944	39469.77
751.283	39253.05
751.621	39228.19
751.96	39005.82
752.298	38937.35
752.636	39074.52
752.975	38845.38
753.313	38654.87
753.651	38757.02
753.989	38721.09
754.327	38519.74
754.666	38425.27
755.004	38453.97
755.342	38458.04
755.679	38343.7
756.017	38053.08
756.355	38105.51
756.693	38085.4
757.031	37986.87
757.368	37737.16
757.706	37831.17
758.044	37652.87
758.381	37615.35
758.719	37440.44
759.056	37377.39
759.394	37141.69
759.731	36981.25
760.068	36971.08
760.405	36949.38
760.743	36746.45
761.08	36908.03
761.417	36664.64
761.754	36717.98
762.091	36461.26
762.428	36367.25
762.765	36127.93
763.102	36249.96
763.438	36022.85
763.775	35849.75
764.112	35850.43
764.449	35798.45
764.785	35736.31
765.122	35492.47
765.458	35314.62
765.795	35326.6
766.131	35190.56
766.467	35111.01
766.804	34972.48
767.14	34699.05
767.476	34836.89
767.812	34697.46
768.148	34619.27
768.485	34504.47
768.821	34251.6
769.157	34179.28
769.492	34232.39
769.828	33995.79
770.164	33765.96
770.5	33699.52
770.836	33679.41
771.171	33544.05
771.507	33445.29
771.842	33210.04
772.178	33249.59
772.513	33078.75
772.849	32921.69
773.184	32711.07
773.519	32825.65
773.855	32575.49
774.19	32597.18
774.525	32312.44
774.86	32395.15
775.195	32245.1
775.53	32078.32
775.865	32053.92
776.2	31836.97
776.535	31539.13
776.87	31632.01
777.205	31512.69
777.539	31300.94
777.874	31401.05
778.209	31086.94
778.543	30936.88
778.878	30914.51
779.212	30915.87
779.547	30565.14
779.881	30846.49
780.215	30547.29
780.55	30428.65
780.884	30120.18
781.218	30169.9
781.552	30288.77
781.886	29995.67
782.22	29839.06
782.554	29784.37
782.888	29590.03
783.222	29306.64
783.556	29324.72
783.889	29312.07
784.223	29004.51
784.557	29129.25
784.89	29257.38
785.224	28920.21
785.557	28781.01
785.891	28703.5
786.224	28560.22
786.558	28460.79
786.891	28283.62
787.224	28188.26
787.557	28193.68
787.891	28079.56
788.224	28025.77
788.557	27892.44
788.89	27767.48
789.223	27787.81
789.556	27635.28
789.888	27422.4
790.221	27384.21
790.554	27199.58
790.887	27195.97
791.219	27120.94
791.552	26886.6
791.884	26881.17
792.217	26883.66
792.549	26776.77
792.882	26631.23
793.214	26436.44
793.546	26495.19
793.879	26457.68
794.211	26128.42
794.543	26200.74
794.875	26132.49
795.207	26133.17
795.539	26020.18
795.871	26065.37
796.203	25773.4
796.535	25696.12
796.867	25565.73
797.198	25474.2
797.53	25569.34
797.862	25472.17
798.193	25358.73
798.525	25262.23
798.856	25257.26
799.188	24979.3
799.519	24989.47
799.85	24773.88
800.182	24754.9
800.513	24888.91
800.844	24522.59
801.175	24672.19
801.506	24607.33
801.837	24460.44
802.168	24344.29
802.499	24421.58
802.83	24201.47
803.161	24085.76
803.491	24211.64
803.822	24017.74
804.153	23876.96
804.483	23727.13
804.814	23740.92
805.145	23621.82
805.475	23656.4
805.805	23525.78
806.136	23507.7
806.466	23489.62
806.796	23464.76
807.126	23290.76
807.457	23180.93
807.787	23292.57
808.117	23153.59
808.447	23041.05
808.777	23079.92
809.107	22949.52
809.436	22782.3
809.766	22798.34
810.096	22751.79
810.426	22664.56
810.755	22632.24
811.085	22547.27
811.414	22576.88
811.744	22367.17
812.073	22403.55
812.403	22243.55
812.732	22305.92
813.061	22192.26
813.39	22094.4
813.719	21984.8
814.049	22152.48
814.378	22147.96
814.707	22001.53
815.036	21840.17
815.365	21700.29
815.693	21500.52
816.022	21750.46
816.351	21511.37
816.68	21409.23
817.008	21604.7
817.337	21318.83
817.665	21297.59
817.994	21318.83
818.322	21224.37
818.651	21277.48
818.979	21071.15
819.307	21255.78
819.636	21066.18
819.964	21073.41
820.292	21030.03
820.62	20968.78
820.948	20846.08
821.276	20957.03
821.604	20880.88
821.932	20898.73
822.259	20952.97
822.587	20880.88
822.915	20783.7
823.243	20871.39
823.57	20795.68
823.898	20839.52
824.225	20788.68
824.553	20826.42
824.88	20743.71
825.207	20893.53
825.535	20815.12
825.862	20890.82
826.189	20725.18
826.516	20848.34
826.843	20851.5
827.17	20780.32
827.497	20793.2
827.824	20787.32
828.151	20862.12
828.478	20796.36
828.805	20885.4
829.131	20774.21
829.458	20778.96
829.785	20673.65
830.111	20651.73
830.438	20891.27
830.764	20731.73
831.09	20744.84
831.417	20526.31
831.743	20667.32
832.069	20687.21
832.395	20523.15
832.722	20608.57
833.048	20515.24
833.374	20514.33
833.7	20479.53
834.026	20609.47
834.351	20502.36
834.677	20604.5
835.003	20556.14
835.329	20496.03
835.654	20518.63
835.98	20388.91
836.306	20377.84
836.631	20374.68
836.956	20363.83
837.282	20378.07
837.607	20320.44
837.932	20154.57
838.258	20226.21
838.583	20185.3
838.908	19994.57
839.233	20177.62
839.558	20079.32
839.883	20093.33
840.208	19878.42
840.533	19890.62
840.858	19947.12
841.182	19831.41
841.507	19802.49
841.832	19714.35
842.156	19785.09
842.481	19687.46
842.805	19671.19
843.13	19651.76
843.454	19624.41
843.778	19538.09
844.103	19472.1
844.427	19375.38
844.751	19344.87
845.075	19410.41
845.399	19232.33
845.723	19132.9
846.047	19180.36
846.371	19019.23
846.695	18992.11
847.019	18826.69
847.343	18753.7
847.666	18668.51
847.99	18679.81
848.313	18543.54
848.637	18526.82
848.96	18532.69
849.284	18398.23
849.607	18328.63
849.931	18122.53
850.254	18125.02
850.577	18066.04
850.9	17878.47
851.223	17868.98
851.546	17841.18
851.869	17796.21
852.192	17814.29
852.515	17633.05
852.838	17499.95
853.161	17560.06
853.483	17475.77
853.806	17359.16
854.129	17290.92
854.451	17282.33
854.774	17165.95
855.096	17117.59
855.419	17102.22
855.741	17017.93
856.063	17009.79
856.385	16942
856.708	16851.6
857.03	16937.93
857.352	16792.85
857.674	16779.97
857.996	16656.13
858.318	16626.07
858.64	16567.32
858.961	16514.66
859.283	16485.29
859.605	16403.71
859.926	16410.49
860.248	16315.12
860.57	16168.91
860.891	16277.61
861.212	16125.75
861.534	16089.82
861.855	16087.33
862.176	16109.93
862.498	16102.7
862.819	16043.49
863.14	15972.08
863.461	15870.84
863.782	15970.5
864.103	15902.7
864.424	15936.6
864.745	15915.13
865.065	15711.75
865.386	15650.96
865.707	15697.74
866.027	15669.04
866.348	15636.72
866.668	15693.9
866.989	15660.22
867.309	15509.72
867.63	15619.09
867.95	15623.84
868.27	15410.51
868.59	15428.59
868.91	15474.69
869.23	15398.76
869.55	15274.25
869.87	15391.98
870.19	15402.38
870.51	15353.57
870.83	15389.95
871.15	15264.3
871.469	15196.51
871.789	15247.58
872.109	15098.88
872.428	15025.89
872.748	15100.92
873.067	15027.92
873.386	15216.39
873.706	15141.82
874.025	14882.84
874.344	14888.94
874.663	15066.34
874.982	14900.47
875.301	14982.28
875.62	14820.92
875.939	14884.88
876.258	14828.83
876.577	14828.16
876.896	14836.52
877.214	14745.67
877.533	14729.63
877.852	14717.42
878.17	14640.59
878.489	14612.12
878.807	14653.47
879.125	14593.36
879.444	14597.2
879.762	14494.6
880.08	14549.07
880.398	14405.57
880.716	14529.41
881.034	14422.52
881.352	14500.03
881.67	14370.09
881.988	14419.35
882.306	14379.35
882.624	14300.49
882.941	14252.35
883.259	14190.88
883.577	14140.94
883.894	14171.22
884.212	14202.41
884.529	14149.53
884.846	14086.48
885.164	13997.44
885.481	14013.94
885.798	14105.01
886.115	13886.71
886.432	13938.46
886.75	13872.7
887.067	13909.08
887.383	13800.61
887.7	13859.37
888.017	13725.13
888.334	13781.63
888.651	13708.64
888.967	13632.03
889.284	13566.49
889.6	13564.69
889.917	13469.55
890.233	13499.15
890.55	13473.39
890.866	13494.41
891.182	13443.33
891.498	13342.32
891.815	13270.23
892.131	13212.38
892.447	13230.23
892.763	13192.27
893.079	13100.07
893.395	13072.5
893.71	13055.77
894.026	13062.78
894.342	12941.43
894.657	12899.62
894.973	12988.88
895.289	12842.9
895.604	12830.02
895.92	12735.33
896.235	12699.17
896.55	12661.88
896.865	12667.31
897.181	12583.92
897.496	12571.72
897.811	12590.25
898.126	12565.62
898.441	12442.91
898.756	12353.87
899.071	12320.88
899.386	12328.11
899.7	12216.25
900.015	12233.42
900.33	12132.86
900.644	12082.24
900.959	12112.29
901.273	12051.05
901.588	11967.21
901.902	11922.02
902.216	11913.2
902.531	11825.52
902.845	11838.18
903.159	11728.8
903.473	11734.23
903.787	11631.4
904.101	11552.99
904.415	11595.7
904.729	11583.95
905.042	11448.36
905.356	11464.85
905.67	11421.01
905.984	11421.69
906.297	11343.73
906.611	11364.74
906.924	11240.9
907.237	11239.78
907.551	11199.78
907.864	11131.3
908.177	11064.86
908.491	11045.2
908.804	10973.12
909.117	10903.06
909.43	10840.46
909.743	10764.53
910.056	10794.14
910.368	10701.03
910.681	10703.97
910.994	10588.49
911.307	10628.49
911.619	10578.1
911.932	10614.48
912.244	10460.36
912.557	10479.34
912.869	10442.96
913.181	10339.91
913.494	10388.95
913.806	10262.17
914.118	10213.81
914.43	10188.05
914.742	10095.17
915.054	10025.34
915.366	10056.08
915.678	10015.4
915.99	9973.37
916.302	9876.2
916.613	9879.13
916.925	9842.3
917.236	9784.22
917.548	9731.11
917.859	9680.95
918.171	9691.57
918.482	9631.91
918.794	9629.65
919.105	9586.03
919.416	9466.04
919.727	9488.18
920.038	9459.26
920.349	9326.61
920.66	9319.37
920.971	9321.18
921.282	9295.19
921.593	9207.06
921.903	9186.04
922.214	9178.81
922.525	9092.71
922.835	9057.69
923.146	9072.6
923.456	9019.95
923.767	8965.94
924.077	8934.98
924.387	8865.37
924.697	8809.1
925.008	8778.37
925.318	8742.44
925.628	8762.33
925.938	8711.71
926.248	8584.93
926.558	8623.8
926.867	8615.89
927.177	8560.75
927.487	8464.48
927.796	8444.59
928.106	8444.59
928.416	8396.23
928.725	8443.46
929.034	8282.79
929.344	8310.59
929.653	8279.4
929.962	8217.48
930.271	8216.58
930.581	8142.91
930.89	8109.69
931.199	8038.05
931.508	7986.98
931.817	7967.32
932.125	8051.16
932.434	7943.36
932.743	7875.12
933.051	7840.32
933.36	7814.1
933.669	7693.2
933.977	7650.94
934.286	7703.37
934.594	7661.11
934.902	7607.33
935.21	7564.39
935.519	7578.63
935.827	7502.47
936.135	7466.09
936.443	7421.57
936.751	7388.8
937.059	7337.96
937.367	7332.08
937.674	7343.15
937.982	7311.29
938.29	7233.1
938.597	7308.13
938.905	7127.79
939.213	7115.82
939.52	7050.51
939.827	7077.4
940.135	7044.63
940.442	7028.59
940.749	6972.32
941.056	6963.73
941.363	6901.36
941.67	6906.1
941.977	6827.01
942.284	6814.35
942.591	6789.27
942.898	6828.82
943.205	6718.09
943.511	6707.69
943.818	6719.89
944.125	6675.83
944.431	6599.9
944.738	6660.01
945.044	6556.51
945.35	6557.19
945.657	6469.28
945.963	6483.52
946.269	6474.7
946.575	6463.18
946.881	6421.6
947.187	6397.64
947.493	6346.12
947.799	6307.93
948.105	6324.42
948.41	6251.21
948.716	6236.74
949.022	6173.47
949.327	6156.74
949.633	6090.53
949.938	6065.67
950.244	6074.94
950.549	6030.87
950.854	6019.8
951.16	6048.73
951.465	5926.24
951.77	5967.6
952.075	5910.42
952.38	5881.72
952.685	5935.28
952.99	5799.24
953.294	5817.77
953.599	5808.05
953.904	5786.13
954.209	5752.01
954.513	5726.47
954.818	5686.47
955.122	5726.7
955.426	5635.18
955.731	5623.2
956.035	5596.53
956.339	5627.49
956.643	5558.79
956.948	5539.59
957.252	5491.23
957.556	5495.97
957.86	5448.74
958.163	5476.08
958.467	5424.11
958.771	5408.06
959.075	5351.79
959.378	5289.88
959.682	5356.09
959.985	5335.07
960.289	5260.95
960.592	5247.62
960.896	5228.41
961.199	5186.83
961.502	5157
961.805	5146.83
962.108	5092.14
962.411	5062.31
962.714	5029.32
963.017	5046.04
963.32	5048.53
963.623	4989.09
963.926	5015.98
964.228	4932.6
964.531	4939.83
964.833	4922.88
965.136	4926.27
965.438	4882.88
965.741	4849.89
966.043	4834.97
966.345	4802.43
966.648	4745.03
966.95	4776.22
967.252	4728.31
967.554	4705.26
967.856	4688.53
968.158	4639.95
968.46	4671.13
968.761	4634.53
969.063	4612.38
969.365	4583.68
969.666	4590.01
969.968	4525.15
970.269	4528.09
970.571	4475.43
970.872	4498.94
971.174	4424.14
971.475	4460.29
971.776	4436.34
972.077	4428.65
972.378	4394.98
972.679	4388.88
972.98	4349.56
973.281	4328.32
973.582	4326.06
973.883	4298.94
974.183	4274.53
974.484	4244.7
974.785	4248.09
975.085	4229.56
975.386	4199.73
975.686	4167.87
975.986	4180.75
976.287	4121.09
976.587	4109.57
976.887	4068.89
977.187	4120.64
977.487	4092.84
977.787	4032.73
978.087	4030.25
978.387	4024.82
978.687	4002
978.987	4005.39
979.286	3926.07
979.586	3963.13
979.885	3926.3
980.185	3898.5
980.484	3909.8
980.784	3904.37
981.083	3836.58
981.382	3857.14
981.682	3858.95
981.981	3824.6
982.28	3818.73
982.579	3760.2
982.878	3762.46
983.177	3740.76
983.475	3765.85
983.774	3705.96
984.073	3690.6
984.372	3636.36
984.67	3667.09
984.969	3650.6
985.267	3617.83
985.566	3593.87
985.864	3603.59
986.162	3544.16
986.461	3555.01
986.759	3540.09
987.057	3475.01
987.355	3501.45
987.653	3481.79
987.951	3477.04
988.249	3460.32
988.547	3477.49
988.844	3393.65
989.142	3395.24
989.44	3373.99
989.737	3385.29
990.035	3378.51
990.332	3345.29
990.63	3315.46
990.927	3314.33
991.224	3277.05
991.521	3294
991.819	3263.94
992.116	3261.23
992.413	3209.7
992.71	3219.2
993.006	3211.96
993.303	3164.73
993.6	3180.78
993.897	3118.18
994.193	3124.73
994.49	3076.15
994.787	3128.8
995.083	3092.87
995.379	3065.3
995.676	3046.54
995.972	3023.04
996.268	3009.71
996.565	2971.52
996.861	2992.08
997.157	3021.46
997.453	2971.52
997.749	2968.81
998.044	2939.2
998.34	2889.49
998.636	2887.45
998.932	2883.16
999.227	2844.06
999.523	2855.81
999.818	2843.84
1000.114	2834.12
1000.409	2777.4
1000.704	2795.48
1001	2731.75
1001.295	2762.94
1001.59	2708.25
1001.885	2729.72
1002.18	2688.59
1002.475	2669.83
1002.77	2663.73
1003.065	2637.97
1003.359	2643.62
1003.654	2650.17
1003.949	2623.96
1004.243	2602.49
1004.538	2562.94
1004.832	2571.75
1005.127	2557.52
1005.421	2536.73
1005.715	2507.12
1006.009	2523.62
1006.304	2487.46
1006.598	2511.87
1006.892	2472.32
1007.186	2466.22
1007.48	2422.15
1007.773	2437.75
1008.067	2442.72
1008.361	2382.83
1008.655	2402.27
1008.948	2381.7
1009.242	2334.25
1009.535	2330.63
1009.829	2348.26
1010.122	2284.53
1010.415	2283.63
1010.708	2259.22
1011.001	2291.31
1011.295	2241.82
1011.588	2263.97
1011.881	2232.1
1012.173	2215.38
1012.466	2212.22
1012.759	2200.92
1013.052	2197.98
1013.344	2173.57
1013.637	2174.25
1013.93	2137.87
1014.222	2127.47
1014.514	2113.24
1014.807	2117.3
1015.099	2063.75
1015.391	2062.62
1015.683	2046.12
1015.976	2039.79
1016.268	2026.46
1016.56	2031.88
1016.851	2022.84
1017.143	2018.32
1017.435	1955.95
1017.727	1999.57
1018.018	1952.11
1018.31	1917.53
1018.602	1937.19
1018.893	1886.12
1019.185	1899.46
1019.476	1904.2
1019.767	1861.72
1020.058	1854.71
1020.35	1833.92
1020.641	1820.36
1020.932	1830.76
1021.223	1830.08
1021.514	1799.12
1021.804	1800.48
1022.095	1792.11
1022.386	1800.93
1022.677	1778.78
1022.967	1740.59
1023.258	1713.47
1023.548	1706.92
1023.839	1708.27
1024.129	1661.04
1024.419	1686.81
1024.709	1687.03
1025	1669.86
1025.29	1650.87
1025.58	1637.32
1025.87	1606.58
1026.16	1618.33
1026.449	1617.43
1026.739	1550.31
1027.029	1586.02
1027.319	1589.86
1027.608	1571.1
1027.898	1539.69
1028.187	1532.01
1028.477	1557.32
1028.766	1519.8
1029.055	1480.03
1029.344	1496.75
1029.634	1460.37
1029.923	1516.19
1030.212	1445
1030.501	1441.61
1030.79	1423.76
1031.078	1407.72
1031.367	1421.95
1031.656	1406.59
1031.945	1419.47
1032.233	1412.24
1032.522	1375.63
1032.81	1372.46
1033.099	1374.5
1033.387	1328.4
1033.675	1339.92
1033.963	1337.66
1034.251	1315.74
1034.54	1318.23
1034.828	1314.39
1035.116	1309.19
1035.403	1281.17
1035.691	1275.74
1035.979	1271.45
1036.267	1246.37
1036.554	1259.7
1036.842	1237.55
1037.129	1221.28
1037.417	1231.68
1037.704	1214.5
1037.992	1163.66
1038.279	1199.36
1038.566	1180.15
1038.853	1180.15
1039.14	1180.15
