Data from White_reflection_standard_FLMS001491_059.txt Node
Date: Tue Feb 07 10:32:07 GMT 2017
User: dcchb
Spectrometer: FLMS00149
Trigger mode: 0
Integration Time (sec): 2.000000E-2
Scans to average: 10
Electric dark correction enabled: true
Nonlinearity correction enabled: false
Boxcar width: 0
XAxis mode: Wavelengths
Number of Pixels in Spectrum: 2048
>>>>>Begin Spectral Data<<<<<
341.393	-11.69
341.776	-11.69
342.16	-11.69
342.543	-49.43
342.927	-74.07
343.31	-76.33
343.693	-82.88
344.077	-55.31
344.46	-50.11
344.843	-34.29
345.226	-47.85
345.61	-38.13
345.993	-18.47
346.376	-4.69
346.759	-2.2
347.142	37.34
347.525	42.77
347.908	64.91
348.291	68.3
348.674	94.97
349.057	101.97
349.44	113.95
349.823	118.02
350.206	167.96
350.588	226.27
350.971	251.8
351.354	267.39
351.737	277.79
352.119	265.13
352.502	310.56
352.884	295.42
353.267	333.16
353.65	331.8
354.032	335.87
354.414	345.13
354.797	380.61
355.179	387.39
355.562	387.84
355.944	385.81
356.326	375.64
356.709	397.33
357.091	383.78
357.473	384.91
357.855	377.22
358.238	407.05
358.62	392.59
359.002	380.61
359.384	419.25
359.766	398.01
360.148	419.71
360.53	401.85
360.912	398.24
361.294	416.09
361.676	407.73
362.057	434.62
362.439	404.11
362.821	397.33
363.203	402.98
363.584	392.14
363.966	389.65
364.348	402.31
364.729	416.99
365.111	393.94
365.493	402.76
365.874	391.91
366.256	414.51
366.637	426.26
367.019	403.89
367.4	418.58
367.781	393.94
368.163	431.01
368.544	409.09
368.925	412.25
369.306	447.95
369.688	440.04
370.069	427.84
370.45	429.88
370.831	444.79
371.212	441.85
371.593	439.14
371.974	432.59
372.355	444.11
372.736	438.01
373.117	432.81
373.498	429.42
373.879	466.26
374.26	444.79
374.641	451.57
375.021	456.77
375.402	453.38
375.783	459.48
376.163	491.34
376.544	511.46
376.925	475.3
377.305	489.99
377.686	480.95
378.066	494.96
378.447	501.74
378.827	516.88
379.208	477.33
379.588	490.67
379.968	528.86
380.349	504.68
380.729	526.37
381.109	524.79
381.489	529.76
381.87	551
382.25	527.95
382.63	553.26
383.01	554.39
383.39	559.36
383.77	575.63
384.15	574.96
384.53	573.6
384.91	594.84
385.29	584.67
385.67	604.11
386.049	599.36
386.429	610.66
386.809	611.79
387.189	636.88
387.568	625.35
387.948	642.75
388.328	662.19
388.707	643.66
389.087	654.28
389.466	676.87
389.846	649.98
390.225	683.43
390.605	685.91
390.984	680.94
391.363	738.57
391.743	700.6
392.122	724.11
392.501	749.87
392.881	776.08
393.26	735.86
393.639	747.61
394.018	749.42
394.397	772.24
394.776	794.16
395.155	782.63
395.534	792.13
395.913	792.8
396.292	806.36
396.671	797.1
397.05	834.84
397.429	816.76
397.808	852.46
398.186	833.25
398.565	846.14
398.944	869.41
399.323	874.61
399.701	890.2
400.08	876.87
400.458	903.54
400.837	927.26
401.215	938.56
401.594	908.73
401.972	949.86
402.351	966.58
402.729	960.48
403.107	969.3
403.486	996.64
403.864	1002.29
404.242	980.14
404.62	1026.92
404.999	1026.24
405.377	1039.35
405.755	1052.91
406.133	1060.37
406.511	1086.58
406.889	1094.49
407.267	1103.76
407.645	1144.43
408.023	1162.51
408.401	1176.52
408.779	1176.3
409.156	1194.38
409.534	1211.32
409.912	1219.01
410.29	1224.21
410.667	1246.35
411.045	1279.57
411.422	1326.35
411.8	1315.28
412.178	1335.61
412.555	1374.26
412.933	1352.11
413.31	1366.57
413.687	1390.08
414.065	1436.85
414.442	1422.84
414.819	1447.7
415.197	1446.57
415.574	1490.86
415.951	1492.22
416.328	1522.73
416.705	1545.55
417.082	1512.33
417.46	1539
417.837	1586.23
418.214	1571.99
418.591	1606.12
418.967	1637.08
419.344	1611.09
419.721	1647.24
420.098	1627.13
420.475	1670.3
420.852	1685.21
421.228	1739.67
421.605	1722.95
421.982	1766.11
422.358	1781.25
422.735	1801.14
423.111	1777.64
423.488	1835.49
423.864	1871.65
424.241	1889.72
424.617	1905.54
424.994	1931.98
425.37	1941.7
425.746	1955.94
426.123	1995.26
426.499	1972.66
426.875	2010.85
427.251	2060.57
427.627	2075.93
428.003	2121.81
428.379	2155.71
428.756	2157.97
429.132	2186.89
429.507	2244.74
429.883	2277.51
430.259	2306.21
430.635	2318.41
431.011	2356.38
431.387	2414.91
431.763	2430.5
432.138	2445.42
432.514	2501.91
432.89	2480.22
433.265	2566.32
433.641	2600.89
434.016	2610.16
434.392	2665.98
434.767	2737.16
435.143	2721.34
435.518	2738.52
435.894	2783.71
436.269	2859.19
436.644	2894.9
437.02	2904.84
437.395	2919.98
437.77	2933.09
438.145	2980.77
438.52	3034.78
438.895	3075
439.271	3063.93
439.646	3110.94
440.021	3116.13
440.395	3175.79
440.77	3189.58
441.145	3190.71
441.52	3260.08
441.895	3227.32
442.27	3336.01
442.645	3312.51
443.019	3362.68
443.394	3330.36
443.769	3411.49
444.143	3404.94
444.518	3449.23
444.892	3431.15
445.267	3467.76
445.641	3564.26
446.016	3522.68
446.39	3593.41
446.764	3585.27
447.139	3591.6
447.513	3675.67
447.887	3702.11
448.262	3733.97
448.636	3756.79
449.01	3789.11
449.384	3842.44
449.758	3835.44
450.132	3893.29
450.506	3904.59
450.88	3945.04
451.254	3957.92
451.628	4007.63
452.002	4037.69
452.376	4085.37
452.75	4120.85
453.123	4184.35
453.497	4287.18
453.871	4288.76
454.244	4371.02
454.618	4445.82
454.992	4461.86
455.365	4479.03
455.739	4622.99
456.112	4605.59
456.486	4685.36
456.859	4766.48
457.232	4849.65
457.606	4834.51
457.979	4870.21
458.352	5000.6
458.725	5034.5
459.099	5062.52
459.472	5123.76
459.845	5255.29
460.218	5281.05
460.591	5309.97
460.964	5373.02
461.337	5456.18
461.71	5579.57
462.083	5630.19
462.456	5650.3
462.829	5687.82
463.201	5770.07
463.574	5856.85
463.947	5903.4
464.32	6038.54
464.692	6074.93
465.065	6166.67
465.438	6228.37
465.81	6315.14
466.183	6347.46
466.555	6518.08
466.928	6589.26
467.3	6554.01
467.672	6695.93
468.045	6866.77
468.417	6911.51
468.789	6901.34
469.161	7084.16
469.534	7169.59
469.906	7314.21
470.278	7410.26
470.65	7470.59
471.022	7598.95
471.394	7733.19
471.766	7812.51
472.138	7894.76
472.51	8083.69
472.882	8193.29
473.253	8273.74
473.625	8465.6
473.997	8605.48
474.369	8677.57
474.74	8737.23
475.112	8911.01
475.484	9117.33
475.855	9287.04
476.227	9336.53
476.598	9615.85
476.97	9645
477.341	9936.74
477.713	10094.03
478.084	10093.8
478.455	10333.34
478.827	10471.87
479.198	10818.98
479.569	10807
479.94	11113.44
480.311	11266.2
480.682	11481.79
481.053	11770.14
481.424	11901.21
481.795	12084.48
482.166	12247.19
482.537	12366.29
482.908	12701.87
483.279	12781.87
483.65	13066.61
484.021	13212.82
484.391	13450.55
484.762	13557.44
485.133	13724.22
485.503	13941.61
485.874	14225.9
486.244	14340.24
486.615	14655.94
486.985	14771.42
487.356	14974.13
487.726	15169.15
488.097	15520.55
488.467	15526.88
488.837	15883.25
489.207	16116.92
489.578	16283.7
489.948	16468.78
490.318	16710.13
490.688	16746.96
491.058	17085.03
491.428	17349.88
491.798	17476.66
492.168	17802.07
492.538	17893.82
492.908	18047.27
493.278	18235.51
493.648	18310.99
494.017	18610.41
494.387	18640.24
494.757	18867.36
495.126	19129.27
495.496	19206.78
495.866	19436.38
496.235	19542.14
496.605	19834.79
496.974	19806.77
497.344	20063.26
497.713	20136.02
498.082	20386.87
498.452	20531.95
498.821	20740.08
499.19	20703.69
499.559	21010.58
499.928	21075.21
500.298	21246.96
500.667	21381.19
501.036	21576.44
501.405	21789.99
501.774	21814.85
502.143	21953.15
502.512	22056.88
502.88	22258.23
503.249	22372.12
503.618	22627.26
503.987	22594.04
504.356	22803.98
504.724	23051.2
505.093	23089.17
505.462	23222.27
505.83	23384.3
506.199	23605.76
506.567	23850.95
506.936	23831.75
507.304	24162.81
507.672	24339.53
508.041	24452.29
508.409	24566.87
508.777	24876.92
509.145	25058.15
509.514	24987.87
509.882	25280.3
510.25	25400.97
510.618	25444.36
510.986	25767.29
511.354	25962.99
511.722	26225.58
512.09	26455.18
512.458	26423.77
512.826	26626.48
513.193	26873.02
513.561	26925.9
513.929	27168.83
514.297	27379.9
514.664	27702.6
515.032	27725.66
515.4	27957.74
515.767	28034.35
516.135	28306.88
516.502	28166.77
516.869	28807.21
517.237	28817.38
517.604	28793.88
517.972	29162.68
518.339	29385.05
518.706	29509.11
519.073	29650.35
519.44	29858.25
519.808	30186.38
520.175	30244.01
520.542	30721.96
520.909	30861.84
521.276	31008.51
521.643	31305.67
522.009	31550.19
522.376	31644.87
522.743	31947.24
523.11	32230.85
523.477	32533.89
523.843	32660.67
524.21	33127.1
524.577	33322.57
524.943	33447.99
525.31	33532.73
525.676	33944.02
526.043	34177.69
526.409	34298.59
526.776	34777
527.142	34800.27
527.508	34972.02
527.874	35307.15
528.241	35587.82
528.607	35593.47
528.973	36031.2
529.339	35971.99
529.705	36403.17
530.071	36631.64
530.437	36645.19
530.803	37053.55
531.169	37193.88
531.535	37272.52
531.901	37391.16
532.267	37666.18
532.632	37920.19
532.998	37909.34
533.364	38236.34
533.73	38282.67
534.095	38633.62
534.461	38841.07
534.826	39053.27
535.192	39028.18
535.557	39285.58
535.923	39413.48
536.288	39618.45
536.653	39762.85
537.019	39702.74
537.384	39930.98
537.749	40147.25
538.114	40248.49
538.479	40273.8
538.845	40461.59
539.21	40573.68
539.575	40774.35
539.94	40930.28
540.305	41157.17
540.67	41034.68
541.034	41187.67
541.399	41471.96
541.764	41569.36
542.129	41610.71
542.494	41742.91
542.858	42025.39
543.223	42101.77
543.587	42379.96
543.952	42257.7
544.316	42359.39
544.681	42496.34
545.045	42737.24
545.41	42964.8
545.774	42975.2
546.138	43115.31
546.503	43227.39
546.867	43298.35
547.231	43646.37
547.595	43729.08
547.959	43971.56
548.324	43972.01
548.688	44128.39
549.052	44134.04
549.416	44305.33
549.779	44392.34
550.143	44554.59
550.507	44820.12
550.871	44977.18
551.235	44799.33
551.599	45283.84
551.962	45581
552.326	45525.41
552.689	45704.62
553.053	45597.73
553.417	45734.9
553.78	46297.14
554.143	46265.05
554.507	46441.1
554.87	46584.82
555.234	46863.23
555.597	46654.42
555.96	46904.13
556.323	47067.75
556.686	47204.24
557.05	47508.41
557.413	47467.28
557.776	47582.31
558.139	48026.82
558.502	48011.68
558.865	48069.08
559.228	48420.48
559.59	48503.41
559.953	48525.56
560.316	48992.21
560.679	48904.31
561.041	49311.98
561.404	49383.16
561.767	49625.19
562.129	49521.47
562.492	49937.73
562.854	49954.9
563.217	50028.57
563.579	50241.67
563.941	50341.78
564.304	50522.57
564.666	50793.3
565.028	50788.55
565.39	50746.97
565.753	51179.28
566.115	51247.3
566.477	51402.09
566.839	51499.49
567.201	51679.38
567.563	51727.28
567.925	51966.83
568.287	51990.33
568.648	52053.6
569.01	52231.23
569.372	52447.72
569.734	52354.61
570.095	52621.5
570.457	52747.37
570.819	52755.73
571.18	52723.42
571.542	52958.21
571.903	52955.27
572.265	53122.05
572.626	53172.9
572.987	53263.74
573.349	53344.64
573.71	53446.56
574.071	53524.3
574.432	53648.36
574.794	53861.69
575.155	53757.97
575.516	53786.66
575.877	53899.88
576.238	54011.52
576.599	54070.73
576.96	54111.85
577.32	54129.48
577.681	54198.18
578.042	54222.81
578.403	54235.24
578.763	54343.03
579.124	54395.46
579.485	54497.15
579.845	54614.67
580.206	54487.89
580.566	54602.69
580.927	54520.66
581.287	54640.43
581.648	54543.71
582.008	54706.41
582.368	54589.13
582.728	54751.16
583.089	54632.52
583.449	54712.06
583.809	54682.91
584.169	54769.46
584.529	54760.2
584.889	54928.56
585.249	54783.93
585.609	54687.66
585.969	54795.45
586.329	54725.62
586.688	54862.34
587.048	54891.49
587.408	54729.01
587.768	54735.57
588.127	54801.33
588.487	54729.92
588.846	54968.78
589.206	54738.96
589.565	54722.23
589.925	54897.82
590.284	54752.52
590.643	54921.32
591.003	54965.39
591.362	54947.09
591.721	54930.82
592.08	54936.24
592.44	55027.76
592.799	55042.23
593.158	54862.12
593.517	54978.05
593.876	54972.62
594.235	54941.66
594.593	54964.04
594.952	55010.59
595.311	54952.28
595.67	55020.53
596.029	55139.85
596.387	55147.31
596.746	55196.12
597.104	55073.18
597.463	55057.37
597.822	55228.21
598.18	55118.83
598.538	55088.78
598.897	55263.24
599.255	55038.61
599.613	55461.88
599.972	55256
600.33	55407.87
600.688	55213.07
601.046	55327.19
601.404	55421.2
601.762	55327.19
602.12	55516.56
602.478	55431.59
602.836	55472.72
603.194	55376.68
603.552	55493.06
603.91	55316.79
604.268	55490.57
604.625	55424.14
604.983	55536.68
605.341	55449.67
605.698	55599.72
606.056	55628.2
606.413	55649.67
606.771	55691.25
607.128	55768.08
607.485	55607.63
607.843	55599.27
608.2	55792.26
608.557	55878.36
608.914	55716.56
609.272	55900.51
609.629	55946.16
609.986	56051.24
610.343	55874.97
610.7	56121.74
611.057	56046.49
611.414	56044.01
611.771	56000.17
612.127	56195.87
612.484	56079.49
612.841	56211.01
613.198	56041.97
613.554	56201.06
613.911	56314.51
614.267	56217.79
614.624	56259.82
614.98	56296.43
615.337	56355.86
615.693	56341.63
616.05	56369.2
616.406	56514.5
616.762	56356.99
617.118	56360.16
617.475	56378.46
617.831	56442.87
618.187	56510.21
618.543	56541.85
618.899	56660.71
619.255	56530.77
619.611	56528.06
619.967	56621.84
620.323	56717.21
620.678	56542.75
621.034	56531.45
621.39	56529.87
621.746	56430.89
622.101	56832.23
622.457	56523.99
622.812	56593.14
623.168	56635.4
623.523	56646.93
623.879	56714.72
624.234	56433.6
624.589	56565.57
624.945	56632.92
625.3	56676.31
625.655	56619.36
626.01	56584.56
626.365	56666.59
626.72	56564.22
627.075	56646.25
627.43	56572.58
627.785	56488.74
628.14	56630.43
628.495	56570.32
628.85	56547.04
629.205	56501.17
629.559	56579.36
629.914	56475.41
630.269	56501.85
630.623	56371.23
630.978	56359.7
631.332	56502.75
631.687	56484.67
632.041	56386.37
632.396	56368.07
632.75	56293.49
633.104	56335.07
633.459	56214.4
633.813	56194.06
634.167	56166.72
634.521	56188.18
634.875	56199.26
635.229	56142.54
635.583	55974.4
635.937	55987.06
636.291	55990.22
636.645	56014.63
636.999	55905.71
637.352	56020.05
637.706	55772.6
638.06	55938.47
638.413	55785.71
638.767	55771.47
639.121	55746.16
639.474	55599.72
639.828	55604.7
640.181	55640.4
640.534	55672.49
640.888	55545.71
641.241	55390.92
641.594	55524.7
641.947	55566.96
642.301	55421.65
642.654	55427.75
643.007	55399.28
643.36	55390.92
643.713	55297.59
644.066	55418.94
644.419	55103.01
644.771	55027.54
645.124	54672.29
645.477	54664.38
645.83	54502.58
646.182	54357.95
646.535	54314.11
646.888	54393.2
647.24	54194.79
647.593	54350.94
647.945	54261.91
648.298	54079.76
648.65	54037.51
649.002	53968.13
649.355	54095.58
649.707	53993.44
650.059	54168.8
650.411	54491.28
650.763	54439.98
651.115	54766.3
651.467	54621.22
651.819	54728.56
652.171	54568.79
652.523	54515.69
652.875	54519.98
653.227	54371.96
653.578	54455.57
653.93	54482.69
654.282	54334.22
654.633	54326.09
654.985	54234.34
655.337	54264.84
655.688	54249.48
656.039	54347.1
656.391	54095.81
656.742	54119.54
657.094	54143.04
657.445	54179.42
657.796	54151.18
658.147	53994.12
658.498	54026.88
658.849	54190.04
659.2	54089.48
659.551	53952.08
659.902	54126.77
660.253	54014.91
660.604	53970.16
660.955	53862.6
661.306	53982.14
661.656	53938.07
662.007	53996.83
662.358	53801.13
662.708	53811.07
663.059	53796.16
663.409	53652.43
663.76	53840.9
664.11	53814.91
664.461	53828.7
664.811	53792.99
665.161	53850.17
665.511	53608.36
665.862	53649.27
666.212	53728.36
666.562	53763.84
666.912	53660.79
667.262	53617.18
667.612	53633.67
667.962	53617.86
668.312	53504.41
668.662	53731.07
669.011	53543.96
669.361	53570.85
669.711	53466
670.06	53446.79
670.41	53370.63
670.76	53339.9
671.109	53437.52
671.459	53447.01
671.808	53277.3
672.157	53420.35
672.507	53154.14
672.856	53240.92
673.205	53207.7
673.554	53320.46
673.904	53164.76
674.253	53366.56
674.602	53248.37
674.951	52776.75
675.3	52524.55
675.649	53104.87
675.998	53028.27
676.346	53092.9
676.695	53109.17
677.044	52962.96
677.393	52962.28
677.741	52962.51
678.09	52970.19
678.438	52927.25
678.787	52936.07
679.135	52869.4
679.484	52582.63
679.832	52792.57
680.181	52525
680.529	52565.45
680.877	52624.66
681.225	52525.91
681.573	52751.21
681.922	52560.48
682.27	52395.51
682.618	52436.64
682.966	52306.7
683.314	52245.01
683.661	52323.2
684.009	52091.34
684.357	51956.2
684.705	51882.99
685.053	51964.11
685.4	51941.74
685.748	51759.37
686.095	51729.32
686.443	51574.29
686.79	51545.14
687.138	51666.95
687.485	51607.74
687.832	51431.7
688.18	51468.76
688.527	51250.69
688.874	51326.39
689.221	51113.06
689.568	50996.91
689.915	51005.72
690.262	51035.78
690.609	50787.87
690.956	50698.16
691.303	50698.61
691.65	50589.91
691.997	50514.21
692.344	50313.08
692.69	50227.89
693.037	50288.68
693.383	49863.15
693.73	50074.22
694.077	49914.45
694.423	49818.18
694.769	49912.64
695.116	49598.07
695.462	49534.35
695.808	49522.37
696.155	49462.03
696.501	49360.79
696.847	49226.11
697.193	48883.74
697.539	49134.13
697.885	48754.25
698.231	48710.19
698.577	48781.6
698.923	48601.04
699.269	48433.81
699.614	48306.81
699.96	48235.85
700.306	48262.52
700.651	48121.96
700.997	47849.65
701.342	47862.53
701.688	47688.07
702.033	47614.62
702.379	47600.61
702.724	47579.6
703.069	47570.56
703.415	47065.94
703.76	47148.42
704.105	47104.13
704.45	46976
704.795	46737.36
705.14	46506.86
705.485	46581.2
705.83	46498.04
706.175	46631.37
706.52	46237.26
706.865	46156.58
707.209	46202.23
707.554	46006.3
707.899	46048.79
708.243	45910.49
708.588	45829.81
708.932	45454
709.277	45468.01
709.621	45454
709.966	45259.43
710.31	45303.95
710.654	44902.83
710.998	45064.41
711.342	45082.94
711.687	45015.6
712.031	44738.09
712.375	44580.13
712.719	44667.81
713.063	44537.19
713.407	44609.05
713.75	44454.48
714.094	44423.97
714.438	44109.63
714.782	44242.51
715.125	44012.23
715.469	44171.55
715.812	43816.76
716.156	43701.05
716.499	43674.61
716.843	43568.4
717.186	43397.79
717.53	43576.31
717.873	43519.14
718.216	43421.29
718.559	43263.55
718.902	42940.17
719.246	43107.62
719.589	42823.56
719.932	42788.99
720.275	42846.84
720.617	42758.25
720.96	42718.26
721.303	42688.43
721.646	42689.56
721.989	42425.38
722.331	42544.25
722.674	42249.57
723.016	42320.98
723.359	42160.08
723.701	42280.07
724.044	42002.57
724.386	41777.04
724.729	42039.4
725.071	41887.32
725.413	41739.3
725.755	41662.92
726.097	41581.56
726.439	41404.39
726.782	41456.37
727.124	41483.26
727.465	41349.93
727.807	41306.32
728.149	41170.95
728.491	41130.73
728.833	41185.87
729.175	41009.83
729.516	40942.03
729.858	40784.75
730.199	40948.13
730.541	40786.1
730.882	40694.81
731.224	40678.31
731.565	40599.67
731.906	40573.9
732.248	40472.21
732.589	40248.26
732.93	40147.25
733.271	40136.63
733.612	40215.5
733.953	40251.88
734.294	40071.55
734.635	39866.13
734.976	39967.37
735.317	39882.17
735.658	39656.19
735.999	39700.93
736.339	39572.35
736.68	39704.78
737.021	39518.57
737.361	39465.69
737.702	39620.71
738.042	39442.41
738.383	39234.96
738.723	39272.47
739.063	39097.33
739.404	39072.93
739.744	39280.61
740.084	38873.61
740.424	38805.14
740.764	38843.78
741.104	39055.3
741.444	38700.96
741.784	38565.6
742.124	38806.95
742.464	38654.41
742.804	38540.74
743.143	38487.18
743.483	38332.61
743.823	38239.5
744.162	38171.26
744.502	38346.17
744.841	38088.32
745.181	38253.74
745.52	38084.03
745.86	37969.68
746.199	37935.33
746.538	37950.7
746.877	37893.75
747.216	37829.8
747.556	37641.33
747.895	37679.07
748.234	37435.91
748.573	37435.68
748.911	37485.17
749.25	37366.31
749.589	37092.41
749.928	37295.12
750.267	37331.73
750.605	37249.25
750.944	37101.68
751.283	36852.42
751.621	37067.78
751.96	36776.26
752.298	36738.98
752.636	36748.47
752.975	36525.42
753.313	36424.41
753.651	36515.71
753.989	36251.53
754.327	36253.34
754.666	35975.16
755.004	36025.32
755.342	36050.41
755.679	35957.98
756.017	35791.88
756.355	35792.79
756.693	35602.51
757.031	35685.45
757.368	35370.88
757.706	35379.47
758.044	35320.03
758.381	35187.61
758.719	35084.78
759.056	35024.22
759.394	34953.94
759.731	34648.41
760.068	34748.07
760.405	34558.92
760.743	34331.58
761.08	34496.55
761.417	34225.37
761.754	34206.61
762.091	34033.74
762.428	34063.34
762.765	33847.53
763.102	33936.57
763.438	33735.21
763.775	33579.96
764.112	33520.98
764.449	33572.96
764.785	33325.73
765.122	33164.38
765.458	32998.96
765.795	33024.27
766.131	32880.77
766.467	32842.13
766.804	32748.8
767.14	32603.49
767.476	32494.34
767.812	32361.47
768.148	32368.7
768.485	32148.36
768.821	32014.81
769.157	31925.54
769.492	31812.78
769.828	31742.5
770.164	31645.78
770.5	31531.66
770.836	31655.04
771.171	31227.94
771.507	31229.52
771.842	30965.8
772.178	30992.24
772.513	30958.56
772.849	30802.18
773.184	30674.73
773.519	30585.02
773.855	30502.53
774.19	30341.41
774.525	30224.35
774.86	30247.85
775.195	30168.08
775.53	29992.49
775.865	29828.42
776.2	29694.87
776.535	29497.13
776.87	29542.33
777.205	29323.58
777.539	29261.89
777.874	29191.83
778.209	28951.61
778.543	28922.69
778.878	28744.61
779.212	28729.92
779.547	28570.6
779.881	28663.26
780.215	28378.29
780.55	28435.92
780.884	28212.65
781.218	28156.83
781.552	28082.48
781.886	28007.23
782.22	27819.44
782.554	27640.01
782.888	27433.23
783.222	27441.82
783.556	27209.51
783.889	27214.93
784.223	27064.88
784.557	27087.25
784.89	26972.45
785.224	26903.76
785.557	26687.94
785.891	26668.28
786.224	26576.08
786.558	26600.04
786.891	26334.51
787.224	26279.82
787.557	26253.6
787.891	26165.47
788.224	26134.28
788.557	26020.84
788.89	25901.52
789.223	25871.01
789.556	25708.31
789.888	25507.41
790.221	25516.9
790.554	25354.87
790.887	25161.43
791.219	25165.72
791.552	25084.82
791.884	25043.01
792.217	24932.73
792.549	24869.01
792.882	24692.74
793.214	24530.26
793.546	24606.64
793.879	24443.26
794.211	24385.4
794.543	24446.87
794.875	24222.7
795.207	24357.61
795.539	24184.96
795.871	24154.22
796.203	23963.49
796.535	23819.09
796.867	23825.87
797.198	23737.96
797.53	23645.54
797.862	23489.38
798.193	23494.58
798.525	23294.59
798.856	23366.67
799.188	23104.76
799.519	23134.82
799.85	22955.84
800.182	23157.64
800.513	22959.45
800.844	22726.69
801.175	22943.86
801.506	22881.71
801.837	22569.41
802.168	22627.48
802.499	22611.44
802.83	22501.16
803.161	22343.42
803.491	22392.46
803.822	22378.23
804.153	22174.39
804.483	22047.16
804.814	21977.56
805.145	21951.57
805.475	21932.59
805.805	21907.73
806.136	21897.79
806.466	21759.94
806.796	21787.51
807.126	21615.53
807.457	21575.31
807.787	21534.18
808.117	21458.25
808.447	21378.7
808.777	21461.41
809.107	21302.32
809.436	21296.45
809.766	21160.4
810.096	21077.24
810.426	21052.16
810.755	21030.92
811.085	20985.95
811.414	20887.87
811.744	20736.01
812.073	20778.27
812.403	20691.26
812.732	20606.52
813.061	20606.97
813.39	20414.21
813.719	20361.78
814.049	20411.05
814.378	20376.02
814.707	20195.23
815.036	20265.74
815.365	20110.49
815.693	19995.24
816.022	20069.36
816.351	19982.13
816.68	19899.87
817.008	19964.96
817.337	19679.77
817.665	19712.08
817.994	19802.93
818.322	19720.44
818.651	19609.03
818.979	19629.37
819.307	19634.79
819.636	19614.68
819.964	19385.31
820.292	19462.82
820.62	19413.11
820.948	19363.16
821.276	19448.13
821.604	19343.73
821.932	19406.1
822.259	19304.41
822.587	19253.79
822.915	19159.78
823.243	19390.73
823.57	19310.51
823.898	19338.53
824.225	19153.68
824.553	19266.22
824.88	19319.77
825.207	19374.01
825.535	19277.52
825.862	19269.83
826.189	19282.04
826.516	19242.94
826.843	19367.23
827.17	19263.96
827.497	19302.6
827.824	19241.36
828.151	19203.39
828.478	19234.8
828.805	19377.17
829.131	19142.83
829.458	19219.66
829.785	19181.25
830.111	19123.85
830.438	19232.32
830.764	19265.09
831.09	19237.06
831.417	19070.74
831.743	19179.44
832.069	19127.24
832.395	19008.82
832.722	19085.88
833.048	19005.21
833.374	19073
833.7	18988.03
834.026	18951.42
834.351	18944.42
834.677	18977.86
835.003	19042.27
835.329	19029.84
835.654	18866.23
835.98	18862.39
836.306	18883.85
836.631	18820.35
836.956	18939.67
837.282	18885.21
837.607	18670.53
837.932	18773.35
838.258	18698.77
838.583	18732.67
838.908	18482.73
839.233	18528.61
839.558	18532.22
839.883	18510.53
840.208	18383.53
840.533	18492.9
840.858	18408.16
841.182	18336.98
841.507	18331.78
841.832	18168.62
842.156	18192.8
842.481	18245.23
842.805	18204.1
843.13	18110.54
843.454	18040.94
843.778	17909.64
844.103	17954.16
844.427	17945.12
844.751	17930.43
845.075	17935.18
845.399	17774.5
845.723	17644.34
846.047	17654.06
846.371	17674.62
846.695	17570.22
847.019	17413.84
847.343	17353.95
847.666	17244.57
847.99	17220.39
848.313	17182.66
848.637	17052.26
848.96	17104.01
849.284	16941.31
849.607	16862.44
849.931	16792.84
850.254	16794.87
850.577	16576.12
850.9	16535.67
851.223	16511.49
851.546	16333.86
851.869	16281.44
852.192	16410.7
852.515	16208.9
852.838	16116.92
853.161	16122.8
853.483	16155.34
853.806	16037.83
854.129	15959.41
854.451	15871.28
854.774	15793.09
855.096	15806.42
855.419	15670.38
855.741	15728
856.063	15679.64
856.385	15640.55
856.708	15625.63
857.03	15539.08
857.352	15485.53
857.674	15466.32
857.996	15403.72
858.318	15302.48
858.64	15324.63
858.961	15230.39
859.283	15244.63
859.605	15166.21
859.926	15227.9
860.248	15130.73
860.57	15087.57
860.891	15056.61
861.212	14915.37
861.534	14947.91
861.855	14922.6
862.176	14947.01
862.498	14952.88
862.819	14881.25
863.14	14838.54
863.461	14704.98
863.782	14654.13
864.103	14682.38
864.424	14622.27
864.745	14679.44
865.065	14565.1
865.386	14567.13
865.707	14641.03
866.027	14524.42
866.348	14447.81
866.668	14504.53
866.989	14448.04
867.309	14347.02
867.63	14346.12
867.95	14353.35
868.27	14314.71
868.59	14284.2
868.91	14235.61
869.23	14274.26
869.55	14254.82
869.87	14287.59
870.19	14175.28
870.51	14148.39
870.83	14167.82
871.15	14146.13
871.469	14020.7
871.789	14095.73
872.109	14041.27
872.428	13961.5
872.748	14052.79
873.067	13986.36
873.386	14022.51
873.706	13952.91
874.025	13826.36
874.344	13815.96
874.663	13877.21
874.982	13853.7
875.301	13780.03
875.62	13767.6
875.939	13755.18
876.258	13712.24
876.577	13729.64
876.896	13680.37
877.214	13614.39
877.533	13641.73
877.852	13660.94
878.17	13576.2
878.489	13633.6
878.807	13614.61
879.125	13512.7
879.444	13566.48
879.762	13491.45
880.08	13441.06
880.398	13395.64
880.716	13463.43
881.034	13374.39
881.352	13349.08
881.67	13299.14
881.988	13238.58
882.306	13258.01
882.624	13230.44
882.941	13172.37
883.259	13190.9
883.577	13056.66
883.894	13158.58
884.212	13004.01
884.529	13120.16
884.846	13052.59
885.164	13008.08
885.481	12932.37
885.798	12899.15
886.115	12838.14
886.432	12868.42
886.75	12868.42
887.067	12746.39
887.383	12765.6
887.7	12743
888.017	12679.95
888.334	12663.9
888.651	12622.1
888.967	12574.19
889.284	12518.6
889.6	12523.79
889.917	12459.84
890.233	12519.95
890.55	12399.73
890.866	12434.98
891.182	12417.36
891.498	12256.01
891.815	12206.29
892.131	12206.97
892.447	12172.84
892.763	12076.58
893.079	12118.38
893.395	12079.29
893.71	12094.43
894.026	12034.77
894.342	11942.79
894.657	11883.59
894.973	11896.47
895.289	11928.56
895.604	11836.58
895.92	11763.14
896.235	11716.81
896.55	11696.47
896.865	11701.22
897.181	11658.28
897.496	11552.75
897.811	11544.84
898.126	11506.42
898.441	11450.38
898.756	11437.72
899.071	11310.04
899.386	11429.13
899.7	11270.04
900.015	11250.16
900.33	11176.94
900.644	11225.07
900.959	11152.53
901.273	11064.4
901.588	11027.11
901.902	10989.82
902.216	10977.39
902.531	10845.2
902.845	10901.69
903.159	10867.57
903.473	10785.08
903.787	10700.11
904.101	10715.71
904.415	10662.6
904.729	10700.11
905.042	10611.53
905.356	10576.95
905.67	10539.21
905.984	10488.37
906.297	10492.21
906.611	10351.65
906.924	10372.67
907.237	10317.3
907.551	10256.06
907.864	10190.3
908.177	10182.16
908.491	10136.06
908.804	10070.98
909.117	10059.9
909.43	10040.02
909.743	9898.78
910.056	9995.95
910.368	9938.55
910.681	9889.74
910.994	9835.96
911.307	9713.93
911.619	9750.08
911.932	9733.13
912.244	9685.23
912.557	9639.35
912.869	9600.71
913.181	9553.7
913.494	9543.08
913.806	9416.98
914.118	9444.1
914.43	9388.28
914.742	9319.59
915.054	9321.62
915.366	9299.25
915.678	9228.97
915.99	9146.03
916.302	9127.05
916.613	9090.66
916.925	9108.97
917.236	9088.18
917.548	8980.39
917.859	8989.88
918.171	8937.45
918.482	8885.47
918.794	8842.76
919.105	8832.37
919.416	8723.22
919.727	8780.62
920.038	8717.34
920.349	8706.49
920.66	8650.68
920.971	8570.23
921.282	8561.64
921.593	8505.6
921.903	8534.3
922.214	8464.24
922.525	8367.29
922.835	8361.87
923.146	8372.94
923.456	8294.3
923.767	8353.06
924.077	8273.51
924.387	8215.66
924.697	8165.72
925.008	8142.22
925.318	8052.5
925.628	8065.83
925.938	8072.61
926.248	7951.71
926.558	7946.51
926.867	7919.4
927.177	7888.44
927.487	7795.56
927.796	7731.38
928.106	7775.67
928.416	7775.9
928.725	7689.8
929.034	7645.51
929.344	7657.93
929.653	7569.57
929.962	7551.27
930.271	7528.45
930.581	7490.48
930.89	7393.08
931.199	7380.88
931.508	7379.75
931.817	7377.49
932.125	7358.73
932.434	7276.93
932.743	7174.78
933.051	7216.36
933.36	7210.94
933.669	7125.52
933.977	7094.79
934.286	7098.4
934.594	7086.65
934.902	7029.93
935.21	6949.48
935.519	6988.12
935.827	6961
936.135	6896.37
936.443	6891.4
936.751	6782.25
937.059	6838.29
937.367	6729.15
937.674	6747.68
937.982	6777.73
938.29	6700.22
938.597	6710.39
938.905	6582.71
939.213	6622.71
939.52	6599.21
939.827	6579.54
940.135	6519.89
940.442	6498.64
940.749	6481.02
941.056	6467.46
941.363	6382.04
941.67	6392.66
941.977	6289.61
942.284	6285.31
942.591	6289.16
942.898	6233.11
943.205	6257.75
943.511	6223.62
943.818	6215.94
944.125	6142.04
944.431	6146.79
944.738	6137.52
945.044	6062.95
945.35	6009.39
945.657	6027.47
945.963	6059.56
946.269	5967.58
946.575	5943.18
946.881	5855.72
947.187	5904.53
947.493	5845.55
947.799	5837.87
948.105	5748.83
948.41	5749.06
948.716	5771.66
949.022	5692.79
949.327	5695.5
949.633	5672.45
949.938	5671.55
950.244	5672.9
950.549	5616.41
950.854	5534.6
951.16	5554.49
951.465	5542.51
951.77	5461.38
952.075	5419.35
952.38	5470.65
952.685	5434.04
952.99	5349.07
953.294	5377.99
953.599	5342.51
953.904	5325.57
954.209	5289.18
954.513	5319.69
954.818	5271.33
955.122	5269.52
955.426	5239.24
955.731	5197.89
956.035	5209.41
956.339	5147.49
956.643	5123.31
956.948	5098.91
957.252	5110.66
957.556	5077.66
957.86	5051
958.163	5011.45
958.467	4993.6
958.771	4935.29
959.075	4986.82
959.378	4895.3
959.682	4893.04
959.985	4897.78
960.289	4875.86
960.592	4835.86
960.896	4818.01
961.199	4801.74
961.502	4742.76
961.805	4744.34
962.108	4754.06
962.411	4689.65
962.714	4669.99
963.017	4653.72
963.32	4647.84
963.623	4582.53
963.926	4656.21
964.228	4528.07
964.531	4534.4
964.833	4531.91
965.136	4483.33
965.438	4483.78
965.741	4448.75
966.043	4420.73
966.345	4457.79
966.648	4419.15
966.95	4431.35
967.252	4405.36
967.554	4334.41
967.856	4328.76
968.158	4346.83
968.46	4288.08
968.761	4265.26
969.063	4274.75
969.365	4231.81
969.666	4217.12
969.968	4178.48
970.269	4200.62
970.571	4158.59
970.872	4175.99
971.174	4109.33
971.475	4128.54
971.776	4086.95
972.077	4045.83
972.378	4021.87
972.679	4012.15
972.98	4009.89
973.281	3961.99
973.582	3984.13
973.883	3953.17
974.183	3919.95
974.484	3903
974.785	3900.07
975.085	3956.11
975.386	3878.82
975.686	3853.51
975.986	3811.03
976.287	3822.78
976.587	3767.42
976.887	3806.28
977.187	3782.1
977.487	3751.82
977.787	3716.34
978.087	3704.82
978.387	3704.59
978.687	3674.54
978.987	3634.99
979.286	3656.91
979.586	3651.03
979.885	3640.19
980.185	3602.9
980.484	3577.82
980.784	3573.97
981.083	3558.83
981.382	3546.63
981.682	3503.92
981.981	3553.41
982.28	3510.25
982.579	3462.34
982.878	3506.18
983.177	3418.72
983.475	3409.68
983.774	3421.21
984.073	3383.47
984.372	3358.84
984.67	3373.75
984.969	3360.87
985.267	3339.63
985.566	3311.16
985.864	3338.27
986.162	3299.63
986.461	3286.75
986.759	3215.79
987.057	3205.62
987.355	3236.58
987.653	3208.56
987.951	3212.4
988.249	3192.51
988.547	3133.76
988.844	3156.58
989.142	3107.09
989.44	3080.65
989.737	3082.46
990.035	3085.63
990.332	3075
990.63	3056.02
990.927	3043.59
991.224	3004.05
991.521	3066.87
991.819	3014.67
992.116	2972.18
992.413	2969.24
992.71	2940.54
993.006	2911.84
993.303	2958.85
993.6	2929.92
993.897	2892.86
994.193	2898.74
994.49	2872.07
994.787	2849.25
995.083	2861
995.379	2781
995.676	2828.23
995.972	2780.55
996.268	2764.5
996.565	2724.96
996.861	2750.72
997.157	2748.91
997.453	2725.63
997.749	2721.57
998.044	2684.51
998.34	2699.87
998.636	2645.41
998.932	2649.7
999.227	2649.7
999.523	2589.37
999.818	2610.84
1000.114	2585.3
1000.409	2585.53
1000.704	2564.73
1001	2559.31
1001.295	2524.74
1001.59	2547.79
1001.885	2475.47
1002.18	2485.41
1002.475	2483.38
1002.77	2460.1
1003.065	2439.31
1003.359	2430.05
1003.654	2430.73
1003.949	2419.43
1004.243	2432.99
1004.538	2389.15
1004.832	2380.78
1005.127	2361.12
1005.421	2358.64
1005.715	2327
1006.009	2326.55
1006.304	2310.73
1006.598	2306.44
1006.892	2288.81
1007.186	2262.82
1007.48	2211.98
1007.773	2224.18
1008.067	2215.14
1008.361	2197.96
1008.655	2185.99
1008.948	2190.73
1009.242	2189.15
1009.535	2157.06
1009.829	2122.26
1010.122	2139.89
1010.415	2142.15
1010.708	2112.09
1011.001	2083.39
1011.295	2081.81
1011.588	2064.41
1011.881	2035.71
1012.173	2034.13
1012.466	2024.41
1012.759	1998.87
1013.052	2014.47
1013.344	2026.22
1013.637	1988.48
1013.93	1958.65
1014.222	1948.25
1014.514	1942.15
1014.807	1931.98
1015.099	1904.64
1015.391	1904.41
1015.683	1873
1015.976	1904.41
1016.268	1862.15
1016.56	1875.49
1016.851	1815.38
1017.143	1844.08
1017.435	1837.97
1017.727	1809.73
1018.018	1786.68
1018.31	1809.27
1018.602	1781.7
1018.893	1758.65
1019.185	1761.37
1019.476	1738.32
1019.767	1741.71
1020.058	1702.38
1020.35	1704.42
1020.641	1689.5
1020.932	1688.6
1021.223	1675.72
1021.514	1688.15
1021.804	1641.14
1022.095	1618.55
1022.386	1641.6
1022.677	1621.26
1022.967	1631.65
1023.258	1586.23
1023.548	1586.23
1023.839	1605.21
1024.129	1568.83
1024.419	1557.3
1024.709	1543.97
1025	1527.93
1025.29	1491.32
1025.58	1490.86
1025.87	1499
1026.16	1478.89
1026.449	1458.1
1026.739	1474.59
1027.029	1458.55
1027.319	1431.43
1027.608	1447.25
1027.898	1416.29
1028.187	1405.9
1028.477	1425.56
1028.766	1393.24
1029.055	1416.29
1029.344	1383.3
1029.634	1352.34
1029.923	1376.74
1030.212	1347.37
1030.501	1359.57
1030.79	1320.93
1031.078	1348.27
1031.367	1322.06
1031.656	1315.05
1031.945	1302.17
1032.233	1295.16
1032.522	1294.94
1032.81	1270.53
1033.099	1259.01
1033.387	1277.99
1033.675	1231.89
1033.963	1223.08
1034.251	1229.85
1034.54	1237.99
1034.828	1190.31
1035.116	1208.84
1035.403	1161.83
1035.691	1197.31
1035.979	1168.84
1036.267	1192.79
1036.554	1190.53
1036.842	1176.3
1037.129	1126.35
1037.417	1137.43
1037.704	1133.36
1037.992	1126.13
1038.279	1121.61
1038.566	1089.29
1038.853	1089.29
1039.14	1089.29
