Data from White_reflection_standard_FLMS001491_046.txt Node
Date: Tue Feb 07 10:32:04 GMT 2017
User: dcchb
Spectrometer: FLMS00149
Trigger mode: 0
Integration Time (sec): 2.000000E-2
Scans to average: 10
Electric dark correction enabled: true
Nonlinearity correction enabled: false
Boxcar width: 0
XAxis mode: Wavelengths
Number of Pixels in Spectrum: 2048
>>>>>Begin Spectral Data<<<<<
341.393	-25.55
341.776	-25.55
342.16	-25.55
342.543	-66.23
342.927	-73.01
343.31	-82.72
343.693	-74.81
344.077	-70.29
344.46	-60.35
344.843	-48.15
345.226	-42.05
345.61	-30.07
345.993	-31.43
346.376	12.19
346.759	19.19
347.142	28.91
347.525	36.37
347.908	65.75
348.291	83.37
348.674	91.06
349.057	103.03
349.44	120.89
349.823	133.99
350.206	145.74
350.588	227.55
350.971	249.47
351.354	291.28
351.737	281.33
352.119	301.45
352.502	316.81
352.884	346.87
353.267	305.97
353.65	320.2
354.032	381.9
354.414	366.98
354.797	372.86
355.179	366.53
355.562	375.34
355.944	373.08
356.326	392.74
356.709	384.38
357.091	400.88
357.473	398.85
357.855	405.4
358.238	386.42
358.62	401.56
359.002	389.58
359.384	414.66
359.766	404.95
360.148	415.34
360.53	416.25
360.912	414.66
361.294	422.57
361.676	405.85
362.057	412.86
362.439	409.69
362.821	423.48
363.203	421.9
363.584	407.66
363.966	392.97
364.348	406.98
364.729	423.48
365.111	413.99
365.493	403.82
365.874	408.79
366.256	414.66
366.637	405.85
367.019	405.85
367.4	401.78
367.781	412.4
368.163	425.51
368.544	412.63
368.925	398.85
369.306	429.13
369.688	431.16
370.069	423.48
370.45	449.24
370.831	439.52
371.212	428
371.593	441.56
371.974	440.88
372.355	420.99
372.736	458.28
373.117	448.79
373.498	430.48
373.879	450.14
374.26	438.17
374.641	430.93
375.021	441.78
375.402	476.58
375.783	482.01
376.163	491.95
376.544	505.96
376.925	499.86
377.305	501.67
377.686	480.88
378.066	480.43
378.447	511.84
378.827	507.77
379.208	519.52
379.588	505.28
379.968	506.19
380.349	514.77
380.729	550.71
381.109	555.45
381.489	540.76
381.87	531.95
382.25	520.2
382.63	548.45
383.01	547.77
383.39	577.37
383.77	550.48
384.15	583.02
384.53	587.09
384.91	585.73
385.29	582.8
385.67	614.43
386.049	612.17
386.429	620.53
386.809	610.82
387.189	613.98
387.568	640.2
387.948	640.65
388.328	647.88
388.707	654.66
389.087	641.55
389.466	657.14
389.846	656.47
390.225	693.07
390.605	684.71
390.984	712.74
391.363	706.86
391.743	718.84
392.122	717.03
392.501	752.51
392.881	749.57
393.26	763.36
393.639	766.75
394.018	773.07
394.397	753.19
394.776	776.69
395.155	774.65
395.534	783.69
395.913	801.55
396.292	811.72
396.671	844.26
397.05	828.44
397.429	842.9
397.808	831.38
398.186	853.3
398.565	872.73
398.944	869.57
399.323	903.24
399.701	896.01
400.08	900.98
400.458	905.05
400.837	906.63
401.215	912.96
401.594	935.33
401.972	940.75
402.351	941.88
402.729	935.78
403.107	994.76
403.486	982.33
403.864	971.03
404.242	986.63
404.62	1013.74
404.999	1058.94
405.377	1049.22
405.755	1052.16
406.133	1073.18
406.511	1085.61
406.889	1098.26
407.267	1108.43
407.645	1131.03
408.023	1124.7
408.401	1157.7
408.779	1179.62
409.156	1205.15
409.534	1198.37
409.912	1217.13
410.29	1234.08
410.667	1272.72
411.045	1251.48
411.422	1278.37
411.8	1300.52
412.178	1338.26
412.555	1354.98
412.933	1363.34
413.31	1386.84
413.687	1422.1
414.065	1431.36
414.442	1397.24
414.819	1448.31
415.197	1469.33
415.574	1483.79
415.951	1489.89
416.328	1499.38
416.705	1513.17
417.082	1515.65
417.46	1577.8
417.837	1586.84
418.214	1583.67
418.591	1585.48
418.967	1619.15
419.344	1630.23
419.721	1693.05
420.098	1648.53
420.475	1695.31
420.852	1703.67
421.228	1712.48
421.605	1754.29
421.982	1789.09
422.358	1795.87
422.735	1796.55
423.111	1806.49
423.488	1874.29
423.864	1882.65
424.241	1881.07
424.617	1936.43
424.994	1918.58
425.37	1939.82
425.746	1966.71
426.123	2005.81
426.499	1984.79
426.875	2036.99
427.251	2078.35
427.627	2076.32
428.003	2131.91
428.379	2154.05
428.756	2198.35
429.132	2198.12
429.507	2199.48
429.883	2223.88
430.259	2300.04
430.635	2294.84
431.011	2330.55
431.387	2381.62
431.763	2429.53
432.138	2428.62
432.514	2507.04
432.89	2519.47
433.265	2533.48
433.641	2608.28
434.016	2610.54
434.392	2673.36
434.767	2750.42
435.143	2743.64
435.518	2782.96
435.894	2797.88
436.269	2840.14
436.644	2932.11
437.02	2913.81
437.395	2916.75
437.77	2960.59
438.145	3014.37
438.52	3024.31
438.895	3072.9
439.271	3044.43
439.646	3129.62
440.021	3172.33
440.395	3167.81
440.77	3177.08
441.145	3207.13
441.52	3237.41
441.895	3224.76
442.27	3291.88
442.645	3323.97
443.019	3356.96
443.394	3365.55
443.769	3413.91
444.143	3421.36
444.518	3450.06
444.892	3485.54
445.267	3472.21
445.641	3526.9
446.016	3588.14
446.39	3591.08
446.764	3605.31
447.139	3581.59
447.513	3649.38
447.887	3678.08
448.262	3714.69
448.636	3687.57
449.01	3801.47
449.384	3800.11
449.758	3831.75
450.132	3868.58
450.506	3927.34
450.88	3953.55
451.254	3927.34
451.628	4047.79
452.002	4073.1
452.376	4094.57
452.75	4168.92
453.123	4198.07
453.497	4240.1
453.871	4303.15
454.244	4365.97
454.618	4425.63
454.992	4472.41
455.365	4453.43
455.739	4583.37
456.112	4656.13
456.486	4702.46
456.859	4730.93
457.232	4825.17
457.606	4817.03
457.979	4866.3
458.352	4947.43
458.725	5082.56
459.099	5039.18
459.472	5238.27
459.845	5173.86
460.218	5245.27
460.591	5316
460.964	5309.68
461.337	5465.83
461.71	5587.18
462.083	5664.47
462.456	5684.13
462.829	5657.01
463.201	5762.77
463.574	5878.48
463.947	5925.25
464.32	5990.56
464.692	6118.7
465.065	6171.8
465.438	6214.51
465.81	6307.39
466.183	6362.53
466.555	6531.11
466.928	6561.4
467.3	6537.44
467.672	6681.17
468.045	6892.01
468.417	6805.23
468.789	6942.63
469.161	7037.31
469.534	7173.13
469.906	7267.59
470.278	7313.24
470.65	7410.86
471.022	7609.05
471.394	7746
471.766	7831.19
472.138	7958.42
472.51	8086.55
472.882	8195.7
473.253	8315.47
473.625	8402.7
473.997	8589.36
474.369	8671.4
474.74	8782.35
475.112	8999.07
475.484	9123.36
475.855	9318.16
476.227	9298.5
476.598	9600.86
476.97	9703.01
477.341	9869.33
477.713	10097.8
478.084	10161.98
478.455	10420.28
478.827	10463.44
479.198	10813.94
479.569	10792.24
479.94	11094.38
480.311	11235.85
480.682	11497.31
481.053	11725.1
481.424	11940.46
481.795	12091.65
482.166	12217.07
482.537	12341.13
482.908	12711.06
483.279	12760.1
483.65	13055.46
484.021	13403.25
484.391	13473.3
484.762	13590.81
485.133	13714.2
485.503	13898.83
485.874	14209.56
486.244	14334.3
486.615	14689.77
486.985	14829.88
487.356	15112.13
487.726	15154.39
488.097	15558.45
488.467	15602.97
488.837	15850.42
489.207	16146.23
489.578	16379.67
489.948	16473.68
490.318	16699.43
490.688	16840
491.058	17024.4
491.428	17378.29
491.798	17414.9
492.168	17737.6
492.538	17889.23
492.908	18096.91
493.278	18310.01
493.648	18253.29
494.017	18584.36
494.387	18717.69
494.757	19023.67
495.126	19129.2
495.496	19201.74
495.866	19331.45
496.235	19594.5
496.605	19719.69
496.974	19787.49
497.344	20104.09
497.713	20241.94
498.082	20465.89
498.452	20631.31
498.821	20601.25
499.19	20656.39
499.559	20987.91
499.928	21143.84
500.298	21227.9
500.667	21525.52
501.036	21424.06
501.405	21681.45
501.774	21833.76
502.143	21996.02
502.512	22098.84
502.88	22316.01
503.249	22367.08
503.618	22570.69
503.987	22717.13
504.356	22807.3
504.724	22995.99
505.093	23107.17
505.462	23175.65
505.83	23399.37
506.199	23550.1
506.567	23928.62
506.936	23922.52
507.304	24234.6
507.672	24261.95
508.041	24430.76
508.409	24664.42
508.777	24811.76
509.145	24947.58
509.514	25036.39
509.882	25214.69
510.25	25383.5
510.618	25578.3
510.986	25624.62
511.354	25997.95
511.722	26162.91
512.09	26235.91
512.458	26381.67
512.826	26637.03
513.193	26843.57
513.561	26977.36
513.929	27053.96
514.297	27371.47
514.664	27559.04
515.032	27575.08
515.4	27869.76
515.767	28077.67
516.135	28287.83
516.502	28134.39
516.869	28776.86
517.237	28900.69
517.604	28847.59
517.972	29110.41
518.339	29420
518.706	29571.19
519.073	29647.57
519.44	29887.34
519.808	30287.33
520.175	30203.26
520.542	30691.61
520.909	30946.06
521.276	30805.28
521.643	31107.42
522.009	31508.99
522.376	31684.12
522.743	31852.26
523.11	32239.59
523.477	32627.15
523.843	32691.78
524.21	32985.79
524.577	33249.06
524.943	33416.51
525.31	33635.26
525.676	33915.93
526.043	34075.02
526.409	34322.25
526.776	34750.71
527.142	34896.92
527.508	35001.1
527.874	35371.49
528.241	35492.61
528.607	35610.12
528.973	35997.91
529.339	35966.05
529.705	36378.24
530.071	36687.61
530.437	36798.34
530.803	36994.27
531.169	37306.35
531.535	37197.43
531.901	37358.78
532.267	37606.68
532.632	37843.51
532.998	38117.18
533.364	38326.21
533.73	38453.44
534.095	38611.4
534.461	38823.37
534.826	38958.96
535.192	39120.09
535.557	39438.04
535.923	39426.52
536.288	39665.38
536.653	39699.96
537.019	39673.07
537.384	39848.66
537.749	40179.49
538.114	40300.85
538.479	40262.2
538.845	40657.45
539.21	40506.04
539.575	40786.71
539.94	40852.02
540.305	41148.06
540.67	41098.79
541.034	41369.75
541.399	41453.81
541.764	41716.18
542.129	41797.08
542.494	41780.13
542.858	42031.65
543.223	42024.42
543.587	42428.7
543.952	42339.89
544.316	42406.33
544.681	42531.52
545.045	42701.01
545.41	43042.24
545.774	43028.46
546.138	43151.85
546.503	43214.22
546.867	43354.55
547.231	43666.18
547.595	43775.78
547.959	43792.05
548.324	43991.82
548.688	44121.99
549.052	44231.37
549.416	44356.56
549.779	44348.65
550.143	44524.24
550.507	44767.17
550.871	44938.47
551.235	45036.09
551.599	45201.96
551.962	45416.19
552.326	45595.62
552.689	45674.49
553.053	45657.99
553.417	45760.59
553.78	46199.68
554.143	46152.22
554.507	46403.96
554.87	46579.33
555.234	46867.91
555.597	46635.37
555.96	46988.13
556.323	47117.17
556.686	47210.95
557.05	47602.35
557.413	47506.99
557.776	47658.17
558.139	48001.44
558.502	48010.7
558.865	48268.55
559.228	48407.07
559.59	48584.92
559.953	48785.14
560.316	49144
560.679	48993.73
561.041	49295.86
561.404	49419.25
561.767	49635.29
562.129	49626.48
562.492	49993.93
562.854	49947.6
563.217	49946.02
563.579	50225.56
563.941	50369.96
564.304	50573.8
564.666	50590.52
565.028	50757.07
565.39	50912.77
565.753	51060.56
566.115	51252.88
566.477	51456.49
566.839	51439.31
567.201	51748.46
567.563	51715.01
567.925	51939.86
568.287	51980.77
568.648	52047.66
569.01	52230.02
569.372	52404.03
569.734	52403.81
570.095	52632.95
570.457	52778.49
570.819	52747.98
571.18	52820.29
571.542	53031.59
571.903	53098.02
572.265	53163.79
572.626	53281.97
572.987	53300.96
573.349	53381.18
573.71	53442.2
574.071	53509.99
574.432	53706.6
574.794	53913.14
575.155	53828.85
575.516	53760.83
575.877	53918.79
576.238	53999.92
576.599	54142.29
576.96	54071.33
577.32	54144.78
577.681	54295.06
578.042	54390.65
578.403	54302.51
578.763	54347.71
579.124	54448.05
579.485	54460.02
579.845	54525.33
580.206	54543.64
580.566	54554.48
580.927	54596.06
581.287	54680.58
581.648	54564.2
582.008	54728.26
582.368	54719.45
582.728	54760.58
583.089	54655.05
583.449	54742.05
583.809	54771.2
584.169	54842.16
584.529	54675.61
584.889	54915.83
585.249	54730.07
585.609	54765.1
585.969	54876.51
586.329	54768.26
586.688	54829.5
587.048	54888.03
587.408	54764.87
587.768	54752.9
588.127	54832.67
588.487	54804.42
588.846	55006.68
589.206	54797.64
589.565	54775.72
589.925	54929.84
590.284	54884.42
590.643	54839.45
591.003	54986.11
591.362	55002.83
591.721	54879.22
592.08	54871.76
592.44	55065.66
592.799	55076.96
593.158	54902.05
593.517	55026.34
593.876	55005.09
594.235	54996.73
594.593	55036.96
594.952	55029.73
595.311	55042.38
595.67	55070.85
596.029	55170.29
596.387	55175.71
596.746	55272.43
597.104	55122.83
597.463	55046.45
597.822	55241.92
598.18	55104.07
598.538	55090.51
598.897	55284.63
599.255	55067.01
599.613	55433.1
599.972	55242.83
600.33	55354.91
600.688	55225.43
601.046	55365.76
601.404	55426.33
601.762	55420.9
602.12	55461.35
602.478	55428.36
602.836	55491.18
603.194	55384.29
603.552	55456.15
603.91	55409.15
604.268	55593.1
604.625	55466.55
604.983	55532.09
605.341	55416.38
605.698	55616.38
606.056	55570.28
606.413	55582.93
606.771	55685.08
607.128	55718.29
607.485	55673.1
607.843	55659.31
608.2	55751.29
608.557	55882.13
608.914	55773.89
609.272	55973.66
609.629	55969.36
609.986	56046.2
610.343	55918.29
610.7	56013.2
611.057	56071.05
611.414	56026.76
611.771	56055.69
612.127	56175.68
612.484	56094.33
612.841	56276.92
613.198	56135.01
613.554	56144.27
613.911	56325.51
614.267	56291.61
614.624	56266.08
614.98	56230.6
615.337	56450.25
615.693	56329.35
616.05	56309.47
616.406	56483.25
616.762	56346.3
617.118	56397.15
617.475	56403.02
617.831	56427.65
618.187	56476.02
618.543	56384.94
618.899	56572.96
619.255	56561.21
619.611	56502
619.967	56665.84
620.323	56682.11
620.678	56564.6
621.034	56500.65
621.39	56520.76
621.746	56537.03
622.101	56786.97
622.457	56544.26
622.812	56624.49
623.168	56619.06
623.523	56628.55
623.879	56777.93
624.234	56530.93
624.589	56655.45
624.945	56610.02
625.3	56660.87
625.655	56600.98
626.01	56645.05
626.365	56679.63
626.72	56632.4
627.075	56635.11
627.43	56556.24
627.785	56541.55
628.14	56613.41
628.495	56590.81
628.85	56533.87
629.205	56497.03
629.559	56645.28
629.914	56462
630.269	56462.68
630.623	56409.12
630.978	56408.67
631.332	56425.39
631.687	56569.12
632.041	56348.33
632.396	56399.18
632.75	56339.97
633.104	56365.74
633.459	56226.53
633.813	56221.11
634.167	56204.38
634.521	56203.03
634.875	56202.8
635.229	56036.03
635.583	55941.11
635.937	56001.68
636.291	55902.02
636.645	55923.49
636.999	55872.64
637.352	55944.05
637.706	55774.34
638.06	55917.16
638.413	55845.98
638.767	55762.14
639.121	55834.68
639.474	55600.33
639.828	55646.21
640.181	55744.96
640.534	55667.67
640.888	55565.76
641.241	55493.22
641.594	55489.15
641.947	55546.1
642.301	55379.32
642.654	55519.66
643.007	55427.91
643.36	55268.36
643.713	55274.01
644.066	55379.09
644.419	55166.44
644.771	55020.23
645.124	54725.78
645.477	54697.76
645.83	54544.77
646.182	54399.91
646.535	54310.42
646.888	54361.27
647.24	54159.69
647.593	54288.05
647.945	54249.18
648.298	54105.23
648.65	54063.65
649.002	54018
649.355	54069.07
649.707	54066.13
650.059	54136.87
650.411	54443.98
650.763	54520.36
651.115	54841.71
651.467	54701.15
651.819	54617.76
652.171	54570.98
652.523	54536.18
652.875	54469.29
653.227	54409.4
653.578	54556.74
653.93	54384.09
654.282	54308.61
654.633	54201.05
654.985	54307.03
655.337	54282.17
655.688	54251.67
656.039	54367.14
656.391	54078.79
656.742	54104.1
657.094	54186.13
657.445	54288.5
657.796	54097.09
658.147	54106.81
658.498	54123.76
658.849	54119.01
659.2	54051.45
659.551	53944.1
659.902	54046.47
660.253	53913.14
660.604	54020.03
660.955	53913.82
661.306	53973.03
661.656	53907.49
662.007	53937.1
662.358	53898.68
662.708	53887.16
663.059	53831.56
663.409	53686.26
663.76	53936.65
664.11	53830.43
664.461	53886.7
664.811	53808.51
665.161	53810.1
665.511	53686.03
665.862	53686.94
666.212	53756.54
666.562	53730.78
666.912	53629.54
667.262	53542.76
667.612	53659.82
667.962	53669.08
668.312	53548.41
668.662	53719.93
669.011	53601.97
669.361	53509.09
669.711	53473.61
670.06	53502.08
670.41	53468.86
670.76	53361.97
671.109	53470.67
671.459	53376.89
671.808	53331.69
672.157	53329.43
672.507	53267.06
672.856	53211.69
673.205	53258.7
673.554	53306.15
673.904	53144.58
674.253	53281.75
674.602	53273.16
674.951	52718.6
675.3	52593.41
675.649	53087.63
675.998	53024.35
676.346	53072.49
676.695	53173.95
677.044	52805.38
677.393	53007.41
677.741	53016.9
678.09	52820.74
678.438	52840.18
678.787	52889.67
679.135	52853.06
679.484	52758.37
679.832	52740.97
680.181	52535.1
680.529	52669.11
680.877	52601.77
681.225	52563.8
681.573	52719.28
681.922	52406.74
682.27	52356.58
682.618	52313.86
682.966	52327.2
683.314	52297.59
683.661	52284.03
684.009	52140.99
684.357	52019.41
684.705	51972.18
685.053	52037.04
685.4	51937.83
685.748	51738.74
686.095	51818.74
686.443	51590.27
686.79	51614.22
687.138	51614.9
687.485	51609.48
687.832	51415.36
688.18	51477.28
688.527	51302.14
688.874	51226.44
689.221	51173.33
689.568	51084.97
689.915	51018.53
690.262	50943.28
690.609	50763.4
690.956	50772.21
691.303	50642.72
691.65	50578.09
691.997	50495.61
692.344	50247.25
692.69	50298.32
693.037	50340.13
693.383	49927.49
693.73	50126.58
694.077	49916.41
694.423	49888.62
694.769	49690.43
695.116	49673.93
695.462	49530.43
695.808	49387.84
696.155	49402.53
696.501	49159.37
696.847	49315.98
697.193	48859.49
697.539	49003.44
697.885	48763
698.231	48577.47
698.577	48752.6
698.923	48540.63
699.269	48278.04
699.614	48364.82
699.96	48238.27
700.306	48245.5
700.651	47994.2
700.997	47858.84
701.342	47889.8
701.688	47734.55
702.033	47612.75
702.379	47622.69
702.724	47478.74
703.069	47556.93
703.415	47036.26
703.76	47109.03
704.105	47020.67
704.45	46962.82
704.795	46840.11
705.14	46590.85
705.485	46718.08
705.83	46556.05
706.175	46494.58
706.52	46374.36
706.865	46147.7
707.209	46144.76
707.554	45971.66
707.899	46122.61
708.243	45760.59
708.588	45682.17
708.932	45555.4
709.277	45560.14
709.621	45504.1
709.966	45295.07
710.31	45426.14
710.654	44993.38
710.998	45183.66
711.342	44959.26
711.687	44779.6
712.031	44803.55
712.375	44512.26
712.719	44730.56
713.063	44684.69
713.407	44633.16
713.75	44279.05
714.094	44423
714.438	44193.4
714.782	44303.45
715.125	43955.44
715.469	44255.32
715.812	43886.29
716.156	43666.86
716.499	43750.7
716.843	43595.45
717.186	43465.96
717.53	43542.8
717.873	43687.2
718.216	43505.73
718.559	43193.65
718.902	43001.79
719.246	43093.09
719.589	42983.71
719.932	42913.21
720.275	42858.29
720.617	42795.7
720.96	42722.25
721.303	42691.74
721.646	42688.13
721.989	42216.73
722.331	42437.29
722.674	42354.8
723.016	42407.91
723.359	42273.68
723.701	42315.48
724.044	41985.55
724.386	41835.95
724.729	42108.03
725.071	41807.25
725.413	41803.63
725.755	41740.36
726.097	41543.98
726.439	41267.38
726.782	41441.61
727.124	41547.59
727.465	41261.73
727.807	41299.01
728.149	41170.88
728.491	41276.41
728.833	41059.47
729.175	40912.36
729.516	40881.85
729.858	40854.5
730.199	40906.71
730.541	40781.74
730.882	40639.37
731.224	40684.57
731.565	40551.46
731.906	40532.93
732.248	40599.6
732.589	40310.56
732.93	40288.42
733.271	40242.77
733.612	40217.91
733.953	40296.55
734.294	40091.59
734.635	39978.6
734.976	40130.23
735.317	39780.86
735.658	39635.78
735.999	39539.06
736.339	39710.58
736.68	39630.58
737.021	39437.14
737.361	39353.75
737.702	39481.66
738.042	39378.61
738.383	39172.74
738.723	39335.22
739.063	39091.61
739.404	39231.72
739.744	39171.39
740.084	39042.58
740.424	38891.62
740.764	38929.81
741.104	38994.67
741.444	38739.31
741.784	38634.68
742.124	38912.18
742.464	38612.3
742.804	38471.52
743.143	38385.64
743.483	38439.2
743.823	38282.6
744.162	38139.77
744.502	38223.84
744.841	38052.54
745.181	38212.09
745.52	37973.9
745.86	38073.79
746.199	37832.66
746.538	37934.36
746.877	37957.63
747.216	37839.67
747.556	37509.28
747.895	37669.73
748.234	37485.33
748.573	37542.95
748.911	37433.13
749.25	37349.06
749.589	37196.97
749.928	37208.5
750.267	37352.22
750.605	37121.72
750.944	37133.92
751.283	36856.87
751.621	36783.65
751.96	36711.56
752.298	36811.67
752.636	36819.36
752.975	36439.71
753.313	36474.06
753.651	36451.23
753.989	36189.54
754.327	36219.6
754.666	36005.14
755.004	36124.91
755.342	36013.5
755.679	35921.75
756.017	35708.2
756.355	35818.03
756.693	35582.1
757.031	35568.54
757.368	35455.32
757.706	35378.49
758.044	35244.03
758.381	35128.1
758.719	35115.45
759.056	35130.36
759.394	34934.89
759.731	34766.53
760.068	34718.17
760.405	34530.83
760.743	34478.18
761.08	34455.8
761.417	34225.75
761.754	34191.63
762.091	34007.23
762.428	34056.49
762.765	33953.44
763.102	34035.93
763.438	33748.25
763.775	33677.97
764.112	33570.4
764.449	33625.77
764.785	33420.35
765.122	33308.71
765.458	32994.82
765.795	33167.93
766.131	33104.2
766.467	32822.4
766.804	32718
767.14	32576.3
767.476	32517.55
767.812	32343.99
768.148	32398.23
768.485	32084.79
768.821	31922.31
769.157	31901.07
769.492	31783.33
769.828	31760.73
770.164	31541.76
770.5	31475.54
770.836	31604.58
771.171	31164.14
771.507	31232.16
771.842	30945.61
772.178	30856.58
772.513	30828.1
772.849	30710.14
773.184	30652.97
773.519	30638.05
773.855	30628.56
774.19	30249.81
774.525	30241
774.86	30097.95
775.195	30140.44
775.53	29961.68
775.865	29689.83
776.2	29647.57
776.535	29450.51
776.87	29370.06
777.205	29351.3
777.539	29274.7
777.874	29259.33
778.209	28945.89
778.543	28867.7
778.878	28767.82
779.212	28680.36
779.547	28542.74
779.881	28634.26
780.215	28304.33
780.55	28424.78
780.884	28334.38
781.218	28134.16
781.552	28142.52
781.886	27929.42
782.22	27867.28
782.554	27758.35
782.888	27452.37
783.222	27375.99
783.556	27282.66
783.889	27268.42
784.223	26983.01
784.557	27109.56
784.89	27121.53
785.224	26793.41
785.557	26713.86
785.891	26620.98
786.224	26541.43
786.558	26598.38
786.891	26228.9
787.224	26337.15
787.557	26210.37
787.891	26103.25
788.224	26038.85
788.557	26000.88
788.89	25914.11
789.223	25949.59
789.556	25696.26
789.888	25490.84
790.221	25551.18
790.554	25272.54
790.887	25232.54
791.219	25171.3
791.552	25142.6
791.884	25065.99
792.217	24938.99
792.549	24936.51
792.882	24648.6
793.214	24527.48
793.546	24624.65
793.879	24513.01
794.211	24418.55
794.543	24442.73
794.875	24331.32
795.207	24364.09
795.539	24093.36
795.871	24091.78
796.203	23948.06
796.535	23756.88
796.867	23787.38
797.198	23733.83
797.53	23638.46
797.862	23511.46
798.193	23672.36
798.525	23387.62
798.856	23504.68
799.188	23097.01
799.519	23216.55
799.85	23069.66
800.182	23054.07
800.513	22940.63
800.844	22695.89
801.175	22894.75
801.506	22850.46
801.837	22598.49
802.168	22641.2
802.499	22626.51
802.83	22506.51
803.161	22380.41
803.491	22445.27
803.822	22319.62
804.153	22197.59
804.483	22138.16
804.814	22026.98
805.145	21958.05
805.475	22008.9
805.805	21987.66
806.136	21869.69
806.466	21901.33
806.796	21669.7
807.126	21547.22
807.457	21498.18
807.787	21535.01
808.117	21434.45
808.447	21308.58
808.777	21342.48
809.107	21341.57
809.436	21138.87
809.766	21274.23
810.096	21014.35
810.426	21012.31
810.755	21074.69
811.085	20882.37
811.414	20909.94
811.744	20715.6
812.073	20724.64
812.403	20687.35
812.732	20442.39
813.061	20618.65
813.39	20454.36
813.719	20361.94
814.049	20437.64
814.378	20317.87
814.707	20212.79
815.036	20234.93
815.365	20150.64
815.693	19861.84
816.022	19990.87
816.351	19877.2
816.68	19865.9
817.008	19932.57
817.337	19667.72
817.665	19605.35
817.994	19671.56
818.322	19758.11
818.651	19531.9
818.979	19484.45
819.307	19658.23
819.636	19482.64
819.964	19422.53
820.292	19502.07
820.62	19513.37
820.948	19408.29
821.276	19422.98
821.604	19430.89
821.932	19410.55
822.259	19457.33
822.587	19289.87
822.915	19350.66
823.243	19297.56
823.57	19306.6
823.898	19360.38
824.225	19338.69
824.553	19259.37
824.88	19328.07
825.207	19386.37
825.535	19284.45
825.862	19358.35
826.189	19189.99
826.516	19281.29
826.843	19291.68
827.17	19317.44
827.497	19349.31
827.824	19241.06
828.151	19236.77
828.478	19251.01
828.805	19338.46
829.131	19178.69
829.458	19214.85
829.785	19142.99
830.111	19168.52
830.438	19173.94
830.764	19213.04
831.09	19238.58
831.417	19093.27
831.743	19191.57
832.069	19201.97
832.395	19130.56
832.722	19105.7
833.048	19040.39
833.374	19127.84
833.7	19011.92
834.026	19042.42
834.351	19101.86
834.677	18936.21
835.003	19036.77
835.329	18905.03
835.654	18894.18
835.98	18787.06
836.306	18847.17
836.631	18766.95
836.956	18886.95
837.282	18920.39
837.607	18651.02
837.932	18696.44
838.258	18601.53
838.583	18712.04
838.908	18546.62
839.233	18546.39
839.558	18419.61
839.883	18460.07
840.208	18339.62
840.533	18320.86
840.858	18428.2
841.182	18448.09
841.507	18310.24
841.832	18197.7
842.156	18193.18
842.481	18235.66
842.805	18224.59
843.13	18175.55
843.454	18023.47
843.778	18012.39
844.103	18000.42
844.427	17870.25
844.751	17875.9
845.075	17854.66
845.399	17828.9
845.723	17745.06
846.047	17743.02
846.371	17566.53
846.695	17531.73
847.019	17482.69
847.343	17348.46
847.666	17296.93
847.99	17214.22
848.313	17118.18
848.637	17101.68
848.96	16967.68
849.284	16954.12
849.607	16852.88
849.931	16766.32
850.254	16660.79
850.577	16700.34
850.9	16487.01
851.223	16465.32
851.546	16418.99
851.869	16282.04
852.192	16427.35
852.515	16203.63
852.838	16175.61
853.161	16207.47
853.483	16041.82
853.806	16040.69
854.129	15963.41
854.451	15914.37
854.774	15880.02
855.096	15788.5
855.419	15819.46
855.741	15722.06
856.063	15693.36
856.385	15638.9
856.708	15520.71
857.03	15574.04
857.352	15520.03
857.674	15386.47
857.996	15380.37
858.318	15284.78
858.64	15308.28
858.961	15334.95
859.283	15226.7
859.605	15192.13
859.926	15186.71
860.248	15086.82
860.57	15053.15
860.891	15047.5
861.212	14927.05
861.534	14942.87
861.855	14990.1
862.176	14973.6
862.498	14903.1
862.819	14794.4
863.14	14831.46
863.461	14682.31
863.782	14649.32
864.103	14696.1
864.424	14639.6
864.745	14744.46
865.065	14563.44
865.386	14603.67
865.707	14604.8
866.027	14529.1
866.348	14477.12
866.668	14606.16
866.989	14417.23
867.309	14348.31
867.63	14389.44
867.95	14433.5
868.27	14315.77
868.59	14316.45
868.91	14237.8
869.23	14267.63
869.55	14151.03
869.87	14237.8
870.19	14164.81
870.51	14137.69
870.83	14157.35
871.15	14032.84
871.469	14033.74
871.789	14093.4
872.109	14062.67
872.428	14023.35
872.748	14091.82
873.067	13953.97
873.386	13918.72
873.706	13977.92
874.025	13896.34
874.344	13807.98
874.663	13897.7
874.982	13848.66
875.301	13781.32
875.62	13848.44
875.939	13863.12
876.258	13683.47
876.577	13671.49
876.896	13734.77
877.214	13597.59
877.533	13664.49
877.852	13617.71
878.17	13686.41
878.489	13620.42
878.807	13583.58
879.125	13563.92
879.444	13577.93
879.762	13477.37
880.08	13483.25
880.398	13435.79
880.716	13372.29
881.034	13406.86
881.352	13257.94
881.67	13381.55
881.988	13331.84
882.306	13280.54
882.624	13238.51
882.941	13168.91
883.259	13112.64
883.577	13134.33
883.894	13155.8
884.212	13044.16
884.529	13025.41
884.846	12992.19
885.164	12945.86
885.481	12901.57
885.798	13001.45
886.115	12821.34
886.432	12879.65
886.75	12840.78
887.067	12828.8
887.383	12731.63
887.7	12779.99
888.017	12694.79
888.334	12705.41
888.651	12682.82
888.967	12670.84
889.284	12562.82
889.6	12520.11
889.917	12406.67
890.233	12449.15
890.55	12435.59
890.866	12377.97
891.182	12345.2
891.498	12233.79
891.815	12178.65
892.131	12188.82
892.447	12231.98
892.763	12125.99
893.079	12060.01
893.395	12109.27
893.71	12113.79
894.026	12041.03
894.342	12092.55
894.657	11922.16
894.973	11871.99
895.289	11943.17
895.604	11893.46
895.92	11794.03
896.235	11672.22
896.55	11698.21
896.865	11689.4
897.181	11552
897.496	11642.17
897.811	11560.59
898.126	11470.42
898.441	11503.19
898.756	11427.93
899.071	11394.49
899.386	11308.16
899.7	11231.55
900.015	11208.73
900.33	11176.87
900.644	11153.59
900.959	11140.03
901.273	11104.33
901.588	11040.6
901.902	11022.07
902.216	10869.08
902.531	10980.26
902.845	10890.77
903.159	10781.85
903.473	10779.82
903.787	10753.38
904.101	10678.58
904.415	10694.39
904.729	10715.64
905.042	10592.48
905.356	10570.33
905.67	10510.22
905.984	10493.27
906.297	10452.37
906.611	10346.61
906.924	10392.03
907.237	10392.25
907.551	10330.34
907.864	10257.8
908.177	10192.49
908.491	10116.33
908.804	10110.45
909.117	10148.65
909.43	10059.61
909.743	10037.46
910.056	9941.87
910.368	9940.74
910.681	9898.48
910.994	9822.78
911.307	9800.41
911.619	9693.06
911.932	9771.71
912.244	9690.35
912.557	9646.51
912.869	9582.33
913.181	9532.39
913.494	9495.33
913.806	9468.21
914.118	9464.6
914.43	9426.18
914.742	9385.5
915.054	9361.55
915.366	9319.29
915.678	9245.39
915.99	9212.85
916.302	9119.07
916.613	9123.14
916.925	9115.45
917.236	9082.23
917.548	8977.6
917.859	8977.6
918.171	8954.1
918.482	8871.39
918.794	8858.96
919.105	8790.49
919.416	8750.49
919.727	8783.48
920.038	8686.99
920.349	8622.81
920.66	8567.67
920.971	8610.83
921.282	8573.32
921.593	8479.31
921.903	8502.36
922.214	8425.3
922.525	8446.32
922.835	8325.64
923.146	8348.24
923.456	8296.49
923.767	8294.23
924.077	8261.69
924.387	8169.71
924.697	8113.67
925.008	8126.55
925.318	8114.57
925.628	8047.91
925.938	8043.16
926.248	7956.61
926.558	7894.02
926.867	7871.87
927.177	7898.31
927.487	7834.58
927.796	7727.92
928.106	7761.36
928.416	7737.86
928.725	7714.59
929.034	7601.37
929.344	7668.48
929.653	7654.93
929.962	7544.42
930.271	7566.11
930.581	7417.87
930.89	7476.63
931.199	7382.16
931.508	7403.86
931.817	7365.67
932.125	7336.29
932.434	7352.79
932.743	7280.92
933.051	7233.92
933.36	7214.03
933.669	7131.55
933.977	7073.25
934.286	7068.05
934.594	7029.18
934.902	6992.8
935.21	6976.98
935.519	7013.81
935.827	6932.23
936.135	6978.11
936.443	6798
936.751	6793.48
937.059	6805.91
937.367	6792.8
937.674	6793.03
937.982	6718.45
938.29	6703.54
938.597	6720.04
938.905	6565.46
939.213	6606.37
939.52	6539.25
939.827	6562.3
940.135	6513.26
940.442	6453.38
940.749	6480.49
941.056	6432.81
941.363	6404.11
941.67	6346.94
941.977	6338.58
942.284	6250.67
942.591	6282.31
942.898	6248.18
943.205	6241.86
943.511	6209.09
943.818	6197.79
944.125	6141.07
944.431	6099.26
944.738	6162.31
945.044	6079.6
945.35	6048.41
945.657	5981.98
945.963	6005.7
946.269	5951.92
946.575	5936.55
946.881	5885.48
947.187	5886.38
947.493	5860.17
947.799	5833.96
948.105	5840.28
948.41	5723.9
948.716	5741.98
949.022	5765.94
949.327	5736.33
949.633	5717.8
949.938	5663.34
950.244	5655.88
950.549	5582.44
950.854	5574.98
951.16	5576.34
951.465	5536.79
951.77	5483.68
952.075	5499.73
952.38	5464.25
952.685	5455.44
952.99	5393.06
953.294	5346.51
953.599	5353.52
953.904	5371.6
954.209	5308.32
954.513	5293.86
954.818	5274.88
955.122	5257.93
955.426	5198.27
955.731	5205.05
956.035	5156.23
956.339	5143.58
956.643	5150.58
956.948	5054.77
957.252	5066.75
957.556	5044.15
957.86	5005.05
958.163	5027.65
958.467	4997.37
958.771	4986.75
959.075	5015.22
959.378	4931.16
959.682	4886.19
959.985	4871.04
960.289	4840.31
960.592	4826.3
960.896	4832.63
961.199	4777.71
961.502	4724.83
961.805	4711.95
962.108	4713.76
962.411	4719.64
962.714	4669.24
963.017	4652.52
963.32	4682.57
963.623	4664.5
963.926	4660.65
964.228	4567.78
964.531	4570.71
964.833	4579.07
965.136	4503.6
965.438	4515.8
965.741	4446.65
966.043	4441.23
966.345	4447.1
966.648	4429.7
966.95	4415.24
967.252	4377.5
967.554	4361
967.856	4377.95
968.158	4282.13
968.46	4255.69
968.761	4273.55
969.063	4272.64
969.365	4180.89
969.666	4230.61
969.968	4210.5
970.269	4174.57
970.571	4138.63
970.872	4118.75
971.174	4107.67
971.475	4149.26
971.776	4066.77
972.077	4033.1
972.378	4045.53
972.679	4043.27
972.98	4065.42
973.281	3982.48
973.582	3984.29
973.883	3966.44
974.183	3925.76
974.484	3933.22
974.785	3932.54
975.085	3900.9
975.386	3887.79
975.686	3824.97
975.986	3843.73
976.287	3778.87
976.587	3796.72
976.887	3754.92
977.187	3797.17
977.487	3748.59
977.787	3742.26
978.087	3719.89
978.387	3721.02
978.687	3697.06
978.987	3695.03
979.286	3664.97
979.586	3665.2
979.885	3615.48
980.185	3627.69
980.484	3605.31
980.784	3596.05
981.083	3536.62
981.382	3517.18
981.682	3501.81
981.981	3477.18
982.28	3474.7
982.579	3462.72
982.878	3470.18
983.177	3459.56
983.475	3442.38
983.774	3394.02
984.073	3373.23
984.372	3333.68
984.67	3357.64
984.969	3368.03
985.267	3336.85
985.566	3352.67
985.864	3297.53
986.162	3239.45
986.461	3283.97
986.759	3248.49
987.057	3215.49
987.355	3231.09
987.653	3180.69
987.951	3219.79
988.249	3203.29
988.547	3210.97
988.844	3151.99
989.142	3138.66
989.44	3121.94
989.737	3105.21
990.035	3098.66
990.332	3054.59
990.63	3052.11
990.927	3065.89
991.224	3050.08
991.521	3000.36
991.819	3029.06
992.116	3007.82
992.413	2950.87
992.71	2946.58
993.006	2926.46
993.303	2906.8
993.6	2919.68
993.897	2890.76
994.193	2888.5
994.49	2849.85
994.787	2853.92
995.083	2800.82
995.379	2827.03
995.676	2803.98
995.972	2793.58
996.268	2758.56
996.565	2764.88
996.861	2746.58
997.157	2773.02
997.453	2702.97
997.749	2725.34
998.044	2722.4
998.34	2670.42
998.636	2670.88
998.932	2658.22
999.227	2642.4
999.523	2643.08
999.818	2645.11
1000.114	2580.93
1000.409	2586.58
1000.704	2593.59
1001	2549.75
1001.295	2540.26
1001.59	2542.74
1001.885	2521.73
1002.18	2484.67
1002.475	2498
1002.77	2448.06
1003.065	2452.58
1003.359	2443.76
1003.654	2447.38
1003.949	2451.45
1004.243	2406.25
1004.538	2359.7
1004.832	2375.52
1005.127	2382.52
1005.421	2379.58
1005.715	2327.16
1006.009	2293.48
1006.304	2317.21
1006.598	2281.06
1006.892	2283.32
1007.186	2286.48
1007.48	2245.35
1007.773	2243.77
1008.067	2276.31
1008.361	2184.34
1008.655	2208.74
1008.948	2198.8
1009.242	2161.28
1009.535	2158.12
1009.829	2141.4
1010.122	2132.13
1010.415	2122.19
1010.708	2125.13
1011.001	2089.87
1011.295	2084.45
1011.588	2079.25
1011.881	2037.9
1012.173	2050.55
1012.466	2065.47
1012.759	2020.27
1013.052	2024.34
1013.344	2020.05
1013.637	2004.9
1013.93	1953.38
1014.222	1973.95
1014.514	1952.25
1014.807	1925.81
1015.099	1930.1
1015.391	1901.63
1015.683	1890.11
1015.976	1888.75
1016.268	1888.3
1016.56	1842.42
1016.851	1859.15
1017.143	1855.3
1017.435	1828.41
1017.727	1818.92
1018.018	1781.41
1018.31	1794.74
1018.602	1743.67
1018.893	1743.89
1019.185	1754.97
1019.476	1764.91
1019.767	1746.61
1020.058	1708.42
1020.35	1686.72
1020.641	1704.35
1020.932	1713.16
1021.223	1688.08
1021.514	1686.27
1021.804	1658.7
1022.095	1649.66
1022.386	1651.69
1022.677	1617.8
1022.967	1577.57
1023.258	1590.23
1023.548	1601.3
1023.839	1597.68
1024.129	1595.42
1024.419	1561.75
1024.709	1514.3
1025	1561.3
1025.29	1521.75
1025.58	1499.61
1025.87	1481.08
1026.16	1506.84
1026.449	1485.6
1026.739	1477.01
1027.029	1460.06
1027.319	1464.58
1027.608	1460.74
1027.898	1428.2
1028.187	1412.15
1028.477	1423.23
1028.766	1400.4
1029.055	1399.95
1029.344	1390.01
1029.634	1344.58
1029.923	1354.75
1030.212	1347.97
1030.501	1376.9
1030.79	1323.11
1031.078	1329.89
1031.367	1338.03
1031.656	1323.11
1031.945	1322.66
1032.233	1267.07
1032.522	1292.16
1032.81	1274.98
1033.099	1265.49
1033.387	1225.49
1033.675	1260.29
1033.963	1238.37
1034.251	1237.24
1034.54	1211.25
1034.828	1231.14
1035.116	1229.11
1035.403	1194.53
1035.691	1193.4
1035.979	1201.54
1036.267	1194.53
1036.554	1152.5
1036.842	1155.44
1037.129	1150.69
1037.417	1140.75
1037.704	1109.56
1037.992	1143.91
1038.279	1120.86
1038.566	1109.11
1038.853	1109.11
1039.14	1109.11
