Data from white_steel_sheet_FLMS001491_085.txt Node
Date: Tue Feb 07 10:58:37 GMT 2017
User: dcchb
Spectrometer: FLMS00149
Trigger mode: 0
Integration Time (sec): 2.000000E-2
Scans to average: 10
Electric dark correction enabled: true
Nonlinearity correction enabled: false
Boxcar width: 0
XAxis mode: Wavelengths
Number of Pixels in Spectrum: 2048
>>>>>Begin Spectral Data<<<<<
341.393	-28.66
341.776	-28.66
342.16	-28.66
342.543	-53.52
342.927	-74.31
343.31	-73.85
343.693	-66.85
344.077	-44.48
344.46	-64.14
344.843	-62.55
345.226	-30.47
345.61	-31.6
345.993	-24.14
346.376	-2.22
346.759	9.76
347.142	25.35
347.525	45.92
347.908	63.54
348.291	64
348.674	79.81
349.057	111.9
349.44	116.2
349.823	115.29
350.206	174.73
350.588	178.34
350.971	215.63
351.354	229.87
351.737	244.78
352.119	259.7
352.502	267.15
352.884	267.38
353.267	283.65
353.65	301.05
354.032	301.96
354.414	316.42
354.797	318
355.179	327.49
355.562	320.26
355.944	328.85
356.326	319.58
356.709	337.43
357.091	343.54
357.473	346.25
357.855	352.35
358.238	337.43
358.62	362.07
359.002	366.81
359.384	354.84
359.766	343.08
360.148	344.89
360.53	358.23
360.912	350.09
361.294	334.5
361.676	336.76
362.057	339.47
362.439	341.05
362.821	323.42
363.203	337.89
363.584	331.11
363.966	355.51
364.348	338.56
364.729	344.67
365.111	329.53
365.493	332.91
365.874	333.14
366.256	321.84
366.637	319.81
367.019	319.58
367.4	345.34
367.781	350.54
368.163	338.11
368.544	338.79
368.925	328.4
369.306	331.56
369.688	321.39
370.069	341.95
370.45	327.04
370.831	335.17
371.212	335.63
371.593	319.81
371.974	338.56
372.355	330.43
372.736	321.62
373.117	320.94
373.498	330.66
373.879	320.26
374.26	327.49
374.641	349.86
375.021	314.16
375.402	344.89
375.783	340.82
376.163	350.77
376.544	362.97
376.925	351.9
377.305	334.5
377.686	373.59
378.066	362.74
378.447	336.76
378.827	353.93
379.208	358.68
379.588	350.77
379.968	351.67
380.349	377.21
380.729	377.66
381.109	372.91
381.489	366.59
381.87	360.03
382.25	362.07
382.63	343.76
383.01	367.26
383.39	360.94
383.77	369.52
384.15	378.79
384.53	397.77
384.91	391.44
385.29	386.25
385.67	385.57
386.049	407.49
386.429	411.33
386.809	383.76
387.189	396.19
387.568	420.82
387.948	408.17
388.328	415.85
388.707	393.25
389.087	426.02
389.466	427.6
389.846	410.65
390.225	421.73
390.605	452.01
390.984	439.58
391.363	425.79
391.743	437.32
392.122	457.88
392.501	442.29
392.881	445.91
393.26	457.21
393.639	430.99
394.018	495.4
394.397	473.02
394.776	459.92
395.155	475.06
395.534	476.41
395.913	495.4
396.292	490.42
396.671	504.21
397.05	510.31
397.429	515.96
397.808	511.22
398.186	524.1
398.565	531.33
398.944	562.74
399.323	543.3
399.701	550.99
400.08	569.74
400.458	553.93
400.837	581.5
401.215	568.61
401.594	594.15
401.972	583.08
402.351	593.25
402.729	610.2
403.107	599.35
403.486	597.09
403.864	626.24
404.242	649.74
404.62	665.34
404.999	663.75
405.377	682.51
405.755	694.04
406.133	699.91
406.511	700.36
406.889	732.23
407.267	735.39
407.645	760.47
408.023	759.12
408.401	779.46
408.779	761.83
409.156	794.82
409.534	789.4
409.912	804.99
410.29	830.53
410.667	842.28
411.045	870.3
411.422	863.3
411.8	875.27
412.178	886.12
412.555	895.61
412.933	900.36
413.31	932
413.687	962.5
414.065	968.38
414.442	962.28
414.819	998.21
415.197	1003.18
415.574	1017.19
415.951	1003.41
416.328	1020.35
416.705	1024.42
417.082	1026.46
417.46	1054.93
417.837	1079.34
418.214	1084.99
418.591	1084.76
418.967	1097.87
419.344	1095.38
419.721	1101.26
420.098	1111.88
420.475	1130.86
420.852	1124.31
421.228	1137.41
421.605	1177.64
421.982	1210.86
422.358	1201.14
422.735	1198.65
423.111	1239.33
423.488	1237.52
423.864	1241.82
424.241	1256.28
424.617	1283.17
424.994	1291.76
425.37	1307.58
425.746	1313.23
426.123	1356.16
426.499	1328.6
426.875	1343.74
427.251	1389.84
427.627	1406.56
428.003	1422.6
428.379	1405.66
428.756	1435.26
429.132	1467.12
429.507	1528.36
429.883	1503.05
430.259	1527.46
430.635	1526.78
431.011	1549.61
431.387	1595.03
431.763	1658.98
432.138	1652.2
432.514	1665.76
432.89	1667.34
433.265	1733.1
433.641	1717.74
434.016	1731.3
434.392	1752.09
434.767	1807.23
435.143	1815.81
435.518	1804.97
435.894	1842.48
436.269	1870.05
436.644	1885.64
437.02	1902.14
437.395	1907.56
437.77	1953.66
438.145	1992.76
438.52	2018.75
438.895	2028.24
439.271	2031.63
439.646	2068.01
440.021	2082.02
440.395	2098.52
440.77	2090.61
441.145	2091.96
441.52	2158.18
441.895	2156.82
442.27	2190.49
442.645	2177.61
443.019	2229.14
443.394	2219.65
443.769	2238.18
444.143	2217.39
444.518	2272.07
444.892	2283.15
445.267	2310.49
445.641	2309.13
446.016	2341.9
446.39	2370.83
446.764	2348
447.139	2387.78
447.513	2398.17
447.887	2425.29
448.262	2430.71
448.636	2434.78
449.01	2510.26
449.384	2512.52
449.758	2522.46
450.132	2589.13
450.506	2564.95
450.88	2590.71
451.254	2635.45
451.628	2639.3
452.002	2698.28
452.376	2707.32
452.75	2716.36
453.123	2754.09
453.497	2819.86
453.871	2790.93
454.244	2865.96
454.618	2857.59
454.992	2920.64
455.365	2922.23
455.739	2989.12
456.112	3039.51
456.486	3074.76
456.859	3092.84
457.232	3152.95
457.606	3156.57
457.979	3180.98
458.352	3250.35
458.725	3282.22
459.099	3300.75
459.472	3370.12
459.845	3355.66
460.218	3412.83
460.591	3482.89
460.964	3460.52
461.337	3613.28
461.71	3606.28
462.083	3685.37
462.456	3672.04
462.829	3663
463.201	3738.7
463.574	3763.33
463.947	3792.94
464.32	3901.86
464.692	3955.42
465.065	3961.75
465.438	4012.59
465.81	4093.49
466.183	4132.82
466.555	4261.4
466.928	4214.62
467.3	4223.66
467.672	4324
468.045	4424.11
468.417	4424.78
468.789	4477.44
469.161	4519.25
469.534	4602.18
469.906	4654.38
470.278	4750.88
470.65	4803.08
471.022	4899.57
471.394	4923.3
471.766	4972.12
472.138	5055.95
472.51	5128.5
472.882	5245.1
473.253	5333.46
473.625	5334.59
473.997	5467.24
474.369	5516.51
474.74	5609.61
475.112	5697.52
475.484	5767.12
475.855	5878.98
476.227	5919.21
476.598	6112.42
476.97	6074.23
477.341	6257.73
477.713	6367.11
478.084	6371.17
478.455	6614.78
478.827	6659.98
479.198	6852.97
479.569	6874.66
479.94	7040.76
480.311	7067.88
480.682	7242.79
481.053	7433.07
481.424	7479.62
481.795	7588.09
482.166	7751.48
482.537	7810.46
482.908	8014.07
483.279	8091.81
483.65	8187.62
484.021	8318.47
484.391	8533.38
484.762	8558.01
485.133	8600.04
485.503	8827.38
485.874	8920.71
486.244	9038
486.615	9264.88
486.985	9296.52
487.356	9523.86
487.726	9497.19
488.097	9764.08
488.467	9831.42
488.837	10006.78
489.207	10103.28
489.578	10253.33
489.948	10341.92
490.318	10507.11
490.688	10572.42
491.058	10683.38
491.428	10914.56
491.798	10992.07
492.168	11199.97
492.538	11250.82
492.908	11399.29
493.278	11529.23
493.648	11604.93
494.017	11770.81
494.387	11918.83
494.757	11971.7
495.126	12101.19
495.496	12087.86
495.866	12216.22
496.235	12469.09
496.605	12470.9
496.974	12558.13
497.344	12705.02
497.713	12784.56
498.082	12889.42
498.452	13017.78
498.821	13107.49
499.19	13101.84
499.559	13304.78
499.928	13470.2
500.298	13469.97
500.667	13669.74
501.036	13611.89
501.405	13765.78
501.774	13851.2
502.143	13921.94
502.512	14092.33
502.88	14192.89
503.249	14241.93
503.618	14357.18
503.987	14457.06
504.356	14575.48
504.724	14600.11
505.093	14663.84
505.462	14769.82
505.83	14922.14
506.199	15021.57
506.567	15149.93
506.936	15136.14
507.304	15469.47
507.672	15461.33
508.041	15530.71
508.409	15646.41
508.777	15738.61
509.145	15925.27
509.514	15942.45
509.882	16129.11
510.25	16130.24
510.618	16327.52
510.986	16407.75
511.354	16524.81
511.722	16608.87
512.09	16929.54
512.458	16785.59
512.826	16988.3
513.193	17210.21
513.561	17189.65
513.929	17397.78
514.297	17490.88
514.664	17666.92
515.032	17745.79
515.4	17902.85
515.767	18011.32
516.135	18077.31
516.502	18095.61
516.869	18471.65
517.237	18583.06
517.604	18493.57
517.972	18726.33
518.339	18872.99
518.706	18969.49
519.073	18981.92
519.44	19123.61
519.808	19330.38
520.175	19447.44
520.542	19583.71
520.909	19806.3
521.276	19882.91
521.643	19985.51
522.009	20222.34
522.376	20393.18
522.743	20508.43
523.11	20715.88
523.477	20944.8
523.843	21061.18
524.21	21285.13
524.577	21459.59
524.943	21554.05
525.31	21644.67
525.676	21989.29
526.043	22100.93
526.409	22128.05
526.776	22474.48
527.142	22448.49
527.508	22687.13
527.874	22902.27
528.241	22911.08
528.607	23124.86
528.973	23259.54
529.339	23283.27
529.705	23504.51
530.071	23711.28
530.437	23760.77
530.803	23968.23
531.169	24134.55
531.535	24094.1
531.901	24255.68
532.267	24327.76
532.632	24616.8
532.998	24629.23
533.364	24775.66
533.73	24881.65
534.095	25158.7
534.461	25307.63
534.826	25398.02
535.192	25304.69
535.557	25606.6
535.923	25560.73
536.288	25681.4
536.653	25830.55
537.019	25894.28
537.384	26038.45
537.749	26089.75
538.114	26230.09
538.479	26266.24
538.845	26535.39
539.21	26452.45
539.575	26600.25
539.94	26621.72
540.305	26907.58
540.67	26820.81
541.034	26969.95
541.399	27113.91
541.764	27216.05
542.129	27211.3
542.494	27382.37
542.858	27379.44
543.223	27473.67
543.587	27684.96
543.952	27745.75
544.316	27862.59
544.681	27886.99
545.045	27936.48
545.41	28155.23
545.774	28246.31
546.138	28312.97
546.503	28444.94
546.867	28316.13
547.231	28762.68
547.595	28772.17
547.959	28732.85
548.324	28790.25
548.688	28975.1
549.052	29058.04
549.416	29062.56
549.779	29168.31
550.143	29229.1
550.507	29549.55
550.871	29619.83
551.235	29618.47
551.599	29854.4
551.962	29891.46
552.326	29930.78
552.689	30179.59
553.053	30005.13
553.417	30086.26
553.78	30570.54
554.143	30396.98
554.507	30545.68
554.87	30691.44
555.234	31012.11
555.597	30860.7
555.96	31018.44
556.323	31060.02
556.686	31232.22
557.05	31458.88
557.413	31523.51
557.776	31589.49
558.139	31753.56
558.502	31844.4
558.865	32019.54
559.228	32108.8
559.59	32312.19
559.953	32330.49
560.316	32694.78
560.679	32613.65
561.041	32865.39
561.404	32959.63
561.767	33209.11
562.129	33190.58
562.492	33643.68
562.854	33424.47
563.217	33643
563.579	33705.37
563.941	33952.37
564.304	34027.62
564.666	34186.71
565.028	34209.09
565.39	34503.77
565.753	34615.86
566.115	34743.54
566.477	34871.89
566.839	34986.47
567.201	35210.87
567.563	35350.07
567.925	35480.69
568.287	35466
568.648	35498.32
569.01	35637.3
569.372	35956.61
569.734	35889.49
570.095	36087
570.457	36228.47
570.819	36413.32
571.18	36378.29
571.542	36524.05
571.903	36583.04
572.265	36822.58
572.626	36779.19
572.987	37132.17
573.349	36987.32
573.71	37103.47
574.071	37272.51
574.432	37392.73
574.794	37485.16
575.155	37436.35
575.516	37386.63
575.877	37569
576.238	37658.49
576.599	37821.42
576.96	37893.51
577.32	37861.87
577.681	37856
578.042	38078.14
578.403	38051.25
578.763	38031.58
579.124	38092.37
579.485	38333.5
579.845	38383.44
580.206	38242.2
580.566	38298.02
580.927	38295.53
581.287	38687.16
581.648	38390.67
582.008	38490.56
582.368	38475.41
582.728	38546.15
583.089	38559.71
583.449	38469.77
583.809	38476.54
584.169	38567.84
584.529	38432.03
584.889	38819.81
585.249	38590.67
585.609	38494.17
585.969	38777.55
586.329	38635.86
586.688	38801.51
587.048	38723.32
587.408	38669.53
587.768	38505.92
588.127	38595.86
588.487	38519.93
588.846	38777.1
589.206	38541.63
589.565	38587.95
589.925	38718.8
590.284	38605.35
590.643	38634.51
591.003	38712.7
591.362	38809.64
591.721	38841.51
592.08	38703.21
592.44	38817.33
592.799	38811.45
593.158	38629.31
593.517	38702.98
593.876	38698.46
594.235	38643.55
594.593	38777.78
594.952	38809.42
595.311	38576.43
595.67	38821.62
596.029	39105.91
596.387	38995.63
596.746	39093.7
597.104	38768.29
597.463	38857.55
597.822	39107.71
598.18	38918.34
598.538	38779.59
598.897	38971
599.255	38747.5
599.613	39261.38
599.972	39079.24
600.33	39134.38
600.688	38910.88
601.046	39154.95
601.404	39166.47
601.762	39100.48
602.12	39248.05
602.478	39252.12
602.836	39261.16
603.194	39043.76
603.552	39041.73
603.91	39101.39
604.268	39164.89
604.625	39037.21
604.983	39224.77
605.341	39051.44
605.698	39184.55
606.056	39394.26
606.413	39269.74
606.771	39397.2
607.128	39387.48
607.485	39303.42
607.843	39291.89
608.2	39596.29
608.557	39699.56
608.914	39423.86
609.272	39810.97
609.629	39839.67
609.986	39795.15
610.343	39662.95
610.7	39810.75
611.057	39857.98
611.414	39790.86
611.771	40051.64
612.127	39983.17
612.484	40182.04
612.841	40164.41
613.198	40025.2
613.554	40060.01
613.911	40311.75
614.267	40171.19
614.624	40220.23
614.98	40296.38
615.337	40442.59
615.693	40379.09
616.05	40189.72
616.406	40511.29
616.762	40398.08
617.118	40272.43
617.475	40401.24
617.831	40586.77
618.187	40624.74
618.543	40505.19
618.899	40706.32
619.255	40856.37
619.611	40665.19
619.967	40926.88
620.323	40841.23
620.678	40808.23
621.034	40795.35
621.39	40771.85
621.746	40730.72
622.101	41150.6
622.457	40841.68
622.812	40933.2
623.168	41032.86
623.523	40945.63
623.879	41000.09
624.234	40905.63
624.589	41000.55
624.945	40978.85
625.3	40970.49
625.655	40862.02
626.01	40894.11
626.365	41036.25
626.72	40792.87
627.075	40928.01
627.43	40951.73
627.785	40795.81
628.14	40904.96
628.495	40864.73
628.85	40791.74
629.205	40836.26
629.559	41005.29
629.914	40745.19
630.269	40792.87
630.623	40577.05
630.978	40589.94
631.332	40846.88
631.687	40784.96
632.041	40669.03
632.396	40659.54
632.75	40433.78
633.104	40574.12
633.459	40324.18
633.813	40349.49
634.167	40340.45
634.521	40249.83
634.875	40299.1
635.229	40263.39
635.583	40065.2
635.937	40008.48
636.291	39918.77
636.645	39972.78
636.999	39895.49
637.352	39905.43
637.706	39817.3
638.06	40024.3
638.413	39794.93
638.767	39665.21
639.121	39821.59
639.474	39517.2
639.828	39510.42
640.181	39509.74
640.534	39519.46
640.888	39534.37
641.241	39332.34
641.594	39365.56
641.947	39492.34
642.301	39322.17
642.654	39417.09
643.007	39237.2
643.36	39079.92
643.713	39067.94
644.066	39350.65
644.419	39016.64
644.771	38767.38
645.124	38241.97
645.477	38273.39
645.83	38029.78
646.182	38012.38
646.535	37773.29
646.888	37978.03
647.24	37830.23
647.593	37961.76
647.945	37971.47
648.298	37733.29
648.65	37671.82
649.002	37602.44
649.355	37732.16
649.707	37520.41
650.059	37636.79
650.411	38051.02
650.763	38098.7
651.115	38585.24
651.467	38266.83
651.819	38266.15
652.171	38206.5
652.523	38222.77
652.875	38214.18
653.227	38107.29
653.578	38273.39
653.93	38115.65
654.282	37943.23
654.633	37951.81
654.985	37969.21
655.337	37862.55
655.688	37781.87
656.039	37853.74
656.391	37699.16
656.742	37795.88
657.094	37779.16
657.445	37866.62
657.796	37656.45
658.147	37745.26
658.498	37705.49
658.849	37677.47
659.2	37514.31
659.551	37567.64
659.902	37566.96
660.253	37443.35
660.604	37450.36
660.955	37194.77
661.306	37360.87
661.656	37299.85
662.007	37225.73
662.358	37142.34
662.708	37103.25
663.059	37034.32
663.409	36840.66
663.76	37055.57
664.11	37044.72
664.461	37180.53
664.811	37013.31
665.161	36813.31
665.511	36717.95
665.862	36693.31
666.212	36719.3
666.562	36693.54
666.912	36497.16
667.262	36361.57
667.612	36297.62
667.962	36375.58
668.312	36194.57
668.662	36376.71
669.011	36040.45
669.361	36037.06
669.711	35993.9
670.06	35862.38
670.41	35810.17
670.76	35631.87
671.109	35577.19
671.459	35673.45
671.808	35548.94
672.157	35439.11
672.507	35305.55
672.856	35297.19
673.205	35257.65
673.554	35446.34
673.904	35266.01
674.253	35327.48
674.602	35095.16
674.951	34590.55
675.3	34559.59
675.649	34842.06
675.998	34832.35
676.346	34916.19
676.695	35043.87
677.044	34789.41
677.393	34872.8
677.741	34894.04
678.09	34704.67
678.438	34577.21
678.787	34761.16
679.135	34771.33
679.484	34350.55
679.832	34651.11
680.181	34396.43
680.529	34575.86
680.877	34388.97
681.225	34481.62
681.573	34639.13
681.922	34401.62
682.27	34360.72
682.618	34491.11
682.966	34442.98
683.314	34414.5
683.661	34399.59
684.009	34179.93
684.357	34315.75
684.705	34253.6
685.053	34316.88
685.4	34339.7
685.748	34313.49
686.095	34356.2
686.443	34178.58
686.79	34173.83
687.138	34364.56
687.485	34272.36
687.832	34151.23
688.18	34394.84
688.527	34170.44
688.874	34174.29
689.221	34121.63
689.568	34128.86
689.915	34042.31
690.262	34099.26
690.609	33974.52
690.956	33944.91
691.303	33929.32
691.65	33727.97
691.997	33802.77
692.344	33769.55
692.69	33692.26
693.037	33858.59
693.383	33438.49
693.73	33619.05
694.077	33482.33
694.423	33624.92
694.769	33447.98
695.116	33429.45
695.462	33448.2
695.808	33206.4
696.155	33299.28
696.501	33137.7
696.847	33183.58
697.193	32838.95
697.539	33069.46
697.885	32889.35
698.231	32794.89
698.577	32667.88
698.923	32659.07
699.269	32492.07
699.614	32537.72
699.96	32348.8
700.306	32420.43
700.651	32211.4
700.997	32174.34
701.342	32072.87
701.688	32117.84
702.033	31862.03
702.379	31895.47
702.724	31931.86
703.069	31962.14
703.415	31518.54
703.76	31608.7
704.105	31674.24
704.45	31421.36
704.795	31361.25
705.14	31345.66
705.485	31275.15
705.83	31180.92
706.175	31173.69
706.52	31088.26
706.865	30953.35
707.209	30973.69
707.554	30746.58
707.899	30883.52
708.243	30678.56
708.588	30689.86
708.932	30540.71
709.277	30481.05
709.621	30504.55
709.966	30245.35
710.31	30441.95
710.654	30131
710.998	30262.3
711.342	30217.55
711.687	30198.57
712.031	29996.99
712.375	29963.77
712.719	29897.11
713.063	29829.54
713.407	29889.88
713.75	29604.91
714.094	29734.18
714.438	29476.56
714.782	29632.94
715.125	29493.05
715.469	29397.01
715.812	29352.94
716.156	29208.09
716.499	29204.92
716.843	29277.01
717.186	29054.19
717.53	29137.13
717.873	29201.31
718.216	28968.09
718.559	28938.26
718.902	28787.31
719.246	28676.58
719.589	28759.51
719.932	28674.77
720.275	28592.74
720.617	28627.76
720.96	28528.78
721.303	28553.19
721.646	28572.85
721.989	28393.65
722.331	28400.2
722.674	28296.47
723.016	28293.08
723.359	28266.64
723.701	28306.42
724.044	28129.92
724.386	28058.51
724.729	28103.03
725.071	28048.57
725.413	27887.44
725.755	27934.45
726.097	27785.07
726.439	27801.8
726.782	27753.44
727.124	27782.59
727.465	27570.84
727.807	27667.34
728.149	27559.32
728.491	27509.38
728.833	27584.63
729.175	27335.59
729.516	27434.35
729.858	27388.93
730.199	27444.97
730.541	27246.56
730.882	27153
731.224	27255.82
731.565	27122.04
731.906	26992.55
732.248	27098.54
732.589	26993.68
732.93	26867.36
733.271	26775.84
733.612	26953.01
733.953	26856.96
734.294	26773.8
734.635	26657.65
734.976	26761.37
735.317	26620.13
735.658	26609.06
735.999	26624.88
736.339	26478.89
736.68	26670.98
737.021	26423.75
737.361	26317.54
737.702	26522.73
738.042	26391.89
738.383	26414.72
738.723	26367.48
739.063	26215.62
739.404	26369.07
739.744	26158.45
740.084	26107.83
740.424	26065.8
740.764	26071.67
741.104	26170.2
741.444	25839.81
741.784	25782.19
742.124	25887.95
742.464	25903.77
742.804	25867.38
743.143	25787.61
743.483	25803.66
743.823	25572.48
744.162	25645.47
744.502	25591.23
744.841	25454.29
745.181	25519.37
745.52	25484.34
745.86	25542.87
746.199	25430.11
746.538	25386.95
746.877	25456.1
747.216	25356.89
747.556	25275.08
747.895	25281.19
748.234	25146.05
748.573	25142.43
748.911	25016.79
749.25	25051.81
749.589	24956.45
749.928	24863.8
750.267	24905.38
750.605	24867.19
750.944	24765.27
751.283	24774.31
751.621	24890.46
751.96	24670.58
752.298	24604.82
752.636	24600.53
752.975	24466.52
753.313	24401.21
753.651	24527.99
753.989	24352.17
754.327	24337.93
754.666	24103.36
755.004	24163.7
755.342	24134.55
755.679	24060.2
756.017	23942.24
756.355	24053.2
756.693	23883.03
757.031	23830.15
757.368	23787.67
757.706	23752.64
758.044	23629.48
758.381	23550.16
758.719	23606.2
759.056	23565.75
759.394	23501.57
759.731	23428.13
760.068	23249.37
760.405	23173.9
760.743	23132.32
761.08	23144.52
761.417	23062.94
761.754	22926.9
762.091	22904.52
762.428	22845.54
762.765	22618.2
763.102	22788.37
763.438	22675.15
763.775	22540.47
764.112	22539.56
764.449	22435.16
764.785	22425.44
765.122	22242.85
765.458	22105.22
765.795	22095.05
766.131	22121.95
766.467	22000.82
766.804	21941.84
767.14	21789.3
767.476	21867.49
767.812	21683.09
768.148	21706.36
768.485	21578.23
768.821	21411.23
769.157	21498.91
769.492	21362.64
769.828	21275.42
770.164	21185.47
770.5	21096.89
770.836	21079.26
771.171	20973.05
771.507	20924.46
771.842	20788.2
772.178	20791.59
772.513	20689.89
772.849	20692.83
773.184	20556.34
773.519	20477.02
773.855	20352.5
774.19	20286.51
774.525	20251.26
774.86	20255.78
775.195	20268.21
775.53	20059.4
775.865	19947.99
776.2	19915.68
776.535	19734.21
776.87	19811.05
777.205	19683.82
777.539	19517.04
777.874	19581
778.209	19440.89
778.543	19420.1
778.878	19259.42
779.212	19247.9
779.547	19253.1
779.881	19182.36
780.215	18951.41
780.55	19028.02
780.884	18842.94
781.218	18787.8
781.552	18799.55
781.886	18676.84
782.22	18574.47
782.554	18483.4
782.888	18350.07
783.222	18403.17
783.556	18238.66
783.889	18269.62
784.223	18045.67
784.557	18138.32
784.89	18147.14
785.224	17995.5
785.557	17992.11
785.891	17913.47
786.224	17734.49
786.558	17817.88
786.891	17610.65
787.224	17566.81
787.557	17480.26
787.891	17452.24
788.224	17499.24
788.557	17441.84
788.89	17380.15
789.223	17344.45
789.556	17192.81
789.888	17149.65
790.221	17170.21
790.554	16955.08
790.887	16944.46
791.219	16885.93
791.552	16768.42
791.884	16764.8
792.217	16664.01
792.549	16650
792.882	16528.2
793.214	16448.88
793.546	16480.74
793.879	16448.2
794.211	16232.38
794.543	16314.64
794.875	16154.65
795.207	16293.17
795.539	16145.38
795.871	16235.1
796.203	16016.12
796.535	15946.06
796.867	15962.11
797.198	15898.38
797.53	15820.87
797.862	15746.52
798.193	15723.47
798.525	15679.18
798.856	15619.07
799.188	15455.23
799.519	15506.08
799.85	15346.08
800.182	15362.58
800.513	15435.57
800.844	15185.41
801.175	15300.88
801.506	15217.72
801.837	15210.26
802.168	15090.04
802.499	15152.86
802.83	14972.98
803.161	14954.68
803.491	14894.11
803.822	14930.72
804.153	14864.74
804.483	14778.64
804.814	14680.33
805.145	14702.93
805.475	14651.41
805.805	14596.95
806.136	14596.72
806.466	14573.9
806.796	14573.67
807.126	14440.79
807.457	14406.9
807.787	14388.36
808.117	14236.28
808.447	14312.66
808.777	14355.82
809.107	14231.98
809.436	14174.36
809.766	14205.09
810.096	14118.54
810.426	14097.07
810.755	14010.75
811.085	14017.53
811.414	14004.65
811.744	13810.53
812.073	13869.06
812.403	13812.11
812.732	13708.38
813.061	13717.87
813.39	13630.87
813.719	13656.41
814.049	13683.98
814.378	13662.06
814.707	13505.45
815.036	13494.83
815.365	13561.04
815.693	13448.05
816.022	13362.4
816.351	13399.69
816.68	13200.6
817.008	13364.89
817.337	13206.47
817.665	13212.8
817.994	13168.51
818.322	13213.03
818.651	13093.71
818.979	13076.76
819.307	13090.55
819.636	13119.25
819.964	12942.07
820.292	13053.94
820.62	12994.05
820.948	12980.94
821.276	12951.57
821.604	12976.88
821.932	13010.77
822.259	12998.8
822.587	12968.06
822.915	12996.31
823.243	12902.3
823.57	12900.04
823.898	12870.89
824.225	12878.57
824.553	12930.1
824.88	12875.64
825.207	12963.09
825.535	12890.32
825.862	12866.82
826.189	12862.53
826.516	12886.03
826.843	12985.24
827.17	12921.74
827.497	12909.53
827.824	12905.01
828.151	12980.04
828.478	12916.54
828.805	12936.65
829.131	12880.61
829.458	12868.63
829.785	12761.06
830.111	12803.77
830.438	12884.9
830.764	12781.85
831.09	12909.76
831.417	12724
831.743	12827.95
832.069	12780.5
832.395	12735.07
832.722	12860.27
833.048	12714.96
833.374	12662.08
833.7	12745.7
834.026	12698.47
834.351	12766.26
834.677	12650.11
835.003	12655.3
835.329	12642.87
835.654	12693.27
835.98	12639.26
836.306	12611.24
836.631	12565.59
836.956	12592.03
837.282	12593.16
837.607	12532.59
837.932	12486.49
838.258	12524.68
838.583	12482.88
838.908	12423.67
839.233	12426.83
839.558	12366.95
839.883	12355.2
840.208	12315.65
840.533	12294.18
840.858	12275.2
841.182	12323.11
841.507	12306.84
841.832	12248.99
842.156	12211.92
842.481	12199.04
842.805	12139.61
843.13	12209.21
843.454	12060.74
843.778	12077.69
844.103	12046.05
844.427	11995.21
844.751	12038.6
845.075	12041.08
845.399	11895.55
845.723	11879.05
846.047	11857.81
846.371	11696.68
846.695	11745.95
847.019	11660.53
847.343	11585.73
847.666	11632.73
847.99	11459.63
848.313	11569.68
848.637	11436.13
848.96	11451.94
849.284	11417.14
849.607	11302.12
849.931	11292.85
850.254	11266.19
850.577	11124.72
850.9	11072.29
851.223	11059.19
851.546	11016.7
851.869	10889.47
852.192	10985.97
852.515	10832.98
852.838	10812.41
853.161	10842.02
853.483	10788.46
853.806	10692.42
854.129	10774.22
854.451	10684.28
854.774	10616.94
855.096	10620.1
855.419	10573.55
855.741	10585.53
856.063	10571.06
856.385	10514.79
856.708	10416.72
857.03	10382.59
857.352	10374.46
857.674	10358.87
857.996	10275.93
858.318	10195.03
858.64	10323.84
858.961	10187.12
859.283	10190.06
859.605	10096.27
859.926	10149.15
860.248	10091.3
860.57	10099.44
860.891	10097.63
861.212	10049.04
861.534	10035.71
861.855	10000.23
862.176	9994.81
862.498	9983.06
862.819	9933.57
863.14	9973.34
863.461	9918.88
863.782	9867.13
864.103	9826.68
864.424	9869.39
864.745	9857.86
865.065	9789.62
865.386	9758.88
865.707	9748.26
866.027	9768.15
866.348	9696.51
866.668	9699.9
866.989	9640.01
867.309	9581.94
867.63	9637.3
867.95	9589.39
868.27	9571.09
868.59	9572.67
868.91	9520.92
869.23	9548.27
869.55	9519.11
869.87	9545.78
870.19	9543.07
870.51	9539.68
870.83	9509.85
871.15	9359.12
871.469	9448.61
871.789	9384.43
872.109	9413.58
872.428	9390.3
872.748	9447.25
873.067	9397.99
873.386	9341.27
873.706	9371.1
874.025	9314.37
874.344	9287.71
874.663	9253.36
874.982	9245.45
875.301	9191.67
875.62	9167.71
875.939	9171.55
876.258	9216.75
876.577	9176.07
876.896	9193.47
877.214	9120.03
877.533	9159.35
877.852	9153.47
878.17	9148.28
878.489	9122.29
878.807	9127.26
879.125	9039.13
879.444	9056.08
879.762	8969.3
880.08	9034.16
880.398	9037.32
880.716	9019.69
881.034	8953.93
881.352	8963.65
881.67	8906.7
881.988	8884.1
882.306	8863.76
882.624	8788.74
882.941	8799.13
883.259	8774.27
883.577	8748.96
883.894	8829.41
884.212	8783.54
884.529	8754.61
884.846	8706.48
885.164	8673.49
885.481	8679.59
885.798	8634.39
886.115	8609.31
886.432	8565.01
886.75	8583.55
887.067	8571.12
887.383	8557.78
887.7	8542.87
888.017	8559.59
888.334	8459.03
888.651	8455.41
888.967	8513.94
889.284	8369.09
889.6	8366.38
889.917	8312.59
890.233	8371.8
890.55	8317.11
890.866	8308.07
891.182	8268.98
891.498	8217
891.815	8222.2
892.131	8185.82
892.447	8198.24
892.763	8181.75
893.079	8123.22
893.395	8105.82
893.71	8085.93
894.026	8093.16
894.342	8059.04
894.657	8042.77
894.973	7963
895.289	7950.79
895.604	7956.67
895.92	7865.15
896.235	7909.89
896.55	7865.15
896.865	7921.87
897.181	7838.03
897.496	7832.15
897.811	7815.88
898.126	7720.74
898.441	7680.07
898.756	7698.82
899.071	7668.54
899.386	7657.92
899.7	7579.28
900.015	7513.74
900.33	7550.35
900.644	7540.64
900.959	7491.14
901.273	7502.9
901.588	7440.98
901.902	7421.77
902.216	7406.18
902.531	7375.44
902.845	7343.8
903.159	7264.71
903.473	7249.8
903.787	7265.61
904.101	7217.93
904.415	7217.93
904.729	7081.21
905.042	7111.95
905.356	7076.69
905.67	7038.05
905.984	7067.2
906.297	7010.48
906.611	6960.09
906.924	6922.57
907.237	6908.34
907.551	6885.06
907.864	6889.35
908.177	6869.92
908.491	6824.5
908.804	6809.13
909.117	6784.95
909.43	6728.45
909.743	6707.89
910.056	6696.36
910.368	6637.61
910.681	6624.95
910.994	6639.64
911.307	6583.6
911.619	6553.09
911.932	6568.68
912.244	6469.7
912.557	6493.66
912.869	6385.41
913.181	6438.07
913.494	6392.42
913.806	6430.16
914.118	6360.1
914.43	6268.35
914.742	6339.54
915.054	6224.06
915.366	6280.1
915.678	6237.84
915.99	6235.81
916.302	6127.11
916.613	6111.52
916.925	6179.31
917.236	6115.14
917.548	6057.06
917.859	6077.85
918.171	6005.53
918.482	6006.66
918.794	5999.43
919.105	5974.12
919.416	5926.89
919.727	5908.81
920.038	5881.47
920.349	5877.4
920.66	5830.85
920.971	5794.01
921.282	5747.01
921.593	5731.19
921.903	5714.69
922.214	5664.53
922.525	5695.26
922.835	5636.96
923.146	5652.1
923.456	5616.84
923.767	5627.01
924.077	5536.85
924.387	5529.16
924.697	5535.04
925.008	5482.16
925.318	5482.16
925.628	5514.7
925.938	5476.28
926.248	5406.68
926.558	5399
926.867	5349.05
927.177	5280.13
927.487	5296.4
927.796	5204.2
928.106	5243.52
928.416	5304.99
928.725	5239
929.034	5201.94
929.344	5187.02
929.653	5203.07
929.962	5131.88
930.271	5088.95
930.581	5073.81
930.89	5024.09
931.199	5021.38
931.508	4972.79
931.817	5000.59
932.125	5005.11
932.434	4930.53
932.743	4867.26
933.051	4850.99
933.36	4920.14
933.669	4813.25
933.977	4832.91
934.286	4850.54
934.594	4818.67
934.902	4817.54
935.21	4740.71
935.519	4769.63
935.827	4768.73
936.135	4697.77
936.443	4674.04
936.751	4648.96
937.059	4660.26
937.367	4580.71
937.674	4575.52
937.982	4582.29
938.29	4563.76
938.597	4543.65
938.905	4497.55
939.213	4485.12
939.52	4469.08
939.827	4462.75
940.135	4448.29
940.442	4404.22
940.749	4393.15
941.056	4439.7
941.363	4352.47
941.67	4382.3
941.977	4323.54
942.284	4318.35
942.591	4298.23
942.898	4291.91
943.205	4246.94
943.511	4241.74
943.818	4193.83
944.125	4201.74
944.431	4163.77
944.738	4181.85
945.044	4118.13
945.35	4171.01
945.657	4103.21
945.963	4074.06
946.269	4087.62
946.575	4051.91
946.881	4060.27
947.187	4034.51
947.493	4032.03
947.799	3995.42
948.105	3950.45
948.41	3922.65
948.716	3952.03
949.022	3944.12
949.327	3881.52
949.633	3911.35
949.938	3891.92
950.244	3865.25
950.549	3838.13
950.854	3830.9
951.16	3827.51
951.465	3797.68
951.77	3777.12
952.075	3767.63
952.38	3734.63
952.685	3753.39
952.99	3708.19
953.294	3685.6
953.599	3692.83
953.904	3620.96
954.209	3647.86
954.513	3650.34
954.818	3632.49
955.122	3594.98
955.426	3618.48
955.731	3572.38
956.035	3540.74
956.339	3532.15
956.643	3553.62
956.948	3506.84
957.252	3486.05
957.556	3490.57
957.86	3470.91
958.163	3458.26
958.467	3405.15
958.771	3439.73
959.075	3402.21
959.378	3397.24
959.682	3347.07
959.985	3370.12
960.289	3304.36
960.592	3341.88
960.896	3290.13
961.199	3297.13
961.502	3281.09
961.805	3288.09
962.108	3234.99
962.411	3241.99
962.714	3210.81
963.017	3193.63
963.32	3193.4
963.623	3206.74
963.926	3145.27
964.228	3145.5
964.531	3157.7
964.833	3106.18
965.136	3105.95
965.438	3093.75
965.741	3067.08
966.043	3080.87
966.345	3092.39
966.648	3064.37
966.95	3079.96
967.252	3004.94
967.554	2990.25
967.856	2973.07
968.158	2969.23
968.46	2980.53
968.761	2937.14
969.063	2925.84
969.365	2941.43
969.666	2905.05
969.968	2918.16
970.269	2902.11
970.571	2920.64
970.872	2876.35
971.174	2833.64
971.475	2882.45
971.776	2834.09
972.077	2847.2
972.378	2775.79
972.679	2805.17
972.98	2786.86
973.281	2773.3
973.582	2780.99
973.883	2781.66
974.183	2741.21
974.484	2736.92
974.785	2720.87
975.085	2706.64
975.386	2719.74
975.686	2690.59
975.986	2649.24
976.287	2663.02
976.587	2625.51
976.887	2623.25
977.187	2597.26
977.487	2590.93
977.787	2579.64
978.087	2547.55
978.387	2580.99
978.687	2575.79
978.987	2544.16
979.286	2517.49
979.586	2504.61
979.885	2541.22
980.185	2525.85
980.484	2487.43
980.784	2484.04
981.083	2463.93
981.382	2467.55
981.682	2458.06
981.981	2440.2
982.28	2442.92
982.579	2425.74
982.878	2407.44
983.177	2376.48
983.475	2391.17
983.774	2363.14
984.073	2383.48
984.372	2357.27
984.67	2341.22
984.969	2332.18
985.267	2333.77
985.566	2294.9
985.864	2330.6
986.162	2317.95
986.461	2300.77
986.759	2297.16
987.057	2247.21
987.355	2259.64
987.653	2271.62
987.951	2224.16
988.249	2191.4
988.547	2246.54
988.844	2205.41
989.142	2181
989.44	2159.31
989.737	2175.35
990.035	2138.07
990.332	2160.89
990.63	2137.61
990.927	2118.86
991.224	2152.08
991.521	2114.11
991.819	2097.61
992.116	2129.03
992.413	2099.65
992.71	2074.56
993.006	2074.56
993.303	2042.93
993.6	2056.71
993.897	2020.78
994.193	2005.64
994.49	2032.98
994.787	1985.98
995.083	2005.64
995.379	2016.03
995.676	1994.57
995.972	1934
996.268	1941.91
996.565	1947.11
996.861	1933.78
997.157	1916.15
997.453	1887.68
997.749	1906.66
998.044	1912.31
998.34	1914.12
998.636	1873.44
998.932	1893.78
999.227	1844.97
999.523	1865.53
999.818	1840.67
1000.114	1849.26
1000.409	1828.24
1000.704	1807.23
1001	1799.09
1001.295	1784.85
1001.59	1794.35
1001.885	1800.45
1002.18	1776.72
1002.475	1772.43
1002.77	1744.18
1003.065	1737.4
1003.359	1759.77
1003.654	1742.82
1003.949	1699.21
1004.243	1704.86
1004.538	1715.03
1004.832	1698.75
1005.127	1696.49
1005.421	1689.94
1005.715	1682.26
1006.009	1630.06
1006.304	1658.98
1006.598	1633.22
1006.892	1645.87
1007.186	1628.47
1007.48	1566.1
1007.773	1606.33
1008.067	1597.97
1008.361	1562.49
1008.655	1596.84
1008.948	1567.68
1009.242	1562.26
1009.535	1528.59
1009.829	1528.59
1010.122	1541.24
1010.415	1536.95
1010.708	1516.61
1011.001	1488.59
1011.295	1525.88
1011.588	1487.23
1011.881	1486.33
1012.173	1465.99
1012.466	1439.55
1012.759	1442.49
1013.052	1459.67
1013.344	1442.26
1013.637	1428.48
1013.93	1451.53
1014.222	1447.01
1014.514	1432.55
1014.807	1386.22
1015.099	1406.56
1015.391	1386.22
1015.683	1362.94
1015.976	1333.34
1016.268	1358.88
1016.56	1360.23
1016.851	1350.74
1017.143	1350.74
1017.435	1339.89
1017.727	1331.76
1018.018	1300.8
1018.31	1303.51
1018.602	1310.52
1018.893	1275.26
1019.185	1294.02
1019.476	1280.46
1019.767	1285.88
1020.058	1238.88
1020.35	1222.16
1020.641	1230.07
1020.932	1227.13
1021.223	1231.42
1021.514	1208.37
1021.804	1202.5
1022.095	1208.37
1022.386	1164.31
1022.677	1182.16
1022.967	1179.22
1023.258	1178.99
1023.548	1167.47
1023.839	1170.63
1024.129	1153.46
1024.419	1141.93
1024.709	1157.3
1025	1125.89
1025.29	1156.4
1025.58	1119.56
1025.87	1091.31
1026.16	1103.52
1026.449	1095.15
1026.739	1100.13
1027.029	1096.74
1027.319	1080.24
1027.608	1080.92
1027.898	1057.64
1028.187	1068.71
1028.477	1077.98
1028.766	1052.44
1029.055	1013.8
1029.344	1026.68
1029.634	993.24
1029.923	1000.92
1030.212	1025.1
1030.501	1001.82
1030.79	976.97
1031.078	992.78
1031.367	986.68
1031.656	989.39
1031.945	964.31
1032.233	949.4
1032.522	958.66
1032.81	947.36
1033.099	948.04
1033.387	914.82
1033.675	938.77
1033.963	929.96
1034.251	937.19
1034.54	952.56
1034.828	926.35
1035.116	927.25
1035.403	912.79
1035.691	909.17
1035.979	880.02
1036.267	887.02
1036.554	864.88
1036.842	867.82
1037.129	868.72
1037.417	863.97
1037.704	869.4
1037.992	856.29
1038.279	835.73
1038.566	861.26
1038.853	861.26
1039.14	861.26
