Data from White_reflection_standard_FLMS001491_062.txt Node
Date: Tue Feb 07 10:32:07 GMT 2017
User: dcchb
Spectrometer: FLMS00149
Trigger mode: 0
Integration Time (sec): 2.000000E-2
Scans to average: 10
Electric dark correction enabled: true
Nonlinearity correction enabled: false
Boxcar width: 0
XAxis mode: Wavelengths
Number of Pixels in Spectrum: 2048
>>>>>Begin Spectral Data<<<<<
341.393	-17.2
341.776	-17.2
342.16	-17.2
342.543	-65.79
342.927	-56.07
343.31	-46.35
343.693	-65.11
344.077	-68.95
344.46	-66.02
344.843	-73.25
345.226	-19.24
345.61	-37.77
345.993	-33.93
346.376	-30.31
346.759	13.98
347.142	25.51
347.525	37.94
347.908	82.91
348.291	96.47
348.674	77.26
349.057	106.86
349.44	147.76
349.823	121.32
350.206	174.43
350.588	237.48
350.971	244.03
351.354	263.92
351.737	270.93
352.119	308.21
352.502	290.13
352.884	326.74
353.267	314.31
353.65	345.05
354.032	356.57
354.414	362.22
354.797	356.57
355.179	376.91
355.562	378.72
355.944	384.37
356.326	359.74
356.709	391.6
357.091	399.28
357.473	406.06
357.855	404.93
358.238	386.4
358.62	385.05
359.002	415.33
359.384	413.07
359.766	404.25
360.148	403.8
360.53	420.07
360.912	377.14
361.294	398.61
361.676	401.32
362.057	409.45
362.439	383.92
362.821	420.07
363.203	404.03
363.584	416.91
363.966	408.1
364.348	404.48
364.729	383.46
365.111	410.81
365.493	409.23
365.874	414.42
366.256	405.38
366.637	399.06
367.019	419.4
367.4	424.14
367.781	419.62
368.163	414.88
368.544	426.18
368.925	409.45
369.306	447.64
369.688	446.51
370.069	427.98
370.45	413.07
370.831	436.57
371.212	434.31
371.593	409.23
371.974	451.26
372.355	443.35
372.736	446.74
373.117	431.37
373.498	451.71
373.879	477.25
374.26	443.8
374.641	436.34
375.021	427.08
375.402	445.38
375.783	507.08
376.163	500.75
376.544	509.11
376.925	476.8
377.305	479.51
377.686	482.22
378.066	491.48
378.447	510.47
378.827	488.09
379.208	502.78
379.588	519.51
379.968	520.64
380.349	521.09
380.729	535.32
381.109	519.05
381.489	549.34
381.87	550.92
382.25	550.01
382.63	556.79
383.01	574.19
383.39	579.17
383.77	571.26
384.15	584.36
384.53	570.58
384.91	582.78
385.29	606.74
385.67	593.63
386.049	620.97
386.429	615.1
386.809	630.92
387.189	629.79
387.568	633.4
387.948	622.1
388.328	647.86
388.707	640.86
389.087	651.03
389.466	681.54
389.846	664.81
390.225	660.29
390.605	703.23
390.984	680.18
391.363	705.94
391.743	748.88
392.122	740.97
392.501	746.17
392.881	759.5
393.26	746.62
393.639	744.36
394.018	777.13
394.397	762.44
394.776	788.2
395.155	794.53
395.534	769.67
395.913	784.13
396.292	822.55
396.671	828.2
397.05	832.04
397.429	842.21
397.808	872.72
398.186	854.41
398.565	853.73
398.944	858.03
399.323	867.97
399.701	902.32
400.08	907.74
400.458	899.84
400.837	918.59
401.215	931.92
401.594	925.15
401.972	941.64
402.351	955.2
402.729	972.83
403.107	968.76
403.486	986.16
403.864	986.84
404.242	1018.93
404.62	1040.17
404.999	1017.8
405.377	1046.5
405.755	1064.35
406.133	1059.38
406.511	1085.14
406.889	1073.84
407.267	1117.68
407.645	1118.81
408.023	1133.5
408.401	1160.85
408.779	1168.75
409.156	1201.52
409.534	1209.88
409.912	1202.43
410.29	1246.72
410.667	1251.01
411.045	1262.76
411.422	1292.37
411.8	1300.73
412.178	1332.59
412.555	1348.41
412.933	1375.3
413.31	1364.91
413.687	1413.04
414.065	1408.3
414.442	1415.75
414.819	1457.56
415.197	1460.5
415.574	1498.46
415.951	1469.31
416.328	1507.05
416.705	1496.88
417.082	1527.62
417.46	1544.79
417.837	1576.88
418.214	1577.78
418.591	1574.39
418.967	1600.16
419.344	1646.03
419.721	1699.14
420.098	1670.21
420.475	1668.63
420.852	1720.83
421.228	1711.34
421.605	1734.62
421.982	1770.09
422.358	1781.85
422.735	1807.83
423.111	1814.61
423.488	1820.04
423.864	1858.23
424.241	1883.09
424.617	1930.09
424.994	1923.09
425.37	1946.81
425.746	1948.85
426.123	1961.28
426.499	2012.8
426.875	2022.97
427.251	2100.26
427.627	2106.81
428.003	2098.67
428.379	2154.27
428.756	2169.18
429.132	2167.82
429.507	2231.1
429.883	2272.68
430.259	2306.13
430.635	2345.45
431.011	2340.93
431.387	2399.46
431.763	2455.95
432.138	2430.19
432.514	2500.24
432.89	2514.26
433.265	2548.61
433.641	2594.93
434.016	2622.28
434.392	2674.25
434.767	2730.52
435.143	2714.7
435.518	2783.63
435.894	2790.63
436.269	2864.53
436.644	2850.52
437.02	2881.03
437.395	2890.52
437.77	2988.14
438.145	2987.24
438.52	3039.21
438.895	3097.52
439.271	3074.92
439.646	3139.32
440.021	3149.27
440.395	3211.64
440.77	3179.32
441.145	3173.45
441.52	3264.74
441.895	3294.8
442.27	3329.83
442.645	3325.76
443.019	3379.09
443.394	3375.7
443.769	3384.52
444.143	3385.87
444.518	3455.25
444.892	3453.21
445.267	3520.56
445.641	3523.04
446.016	3570.5
446.39	3559.43
446.764	3575.24
447.139	3607.79
447.513	3668.35
447.887	3669.03
448.262	3721.91
448.636	3725.52
449.01	3761.68
449.384	3814.56
449.758	3828.57
450.132	3906.76
450.506	3921.9
450.88	3932.75
451.254	3942.01
451.628	4022.01
452.002	4067.89
452.376	4088.23
452.75	4128.45
453.123	4146.53
453.497	4247.32
453.871	4283.02
454.244	4362.34
454.618	4412.74
454.992	4478.05
455.365	4487.09
455.739	4589
456.112	4670.58
456.486	4694.54
456.859	4767.3
457.232	4816.34
457.606	4830.35
457.979	4926.62
458.352	4951.03
458.725	5032.61
459.099	5076.9
459.472	5189.21
459.845	5232.38
460.218	5307.63
460.591	5311.92
460.964	5349.44
461.337	5478.47
461.71	5532.26
462.083	5660.61
462.456	5639.6
462.829	5664.23
463.201	5810.44
463.574	5830.1
463.947	5907.39
464.32	6046.14
464.692	6062.86
465.065	6107.38
465.438	6213.14
465.81	6362.29
466.183	6360.03
466.555	6519.8
466.928	6628.95
467.3	6572.45
467.672	6673.47
468.045	6879.11
468.417	6893.8
468.789	6937.64
469.161	7038.66
469.534	7167.47
469.906	7330.85
470.278	7382.38
470.65	7405.43
471.022	7586.44
471.394	7773.33
471.766	7805.87
472.138	7880.22
472.51	8078.86
472.882	8150.49
473.253	8355.46
473.625	8442.24
473.997	8620.31
474.369	8661.21
474.74	8708.44
475.112	8965.39
475.484	9088.32
475.855	9301.65
476.227	9307.75
476.598	9579.15
476.97	9647.63
477.341	9836.32
477.713	10010.1
478.084	10132.81
478.455	10462.52
478.827	10447.15
479.198	10838.1
479.569	10836.52
479.94	11142.5
480.311	11227.47
480.682	11463.85
481.053	11782.26
481.424	11874.01
481.795	12050.95
482.166	12191.29
482.537	12419.53
482.908	12662.46
483.279	12791.05
483.65	13059.74
484.021	13322.11
484.391	13491.59
484.762	13542.89
485.133	13770.01
485.503	13885.71
485.874	14231.01
486.244	14303.32
486.615	14612.02
486.985	14735.18
487.356	15023.76
487.726	15210.87
488.097	15469.4
488.467	15580.13
488.837	15881.81
489.207	16055.59
489.578	16377.39
489.948	16555.24
490.318	16731.51
490.688	16775.35
491.058	17063.7
491.428	17203.36
491.798	17389.8
492.168	17795.21
492.538	17884.93
492.908	18102.77
493.278	18339.15
493.648	18354.07
494.017	18650.33
494.387	18691.23
494.757	18877.89
495.126	19125.8
495.496	19191.56
495.866	19375.51
496.235	19620.25
496.605	19704.54
496.974	19887.36
497.344	20105.88
497.713	20250.51
498.082	20307.01
498.452	20560.79
498.821	20608.7
499.19	20847.56
499.559	20943.83
499.928	21232.41
500.298	21352.18
500.667	21466.3
501.036	21489.58
501.405	21659.52
501.774	21761.89
502.143	21937.93
502.512	22056.11
502.88	22296.11
503.249	22432.15
503.618	22527.06
503.987	22626.04
504.356	22754.4
504.724	23004.79
505.093	23084.11
505.462	23346.25
505.83	23419.24
506.199	23584.89
506.567	23906.24
506.936	23836.18
507.304	24237.75
507.672	24274.14
508.041	24430.29
508.409	24502.83
508.777	24817.62
509.145	25037.73
509.514	25054
509.882	25285.41
510.25	25418.74
510.618	25585.74
510.986	25646.98
511.354	25897.14
511.722	26126.06
512.09	26381.88
512.458	26341.65
512.826	26643.56
513.193	26825.03
513.561	26863.45
513.929	27142.99
514.297	27374.39
514.664	27614.84
515.032	27639.02
515.4	27941.84
515.767	28124.66
516.135	28160.14
516.502	28205.78
516.869	28725.54
517.237	28856.84
517.604	28863.39
517.972	29184.52
518.339	29302.48
518.706	29450.04
519.073	29637.38
519.44	29899.75
519.808	30287.54
520.175	30144.04
520.542	30596.68
520.909	30776.34
521.276	30931.59
521.643	31264.23
522.009	31503.1
522.376	31644.34
522.743	31939.47
523.11	32295.62
523.477	32555.05
523.843	32666.01
524.21	33006.79
524.577	33401.81
524.943	33388.92
525.31	33510.05
525.676	34011.96
526.043	34192.52
526.409	34406.98
526.776	34725.61
527.142	34899.17
527.508	35109.11
527.874	35396.33
528.241	35427.97
528.607	35599.71
528.973	35901.85
529.339	36011.23
529.705	36356.76
530.071	36831.32
530.437	36789.29
530.803	36979.56
531.169	37257.3
531.535	37212.78
531.901	37418.65
532.267	37651.41
532.632	37947
532.998	38005.75
533.364	38229.93
533.73	38301.56
534.095	38570.03
534.461	38732.06
534.826	38948.78
535.192	39049.34
535.557	39363.46
535.923	39279.62
536.288	39513.74
536.653	39759.38
537.019	39675.31
537.384	39881.41
537.749	40184.9
538.114	40209.99
538.479	40281.4
538.845	40487.27
539.21	40593.71
539.575	40718.68
539.94	40850.42
540.305	41152.56
540.67	41034.82
541.034	41237.98
541.399	41416.51
541.764	41485.43
542.129	41743.96
542.494	41830.06
542.858	41995.48
543.223	42094.68
543.587	42299.2
543.952	42368.35
544.316	42514.56
544.681	42442.92
545.045	42665.52
545.41	42998.16
545.774	43061.44
546.138	43104.15
546.503	43310.25
546.867	43289.45
547.231	43702.55
547.595	43882.66
547.959	43829.33
548.324	43985.71
548.688	44053.05
549.052	44262.76
549.416	44280.62
549.779	44446.94
550.143	44644.22
550.507	44888.06
550.871	44938
551.235	45037.21
551.599	45266.35
551.962	45418.21
552.326	45487.36
552.689	45726.91
553.053	45628.15
553.417	45754.02
553.78	46347.68
554.143	46074.69
554.507	46395.14
554.87	46443.5
555.234	46854.56
555.597	46713.77
555.96	46964.61
556.323	47097.04
556.686	47185.85
557.05	47466.97
557.413	47546.29
557.776	47734.31
558.139	47927.53
558.502	48018.82
558.865	48182.66
559.228	48390.11
559.59	48584.68
559.953	48736.77
560.316	49075.52
560.679	48985.12
561.041	49222.18
561.404	49388.73
561.767	49673.69
562.129	49573.13
562.492	49967.92
562.854	50132.66
563.217	49947.58
563.579	50248.37
563.941	50414.24
564.304	50494.92
564.666	50653.56
565.028	50757.51
565.39	51043.83
565.753	51096.48
566.115	51309.58
566.477	51371.73
566.839	51555.9
567.201	51656.47
567.563	51739.4
567.925	52049.45
568.287	51901.88
568.648	52057.59
569.01	52147.98
569.372	52382.1
569.734	52399.5
570.095	52632.71
570.457	52784.12
570.819	52715.87
571.18	52812.14
571.542	52931.91
571.903	52973.27
572.265	53139.59
572.626	53225.69
572.987	53278.12
573.349	53338.23
573.71	53406.7
574.071	53580.03
574.432	53754.49
574.794	53865.22
575.155	53834.04
575.516	53705.68
575.877	53987.03
576.238	53846.92
576.599	54132.11
576.96	54166.46
577.32	54217.3
577.681	54256.17
578.042	54368.71
578.403	54345.66
578.763	54302.95
579.124	54345.44
579.485	54579.1
579.845	54546.79
580.206	54481.7
580.566	54535.71
580.927	54585.66
581.287	54606.45
581.648	54567.58
582.008	54724.18
582.368	54695.26
582.728	54776.84
583.089	54631.08
583.449	54737.29
583.809	54744.75
584.169	54817.51
584.529	54765.99
584.889	55015.7
585.249	54822.94
585.609	54722.6
585.969	54852.77
586.329	54725.54
586.688	54814.35
587.048	54753.79
587.408	54774.12
587.768	54755.59
588.127	54784.07
588.487	54837.63
588.846	54936.15
589.206	54744.07
589.565	54761.47
589.925	54968.92
590.284	54779.55
590.643	54881.01
591.003	54823.61
591.362	55050.95
591.721	54986.77
592.08	54933.22
592.44	54982.93
592.799	55043.95
593.158	54980
593.517	54937.51
593.876	55020.45
594.235	54982.03
594.593	54949.26
594.952	54981.8
595.311	54957.17
595.67	55084.4
596.029	55217.28
596.387	55184.96
596.746	55196.26
597.104	55084.63
597.463	55128.92
597.822	55182.25
598.18	55040.33
598.538	55042.14
598.897	55332.75
599.255	55001.92
599.613	55460.89
599.972	55234.23
600.33	55443.03
600.688	55267.67
601.046	55377.5
601.404	55447.1
601.762	55304.96
602.12	55473.77
602.478	55499.76
602.836	55438.51
603.194	55346.99
603.552	55382.24
603.91	55313.55
604.268	55539.98
604.625	55471.96
604.983	55523.94
605.341	55479.87
605.698	55645.74
606.056	55615.91
606.413	55594.22
606.771	55705.4
607.128	55742.46
607.485	55639.19
607.843	55670.6
608.2	55813.87
608.557	55853.87
608.914	55727.09
609.272	55878.95
609.629	55969.57
609.986	56041.66
610.343	55900.87
610.7	56124.15
611.057	56045.96
611.414	56077.37
611.771	56077.14
612.127	56222.9
612.484	56225.39
612.841	56247.53
613.198	56115.78
613.554	56153.98
613.911	56282.79
614.267	56255.44
614.624	56303.35
614.98	56254.99
615.337	56392.16
615.693	56416.34
616.05	56303.8
616.406	56507.19
616.762	56372.5
617.118	56382.44
617.475	56402.78
617.831	56484.59
618.187	56487.98
618.543	56483.23
618.899	56603.68
619.255	56618.6
619.611	56577.69
619.967	56651.14
620.323	56718.48
620.678	56535.21
621.034	56439.84
621.39	56561.87
621.746	56495.89
622.101	56717.35
622.457	56498.83
622.812	56528.2
623.168	56709.89
623.523	56617.92
623.879	56696.56
624.234	56542.67
624.589	56573.17
624.945	56614.75
625.3	56662.66
625.655	56616.11
626.01	56653.4
626.365	56654.98
626.72	56613.62
627.075	56582.66
627.43	56626.96
627.785	56600.29
628.14	56557.35
628.495	56603.46
628.85	56532.27
629.205	56457.24
629.559	56614.3
629.914	56569.56
630.269	56382.22
630.623	56449.11
630.978	56316.68
631.332	56407.08
631.687	56461.31
632.041	56334.08
632.396	56450.24
632.75	56340.41
633.104	56333.41
633.459	56198.49
633.813	56207.76
634.167	56167.76
634.521	56162.11
634.875	56300.86
635.229	56104.03
635.583	55968.67
635.937	55953.08
636.291	55930.93
636.645	55986.75
636.999	55965.05
637.352	55962.12
637.706	55800.54
638.06	55888.9
638.413	55757.6
638.767	55772.52
639.121	55792.63
639.474	55633.99
639.828	55639.64
640.181	55614.33
640.534	55679.41
640.888	55562.8
641.241	55494.78
641.594	55474.67
641.947	55536.14
642.301	55442.58
642.654	55471.28
643.007	55386.31
643.36	55365.07
643.713	55345.86
644.066	55390.38
644.419	55151.29
644.771	54941.8
645.124	54679.89
645.477	54741.36
645.83	54552.21
646.182	54329.84
646.535	54379.78
646.888	54286.23
647.24	54143.18
647.593	54382.04
647.945	54285.55
648.298	54163.97
648.65	54054.82
649.002	54019.34
649.355	54099.11
649.707	53970.76
650.059	54105.22
650.411	54482.61
650.763	54436.51
651.115	54856.83
651.467	54648.48
651.819	54631.08
652.171	54556.5
652.523	54514.02
652.875	54410.52
653.227	54405.55
653.578	54547.46
653.93	54394.47
654.282	54321.93
654.633	54290.97
654.985	54298.88
655.337	54331.42
655.688	54231.31
656.039	54314.7
656.391	54042.17
656.742	54116.74
657.094	54122.39
657.445	54164.65
657.796	54185.44
658.147	54106.12
658.498	54029.74
658.849	54171.43
659.2	54050.75
659.551	54008.5
659.902	54108.38
660.253	53992.68
660.604	54066.57
660.955	53806.24
661.306	53951.32
661.656	53904.54
662.007	53933.24
662.358	53891.44
662.708	53811.89
663.059	53832.91
663.409	53639.92
663.76	53895.73
664.11	53844.66
664.461	53797.88
664.811	53800.59
665.161	53723.98
665.511	53699.58
665.862	53719.46
666.212	53775.28
666.562	53758.78
666.912	53613.03
667.262	53640.82
667.612	53580.48
667.962	53641.05
668.312	53575.96
668.662	53752.23
669.011	53621.61
669.361	53536.19
669.711	53561.73
670.06	53454.39
670.41	53415.74
670.76	53402.18
671.109	53522.18
671.459	53410.54
671.808	53272.92
672.157	53293.03
672.507	53224.79
672.856	53176.2
673.205	53249.19
673.554	53349.98
673.904	53249.65
674.253	53389.53
674.602	53229.31
674.951	52737.12
675.3	52656.21
675.649	53139.14
675.998	53043.1
676.346	53089.88
676.695	53149.53
677.044	52862.54
677.393	52879.03
677.741	52937.11
678.09	52874.06
678.438	52759.49
678.787	52896.89
679.135	52891.24
679.484	52638.36
679.832	52768.98
680.181	52575.54
680.529	52721.98
680.877	52591.36
681.225	52532.15
681.573	52678.81
681.922	52493.51
682.27	52324.7
682.618	52344.13
682.966	52305.94
683.314	52266.17
683.661	52230.24
684.009	52148.66
684.357	51952.28
684.705	51992.73
685.053	51997.25
685.4	51886.29
685.748	51683.13
686.095	51749.57
686.443	51567.2
686.79	51590.25
687.138	51549.12
687.485	51590.25
687.832	51553.42
688.18	51428
688.527	51246.31
688.874	51250.83
689.221	51251.05
689.568	51082.47
689.915	50893.77
690.262	50913.89
690.609	50820.1
690.956	50824.4
691.303	50674.57
691.65	50466.22
691.997	50570.39
692.344	50310.51
692.69	50206.79
693.037	50226.22
693.383	50017.87
693.73	50080.24
694.077	49923.4
694.423	49887.93
694.769	49793.46
695.116	49705.11
695.462	49594.15
695.808	49411.78
696.155	49520.25
696.501	49184.22
696.847	49332.91
697.193	48892.25
697.539	49049.3
697.885	48750.1
698.231	48697
698.577	48754.85
698.923	48653.16
699.269	48389.43
699.614	48224.92
699.96	48178.59
700.306	48205.48
700.651	47996.9
700.997	47982.89
701.342	47847.98
701.688	47697.47
702.033	47603.24
702.379	47614.54
702.724	47518.5
703.069	47584.94
703.415	47112.86
703.76	46992.86
704.105	47103.59
704.45	47012.07
704.795	46733.66
705.14	46669.03
705.485	46717.84
705.83	46457.73
706.175	46513.55
706.52	46340.45
706.865	46191.75
707.209	46098.19
707.554	46040.12
707.899	46003.96
708.243	45826.56
708.588	45851.65
708.932	45438.1
709.277	45549.06
709.621	45574.14
709.966	45290.53
710.31	45294.83
710.654	44964.21
710.998	45109.52
711.342	45023.19
711.687	44932.8
712.031	44676.99
712.375	44573.26
712.719	44817.32
713.063	44586.14
713.407	44589.99
713.75	44322.2
714.094	44385.47
714.438	44221.18
714.782	44206.04
715.125	44004.24
715.469	44156.55
715.812	43834.53
716.156	43759.95
716.499	43517.25
716.843	43603.57
717.186	43437.7
717.53	43566.28
717.873	43537.81
718.216	43502.1
718.559	43296.91
718.902	42923.36
719.246	43102.57
719.589	42883.14
719.932	42815.57
720.275	42888.34
720.617	42708.23
720.96	42583.03
721.303	42620.77
721.646	42672.07
721.989	42389.59
722.331	42545.52
722.674	42315.24
723.016	42352.98
723.359	42136.94
723.701	42232.53
724.044	42082.93
724.386	41811.08
724.729	42078.19
725.071	41833.9
725.413	41883.16
725.755	41755.26
726.097	41508.26
726.439	41393.69
726.782	41352.78
727.124	41461.48
727.465	41372.9
727.807	41293.58
728.149	41145.78
728.491	41001.38
728.833	41097.42
729.175	40917.99
729.516	40878.22
729.858	40785.79
730.199	40932.23
730.541	40663.54
730.882	40707.38
731.224	40802.74
731.565	40407.5
731.906	40569.07
732.248	40471.22
732.589	40392.81
732.93	40251.57
733.271	40180.61
733.612	40297.22
733.953	40227.39
734.294	40060.39
734.635	39990.78
734.976	40066.94
735.317	39846.83
735.658	39723.22
735.999	39707.18
736.339	39623.11
736.68	39723.9
737.021	39589.89
737.361	39494.07
737.702	39619.27
738.042	39369.11
738.383	39319.16
738.723	39429.9
739.063	39051.15
739.404	39299.5
739.744	39107.19
740.084	38926.41
740.424	39007.31
740.764	38865.16
741.104	38959.85
741.444	38723.47
741.784	38652.29
742.124	38683.02
742.464	38611.61
742.804	38532.29
743.143	38383.37
743.483	38360.77
743.823	38127.1
744.162	38274.67
744.502	38233.54
744.841	38071.29
745.181	38227.22
745.52	37958.3
745.86	38062.93
746.199	37896.15
746.538	38008.01
746.877	37964.17
747.216	37895.7
747.556	37732.09
747.895	37678.08
748.234	37508.59
748.573	37520.57
748.911	37381.36
749.25	37322.61
749.589	37211.2
749.928	37283.51
750.267	37253.68
750.605	37189.28
750.944	37068.15
751.283	36856.86
751.621	37125.32
751.96	36670.19
752.298	36656.64
752.636	36668.16
752.975	36519.46
753.313	36275.63
753.651	36573.47
753.989	36397.43
754.327	36260.26
754.666	36021.4
755.004	36077.22
755.342	36086.48
755.679	36026.6
756.017	35717.68
756.355	35776.66
756.693	35536.21
757.031	35555.65
757.368	35525.82
757.706	35305.26
758.044	35227.07
758.381	35241.08
758.719	35048.32
759.056	35143.45
759.394	34988.43
759.731	34751.83
760.068	34725.84
760.405	34573.07
760.743	34443.13
761.08	34454.21
761.417	34204.95
761.754	34144.84
762.091	34145.51
762.428	33955.24
762.765	33869.36
763.102	33970.15
763.438	33831.4
763.775	33505.98
764.112	33543.72
764.449	33616.26
764.785	33383.27
765.122	33260.34
765.458	33096.28
765.795	33214.24
766.131	32957.3
766.467	32893.34
766.804	32587.36
767.14	32521.38
767.476	32601.37
767.812	32312.57
768.148	32531.77
768.485	32195.96
768.821	32047.04
769.157	31967.72
769.492	31974.05
769.828	31744.22
770.164	31402.99
770.5	31500.39
770.836	31348.98
771.171	31271.24
771.507	31134.97
771.842	30960.29
772.178	31051.81
772.513	30891.14
772.849	30818.6
773.184	30642.56
773.519	30528.89
773.855	30403.01
774.19	30375.9
774.525	30140.65
774.86	30204.15
775.195	30210.02
775.53	29849.36
775.865	29736.82
776.2	29530.95
776.535	29308.81
776.87	29454.34
777.205	29387
777.539	29267
777.874	29218.86
778.209	28882.38
778.543	28830.4
778.878	28656.39
779.212	28829.72
779.547	28596.28
779.881	28609.84
780.215	28446.68
780.55	28399.23
780.884	28115.39
781.218	28176.41
781.552	28062.74
781.886	28020.7
782.22	27834.49
782.554	27698.9
782.888	27506.59
783.222	27410.55
783.556	27318.12
783.889	27243.78
784.223	27098.69
784.557	26924.46
784.89	27143.21
785.224	26790.45
785.557	26754.07
785.891	26708.2
786.224	26554.75
786.558	26575.54
786.891	26367.41
787.224	26226.4
787.557	26213.97
787.891	26122.45
788.224	25991.38
788.557	26002.23
788.89	26007.42
789.223	25818.5
789.556	25689.69
789.888	25665.96
790.221	25460.55
790.554	25312.07
790.887	25264.84
791.219	25158.18
791.552	25251.96
791.884	25111.4
792.217	24984.63
792.549	24818.53
792.882	24653.56
793.214	24624.41
793.546	24618.08
793.879	24503.06
794.211	24411.76
794.543	24461.7
794.875	24325.43
795.207	24338.99
795.539	24239.11
795.871	24186.45
796.203	23980.36
796.535	23887.25
796.867	23815.39
797.198	23729.07
797.53	23705.34
797.862	23525.23
798.193	23548.28
798.525	23429.64
798.856	23464.89
799.188	23142.41
799.519	23023.77
799.85	22914.4
800.182	23123.66
800.513	22977.67
800.844	22813.38
801.175	22955.53
801.506	22827.39
801.837	22658.13
802.168	22675.76
802.499	22623.33
802.83	22331.59
803.161	22323
803.491	22404.35
803.822	22402.55
804.153	22110.35
804.483	22067.41
804.814	22000.3
805.145	21956.23
805.475	21900.64
805.805	21854.09
806.136	21797.36
806.466	21704.94
806.796	21755.11
807.126	21645.28
807.457	21500.42
807.787	21607.31
808.117	21461.1
808.447	21327.09
808.777	21436.7
809.107	21347.66
809.436	21165.74
809.766	21204.84
810.096	21057.5
810.426	21082.81
810.755	21026.76
811.085	20849.82
811.414	20867.67
811.744	20691.41
812.073	20735.92
812.403	20681.24
812.732	20652.31
813.061	20537.74
813.39	20422.94
813.719	20299.33
814.049	20461.13
814.378	20367.8
814.707	20281.02
815.036	20302.04
815.365	20186.56
815.693	19987.24
816.022	20039.22
816.351	19909.73
816.68	19792.22
817.008	19859.56
817.337	19688.27
817.665	19661.38
817.994	19729.85
818.322	19687.14
818.651	19659.79
818.979	19614.6
819.307	19643.07
819.636	19516.75
819.964	19418.22
820.292	19432.68
820.62	19428.16
820.948	19313.59
821.276	19507.26
821.604	19375.06
821.932	19452.12
822.259	19367.37
822.587	19324.89
822.915	19364.66
823.243	19437.2
823.57	19299.8
823.898	19295.28
824.225	19195.4
824.553	19266.13
824.88	19269.97
825.207	19370.99
825.535	19249.18
825.862	19322.4
826.189	19161.28
826.516	19416.86
826.843	19316.07
827.17	19223.87
827.497	19316.07
827.824	19355.17
828.151	19254.15
828.478	19318.11
828.805	19369.41
829.131	19103.2
829.458	19178.68
829.785	19010.77
830.111	19128.51
830.438	19270.88
830.764	19194.95
831.09	19195.4
831.417	19104.78
831.743	19153.82
832.069	19144.55
832.395	19026.82
832.722	19072.92
833.048	19003.99
833.374	19122.86
833.7	18925.8
834.026	18933.49
834.351	19063.88
834.677	19025.23
835.003	18959.93
835.329	18943.88
835.654	18907.95
835.98	18797.67
836.306	18827.27
836.631	18798.57
836.956	18825.24
837.282	18836.76
837.607	18685.36
837.932	18652.59
838.258	18755.41
838.583	18663.89
838.908	18488.3
839.233	18636.77
839.558	18524.23
839.883	18484.23
840.208	18384.8
840.533	18381.86
840.858	18344.35
841.182	18352.26
841.507	18321.75
841.832	18204.46
842.156	18205.14
842.481	18193.84
842.805	18122.89
843.13	18031.81
843.454	18096.9
843.778	17994.3
844.103	18013.74
844.427	17896.22
844.751	17909.56
845.075	17866.85
845.399	17794.08
845.723	17706.17
846.047	17735.1
846.371	17594.54
846.695	17604.25
847.019	17356.58
847.343	17458.95
847.666	17276.58
847.99	17178.28
848.313	17175.79
848.637	17089.92
848.96	17021.45
849.284	16985.29
849.607	16853.54
849.931	16857.38
850.254	16719.08
850.577	16584.39
850.9	16503.49
851.223	16463.95
851.546	16410.16
851.869	16313.22
852.192	16370.84
852.515	16155.71
852.838	16200
853.161	16213.78
853.483	16061.92
853.806	15982.38
854.129	15989.16
854.451	15908.48
854.774	15875.94
855.096	15827.8
855.419	15800.23
855.741	15710.07
856.063	15643.63
856.385	15653.8
856.708	15609.73
857.03	15532.44
857.352	15546
857.674	15414.71
857.996	15315.05
858.318	15262.4
858.64	15194.6
858.961	15303.75
859.283	15160.93
859.605	15115.28
859.926	15167.48
860.248	15112.79
860.57	15091.1
860.891	15040.93
861.212	14905.57
861.534	14960.03
861.855	14899.02
862.176	14953.48
862.498	14894.04
862.819	14896.53
863.14	14835.29
863.461	14714.39
863.782	14701.73
864.103	14716.65
864.424	14618.34
864.745	14674.84
865.065	14628.06
865.386	14512.58
865.707	14510.55
866.027	14532.25
866.348	14533.83
866.668	14597.1
866.989	14361.63
867.309	14268.07
867.63	14441.17
867.95	14343.78
868.27	14155.08
868.59	14238.02
868.91	14258.81
869.23	14316.66
869.55	14167.96
869.87	14230.11
870.19	14280.27
870.51	14144.68
870.83	14261.07
871.15	14076.44
871.469	14058.36
871.789	14036.66
872.109	14088.41
872.428	13974.97
872.748	14082.77
873.067	13956.89
873.386	13979.94
873.706	13922.77
874.025	13845.03
874.344	13807.29
874.663	13879.61
874.982	13892.94
875.301	13803.68
875.62	13815.65
875.939	13668.09
876.258	13759.16
876.577	13704.7
876.896	13690.46
877.214	13658.37
877.533	13647.97
877.852	13639.84
878.17	13567.75
878.489	13632.83
878.807	13633.06
879.125	13528.66
879.444	13493.4
879.762	13464.7
880.08	13479.62
880.398	13412.73
880.716	13414.99
881.034	13305.38
881.352	13302.45
881.67	13334.76
881.988	13284.37
882.306	13210.25
882.624	13197.82
882.941	13178.83
883.259	13168.44
883.577	13085.73
883.894	13052.74
884.212	13081.89
884.529	13017.48
884.846	12998.27
885.164	12948.33
885.481	12961.89
885.798	12946.3
886.115	12831.27
886.432	12897.71
886.75	12800.54
887.067	12724.16
887.383	12736.81
887.7	12736.13
888.017	12609.36
888.334	12720.32
888.651	12669.92
888.967	12696.14
889.284	12486.2
889.6	12493.43
889.917	12458.85
890.233	12364.39
890.55	12378.18
890.866	12429.25
891.182	12335.01
891.498	12298.63
891.815	12268.58
892.131	12284.85
892.447	12195.58
892.763	12172.53
893.079	12066.32
893.395	12075.81
893.71	12034.01
894.026	12050.5
894.342	11957.85
894.657	11817.51
894.973	11896.38
895.289	11890.28
895.604	11930.51
895.92	11713.34
896.235	11714.24
896.55	11644.41
896.865	11659.55
897.181	11558.09
897.496	11569.16
897.811	11567.13
898.126	11479.67
898.441	11455.26
898.756	11418.43
899.071	11381.59
899.386	11379.33
899.7	11281.93
900.015	11234.48
900.33	11175.5
900.644	11100.7
900.959	11192.22
901.273	11097.76
901.588	11016.41
901.902	10999.68
902.216	11032.45
902.531	10976.18
902.845	10907.48
903.159	10811.44
903.473	10832
903.787	10757.43
904.101	10708.84
904.415	10683.53
904.729	10692.57
905.042	10558.79
905.356	10577.55
905.67	10543.2
905.984	10456.42
906.297	10427.95
906.611	10336.2
906.924	10400.6
907.237	10310.89
907.551	10253.94
907.864	10234.73
908.177	10243.54
908.491	10229.31
908.804	10056.88
909.117	10081.97
909.43	10030.22
909.743	10034.74
910.056	10038.8
910.368	9994.51
910.681	9862.54
910.994	9838.13
911.307	9783.67
911.619	9722.65
911.932	9705.25
912.244	9582.09
912.557	9681.53
912.869	9578.48
913.181	9554.75
913.494	9521.3
913.806	9409.44
914.118	9368.99
914.43	9378.93
914.742	9357.69
915.054	9277.24
915.366	9286.96
915.678	9240.86
915.99	9184.36
916.302	9146.85
916.613	9092.39
916.925	9116.57
917.236	9054.42
917.548	8951.37
917.859	8969
918.171	8967.42
918.482	8867.08
918.794	8819.85
919.105	8874.99
919.416	8808.55
919.727	8779.85
920.038	8751.38
920.349	8670.93
920.66	8649.91
920.971	8649.91
921.282	8568.11
921.593	8552.06
921.903	8426.64
922.214	8465.29
922.525	8455.79
922.835	8319.3
923.146	8344.39
923.456	8329.7
923.767	8174.9
924.077	8191.39
924.387	8165.86
924.697	8094.67
925.008	8147.1
925.318	8040.89
925.628	8053.77
925.938	8008.35
926.248	7936.49
926.558	7917.96
926.867	7886.32
927.177	7958.18
927.487	7826.21
927.796	7788.69
928.106	7732.2
928.416	7660.34
928.725	7705.76
929.034	7648.13
929.344	7655.59
929.653	7615.59
929.962	7550.06
930.271	7481.58
930.581	7453.34
930.89	7422.6
931.199	7400.46
931.508	7389.61
931.817	7366.78
932.125	7374.69
932.434	7312.77
932.743	7198.65
933.051	7185.09
933.36	7196.62
933.669	7138.09
933.977	7097.41
934.286	7110.52
934.594	7091.99
934.902	7035.49
935.21	7004.31
935.519	6965.66
935.827	6937.87
936.135	6911.88
936.443	6834.14
936.751	6807.25
937.059	6805.89
937.367	6719.12
937.674	6779.23
937.982	6776.74
938.29	6676.63
938.597	6689.97
938.905	6614.26
939.213	6623.75
939.52	6560.93
939.827	6561.16
940.135	6546.92
940.442	6525.68
940.749	6469.63
941.056	6500.59
941.363	6399.58
941.67	6377.43
941.977	6320.03
942.284	6294.5
942.591	6285.23
942.898	6274.61
943.205	6177.66
943.511	6185.8
943.818	6215.4
944.125	6165.23
944.431	6080.04
944.738	6080.26
945.044	6080.49
945.35	6025.58
945.657	5985.8
945.963	5979.25
946.269	5918.01
946.575	5898.57
946.881	5845.02
947.187	5878.01
947.493	5862.42
947.799	5824.45
948.105	5788.07
948.41	5789.88
948.716	5784.23
949.022	5719.14
949.327	5709.43
949.633	5672.14
949.938	5626.49
950.244	5700.39
950.549	5584.68
950.854	5564.57
951.16	5540.39
951.465	5531.8
951.77	5452.03
952.075	5485.93
952.38	5433.73
952.685	5437.34
952.99	5424.24
953.294	5416.55
953.599	5370.9
953.904	5340.85
954.209	5316.22
954.513	5261.3
954.818	5223.11
955.122	5292.94
955.426	5185.6
955.731	5193.96
956.035	5130.46
956.339	5163.45
956.643	5160.29
956.948	5086.17
957.252	5084.58
957.556	5041.42
957.86	5016.56
958.163	5030.12
958.467	4950.12
958.771	4971.14
959.075	4956.9
959.378	4920.97
959.682	4930.01
959.985	4888.2
960.289	4855.21
960.592	4783.12
960.896	4844.36
961.199	4835.1
961.502	4784.48
961.805	4760.98
962.108	4716.23
962.411	4701.77
962.714	4720.3
963.017	4640.53
963.32	4663.35
963.623	4631.04
963.926	4582.45
964.228	4549.23
964.531	4554.2
964.833	4546.74
965.136	4479.63
965.438	4486.63
965.741	4471.49
966.043	4441.44
966.345	4402.79
966.648	4412.74
966.95	4384.94
967.252	4396.92
967.554	4389.69
967.856	4331.61
968.158	4330.93
968.46	4298.16
968.761	4287.09
969.063	4214.32
969.365	4238.73
969.666	4217.26
969.968	4198.96
970.269	4198.73
970.571	4186.08
970.872	4141.33
971.174	4145.17
971.475	4096.81
971.776	4085.06
972.077	4058.17
972.378	4029.24
972.679	4032.41
972.98	4027.89
973.281	4017.72
973.582	4001.9
973.883	3937.72
974.183	3911.96
974.484	3951.73
974.785	3930.04
975.085	3904.05
975.386	3903.6
975.686	3884.39
975.986	3852.53
976.287	3830.83
976.587	3799.87
976.887	3760.78
977.187	3763.26
977.487	3780.21
977.787	3719.2
978.087	3732.75
978.387	3678.97
978.687	3684.39
978.987	3639.65
979.286	3626.09
979.586	3625.87
979.885	3642.36
980.185	3599.88
980.484	3599.43
980.784	3563.95
981.083	3576.6
981.382	3535.47
981.682	3524.85
981.981	3509.03
982.28	3485.3
982.579	3444.63
982.878	3468.13
983.177	3422.93
983.475	3434.68
983.774	3395.59
984.073	3393.33
984.372	3415.7
984.67	3361.69
984.969	3315.36
985.267	3327.12
985.566	3337.06
985.864	3321.69
986.162	3307
986.461	3270.17
986.759	3260.68
987.057	3250.51
987.355	3193.56
987.653	3189.49
987.951	3175.48
988.249	3190.85
988.547	3151.53
988.844	3119.21
989.142	3125.77
989.44	3152.88
989.737	3102.04
990.035	3099.78
990.332	3035.37
990.63	3076.05
990.927	3023.4
991.224	3028.82
991.521	2997.86
991.819	2981.81
992.116	2980.68
992.413	2984.98
992.71	2956.28
993.006	2946.56
993.303	2928.03
993.6	2900.46
993.897	2886.22
994.193	2900.23
994.49	2894.13
994.787	2847.58
995.083	2824.53
995.379	2834.7
995.676	2788.37
995.972	2759
996.268	2791.08
996.565	2771.42
996.861	2806.45
997.157	2757.41
997.453	2731.88
997.749	2709.96
998.044	2707.92
998.34	2688.94
998.636	2683.29
998.932	2662.95
999.227	2621.37
999.523	2607.81
999.818	2614.82
1000.114	2601.49
1000.409	2582.5
1000.704	2555.84
1001	2569.17
1001.295	2533.24
1001.59	2506.57
1001.885	2537.76
1002.18	2534.37
1002.475	2491.88
1002.77	2461.83
1003.065	2441.94
1003.359	2436.29
1003.654	2428.83
1003.949	2409.85
1004.243	2394.03
1004.538	2393.58
1004.832	2370.76
1005.127	2371.21
1005.421	2344.77
1005.715	2335.73
1006.009	2305.67
1006.304	2305
1006.598	2266.8
1006.892	2271.32
1007.186	2274.26
1007.48	2230.42
1007.773	2234.72
1008.067	2229.74
1008.361	2189.29
1008.655	2184.77
1008.948	2168.95
1009.242	2173.25
1009.535	2173.47
1009.829	2168.73
1010.122	2101.39
1010.415	2127.6
1010.708	2113.81
1011.001	2145.68
1011.295	2076.75
1011.588	2040.6
1011.881	2025
1012.173	2020.26
1012.466	2022.29
1012.759	1997.43
1013.052	2006.7
1013.344	2018.68
1013.637	2018.22
1013.93	1961.5
1014.222	1996.08
1014.514	1966.93
1014.807	1932.35
1015.099	1942.52
1015.391	1909.07
1015.683	1895.97
1015.976	1874.5
1016.268	1859.36
1016.56	1904.33
1016.851	1842.64
1017.143	1871.56
1017.435	1846.93
1017.727	1825.91
1018.018	1823.88
1018.31	1778.68
1018.602	1792.24
1018.893	1784.33
1019.185	1776.42
1019.476	1749.3
1019.767	1722.64
1020.058	1702.3
1020.35	1716.76
1020.641	1702.75
1020.932	1674.05
1021.223	1661.85
1021.514	1640.61
1021.804	1648.97
1022.095	1620.27
1022.386	1607.16
1022.677	1620.49
1022.967	1594.05
1023.258	1572.36
1023.548	1601.96
1023.839	1560.38
1024.129	1565.81
1024.419	1554.28
1024.709	1569.87
1025	1522.64
1025.29	1505.47
1025.58	1505.69
1025.87	1498.46
1026.16	1481.51
1026.449	1460.05
1026.739	1463.21
1027.029	1461.4
1027.319	1428.18
1027.608	1459.82
1027.898	1435.87
1028.187	1427.28
1028.477	1395.42
1028.766	1406.71
1029.055	1418.92
1029.344	1356.55
1029.634	1386.83
1029.923	1360.16
1030.212	1383.44
1030.501	1357.68
1030.79	1338.69
1031.078	1301.41
1031.367	1296.66
1031.656	1318.58
1031.945	1303.21
1032.233	1289.43
1032.522	1289.2
1032.81	1259.37
1033.099	1262.09
1033.387	1261.41
1033.675	1234.74
1033.963	1234.74
1034.251	1217.57
1034.54	1220.05
1034.828	1227.96
1035.116	1197.23
1035.403	1203.1
1035.691	1194.29
1035.979	1197.91
1036.267	1182.54
1036.554	1157.46
1036.842	1138.02
1037.129	1156.55
1037.417	1127.17
1037.704	1140.51
1037.992	1141.18
1038.279	1126.95
1038.566	1098.02
1038.853	1098.02
1039.14	1098.02
