Data from White_paper_FLMS001491_001.txt Node
Date: Tue Feb 07 10:34:34 GMT 2017
User: dcchb
Spectrometer: FLMS00149
Trigger mode: 0
Integration Time (sec): 2.000000E-2
Scans to average: 10
Electric dark correction enabled: true
Nonlinearity correction enabled: false
Boxcar width: 0
XAxis mode: Wavelengths
Number of Pixels in Spectrum: 2048
>>>>>Begin Spectral Data<<<<<
341.393	-7.01
341.776	-7.01
342.16	-7.01
342.543	-35.25
342.927	-89.04
343.31	-80.68
343.693	-54.91
344.077	-59.43
344.46	-72.31
344.843	-63.95
345.226	-43.61
345.61	-20.56
345.993	-16.27
346.376	-26.67
346.759	29.38
347.142	31.19
347.525	37.29
347.908	56.95
348.291	51.52
348.674	108.92
349.057	123.16
349.44	123.84
349.823	124.74
350.206	166.78
350.588	196.15
350.971	235.7
351.354	250.39
351.737	266.21
352.119	300.33
352.502	276.83
352.884	296.26
353.267	301.91
353.65	309.6
354.032	332.87
354.414	310.27
354.797	336.04
355.179	358.18
355.562	358.86
355.944	337.39
356.326	365.64
356.709	357.96
357.091	364.96
357.473	388.92
357.855	354.34
358.238	367.45
358.62	358.18
359.002	371.06
359.384	402.48
359.766	379.65
360.148	395.92
360.53	368.8
360.912	364.96
361.294	388.92
361.676	376.71
362.057	362.7
362.439	367
362.821	366.32
363.203	374.91
363.584	353.89
363.966	372.65
364.348	364.74
364.729	365.41
365.111	323.61
365.493	371.52
365.874	365.87
366.256	349.37
366.637	361.35
367.019	339.43
367.4	355.7
367.781	351.4
368.163	375.81
368.544	364.28
368.925	339.65
369.306	348.69
369.688	357.73
370.069	367.22
370.45	343.95
370.831	372.65
371.212	402.7
371.593	377.84
371.974	367.9
372.355	371.06
372.736	347.34
373.117	380.78
373.498	373.1
373.879	355.24
374.26	366.09
374.641	367.9
375.021	385.75
375.402	397.05
375.783	377.84
376.163	380.1
376.544	388.92
376.925	382.36
377.305	401.35
377.686	379.65
378.066	392.53
378.447	371.52
378.827	392.53
379.208	395.02
379.588	380.33
379.968	398.63
380.349	416.94
380.729	404.06
381.109	389.37
381.489	373.1
381.87	416.03
382.25	402.93
382.63	416.94
383.01	410.61
383.39	433.66
383.77	426.88
384.15	436.6
384.53	445.86
384.91	443.83
385.29	452.42
385.67	445.19
386.049	467.56
386.429	454.45
386.809	439.76
387.189	475.24
387.568	457.62
387.948	481.12
388.328	474.34
388.707	478.86
389.087	480.67
389.466	485.64
389.846	502.13
390.225	468.01
390.605	499.87
390.984	486.77
391.363	503.94
391.743	494.45
392.122	531.06
392.501	513.21
392.881	519.76
393.26	543.04
393.639	531.06
394.018	521.79
394.397	520.44
394.776	553.88
395.155	552.75
395.534	548.23
395.913	574
396.292	567.44
396.671	547.33
397.05	556.37
397.429	584.84
397.808	587.56
398.186	593.2
398.565	602.02
398.944	615.8
399.323	609.7
399.701	636.59
400.08	602.47
400.458	627.33
400.837	647.89
401.215	661.23
401.594	675.91
401.972	675.91
402.351	685.41
402.729	691.96
403.107	703.94
403.486	709.81
403.864	708.46
404.242	745.52
404.62	736.48
404.999	749.36
405.377	748.91
405.755	754.56
406.133	792.75
406.511	815.12
406.889	832.97
407.267	845.85
407.645	892.86
408.023	871.16
408.401	883.37
408.779	912.52
409.156	934.21
409.534	949.13
409.912	976.47
410.29	1034.55
410.667	1048.33
411.045	1045.17
411.422	1064.38
411.8	1100.08
412.178	1127.88
412.555	1164.72
412.933	1189.57
413.31	1226.86
413.687	1236.8
414.065	1262.79
414.442	1299.85
414.819	1320.42
415.197	1321.32
415.574	1396.8
415.951	1412.39
416.328	1438.38
416.705	1450.36
417.082	1507.98
417.46	1502.56
417.837	1538.72
418.214	1558.15
418.591	1580.07
418.967	1630.47
419.344	1648.77
419.721	1666.85
420.098	1660.3
420.475	1718.37
420.852	1725.15
421.228	1752.27
421.605	1771.7
421.982	1801.31
422.358	1820.07
422.735	1870.01
423.111	1882.89
423.488	1927.86
423.864	1933.28
424.241	1997.46
424.617	1991.81
424.994	2015.09
425.37	2014.64
425.746	2039.72
426.123	2110.9
426.499	2084.92
426.875	2122.66
427.251	2179.83
427.627	2217.57
428.003	2270.22
428.379	2269.77
428.756	2322.2
429.132	2379.15
429.507	2386.15
429.883	2398.13
430.259	2463.44
430.635	2507.05
431.011	2512.7
431.387	2589.08
431.763	2638.8
432.138	2611
432.514	2668.63
432.89	2695.75
433.265	2744.33
433.641	2808.06
434.016	2824.33
434.392	2893.94
434.767	2960.6
435.143	2955.63
435.518	3013.48
435.894	3042.41
436.269	3072.69
436.644	3130.77
437.02	3162.18
437.395	3141.61
437.77	3231.33
438.145	3256.86
438.52	3299.57
438.895	3338.44
439.271	3334.38
439.646	3436.75
440.021	3464.99
440.395	3452.79
440.77	3424.99
441.145	3531.66
441.52	3582.73
441.895	3594.26
442.27	3581.15
442.645	3602.17
443.019	3667.93
443.394	3677.87
443.769	3683.29
444.143	3680.36
444.518	3768.49
444.892	3753.35
445.267	3758.55
445.641	3820.24
446.016	3811.65
446.39	3870.41
446.764	3909.28
447.139	3903.63
447.513	3906.11
447.887	3999.67
448.262	3987.24
448.636	3952.89
449.01	4038.76
449.384	4074.24
449.758	4118.99
450.132	4159.21
450.506	4185.43
450.88	4248.93
451.254	4178.42
451.628	4252.54
452.002	4321.02
452.376	4327.34
452.75	4394.69
453.123	4384.97
453.497	4498.41
453.871	4475.59
454.244	4602.82
454.618	4587.68
454.992	4655.24
455.365	4725.07
455.739	4816.14
456.112	4926.88
456.486	4873.54
456.859	4932.98
457.232	5065.86
457.606	5033.31
457.979	5086.65
458.352	5222.24
458.725	5266.3
459.099	5304.95
459.472	5412.06
459.845	5487.09
460.218	5515.11
460.591	5550.36
460.964	5567.09
461.337	5722.56
461.71	5784.48
462.083	5915.32
462.456	5884.14
462.829	5912.84
463.201	6037.58
463.574	6042.1
463.947	6106.73
464.32	6298.14
464.692	6294.3
465.065	6316.44
465.438	6485.93
465.81	6577.68
466.183	6631.24
466.555	6765.47
466.928	6783.32
467.3	6840.95
467.672	6898.8
468.045	7095.18
468.417	7122.07
468.789	7199.36
469.161	7264.44
469.534	7416.75
469.906	7603.42
470.278	7639.8
470.65	7722.06
471.022	7837.53
471.394	8005.44
471.766	8065.1
472.138	8175.6
472.51	8381.93
472.882	8455.82
473.253	8566.1
473.625	8689.26
473.997	8855.36
474.369	8903.49
474.74	9114.11
475.112	9212.41
475.484	9312.3
475.855	9483.59
476.227	9586.19
476.598	9852.85
476.97	9893.53
477.341	10135.55
477.713	10255.55
478.084	10331.03
478.455	10637.69
478.827	10724.92
479.198	11037.45
479.569	11049.65
479.94	11338.46
480.311	11485.35
480.682	11707.26
481.053	11929.4
481.424	12175.05
481.795	12200.36
482.166	12443.97
482.537	12554.02
482.908	12825.43
483.279	12978.19
483.65	13207.11
484.021	13528.01
484.391	13625.4
484.762	13774.55
485.133	13869.92
485.503	14082.12
485.874	14369.34
486.244	14498.6
486.615	14785.15
486.985	14862.66
487.356	15216.32
487.726	15259.49
488.097	15607.5
488.467	15580.16
488.837	15982.86
489.207	16111.44
489.578	16397.76
489.948	16512.11
490.318	16685.44
490.688	16760.92
491.058	17163.39
491.428	17265.53
491.798	17441.8
492.168	17814.45
492.538	17852.19
492.908	18080.2
493.278	18327.43
493.648	18294.89
494.017	18596.57
494.387	18712.73
494.757	18802.9
495.126	19083.57
495.496	19130.34
495.866	19333.5
496.235	19500.05
496.605	19638.35
496.974	19742.08
497.344	20012.13
497.713	20062.75
498.082	20184.78
498.452	20477.2
498.821	20430.88
499.19	20505.22
499.559	20699.34
499.928	20983.18
500.298	21060.92
500.667	21269.95
501.036	21161.25
501.405	21447.57
501.774	21456.84
502.143	21747.45
502.512	21836.94
502.88	22037.39
503.249	22024.05
503.618	22184.28
503.987	22304.05
504.356	22406.42
504.724	22538.16
505.093	22654.77
505.462	22792.17
505.83	22934.99
506.199	23144.93
506.567	23441.19
506.936	23332.95
507.304	23639.6
507.672	23854.06
508.041	23885.02
508.409	23970.22
508.777	24221.96
509.145	24399.36
509.514	24400.94
509.882	24640.48
510.25	24687.71
510.618	24872.79
510.986	24999.34
511.354	25329.96
511.722	25411.08
512.09	25627.8
512.458	25699.21
512.826	25933.78
513.193	26011.52
513.561	26191.18
513.929	26358.63
514.297	26592.07
514.664	26777.15
515.032	26795.91
515.4	27037.26
515.767	27169.68
516.135	27302.11
516.502	27242.9
516.869	27622.78
517.237	27755.2
517.604	27732.6
517.972	28141.63
518.339	28271.35
518.706	28313.83
519.073	28532.58
519.44	28707.04
519.808	28942.06
520.175	28968.05
520.542	29368.72
520.909	29474.71
521.276	29671.99
521.643	29813.68
522.009	30048.02
522.376	30304.51
522.743	30451.4
523.11	30708.57
523.477	30810.49
523.843	31146.07
524.21	31481.66
524.577	31680.52
524.943	31860.63
525.31	32107.4
525.676	32329.77
526.043	32438.47
526.409	32583.55
526.776	32962.75
527.142	32910.32
527.508	33185.12
527.874	33337.88
528.241	33593.02
528.607	33770.41
528.973	34057.64
529.339	33970.41
529.705	34447.68
530.071	34660.11
530.437	34828.24
530.803	35011.96
531.169	35217.83
531.535	35141.45
531.901	35334.66
532.267	35608.33
532.632	35811.04
532.998	35871.6
533.364	36135.77
533.73	36232.95
534.095	36477.46
534.461	36535.76
534.826	36892.82
535.192	36931.46
535.557	37175.07
535.923	37066.6
536.288	37453.25
536.653	37546.58
537.019	37530.09
537.384	37713.81
537.749	37835.62
538.114	38079.45
538.479	38088.94
538.845	38265.89
539.21	38218.66
539.575	38420.23
539.94	38634.46
540.305	38864.51
540.67	38767.12
541.034	38943.16
541.399	39143.38
541.764	39335.69
542.129	39404.84
542.494	39429.47
542.858	39635.12
543.223	39722.12
543.587	40040.3
543.952	39977.48
544.316	40121.66
544.681	40145.84
545.045	40365.27
545.41	40579.05
545.774	40769.32
546.138	40824.01
546.503	40897.46
546.867	40891.13
547.231	41277.11
547.595	41456.09
547.959	41559.81
548.324	41548.74
548.688	41536.31
549.052	41766.59
549.416	41800.48
549.779	41953.25
550.143	42102.62
550.507	42405.21
550.871	42595.26
551.235	42455.83
551.599	42781.93
551.962	42888.14
552.326	43043.39
552.689	43248.81
553.053	43072.77
553.417	43207.45
553.78	43661
554.143	43415.36
554.507	43689.92
554.87	43915.46
555.234	44335.33
555.597	43997.94
555.96	44261.66
556.323	44487.42
556.686	44531.94
557.05	44758.82
557.413	44900.51
557.776	44846.5
558.139	45177.8
558.502	45399.48
558.865	45444.91
559.228	45658.23
559.59	45651
559.953	45968.51
560.316	46383.87
560.679	46225.23
561.041	46431.1
561.404	46643.75
561.767	46993.11
562.129	46851.2
562.492	47326.44
562.854	47239.89
563.217	47182.71
563.579	47351.3
563.941	47740.21
564.304	47716.94
564.666	48032.86
565.028	48148.79
565.39	48288
565.753	48430.36
566.115	48537.03
566.477	48805.04
566.839	48953.29
567.201	49123.23
567.563	49088.2
567.925	49469.66
568.287	49442.09
568.648	49535.19
569.01	49744.91
569.372	49935.86
569.734	49879.82
570.095	50037.33
570.457	50290.43
570.819	50327.72
571.18	50423.31
571.542	50522.51
571.903	50624.66
572.265	50777.87
572.626	50882.73
572.987	50998.43
573.349	51092.67
573.71	51214.25
574.071	51369.5
574.432	51403.85
574.794	51631.18
575.155	51590.51
575.516	51539.21
575.877	51833.89
576.238	51871.86
576.599	51977.84
576.96	52009.93
577.32	51981.68
577.681	52217.61
578.042	52213.32
578.403	52206.76
578.763	52288.79
579.124	52326.31
579.485	52515.91
579.845	52571.73
580.206	52535.34
580.566	52558.62
580.927	52676.58
581.287	52756.8
581.648	52687.2
582.008	52843.81
582.368	52785.73
582.728	52941.66
583.089	52698.28
583.449	52839.06
583.809	52977.36
584.169	52960.19
584.529	52904.15
584.889	53161.31
585.249	52896.69
585.609	53033.41
585.969	53148.43
586.329	53102.33
586.688	53150.01
587.048	53190.47
587.408	53128.09
587.768	53213.52
588.127	53140.98
588.487	53142.78
588.846	53479.27
589.206	53161.09
589.565	53267.53
589.925	53372.61
590.284	53203.57
590.643	53332.83
591.003	53434.53
591.362	53474.3
591.721	53439.5
592.08	53435.21
592.44	53460.29
592.799	53482.89
593.158	53562.21
593.517	53541.64
593.876	53545.03
594.235	53491.47
594.593	53642.88
594.952	53660.51
595.311	53631.13
595.67	53611.02
596.029	53762.43
596.387	53818.02
596.746	53887.4
597.104	53818.92
597.463	53790.22
597.822	53949.32
598.18	53731.47
598.538	53794.52
598.897	53921.75
599.255	53804.69
599.613	54209.2
599.972	53946.83
600.33	54086.26
600.688	53891.01
601.046	54019.37
601.404	54135.07
601.762	54086.94
602.12	54285.35
602.478	54207.39
602.836	54224.79
603.194	54068.63
603.552	54256.43
603.91	54096.88
604.268	54255.52
604.625	54167.39
604.983	54336.2
605.341	54217.11
605.698	54362.41
606.056	54407.83
606.413	54343.2
606.771	54429.76
607.128	54558.57
607.485	54372.58
607.843	54409.64
608.2	54582.07
608.557	54676.53
608.914	54627.49
609.272	54695.06
609.629	54757.2
609.986	54780.25
610.343	54678.34
610.7	54787.71
611.057	54788.84
611.414	54838.11
611.771	54860.48
612.127	54926.24
612.484	54895.73
612.841	55031.55
613.198	54901.16
613.554	54921.27
613.911	55133.69
614.267	55076.97
614.624	54995.62
614.98	55063.18
615.337	55147.48
615.693	55160.81
616.05	55103.18
616.406	55304.08
616.762	55191.32
617.118	55147.02
617.475	55132.79
617.831	55288.04
618.187	55231.09
618.543	55295.04
618.899	55488.71
619.255	55382.72
619.611	55406
619.967	55421.82
620.323	55550.86
620.678	55328.94
621.034	55368.26
621.39	55395.38
621.746	55399.22
622.101	55651.87
622.457	55414.81
622.812	55436.73
623.168	55542.95
623.523	55504.3
623.879	55552.21
624.234	55383.63
624.589	55517.41
624.945	55558.77
625.3	55618.88
625.655	55521.25
626.01	55551.99
626.365	55482.83
626.72	55528.03
627.075	55479.9
627.43	55507.02
627.785	55464.76
628.14	55482.38
628.495	55521.48
628.85	55503.85
629.205	55401.93
629.559	55540.46
629.914	55511.08
630.269	55503.17
630.623	55402.84
630.978	55357.19
631.332	55509.5
631.687	55577.52
632.041	55437.86
632.396	55493.68
632.75	55403.06
633.104	55410.75
633.459	55317.19
633.813	55323.74
634.167	55309.73
634.521	55261.82
634.875	55302.73
635.229	55248.49
635.583	55171.88
635.937	55120.58
636.291	55186.35
636.645	55195.16
636.999	55117.19
637.352	55218.44
637.706	55053.02
638.06	55212.56
638.413	55132.34
638.767	55090.75
639.121	55115.39
639.474	54908.61
639.828	54973.7
640.181	55062.51
640.534	55089.17
640.888	54947.71
641.241	54856.18
641.594	54878.33
641.947	54992.68
642.301	54869.74
642.654	54963.3
643.007	54978.22
643.36	54874.04
643.713	54874.49
644.066	54900.93
644.419	54754.04
644.771	54622.97
645.124	54421.62
645.477	54288.97
645.83	54109.31
646.182	54036.32
646.535	53903.44
646.888	53988.18
647.24	53802.88
647.593	53997.22
647.945	54022.99
648.298	53895.31
648.65	53786.38
649.002	53671.13
649.355	53863.22
649.707	53767.85
650.059	53893.72
650.411	54331.23
650.763	54303.66
651.115	54632.46
651.467	54519.47
651.819	54517.89
652.171	54478.34
652.523	54378.46
652.875	54470.21
653.227	54307.72
653.578	54479.7
653.93	54392.47
654.282	54322.64
654.633	54229.99
654.985	54332.36
655.337	54369.87
655.688	54321.28
656.039	54384.33
656.391	54144.34
656.742	54205.35
657.094	54190.67
657.445	54341.17
657.796	54180.04
658.147	54126.26
658.498	54129.42
658.849	54242.87
659.2	54156.54
659.551	54114.28
659.902	54211.91
660.253	54110.67
660.604	54171.91
660.955	54064.79
661.306	54195.64
661.656	54055.08
662.007	54049.65
662.358	54071.12
662.708	54057.79
663.059	54061.18
663.409	53917.68
663.76	54111.57
664.11	54097.11
664.461	54047.62
664.811	54048.52
665.161	54031.35
665.511	53843.56
665.862	53945.47
666.212	53950.9
666.562	54002.2
666.912	53978.24
667.262	53905.25
667.612	53863.67
667.962	53909.32
668.312	53836.1
668.662	54007.85
669.011	53957
669.361	53859.6
669.711	53820.73
670.06	53802.65
670.41	53721.98
670.76	53661.64
671.109	53752.48
671.459	53754.52
671.808	53593.85
672.157	53760.17
672.507	53498.48
672.856	53531.02
673.205	53600.17
673.554	53610.79
673.904	53555.65
674.253	53707.51
674.602	53526.5
674.951	53114.54
675.3	52929
675.649	53377.35
675.998	53354.08
676.346	53428.65
676.695	53471.81
677.044	53209.45
677.393	53307.52
677.741	53333.96
678.09	53155.44
678.438	53128.55
678.787	53140.75
679.135	53126.29
679.484	52864.15
679.832	53032.28
680.181	52894.65
680.529	52955.44
680.877	52843.36
681.225	52750.93
681.573	52932.17
681.922	52798.39
682.27	52611.72
682.618	52682
682.966	52550.26
683.314	52588.45
683.661	52469.58
684.009	52389.81
684.357	52267.55
684.705	52235.01
685.053	52332.64
685.4	52246.76
685.748	52038.63
686.095	52079.08
686.443	51845.64
686.79	51812.2
687.138	51778.07
687.485	51864.85
687.832	51701.92
688.18	51659.66
688.527	51541.7
688.874	51562.49
689.221	51441.59
689.568	51287.01
689.915	51261.03
690.262	51183.96
690.609	51130.41
690.956	50993.24
691.303	50953.69
691.65	50806.35
691.997	50840.7
692.344	50594.83
692.69	50642.96
693.037	50662.62
693.383	50329.3
693.73	50427.15
694.077	50230.32
694.423	50222.86
694.769	50015.41
695.116	50005.69
695.462	50037.55
695.808	49806.15
696.155	49807.05
696.501	49566.38
696.847	49673.5
697.193	49248.65
697.539	49469.89
697.885	49162.55
698.231	49060.18
698.577	49077.35
698.923	49004.59
699.269	48706.97
699.614	48674.2
699.96	48689.79
700.306	48605.5
700.651	48395.56
700.997	48458.16
701.342	48345.62
701.688	48281.44
702.033	48107.89
702.379	47996.93
702.724	47982.47
703.069	48030.38
703.415	47550.84
703.76	47608.92
704.105	47583.16
704.45	47346.78
704.795	47204.41
705.14	47142.04
705.485	47089.61
705.83	47029.27
706.175	46970.74
706.52	46943.17
706.865	46771.88
707.209	46588.15
707.554	46547.25
707.899	46524.65
708.243	46436.52
708.588	46238.56
708.932	46103.19
709.277	46157.2
709.621	46185
709.966	45738.68
710.31	45946.59
710.654	45547.95
710.998	45750.21
711.342	45611.23
711.687	45445.36
712.031	45404.23
712.375	45324.01
712.719	45217.34
713.063	45111.58
713.407	45343.67
713.75	45099.38
714.094	45087.18
714.438	44915.2
714.782	44837.47
715.125	44649.67
715.469	44760.4
715.812	44434.31
716.156	44340.98
716.499	44327.2
716.843	44391.6
717.186	44060.54
717.53	44357.93
717.873	44292.62
718.216	44213.75
718.559	43919.07
718.902	43700.09
719.246	43924.72
719.589	43597.72
719.932	43416.94
720.275	43657.38
720.617	43449.48
720.96	43495.58
721.303	43451.96
721.646	43522.02
721.989	43175.81
722.331	43136.72
722.674	43099.88
723.016	43135.81
723.359	43117.06
723.701	42994.58
724.044	42806.78
724.386	42703.74
724.729	42782.38
725.071	42761.36
725.413	42656.05
725.755	42659.67
726.097	42540.35
726.439	42314.82
726.782	42275.72
727.124	42590.52
727.465	42214.71
727.807	42183.98
728.149	42155.28
728.491	41941.5
728.833	42060.14
729.175	41879.35
729.516	41930.87
729.858	41796.64
730.199	41752.12
730.541	41654.27
730.882	41571.56
731.224	41743.99
731.565	41497.21
731.906	41458.57
732.248	41529.98
732.589	41286.37
732.93	41313.94
733.271	41183.78
733.612	41204.79
733.953	41217.9
734.294	41148.07
734.635	41053.38
734.976	41135.87
735.317	40859.94
735.658	40890.22
735.999	40848.87
736.339	40774.52
736.68	40880.96
737.021	40640.06
737.361	40408.43
737.702	40745.82
738.042	40421.08
738.383	40480.29
738.723	40423.8
739.063	40378.37
739.404	40469.9
739.744	40285.72
740.084	40315.55
740.424	40248.43
740.764	40116.46
741.104	40276.68
741.444	40007.76
741.784	39879.63
742.124	40005.73
742.464	39838.73
742.804	39926.41
743.143	39657.71
743.483	39747.2
743.823	39521.22
744.162	39567.1
744.502	39720.99
744.841	39374.78
745.181	39540.66
745.52	39486.19
745.86	39528.9
746.199	39222.25
746.538	39305.86
746.877	39241.45
747.216	39183.83
747.556	39081.46
747.895	39092.76
748.234	38878.75
748.573	39013.21
748.911	38867.9
749.25	38965.76
749.589	38676.27
749.928	38705.87
750.267	38817.28
750.605	38587.01
750.944	38509.5
751.283	38248.71
751.621	38402.38
751.96	38181.59
752.298	38189.73
752.636	38241.03
752.975	38064.31
753.313	38011.66
753.651	38014.59
753.989	37822.73
754.327	37784.32
754.666	37639.24
755.004	37742.06
755.342	37624.32
755.679	37559.69
756.017	37464.33
756.355	37457.77
756.693	37289.19
757.031	37330.77
757.368	37130.1
757.706	37059.59
758.044	36863.89
758.381	36978.24
758.719	36780.5
759.056	36728.75
759.394	36716.55
759.731	36331.47
760.068	36423.45
760.405	36253.74
760.743	36084.47
761.08	36210.12
761.417	36075.21
761.754	35837.7
762.091	35900.75
762.428	35653.53
762.765	35361.78
763.102	35609.01
763.438	35360.2
763.775	35221.45
764.112	35393.65
764.449	35401.33
764.785	35107.78
765.122	34912.08
765.458	34689.26
765.795	34748.01
766.131	34730.16
766.467	34695.58
766.804	34299.21
767.14	34205.43
767.476	34140.8
767.812	34084.53
768.148	34104.64
768.485	33872.56
768.821	33678.21
769.157	33604.54
769.492	33574.03
769.828	33448.61
770.164	33278.67
770.5	33206.58
770.836	33219.92
771.171	33123.42
771.507	32953.03
771.842	32733.15
772.178	32735.18
772.513	32586.94
772.849	32456.32
773.184	32351.24
773.519	32353.27
773.855	32140.62
774.19	32071.02
774.525	31901.53
774.86	31996.22
775.195	31884.81
775.53	31621.77
775.865	31579.06
776.2	31326.63
776.535	31133.42
776.87	31155.56
777.205	31045.06
777.539	30895.91
777.874	30914.44
778.209	30665.41
778.543	30671.51
778.878	30447.56
779.212	30400.1
779.547	30182.71
779.881	30320.11
780.215	30119.21
780.55	30067.23
780.884	29910.63
781.218	29800.12
781.552	29944.07
781.886	29584.08
782.22	29536.17
782.554	29390.41
782.888	29166.24
783.222	29058.67
783.556	28990.42
783.889	28898.9
784.223	28657.33
784.557	28712.47
784.89	28747.49
785.224	28570.77
785.557	28399.25
785.891	28221.86
786.224	28210.78
786.558	28268.18
786.891	28001.3
787.224	27839.72
787.557	27825.48
787.891	27815.09
788.224	27630.91
788.557	27629.1
788.89	27493.74
789.223	27500.07
789.556	27243.58
789.888	27156.8
790.221	27167.87
790.554	26893.08
790.887	26850.37
791.219	26826.64
791.552	26712.52
791.884	26585.06
792.217	26556.59
792.549	26413.99
792.882	26226.2
793.214	26134.45
793.546	26202.47
793.879	26056.72
794.211	25989.37
794.543	26022.37
794.875	25896.49
795.207	25936.04
795.539	25706.44
795.871	25595.03
796.203	25541.93
796.535	25378.54
796.867	25256.74
797.198	25296.28
797.53	25202.5
797.862	24991.66
798.193	25113.01
798.525	24919.12
798.856	24812.68
799.188	24663.76
799.519	24645.91
799.85	24497.21
800.182	24590.99
800.513	24563.42
800.844	24313.49
801.175	24252.47
801.506	24376.31
801.837	24223.77
802.168	24186.26
802.499	24068.52
802.83	23957.34
803.161	23837.57
803.491	23823.1
803.822	23822.88
804.153	23678.25
804.483	23508.31
804.814	23504.24
805.145	23521.87
805.475	23478.48
805.805	23383.79
806.136	23262.67
806.466	23272.16
806.796	23145.38
807.126	22974.76
807.457	22958.49
807.787	22984.03
808.117	22757.59
808.447	22786.75
808.777	22817.03
809.107	22617.48
809.436	22629.69
809.766	22690.02
810.096	22517.15
810.426	22464.27
810.755	22456.36
811.085	22351.28
811.414	22387.43
811.744	22183.6
812.073	22123.71
812.403	22206.87
812.732	21916.26
813.061	21982.47
813.39	21774.12
813.719	21779.54
814.049	21905.19
814.378	21747.68
814.707	21627
815.036	21635.14
815.365	21603.73
815.693	21377.97
816.022	21428.36
816.351	21325.54
816.68	21123.29
817.008	21301.13
817.337	21028.15
817.665	21085.1
817.994	21179.1
818.322	21104.98
818.651	20989.73
818.979	20888.72
819.307	20963.29
819.636	20972.78
819.964	20822.73
820.292	20925.33
820.62	20704.77
820.948	20777.53
821.276	20763.3
821.604	20754.03
821.932	20683.52
822.259	20727.82
822.587	20706.12
822.915	20572.11
823.243	20809.62
823.57	20602.17
823.898	20643.3
824.225	20618.89
824.553	20549.97
824.88	20651.43
825.207	20672.45
825.535	20596.52
825.862	20658.44
826.189	20492.79
826.516	20637.88
826.843	20729.17
827.17	20667.48
827.497	20667.48
827.824	20642.62
828.151	20648.5
828.478	20594.49
828.805	20719.91
829.131	20616.86
829.458	20506.81
829.785	20473.13
830.111	20534.38
830.438	20512.46
830.764	20527.82
831.09	20616.18
831.417	20481.72
831.743	20542.51
832.069	20468.61
832.395	20471.55
832.722	20514.26
833.048	20359.46
833.374	20446.24
833.7	20351.78
834.026	20360.82
834.351	20448.05
834.677	20282.18
835.003	20337.32
835.329	20264.33
835.654	20233.37
835.98	20227.26
836.306	20234.04
836.631	20151.79
836.956	20191.56
837.282	20192.24
837.607	20082.86
837.932	20076.76
838.258	20038.8
838.583	19977.78
838.908	19797.22
839.233	19980.27
839.558	19743.89
839.883	19753.83
840.208	19745.24
840.533	19787.05
840.858	19736.2
841.182	19782.08
841.507	19725.58
841.832	19598.58
842.156	19512.26
842.481	19540.96
842.805	19402.43
843.13	19362.43
843.454	19328.31
843.778	19314.07
844.103	19265.93
844.427	19065.49
844.751	19215.09
845.075	19141.64
845.399	19096.67
845.723	19031.14
846.047	18901.88
846.371	18876.57
846.695	18811.93
847.019	18637.7
847.343	18654.42
847.666	18587.31
847.99	18404.04
848.313	18457.59
848.637	18205.62
848.96	18199.97
849.284	18164.49
849.607	18130.37
849.931	18039.75
850.254	17902.13
850.577	17907.1
850.9	17735.8
851.223	17700.1
851.546	17635.02
851.869	17439.99
852.192	17549.82
852.515	17482.93
852.838	17427.79
853.161	17394.57
853.483	17289.49
853.806	17135.37
854.129	17211.07
854.451	17104.41
854.774	17027.8
855.096	16988.93
855.419	16932.66
855.741	16942.15
856.063	16859.44
856.385	16752.78
856.708	16699
857.03	16526.35
857.352	16604.99
857.674	16543.29
857.996	16497.87
858.318	16416.29
858.64	16432.56
858.961	16391.66
859.283	16270.53
859.605	16287.26
859.926	16253.58
860.248	16241.15
860.57	16132.91
860.891	16108.5
861.212	16053.36
861.534	15957.77
861.855	16024.44
862.176	15990.31
862.498	15921.84
862.819	15934.27
863.14	15835.74
863.461	15925.91
863.782	15848.17
864.103	15890.66
864.424	15740.15
864.745	15791
865.065	15707.61
865.386	15671.68
865.707	15683.2
866.027	15650.21
866.348	15539.7
866.668	15546.03
866.989	15517.11
867.309	15388.97
867.63	15430.78
867.95	15495.19
868.27	15287.51
868.59	15418.58
868.91	15329.77
869.23	15319.15
869.55	15211.13
869.87	15373.83
870.19	15199.6
870.51	15219.49
870.83	15284.34
871.15	15103.11
871.469	15138.13
871.789	15176.32
872.109	15056.33
872.428	15024.92
872.748	15008.19
873.067	15088.87
873.386	15071.24
873.706	14982.43
874.025	14903.79
874.344	14873.51
874.663	14822.66
874.982	14884.35
875.301	14903.79
875.62	14818.14
875.939	14779.27
876.258	14685.26
876.577	14689.78
876.896	14649.33
877.214	14588.77
877.533	14637.58
877.852	14671.7
878.17	14612.27
878.489	14607.53
878.807	14607.07
879.125	14636.68
879.444	14554.42
879.762	14439.85
880.08	14542.89
880.398	14405.72
880.716	14429.9
881.034	14308.55
881.352	14396.68
881.67	14302.67
881.988	14404.59
882.306	14228.78
882.624	14233.3
882.941	14124.6
883.259	14113.75
883.577	14185.39
883.894	14070.82
884.212	13945.17
884.529	13957.83
884.846	13889.13
885.164	13882.57
885.481	13898.17
885.798	13936.81
886.115	13805.74
886.432	13798.28
886.75	13732.52
887.067	13751.73
887.383	13659.75
887.7	13653.43
888.017	13628.79
888.334	13646.19
888.651	13596.25
888.967	13563.26
889.284	13485.07
889.6	13446.65
889.917	13319.65
890.233	13404.17
890.55	13392.64
890.866	13278.75
891.182	13251.18
891.498	13162.82
891.815	13146.32
892.131	13180.44
892.447	13022.48
892.763	13023.61
893.079	12951.07
893.395	12923.05
893.71	12944.74
894.026	12829.27
894.342	12834.24
894.657	12753.56
894.973	12703.85
895.289	12746.78
895.604	12705.43
895.92	12633.34
896.235	12603.28
896.55	12584.53
896.865	12667.69
897.181	12533
897.496	12431.09
897.811	12457.75
898.126	12357.87
898.441	12235.38
898.756	12284.87
899.071	12169.4
899.386	12176.63
899.7	12065.9
900.015	12097.54
900.33	11988.39
900.644	11971.44
900.959	12030.19
901.273	11976.41
901.588	11852.34
901.902	11819.58
902.216	11820.93
902.531	11686.25
902.845	11669.75
903.159	11658.22
903.473	11585.46
903.787	11541.84
904.101	11519.92
904.415	11528.96
904.729	11445.35
905.042	11411
905.356	11357.44
905.67	11327.84
905.984	11277.9
906.297	11232.7
906.611	11111.8
906.924	11143.21
907.237	11091.91
907.551	11108.86
907.864	11003.55
908.177	10961.75
908.491	10851.01
908.804	10848.53
909.117	10795.2
909.43	10780.51
909.743	10704.13
910.056	10678.59
910.368	10666.84
910.681	10597.24
910.994	10510.01
911.307	10463
911.619	10470.46
911.932	10471.14
912.244	10348.88
912.557	10346.85
912.869	10315.43
913.181	10279.96
913.494	10175.55
913.806	10182.78
914.118	10113.41
914.43	10051.49
914.742	10119.96
915.054	9993.41
915.366	9907.76
915.678	9886.75
915.99	9847.2
916.302	9824.37
916.613	9729.24
916.925	9651.72
917.236	9656.92
917.548	9685.85
917.859	9630.03
918.171	9589.35
918.482	9514.1
918.794	9488.11
919.105	9453.08
919.416	9350.94
919.727	9427.32
920.038	9369.47
920.349	9245.41
920.66	9326.08
920.971	9257.38
921.282	9253.77
921.593	9141.91
921.903	9046.77
922.214	9052.42
922.525	9001.35
922.835	8970.39
923.146	8908.01
923.456	8959.54
923.767	8866.89
924.077	8781.46
924.387	8731.07
924.697	8691.3
925.008	8776.49
925.318	8657.4
925.628	8640.68
925.938	8533.79
926.248	8454.02
926.558	8512.54
926.867	8468.93
927.177	8452.43
927.487	8385.77
927.796	8312.1
928.106	8321.36
928.416	8301.93
928.725	8271.87
929.034	8182.61
929.344	8190.07
929.653	8168.82
929.962	8129.73
930.271	8101.71
930.581	8005.21
930.89	7956.4
931.199	7915.5
931.508	7957.98
931.817	7950.98
932.125	7866.91
932.434	7832.11
932.743	7791.43
933.051	7744.88
933.36	7705.79
933.669	7658.78
933.977	7611.33
934.286	7625.34
934.594	7597.09
934.902	7502.18
935.21	7474.83
935.519	7546.92
935.827	7499.92
936.135	7412.91
936.443	7386.92
936.751	7359.81
937.059	7317.1
937.367	7271.22
937.674	7259.24
937.982	7183.09
938.29	7163.43
938.597	7212.92
938.905	7054.5
939.213	7088.4
939.52	7009.99
939.827	7025.8
940.135	7012.47
940.442	6940.16
940.749	6937.9
941.056	6920.95
941.363	6887.73
941.67	6869.65
941.977	6807.5
942.284	6753.27
942.591	6675.08
942.898	6741.97
943.205	6728.86
943.511	6624.91
943.818	6661.07
944.125	6574.29
944.431	6591.24
944.738	6539.26
945.044	6502.2
945.35	6524.8
945.657	6395.09
945.963	6420.17
946.269	6380.85
946.575	6379.72
946.881	6270.57
947.187	6293.85
947.493	6253.62
947.799	6246.84
948.105	6210.01
948.41	6157.58
948.716	6141.31
949.022	6101.76
949.327	6084.59
949.633	6050.01
949.938	6025.15
950.244	6005.27
950.549	5978.6
950.854	5974.98
951.16	5975.21
951.465	5840.07
951.77	5876.23
952.075	5861.54
952.38	5789.68
952.685	5785.84
952.99	5778.15
953.294	5792.39
953.599	5708.32
953.904	5717.14
954.209	5681.66
954.513	5663.81
954.818	5648.89
955.122	5648.89
955.426	5560.31
955.731	5572.51
956.035	5596.91
956.339	5517.6
956.643	5445.96
956.948	5450.03
957.252	5414.55
957.556	5400.54
957.86	5366.41
958.163	5364.15
958.467	5334.32
958.771	5347.88
959.075	5285.06
959.378	5233.76
959.682	5224.04
959.985	5216.59
960.289	5170.71
960.592	5113.99
960.896	5146.53
961.199	5102.92
961.502	5091.84
961.805	5050.04
962.108	5030.83
962.411	5026.76
962.714	4987.44
963.017	4965.07
963.32	4929.59
963.623	4944.95
963.926	4930.49
964.228	4867.44
964.531	4847.33
964.833	4862.02
965.136	4827.22
965.438	4792.19
965.741	4774.11
966.043	4759.42
966.345	4733.89
966.648	4676.26
966.95	4714.23
967.252	4642.36
967.554	4662.48
967.856	4619.09
968.158	4570.28
968.46	4598.98
968.761	4561.01
969.063	4552.65
969.365	4513.55
969.666	4550.61
969.968	4464.52
970.269	4456.38
970.571	4409.15
970.872	4419.09
971.174	4427.91
971.475	4368.02
971.776	4380.45
972.077	4280.57
972.378	4308.36
972.679	4300.9
972.98	4300
973.281	4221.13
973.582	4212.77
973.883	4234.69
974.183	4208.02
974.484	4223.84
974.785	4140.68
975.085	4149.72
975.386	4155.6
975.686	4082.6
975.986	4035.15
976.287	4086.67
976.587	4039.22
976.887	4030.85
977.187	4044.64
977.487	4000.57
977.787	3994.02
978.087	3934.81
978.387	3934.13
978.687	3980.01
978.987	3902.27
979.286	3938.43
979.586	3847.13
979.885	3824.53
980.185	3849.84
980.484	3800.35
980.784	3801.93
981.083	3773.69
981.382	3755.83
981.682	3773.46
981.981	3693.01
982.28	3667.93
982.579	3660.69
982.878	3678.77
983.177	3648.27
983.475	3622.28
983.774	3621.15
984.073	3598.32
984.372	3579.79
984.67	3617.98
984.969	3521.72
985.267	3523.07
985.566	3519.91
985.864	3497.99
986.162	3516.29
986.461	3471.1
986.759	3468.84
987.057	3379.12
987.355	3415.96
987.653	3399.01
987.951	3403.07
988.249	3363.98
988.547	3380.93
988.844	3388.16
989.142	3346.13
989.44	3325.34
989.737	3285.56
990.035	3311.55
990.332	3259.35
990.63	3245.79
990.927	3233.81
991.224	3202.63
991.521	3191.1
991.819	3180.26
992.116	3165.11
992.413	3178
992.71	3127.15
993.006	3164.21
993.303	3106.58
993.6	3118.79
993.897	3089.64
994.193	3067.26
994.49	3059.81
994.787	2985.68
995.083	3008.28
995.379	2997.89
995.676	2995.85
995.972	3007.38
996.268	2941.39
996.565	2936.19
996.861	2953.59
997.157	2923.76
997.453	2893.94
997.749	2859.81
998.044	2892.58
998.34	2853.48
998.636	2836.54
998.932	2818.01
999.227	2775.29
999.523	2793.15
999.818	2809.87
1000.114	2759.48
1000.409	2752.47
1000.704	2736.65
1001	2669.53
1001.295	2698.69
1001.59	2687.16
1001.885	2675.64
1002.18	2672.7
1002.475	2612.81
1002.77	2628.63
1003.065	2600.16
1003.359	2592.93
1003.654	2593.38
1003.949	2589.99
1004.243	2539.82
1004.538	2527.84
1004.832	2535.3
1005.127	2508.63
1005.421	2526.94
1005.715	2472.7
1006.009	2458.24
1006.304	2409.88
1006.598	2389.54
1006.892	2381.86
1007.186	2389.99
1007.48	2400.84
1007.773	2386.83
1008.067	2351.8
1008.361	2309.32
1008.655	2314.74
1008.948	2315.65
1009.242	2318.13
1009.535	2293.05
1009.829	2294.63
1010.122	2243.56
1010.415	2250.56
1010.708	2216.66
1011.001	2220.96
1011.295	2209.21
1011.588	2200.17
1011.881	2148.19
1012.173	2149.32
1012.466	2164.24
1012.759	2104.35
1013.052	2156.78
1013.344	2123.33
1013.637	2126.05
1013.93	2063.67
1014.222	2055.99
1014.514	2055.31
1014.807	2033.17
1015.099	2059.83
1015.391	2033.84
1015.683	2000.17
1015.976	2035.65
1016.268	1988.42
1016.56	1982.32
1016.851	1959.72
1017.143	2004.69
1017.435	1951.59
1017.727	1917.46
1018.018	1885.83
1018.31	1900.06
1018.602	1887.18
1018.893	1855.54
1019.185	1850.8
1019.476	1831.14
1019.767	1827.52
1020.058	1830.01
1020.35	1781.2
1020.641	1806.51
1020.932	1738.94
1021.223	1749.78
1021.514	1761.08
1021.804	1737.13
1022.095	1707.07
1022.386	1710.46
1022.677	1705.49
1022.967	1721.76
1023.258	1695.32
1023.548	1670.01
1023.839	1660.97
1024.129	1679.73
1024.419	1613.52
1024.709	1638.38
1025	1614.87
1025.29	1596.79
1025.58	1591.37
1025.87	1563.35
1026.16	1558.38
1026.449	1543.46
1026.739	1543.69
1027.029	1523.35
1027.319	1522.9
1027.608	1561.77
1027.898	1509.79
1028.187	1500.07
1028.477	1469.57
1028.766	1485.61
1029.055	1466.63
1029.344	1467.76
1029.634	1461.43
1029.923	1423.47
1030.212	1394.09
1030.501	1404.03
1030.79	1381.21
1031.078	1391.15
1031.367	1403.58
1031.656	1368.1
1031.945	1349.57
1032.233	1341.89
1032.522	1338.72
1032.81	1314.32
1033.099	1326.74
1033.387	1349.34
1033.675	1322.23
1033.963	1284.94
1034.251	1335.11
1034.54	1260.76
1034.828	1256.92
1035.116	1250.81
1035.403	1250.59
1035.691	1250.59
1035.979	1239.52
1036.267	1212.4
1036.554	1216.24
1036.842	1237.93
1037.129	1202.91
1037.417	1189.35
1037.704	1180.53
1037.992	1208.1
1038.279	1158.84
1038.566	1148.67
1038.853	1148.67
1039.14	1148.67
