Data from white_steel_sheet_FLMS001491_089.txt Node
Date: Tue Feb 07 10:58:37 GMT 2017
User: dcchb
Spectrometer: FLMS00149
Trigger mode: 0
Integration Time (sec): 2.000000E-2
Scans to average: 10
Electric dark correction enabled: true
Nonlinearity correction enabled: false
Boxcar width: 0
XAxis mode: Wavelengths
Number of Pixels in Spectrum: 2048
>>>>>Begin Spectral Data<<<<<
341.393	-12.23
341.776	-12.23
342.16	-12.23
342.543	-48.61
342.927	-73.47
343.31	-81.61
343.693	-71.21
344.077	-57.65
344.46	-61.04
344.843	-39.58
345.226	-46.81
345.61	-58.56
345.993	-3.64
346.376	-3.64
346.759	13.3
347.142	36.13
347.525	60.54
347.908	45.85
348.291	67.09
348.674	93.08
349.057	107.77
349.44	118.84
349.823	158.16
350.206	153.41
350.588	197.25
350.971	197.03
351.354	251.49
351.737	224.37
352.119	233.41
352.502	266.86
352.884	266.63
353.267	297.59
353.65	297.59
354.032	299.17
354.414	314.99
354.797	315.44
355.179	319.29
355.562	318.83
355.944	336.46
356.326	334.2
356.709	328.55
357.091	353.63
357.473	341.88
357.855	333.07
358.238	328.78
358.62	334.2
359.002	357.02
359.384	350.47
359.766	349.12
360.148	334.2
360.53	345.73
360.912	336.46
361.294	324.03
361.676	336.91
362.057	362.67
362.439	333.3
362.821	357.02
363.203	340.3
363.584	348.89
363.966	347.08
364.348	327.65
364.729	322.45
365.111	334.88
365.493	335.1
365.874	326.97
366.256	329.68
366.637	328.78
367.019	322.9
367.4	333.3
367.781	311.15
368.163	322
368.544	336.23
368.925	319.06
369.306	332.39
369.688	334.43
370.069	321.77
370.45	316.12
370.831	312.28
371.212	335.33
371.593	315.44
371.974	318.16
372.355	319.74
372.736	331.94
373.117	318.61
373.498	323.81
373.879	319.51
374.26	333.75
374.641	322.68
375.021	325.16
375.402	315.67
375.783	357.25
376.163	358.15
376.544	374.43
376.925	346.63
377.305	330.81
377.686	334.65
378.066	324.26
378.447	354.09
378.827	360.87
379.208	359.06
379.588	361.32
379.968	333.52
380.349	350.92
380.729	366.52
381.109	368.32
381.489	349.12
381.87	361.32
382.25	378.27
382.63	340.3
383.01	382.79
383.39	387.31
383.77	366.74
384.15	377.81
384.53	369.45
384.91	357.7
385.29	373.3
385.67	412.62
386.049	394.31
386.429	391.83
386.809	411.71
387.189	390.7
387.568	397.02
387.948	408.77
388.328	403.58
388.707	388.44
389.087	391.83
389.466	423.24
389.846	460.75
390.225	440.19
390.605	442.67
390.984	424.37
391.363	412.62
391.743	437.25
392.122	456.46
392.501	446.74
392.881	434.76
393.26	449.9
393.639	463.46
394.018	489
394.397	470.24
394.776	472.95
395.155	483.35
395.534	484.7
395.913	480.86
396.292	511.6
396.671	503.01
397.05	514.99
397.429	508.43
397.808	517.47
398.186	531.26
398.565	550.69
398.944	552.05
399.323	554.08
399.701	555.66
400.08	550.69
400.458	565.61
400.837	568.09
401.215	560.86
401.594	576.23
401.972	590.92
402.351	600.86
402.729	623.01
403.107	618.94
403.486	600.18
403.864	627.98
404.242	643.12
404.62	675.21
404.999	642.67
405.377	668.88
405.755	682.67
406.133	702.55
406.511	715.21
406.889	699.16
407.267	748.88
407.645	735.77
408.023	744.13
408.401	757.69
408.779	760.18
409.156	765.6
409.534	813.51
409.912	823.9
410.29	836.56
410.667	839.27
411.045	848.31
411.422	855.77
411.8	865.94
412.178	880.63
412.555	897.12
412.933	905.94
413.31	935.09
413.687	922.21
414.065	942.77
414.442	958.14
414.819	966.27
415.197	957.23
415.574	996.56
415.951	1018.25
416.328	997.01
416.705	1031.81
417.082	1045.59
417.46	1032.71
417.837	1098.7
418.214	1060.06
418.591	1088.08
418.967	1083.11
419.344	1125.14
419.721	1116.78
420.098	1125.59
420.475	1160.17
420.852	1167.85
421.228	1151.13
421.605	1134.86
421.982	1195.42
422.358	1209.88
422.735	1206.04
423.111	1211.24
423.488	1228.19
423.864	1225.93
424.241	1277.45
424.617	1282.42
424.994	1278.36
425.37	1321.97
425.746	1268.86
426.123	1295.53
426.499	1341.63
426.875	1356.77
427.251	1347.73
427.627	1411.23
428.003	1419.6
428.379	1432.93
428.756	1419.14
429.132	1495.3
429.507	1526.71
429.883	1537.33
430.259	1523.32
430.635	1549.08
431.011	1573.26
431.387	1592.02
431.763	1613.94
432.138	1658.01
432.514	1666.37
432.89	1640.38
433.265	1711.79
433.641	1734.16
434.016	1754.73
434.392	1772.81
434.767	1803.31
435.143	1794.27
435.518	1848.96
435.894	1834.27
436.269	1897.55
436.644	1891.9
437.02	1913.14
437.395	1911.79
437.77	1967.38
438.145	1991.78
438.52	1991.56
438.895	2015.74
439.271	2028.39
439.646	2068.39
440.021	2078.56
440.395	2076.3
440.77	2095.74
441.145	2142.74
441.52	2162.4
441.895	2142.51
442.27	2160.14
442.645	2200.82
443.019	2187.71
443.394	2230.42
443.769	2259.35
444.143	2251.21
444.518	2272.45
444.892	2294.83
445.267	2293.24
445.641	2281.95
446.016	2357.2
446.39	2386.58
446.764	2334.37
447.139	2392.45
447.513	2415.5
447.887	2406.01
448.262	2423.18
448.636	2483.75
449.01	2493.47
449.384	2508.15
449.758	2558.1
450.132	2568.49
450.506	2549.96
450.88	2581.37
451.254	2597.19
451.628	2668.83
452.002	2667.92
452.376	2690.52
452.75	2724.19
453.123	2723.06
453.497	2816.85
453.871	2812.78
454.244	2863.85
454.618	2879.44
454.992	2927.13
455.365	2927.58
455.739	3001.7
456.112	3033.56
456.486	3055.03
456.859	3097.97
457.232	3107.69
457.606	3169.38
457.979	3175.03
458.352	3251.64
458.725	3279.89
459.099	3288.02
459.472	3369.37
459.845	3397.62
460.218	3441.24
460.591	3487.79
460.964	3462.48
461.337	3580.67
461.71	3618.41
462.083	3666.09
462.456	3666.77
462.829	3702.02
463.201	3775.47
463.574	3763.71
463.947	3781.57
464.32	3930.72
464.692	3963.03
465.065	3993.77
465.438	4078.73
465.81	4082.35
466.183	4120.99
466.555	4200.99
466.928	4185.17
467.3	4207.09
467.672	4319.86
468.045	4410.25
468.417	4444.83
468.789	4474.2
469.161	4536.8
469.534	4629.91
469.906	4721.88
470.278	4744.25
470.65	4777.7
471.022	4818.6
471.394	4923.91
471.766	5001.87
472.138	5130.01
472.51	5171.36
472.882	5265.6
473.253	5307.85
473.625	5361.19
473.997	5498.36
474.369	5522.99
474.74	5565.02
475.112	5700.61
475.484	5745.36
475.855	5898.8
476.227	5906.94
476.598	6063.32
476.97	6155.74
477.341	6263.08
477.713	6345.57
478.084	6416.3
478.455	6563.19
478.827	6642.28
479.198	6809.06
479.569	6838.21
479.94	7061.71
480.311	7126.79
480.682	7230.06
481.053	7388.25
481.424	7574.91
481.795	7614.46
482.166	7738.75
482.537	7844.06
482.908	7996.82
483.279	8110.04
483.65	8197.5
484.021	8410.15
484.391	8488.79
484.762	8576.02
485.133	8642.91
485.503	8729.91
485.874	8886.07
486.244	9038.83
486.615	9249.67
486.985	9312.27
487.356	9524.92
487.726	9586.61
488.097	9761.75
488.467	9862.09
488.837	9995.87
489.207	10082.87
489.578	10284.9
489.948	10431.34
490.318	10507.72
490.688	10533.03
491.058	10728.05
491.428	10880.59
491.798	11003.75
492.168	11229.96
492.538	11257.3
492.908	11364.64
493.278	11509.5
493.648	11528.71
494.017	11690.74
494.387	11848.47
494.757	11956.95
495.126	12101.12
495.496	12124.4
495.866	12244.62
496.235	12461.56
496.605	12545.4
496.974	12612.97
497.344	12754.44
497.713	12732.74
498.082	12843.93
498.452	12994.66
498.821	13038.05
499.19	13050.02
499.559	13271.26
499.928	13454.08
500.298	13471.71
500.667	13596.9
501.036	13627.64
501.405	13798.93
501.774	13829.66
502.143	13962.99
502.512	14056.33
502.88	14272.59
503.249	14195.53
503.618	14381.97
503.987	14340.39
504.356	14513.49
504.724	14597.55
505.093	14621.73
505.462	14744.67
505.83	14841.16
506.199	15012.23
506.567	15252.9
506.936	15172.45
507.304	15410.41
507.672	15434.37
508.041	15586.91
508.409	15635.94
508.777	15748.26
509.145	15952.32
509.514	15955.03
509.882	16160.68
510.25	16135.82
510.618	16325.42
510.986	16411.07
511.354	16543.27
511.722	16711.85
512.09	16864.84
512.458	16861.45
512.826	17024.83
513.193	17148.45
513.561	17258.28
513.929	17352.96
514.297	17551.83
514.664	17620.75
515.032	17726.74
515.4	17944.58
515.767	18022.55
516.135	18131.25
516.502	17997.01
516.869	18442.42
517.237	18481.29
517.604	18551.57
517.972	18710.44
518.339	18917.67
518.706	18925.12
519.073	19088.51
519.44	19198.11
519.808	19350.2
520.175	19442.85
520.542	19662.96
520.909	19707.02
521.276	19824.99
521.643	20080.12
522.009	20269.5
522.376	20347.01
522.743	20534.35
523.11	20697.51
523.477	20871.06
523.843	21086.65
524.21	21263.82
524.577	21433.31
524.943	21530.03
525.31	21708.33
525.676	21904.71
526.043	22061.54
526.409	22082.55
526.776	22412.04
527.142	22459.49
527.508	22682.31
527.874	22840.95
528.241	22991.23
528.607	23018.12
528.973	23301.96
529.339	23408.17
529.705	23581.95
530.071	23706.02
530.437	23783.98
530.803	24060.58
531.169	24067.81
531.535	24159.79
531.901	24235.49
532.267	24308.26
532.632	24621.92
532.998	24604.3
533.364	24727.46
533.73	24882.71
534.095	25009.26
534.461	25212.19
534.826	25385.97
535.192	25406.31
535.557	25682.69
535.923	25571.95
536.288	25755.23
536.653	25873.42
537.019	25869.8
537.384	25949.12
537.749	26118.16
538.114	26219.17
538.479	26259.17
538.845	26487.18
539.21	26425.04
539.575	26385.72
539.94	26670.23
540.305	26884.46
540.67	26813.28
541.034	27022.76
541.399	27021.18
541.764	27227.96
542.129	27251.01
542.494	27392.7
542.858	27411.23
543.223	27564.44
543.587	27740.49
543.952	27665.68
544.316	27786.13
544.681	27837.66
545.045	28038.33
545.41	28149.97
545.774	28255.95
546.138	28248.49
546.503	28394.93
546.867	28346.8
547.231	28673.57
547.595	28578.88
547.959	28749.27
548.324	28774.36
548.688	28988.81
549.052	29012.32
549.416	29121.01
549.779	29194.68
550.143	29271.29
550.507	29520.78
550.871	29566.2
551.235	29672.86
551.599	29839.64
551.962	29777.49
552.326	29963.03
552.689	30163.92
553.053	30124.38
553.417	30018.84
553.78	30445.27
554.143	30375.9
554.507	30469.45
554.87	30626.74
555.234	30986.73
555.597	30838.26
555.96	30937.46
556.323	31211.58
556.686	31268.08
557.05	31331.8
557.413	31552.36
557.776	31569.76
558.139	31875.52
558.502	31816.54
558.865	31936.08
559.228	32283.87
559.59	32288.84
559.953	32376.07
560.316	32730.64
560.679	32683.86
561.041	32842.05
561.404	33057.63
561.767	33251.53
562.129	33019.67
562.492	33421.24
562.854	33604.96
563.217	33487.45
563.579	33733.55
563.941	33875.24
564.304	33981
564.666	34246.08
565.028	34303.7
565.39	34370.37
565.753	34512.51
566.115	34740.08
566.477	34894.87
566.839	35022.78
567.201	35213.06
567.563	35173.06
567.925	35399.72
568.287	35406.5
568.648	35418.93
569.01	35854.17
569.372	36004
569.734	35860.5
570.095	36235.18
570.457	36291.45
570.819	36300.26
571.18	36366.7
571.542	36561.5
571.903	36656.86
572.265	36715.16
572.626	36894.14
572.987	36869.28
573.349	36983.86
573.71	37142.05
574.071	37230.63
574.432	37342.72
574.794	37579.77
575.155	37525.31
575.516	37320.12
575.877	37654.35
576.238	37641.24
576.599	37897.51
576.96	37787
577.32	37877.62
577.681	37939.99
578.042	37972.53
578.403	38000.55
578.763	38070.61
579.124	38181.34
579.485	38245.29
579.845	38432.63
580.206	38285.29
580.566	38213.43
580.927	38371.62
581.287	38463.14
581.648	38346.08
582.008	38543.59
582.368	38476.47
582.728	38543.14
583.089	38535.68
583.449	38466.98
583.809	38511.28
584.169	38680.08
584.529	38505.63
584.889	38823.36
585.249	38616.13
585.609	38564.61
585.969	38753.76
586.329	38626.07
586.688	38670.37
587.048	38664.04
587.408	38566.19
587.768	38559.64
588.127	38546.08
588.487	38568.45
588.846	38854.77
589.206	38547.66
589.565	38608.67
589.925	38702.23
590.284	38634.44
590.643	38606.64
591.003	38796.24
591.362	38766.18
591.721	38699.97
592.08	38637.6
592.44	38807.09
592.799	38777.71
593.158	38768.22
593.517	38784.49
593.876	38819.52
594.235	38609.8
594.593	38763.47
594.952	38828.78
595.311	38690.48
595.67	38770.25
596.029	38753.98
596.387	39006.18
596.746	38958.72
597.104	38800.76
597.463	38870.14
597.822	38977.93
598.18	38785.17
598.538	38812.96
598.897	38992.17
599.255	38689.58
599.613	39337.69
599.972	39028.32
600.33	39193.97
600.688	39007.53
601.046	39041.43
601.404	39202.78
601.762	38983.35
602.12	39158.72
602.478	39206.17
602.836	39203.01
603.194	39040.75
603.552	39118.72
603.91	39055.22
604.268	39320.07
604.625	39122.33
604.983	39219.73
605.341	39110.13
605.698	39298.83
606.056	39238.71
606.413	39316.9
606.771	39370.69
607.128	39476
607.485	39299.05
607.843	39337.02
608.2	39492.49
608.557	39634.18
608.914	39466.28
609.272	39616.11
609.629	39762.99
609.986	39788.76
610.343	39629.21
610.7	39947.62
611.057	39862.2
611.414	39733.62
611.771	39957.11
612.127	39992.37
612.484	40062.87
612.841	40178.12
613.198	39963.21
613.554	40040.95
613.911	40168.63
614.267	40245.69
614.624	40264.45
614.98	40270.78
615.337	40384.45
615.693	40338.8
616.05	40191.46
616.406	40465.8
616.762	40360.27
617.118	40380.83
617.475	40317.78
617.831	40581.5
618.187	40592.58
618.543	40752.8
618.899	40853.59
619.255	40834.83
619.611	40743.99
619.967	40782.4
620.323	40905.11
620.678	40864.21
621.034	40703.99
621.39	40705.34
621.746	40712.35
622.101	41149.4
622.457	40875.73
622.812	40924.77
623.168	40900.37
623.523	40816.98
623.879	41015.84
624.234	40828.5
624.589	40935.39
624.945	40953.25
625.3	40956.18
625.655	40838.67
626.01	40972.91
626.365	41011.32
626.72	40980.36
627.075	40957.31
627.43	40900.59
627.785	40862.17
628.14	40903.3
628.495	40863.76
628.85	40874.83
629.205	40710.09
629.559	40955.96
629.914	40674.16
630.269	40769.3
630.623	40655.4
630.978	40580.37
631.332	40709.64
631.687	40697.21
632.041	40708.28
632.396	40676.19
632.75	40594.61
633.104	40423.32
633.459	40486.82
633.813	40226.26
634.167	40349.42
634.521	40141.74
634.875	40356.42
635.229	40369.31
635.583	40005.25
635.937	40091.12
636.291	39977.68
636.645	39987.85
636.999	39876.89
637.352	39996.43
637.706	39762.77
638.06	39948.53
638.413	39867.62
638.767	39640.51
639.121	39772.71
639.474	39469.67
639.828	39486.62
640.181	39468.54
640.534	39541.76
640.888	39452.49
641.241	39231.71
641.594	39337.47
641.947	39390.57
642.301	39286.62
642.654	39292.27
643.007	39266.51
643.36	39236.68
643.713	39097.47
644.066	39256.34
644.419	39085.05
644.771	38804.6
645.124	38323.48
645.477	38302.02
645.83	37975.92
646.182	37864.51
646.535	37785.19
646.888	37983.38
647.24	37778.41
647.593	37985.41
647.945	37922.36
648.298	37782.93
648.65	37749.94
649.002	37511.08
649.355	37601.47
649.707	37492.09
650.059	37617.06
650.411	38072.87
650.763	38095.24
651.115	38527.77
651.467	38306.99
651.819	38288.23
652.171	38299.53
652.523	38133.88
652.875	38095.92
653.227	38084.39
653.578	38301.34
653.93	38102.02
654.282	37951.52
654.633	37935.25
654.985	37913.55
655.337	37906.55
655.688	37866.77
656.039	38030.38
656.391	37623.62
656.742	37577.97
657.094	37747.68
657.445	37881.01
657.796	37726.44
658.147	37698.19
658.498	37635.59
658.849	37668.36
659.2	37496.61
659.551	37415.26
659.902	37542.26
660.253	37401.7
660.604	37430.85
660.955	37354.24
661.306	37347.69
661.656	37316.96
662.007	37253
662.358	37291.42
662.708	37038.32
663.059	37063.86
663.409	36861.83
663.76	36960.81
664.11	36978.21
664.461	36927.14
664.811	37038.55
665.161	36929.17
665.511	36610.08
665.862	36653.92
666.212	36614.38
666.562	36723.53
666.912	36500.03
667.262	36553.13
667.612	36451.22
667.962	36301.16
668.312	36167.16
668.662	36359.02
669.011	36286.02
669.361	36097.78
669.711	35990.21
670.06	35880.16
670.41	35750.9
670.76	35638.81
671.109	35705.7
671.459	35630.67
671.808	35464.35
672.157	35419.61
672.507	35344.35
672.856	35195.43
673.205	35277.69
673.554	35302.77
673.904	35201.76
674.253	35245.37
674.602	35084.7
674.951	34649.46
675.3	34300.99
675.649	34899.62
675.998	34802.45
676.346	34738.72
676.695	34982.1
677.044	34825.72
677.393	34712.05
677.741	34751.37
678.09	34627.31
678.438	34706.4
678.787	34614.88
679.135	34698.95
679.484	34406.52
679.832	34636.58
680.181	34432.96
680.529	34696.69
680.877	34405.62
681.225	34453.08
681.573	34644.71
681.922	34428.45
682.27	34376.47
682.618	34491.04
682.966	34379.63
683.314	34521.55
683.661	34399.07
684.009	34295.57
684.357	34241.78
684.705	34343.48
685.053	34373.53
685.4	34357.94
685.748	34225.29
686.095	34355.23
686.443	34242.01
686.79	34204.72
687.138	34251.73
687.485	34317.04
687.832	34270.71
688.18	34376.24
688.527	34169.24
688.874	34102.58
689.221	34191.84
689.568	34179.41
689.915	33895.13
690.262	34180.54
690.609	33967.67
690.956	33976.25
691.303	33961.11
691.65	33799.54
691.997	33771.51
692.344	33656.26
692.69	33720.22
693.037	33824.85
693.383	33519.99
693.73	33736.49
694.077	33534.46
694.423	33579.65
694.769	33347.12
695.116	33440.22
695.462	33421.69
695.808	33172.43
696.155	33289.72
696.501	33129.72
696.847	33004.98
697.193	32866.9
697.539	33138.76
697.885	32840.46
698.231	32752.56
698.577	32593.92
698.923	32672.11
699.269	32502.39
699.614	32371.78
699.96	32464.2
700.306	32336.75
700.651	32187.83
700.997	32165.45
701.342	32076.64
701.688	32033.48
702.033	31994.38
702.379	31988.74
702.724	31918.68
703.069	31878.91
703.415	31495.19
703.76	31623.77
704.105	31641.4
704.45	31449.54
704.795	31374.97
705.14	31253.61
705.485	31289.32
705.83	31218.36
706.175	31256.1
706.52	31079.38
706.865	30897.24
707.209	30968.2
707.554	30750.12
707.899	30935.66
708.243	30793.96
708.588	30788.54
708.932	30458.38
709.277	30481.43
709.621	30485.05
709.966	30245.5
710.31	30398.49
710.654	30094.55
710.998	30187.88
711.342	30226.07
711.687	30106.75
712.031	30037.83
712.375	29873.08
712.719	29940.65
713.063	29878.06
713.407	29801.22
713.75	29671.96
714.094	29661.11
714.438	29662.47
714.782	29685.74
715.125	29439.2
715.469	29348.13
715.812	29380.44
716.156	29171.41
716.499	29168.7
716.843	29261.12
717.186	29108.36
717.53	29211.18
717.873	29168.02
718.216	29029.04
718.559	28988.14
718.902	28783.85
719.246	28777.75
719.589	28658.43
719.932	28709.95
720.275	28707.92
720.617	28497.75
720.96	28562.16
721.303	28452.56
721.646	28518.77
721.989	28331.2
722.331	28506.34
722.674	28324.42
723.016	28327.81
723.359	28227.93
723.701	28189.96
724.044	28054.15
724.386	28086.24
724.729	28014.6
725.071	27953.36
725.413	27973.25
725.755	27895.28
726.097	27780.48
726.439	27758.11
726.782	27803.76
727.124	27828.84
727.465	27630.43
727.807	27613.26
728.149	27571.22
728.491	27599.02
728.833	27649.64
729.175	27414.39
729.516	27492.81
729.858	27344.56
730.199	27324.68
730.541	27235.41
730.882	27250.1
731.224	27283.77
731.565	27154.51
731.906	27150.44
732.248	27009.21
732.589	26828.87
732.93	26956.78
733.271	26897.57
733.612	26800.17
733.953	26822.54
734.294	26821.41
734.635	26649.89
734.976	26787.52
735.317	26622.1
735.658	26595.66
735.999	26699.38
736.339	26474.76
736.68	26694.64
737.021	26462.78
737.361	26328.55
737.702	26613.96
738.042	26368.54
738.383	26286.06
738.723	26296.68
739.063	26354.76
739.404	26307.08
739.744	26194.54
740.084	26118.61
740.424	26136.23
740.764	26082.22
741.104	26147.98
741.444	25898.73
741.784	25892.17
742.124	25896.69
742.464	25778.73
742.804	25896.92
743.143	25840.42
743.483	25754.55
743.823	25557.04
744.162	25668.68
744.502	25633.65
744.841	25486.31
745.181	25552.75
745.52	25382.81
745.86	25634.33
746.199	25493.31
746.538	25506.19
746.877	25413.09
747.216	25281.79
747.556	25277.05
747.895	25348.68
748.234	25122.02
748.573	25061.69
748.911	25095.81
749.25	25062.36
749.589	24875.93
749.928	24909.15
750.267	24984.17
750.605	24831.41
750.944	24794.35
751.283	24780.11
751.621	24706.44
751.96	24580.57
752.298	24602.26
752.636	24621.7
752.975	24554.13
753.313	24340.12
753.651	24532.21
753.989	24389.16
754.327	24261.48
754.666	24148.26
755.004	24105.33
755.342	24133.12
755.679	24087.02
756.017	23984.88
756.355	24006.12
756.693	23909.17
757.031	23832.34
757.368	23737.43
757.706	23833.7
758.044	23618.79
758.381	23661.04
758.719	23633.25
759.056	23621.5
759.394	23433.25
759.731	23400.03
760.068	23280.72
760.405	23171.34
760.743	22993.04
761.08	23038.69
761.417	22982.19
761.754	22927.96
762.091	22898.8
762.428	22744.91
762.765	22709.66
763.102	22723.89
763.438	22629.89
763.775	22485.03
764.112	22548.53
764.449	22468.99
764.785	22442.77
765.122	22203
765.458	22211.37
765.795	22061.54
766.131	22147.64
766.467	21965.72
766.804	21852.73
767.14	21806.63
767.476	21843.24
767.812	21607.54
768.148	21723.69
768.485	21552.85
768.821	21487.77
769.157	21504.27
769.492	21360.31
769.828	21373.2
770.164	21097.95
770.5	21074.9
770.836	21018.18
771.171	20986.76
771.507	20859.76
771.842	20744.51
772.178	20750.61
772.513	20646.66
772.849	20666.32
773.184	20441.02
773.519	20504.74
773.855	20333
774.19	20295.26
774.525	20149.5
774.86	20226.11
775.195	20166.22
775.53	19994.02
775.865	19944.31
776.2	19876.74
776.535	19806.46
776.87	19782.73
777.205	19684.88
777.539	19596.07
777.874	19571.43
778.209	19444.43
778.543	19347.94
778.878	19244.44
779.212	19276.75
779.547	18995.18
779.881	19147.94
780.215	18988.63
780.55	18947.04
780.884	18904.56
781.218	18810.78
781.552	18805.8
781.886	18658.24
782.22	18631.35
782.554	18551.35
782.888	18386.61
783.222	18327.63
783.556	18316.78
783.889	18197.69
784.223	18104.81
784.557	18131.47
784.89	18173.96
785.224	17974.19
785.557	17840.63
785.891	17842.89
786.224	17784.81
786.558	17821.2
786.891	17676.34
787.224	17648.32
787.557	17618.04
787.891	17522.67
788.224	17409.23
788.557	17410.14
788.89	17358.61
789.223	17408.55
789.556	17190.25
789.888	17181.67
790.221	17096.7
790.554	16928.57
790.887	17046.98
791.219	16945.29
791.552	16783.94
791.884	16667.33
792.217	16734
792.549	16599.99
792.882	16499.88
793.214	16390.5
793.546	16366.77
793.879	16413.78
794.211	16366.1
794.543	16306.21
794.875	16224.63
795.207	16218.53
795.539	16045.43
795.871	16181.47
796.203	15970.85
796.535	15956.61
796.867	15928.59
797.198	15894.24
797.53	15865.54
797.862	15600.69
798.193	15765.66
798.525	15578.55
798.856	15717.3
799.188	15445.22
799.519	15497.42
799.85	15387.36
800.182	15355.95
800.513	15315.05
800.844	15258.55
801.175	15286.8
801.506	15263.98
801.837	15181.27
802.168	15114.6
802.499	15108.28
802.83	15029.86
803.161	14955.51
803.491	14941.73
803.822	14818.11
804.153	14808.62
804.483	14731.79
804.814	14630.55
805.145	14663.54
805.475	14637.78
805.805	14585.58
806.136	14663.32
806.466	14498.35
806.796	14515.3
807.126	14396.2
807.457	14452.02
807.787	14344
808.117	14291.35
808.447	14308.52
808.777	14354.17
809.107	14224.91
809.436	14155.76
809.766	14133.39
810.096	14044.12
810.426	14079.83
810.755	13963.9
811.085	14053.84
811.414	13975.88
811.744	13820.63
812.073	13814.98
812.403	13816.78
812.732	13725.94
813.061	13699.95
813.39	13576.56
813.719	13665.15
814.049	13741.53
814.378	13556
814.707	13565.72
815.036	13622.89
815.365	13521.65
815.693	13309
816.022	13288.66
816.351	13343.58
816.68	13193.52
817.008	13290.47
817.337	13255.44
817.665	13146.97
817.994	13200.75
818.322	13152.17
818.651	13126.18
818.979	13030.82
819.307	13137.25
819.636	13099.51
819.964	12953.3
820.292	13067.65
820.62	12980.42
820.948	12914.89
821.276	13062.91
821.604	12983.13
821.932	12971.61
822.259	13053.64
822.587	12927.32
822.915	12872.18
823.243	13056.8
823.57	12861.78
823.898	12880.99
824.225	12862.23
824.553	12832.4
824.88	12826.08
825.207	12928.45
825.535	12829.46
825.862	12861.33
826.189	12952.63
826.516	12894.77
826.843	12927.32
827.17	12980.87
827.497	12909.24
827.824	12827.66
828.151	12938.16
828.478	12943.36
828.805	12881.21
829.131	12835.34
829.458	12842.12
829.785	12837.6
830.111	12742.46
830.438	12868.11
830.764	12896.58
831.09	12797.38
831.417	12749.47
831.743	12798.51
832.069	12748.56
832.395	12738.17
832.722	12793.76
833.048	12680.99
833.374	12776.13
833.7	12683.03
834.026	12634.89
834.351	12659.98
834.677	12691.39
835.003	12698.85
835.329	12597.15
835.654	12677.6
835.98	12618.4
836.306	12578.17
836.631	12617.27
836.956	12577.27
837.282	12572.75
837.607	12469.7
837.932	12468.8
838.258	12429.48
838.583	12481
838.908	12349.7
839.233	12431.51
839.558	12438.74
839.883	12320.1
840.208	12329.59
840.533	12212.76
840.858	12344.28
841.182	12352.42
841.507	12379.53
841.832	12157.84
842.156	12158.75
842.481	12239.88
842.805	12208.46
843.13	12137.73
843.454	12092.08
843.778	12057.06
844.103	12065.42
844.427	11947.45
844.751	11963.5
845.075	11970.05
845.399	11873.78
845.723	11829.49
846.047	11842.82
846.371	11831.53
846.695	11722.15
847.019	11591.98
847.343	11662.94
847.666	11561.02
847.99	11456.39
848.313	11544.07
848.637	11455.72
848.96	11419.33
849.284	11356.96
849.607	11260.92
849.931	11320.58
850.254	11179.79
850.577	11133.46
850.9	11138.44
851.223	11080.13
851.546	11003.75
851.869	10964.88
852.192	10961.72
852.515	10818.9
852.838	10810.53
853.161	10863.41
853.483	10796.98
853.806	10716.53
854.129	10705.9
854.451	10608.28
854.774	10599.47
855.096	10595.63
855.419	10634.95
855.741	10513.37
856.063	10489.41
856.385	10487.15
856.708	10416.2
857.03	10410.09
857.352	10334.84
857.674	10308.18
857.996	10333.49
858.318	10213.94
858.64	10312.69
858.961	10243.09
859.283	10203.77
859.605	10162.64
859.926	10138.91
860.248	10066.6
860.57	10089.65
860.891	10049.2
861.212	9991.12
861.534	9995.19
861.855	9981.86
862.176	10018.92
862.498	9970.56
862.819	9907.06
863.14	9893.72
863.461	9873.38
863.782	9841.29
864.103	9837.45
864.424	9776.21
864.745	9808.75
865.065	9728.53
865.386	9710.45
865.707	9835.42
866.027	9767.62
866.348	9742.54
866.668	9651.92
866.989	9620.51
867.309	9574.41
867.63	9638.59
867.95	9681.98
868.27	9580.96
868.59	9666.84
868.91	9582.77
869.23	9586.16
869.55	9500.29
869.87	9575.31
870.19	9513.17
870.51	9521.76
870.83	9404.47
871.15	9385.49
871.469	9461.64
871.789	9448.99
872.109	9421.42
872.428	9415.32
872.748	9383.91
873.067	9391.36
873.386	9377.13
873.706	9303
874.025	9221.88
874.344	9228.88
874.663	9233.18
874.982	9302.55
875.301	9239.05
875.62	9203.35
875.939	9181.2
876.258	9131.94
876.577	9151.82
876.896	9160.86
877.214	9128.77
877.533	9130.58
877.852	9081.54
878.17	9126.96
878.489	9138.94
878.807	9056.46
879.125	9135.1
879.444	9043.35
879.762	8994.31
880.08	9089.45
880.398	8962
880.716	8971.26
881.034	8978.49
881.352	8933.3
881.67	8863.47
881.988	8888.78
882.306	8873.86
882.624	8861.89
882.941	8803.36
883.259	8802.68
883.577	8809.91
883.894	8775.56
884.212	8803.58
884.529	8779.18
884.846	8707.54
885.164	8649.91
885.481	8709.35
885.798	8703.02
886.115	8591.16
886.432	8637.94
886.75	8615.34
887.067	8628.67
887.383	8573.98
887.7	8560.42
888.017	8468.9
888.334	8437.26
888.651	8425.96
888.967	8420.99
889.284	8387.1
889.6	8308
889.917	8303.71
890.233	8398.85
890.55	8301.45
890.866	8364.95
891.182	8239.53
891.498	8266.2
891.815	8279.98
892.131	8192.98
892.447	8127.22
892.763	8071.4
893.079	8146.88
893.395	8081.34
893.71	8146.88
894.026	8089.93
894.342	8072.53
894.657	7957.73
894.973	7974.45
895.289	7965.41
895.604	7914.79
895.92	7896.04
896.235	7842.25
896.55	7844.06
896.865	7881.35
897.181	7816.94
897.496	7774.23
897.811	7793.21
898.126	7709.6
898.441	7741.46
898.756	7687.68
899.071	7645.19
899.386	7698.3
899.7	7532.43
900.015	7527.68
900.33	7492.2
900.644	7517.74
900.959	7455.37
901.273	7423.96
901.588	7371.53
901.902	7417.18
902.216	7389.83
902.531	7404.75
902.845	7344.86
903.159	7288.37
903.473	7248.14
903.787	7291.08
904.101	7185.09
904.415	7221.02
904.729	7165.66
905.042	7099.9
905.356	7086.34
905.67	7049.73
905.984	7057.41
906.297	7029.39
906.611	6965.66
906.924	6951.43
907.237	6962.73
907.551	6930.41
907.864	6858.77
908.177	6821.71
908.491	6836.85
908.804	6791.21
909.117	6797.99
909.43	6681.38
909.743	6700.59
910.056	6620.81
910.368	6661.04
910.681	6679.34
910.994	6593.7
911.307	6570.87
911.619	6594.6
911.932	6517.77
912.244	6463.3
912.557	6522.74
912.869	6449.29
913.181	6444.77
913.494	6436.64
913.806	6362.74
914.118	6326.59
914.43	6270.77
914.742	6295.17
915.054	6266.25
915.366	6271.22
915.678	6207.72
915.99	6200.03
916.302	6160.49
916.613	6127.27
916.925	6114.39
917.236	6101.73
917.548	6120.26
917.859	6076.87
918.171	6004.79
918.482	5967.27
918.794	5941.74
919.105	5916.43
919.416	5869.42
919.727	5866.94
920.038	5906.03
920.349	5821.29
920.66	5822.19
920.971	5861.96
921.282	5777.22
921.593	5739.93
921.903	5686.15
922.214	5646.15
922.525	5654.96
922.835	5617.9
923.146	5665.13
923.456	5615.42
923.767	5606.15
924.077	5568.41
924.387	5482.77
924.697	5551.69
925.008	5483.67
925.318	5440.73
925.628	5432.82
925.938	5417.68
926.248	5410
926.558	5359.83
926.867	5290.91
927.177	5332.26
927.487	5289.1
927.796	5286.61
928.106	5310.11
928.416	5255.2
928.725	5238.93
929.034	5184.24
929.344	5148.99
929.653	5148.08
929.962	5083.45
930.271	5088.2
930.581	5093.4
930.89	5030.12
931.199	5006.85
931.508	4982.44
931.817	4986.51
932.125	4984.47
932.434	4984.02
932.743	4928.43
933.051	4934.76
933.36	4820.64
933.669	4855.44
933.977	4839.84
934.286	4798.94
934.594	4832.84
934.902	4811.37
935.21	4761.2
935.519	4727.53
935.827	4708.55
936.135	4702.45
936.443	4633.3
936.751	4670.36
937.059	4626.29
937.367	4645.05
937.674	4610.25
937.982	4565.05
938.29	4598.27
938.597	4567.54
938.905	4504.71
939.213	4506.52
939.52	4495.67
939.827	4492.28
940.135	4478.5
940.442	4406.64
940.749	4382
941.056	4442.57
941.363	4393.3
941.67	4318.28
941.977	4348.33
942.284	4328.67
942.591	4282.35
942.898	4247.77
943.205	4265.17
943.511	4269.24
943.818	4219.07
944.125	4218.84
944.431	4189.92
944.738	4231.27
945.044	4160.77
945.35	4135
945.657	4099.3
945.963	4114.89
946.269	4038.06
946.575	4045.06
946.881	4023.14
947.187	4048.9
947.493	3961.68
947.799	4015.69
948.105	3963.71
948.41	3943.6
948.716	3949.25
949.022	3901.11
949.327	3916.25
949.633	3864.28
949.938	3838.06
950.244	3850.94
950.549	3841.23
950.854	3775.24
951.16	3780.21
951.465	3766.88
951.77	3744.96
952.075	3754
952.38	3749.7
952.685	3780.21
952.99	3697.5
953.294	3716.71
953.599	3694.56
953.904	3647.56
954.209	3650.5
954.513	3652.31
954.818	3585.87
955.122	3590.61
955.426	3537.73
955.731	3518.07
956.035	3547.45
956.339	3550.84
956.643	3497.28
956.948	3532.99
957.252	3478.98
957.556	3430.16
957.86	3445.76
958.163	3422.71
958.467	3422.03
958.771	3438.3
959.075	3408.47
959.378	3348.81
959.682	3349.71
959.985	3351.07
960.289	3354.46
960.592	3310.17
960.896	3322.37
961.199	3307
961.502	3297.96
961.805	3288.02
962.108	3253.67
962.411	3257.97
962.714	3188.14
963.017	3228.59
963.32	3200.57
963.623	3192.43
963.926	3154.92
964.228	3158.76
964.531	3160.34
964.833	3167.8
965.136	3086.67
965.438	3101.36
965.741	3098.65
966.043	3076.28
966.345	3079.89
966.648	3043.28
966.95	3038.99
967.252	2982.49
967.554	3055.71
967.856	3027.01
968.158	2945.21
968.46	2993.57
968.761	2961.93
969.063	2931.87
969.365	2956.96
969.666	2925.54
969.968	2889.61
970.269	2886.22
970.571	2848.03
970.872	2873.57
971.174	2834.47
971.475	2836.06
971.776	2830.63
972.077	2830.18
972.378	2824.98
972.679	2798.77
972.98	2788.6
973.281	2808.49
973.582	2769.16
973.883	2762.84
974.183	2744.76
974.484	2715.83
974.785	2681.03
975.085	2671.09
975.386	2696.62
975.686	2677.87
975.986	2653.69
976.287	2667.02
976.587	2631.31
976.887	2648.04
977.187	2634.93
977.487	2606
977.787	2606.91
978.087	2595.61
978.387	2578.66
978.687	2565.33
978.987	2573.01
979.286	2563.52
979.586	2567.36
979.885	2512.9
980.185	2516.06
980.484	2482.84
980.784	2463.41
981.083	2459.34
981.382	2464.77
981.682	2432.22
981.981	2437.87
982.28	2426.8
982.579	2394.94
982.878	2393.13
983.177	2394.26
983.475	2375.05
983.774	2401.94
984.073	2332.79
984.372	2333.7
984.67	2336.86
984.969	2333.47
985.267	2349.51
985.566	2322.4
985.864	2318.55
986.162	2283.3
986.461	2278.56
986.759	2302.06
987.057	2246.92
987.355	2259.35
987.653	2220.03
987.951	2244.21
988.249	2219.8
988.547	2190.2
988.844	2207.6
989.142	2191.1
989.44	2161.5
989.737	2137.99
990.035	2143.87
990.332	2136.86
990.63	2138.9
990.927	2088.05
991.224	2110.88
991.521	2106.13
991.819	2078.79
992.116	2085.11
992.413	2087.37
992.71	2084.44
993.006	2049.41
993.303	2039.69
993.6	2064.1
993.897	2049.64
994.193	2026.13
994.49	2007.38
994.787	1987.26
995.083	2007.38
995.379	1959.47
995.676	1956.98
995.972	1975.96
996.268	1964.89
996.565	1933.93
996.861	1932.58
997.157	1967.15
997.453	1898.68
997.749	1888.28
998.044	1873.37
998.34	1877.44
998.636	1870.88
998.932	1891.45
999.227	1842.64
999.523	1842.41
999.818	1822.3
1000.114	1832.47
1000.409	1821.39
1000.704	1807.16
1001	1785.24
1001.295	1809.42
1001.59	1780.72
1001.885	1796.31
1002.18	1779.59
1002.475	1784.78
1002.77	1772.35
1003.065	1733.03
1003.359	1760.15
1003.654	1739.81
1003.949	1703.2
1004.243	1714.5
1004.538	1688.06
1004.832	1657.56
1005.127	1678.12
1005.421	1688.29
1005.715	1653.49
1006.009	1674.73
1006.304	1629.99
1006.598	1626.14
1006.892	1639.25
1007.186	1639.25
1007.48	1612.13
1007.773	1594.05
1008.067	1622.98
1008.361	1611.68
1008.655	1569.42
1008.948	1567.61
1009.242	1557.67
1009.535	1526.94
1009.829	1548.86
1010.122	1566.71
1010.415	1509.76
1010.708	1512.47
1011.001	1483.77
1011.295	1513.38
1011.588	1468.86
1011.881	1485.58
1012.173	1471.35
1012.466	1444
1012.759	1466.37
1013.052	1467.5
1013.344	1412.36
1013.637	1436.32
1013.93	1428.86
1014.222	1399.03
1014.514	1425.25
1014.807	1400.39
1015.099	1387.51
1015.391	1390.67
1015.683	1378.92
1015.976	1393.16
1016.268	1395.64
1016.56	1332.59
1016.851	1341.63
1017.143	1342.76
1017.435	1318.36
1017.727	1335.76
1018.018	1318.81
1018.31	1319.03
1018.602	1306.83
1018.893	1300.95
1019.185	1273.61
1019.476	1274.51
1019.767	1284.23
1020.058	1251.46
1020.35	1229.32
1020.641	1224.35
1020.932	1244.68
1021.223	1223.22
1021.514	1222.99
1021.804	1213.5
1022.095	1183.67
1022.386	1199.49
1022.677	1170.34
1022.967	1190.9
1023.258	1160.39
1023.548	1146.38
1023.839	1154.29
1024.129	1148.19
1024.419	1112.48
1024.709	1135.76
1025	1123.33
1025.29	1119.04
1025.58	1114.97
1025.87	1079.27
1026.16	1113.84
1026.449	1112.94
1026.739	1113.84
1027.029	1073.39
1027.319	1054.63
1027.608	1050.34
1027.898	1049.21
1028.187	1058.25
1028.477	1058.47
1028.766	1022.09
1029.055	1004.24
1029.344	1026.16
1029.634	1013.28
1029.923	1016.22
1030.212	999.49
1030.501	975.99
1030.79	977.8
1031.078	991.81
1031.367	984.13
1031.656	971.25
1031.945	971.92
1032.233	975.77
1032.522	929.66
1032.81	949.1
1033.099	935.54
1033.387	920.17
1033.675	921.76
1033.963	935.99
1034.251	908.42
1034.54	908.65
1034.828	898.71
1035.116	934.86
1035.403	894.86
1035.691	908.42
1035.979	886.28
1036.267	880.85
1036.554	891.47
1036.842	904.81
1037.129	851.25
1037.417	865.26
1037.704	883.79
1037.992	833.4
1038.279	868.42
1038.566	818.93
1038.853	818.93
1039.14	818.93
