Data from white_poster_card_FLMS001491_00043.txt Node
Date: Wed Feb 08 11:51:34 GMT 2017
User: dcchb
Spectrometer: FLMS00149
Trigger mode: 0
Integration Time (sec): 2.000000E-2
Scans to average: 10
Electric dark correction enabled: true
Nonlinearity correction enabled: false
Boxcar width: 0
XAxis mode: Wavelengths
Number of Pixels in Spectrum: 2048
>>>>>Begin Spectral Data<<<<<
341.393	6.03
341.776	6.03
342.16	6.03
342.543	-70.13
342.927	-77.36
343.31	-74.64
343.693	-68.09
344.077	-71.71
344.46	-51.37
344.843	-62.89
345.226	-50.24
345.61	-41.2
345.993	-9.11
346.376	-26.96
346.759	37.44
347.142	36.31
347.525	31.34
347.908	51.45
348.291	89.87
348.674	100.72
349.057	109.08
349.44	120.83
349.823	140.49
350.206	164.22
350.588	182.3
350.971	201.73
351.354	215.52
351.737	242.18
352.119	268.17
352.502	265.91
352.884	279.92
353.267	283.54
353.65	279.02
354.032	293.03
354.414	309.53
354.797	311.11
355.179	331.22
355.562	316.98
355.944	333.03
356.326	332.58
356.709	340.49
357.091	331.9
357.473	333.71
357.855	340.03
358.238	346.59
358.62	350.2
359.002	343.88
359.384	339.13
359.766	340.49
360.148	340.94
360.53	331.67
360.912	337.32
361.294	338.68
361.676	354.27
362.057	329.86
362.439	334.38
362.821	309.3
363.203	308.62
363.584	330.09
363.966	315.18
364.348	327.38
364.729	329.86
365.111	302.29
365.493	333.71
365.874	326.02
366.256	319.92
366.637	309.75
367.019	325.57
367.4	300.71
367.781	330.54
368.163	326.02
368.544	309.75
368.925	322.86
369.306	330.77
369.688	324.89
370.069	326.25
370.45	303.42
370.831	318.79
371.212	308.4
371.593	315.4
371.974	298.45
372.355	304.1
372.736	312.46
373.117	332.8
373.498	303.42
373.879	331.67
374.26	311.11
374.641	333.03
375.021	303.2
375.402	305.91
375.783	335.06
376.163	338.45
376.544	339.81
376.925	332.58
377.305	325.8
377.686	321.05
378.066	329.19
378.447	331.9
378.827	324.67
379.208	326.02
379.588	326.93
379.968	329.64
380.349	353.82
380.729	345.91
381.109	363.99
381.489	334.38
381.87	355.4
382.25	355.85
382.63	359.69
383.01	349.98
383.39	358.79
383.77	343.2
384.15	355.4
384.53	344.78
384.91	365.12
385.29	352.69
385.67	358.34
386.049	368.51
386.429	340.49
386.809	359.92
387.189	368.73
387.568	394.5
387.948	386.36
388.328	373.25
388.707	365.34
389.087	371.9
389.466	371.9
389.846	385.91
390.225	380.48
390.605	389.07
390.984	399.47
391.363	391.33
391.743	398.79
392.122	390.65
392.501	403.53
392.881	397.21
393.26	382.97
393.639	404.44
394.018	413.03
394.397	431.33
394.776	416.19
395.155	411.9
395.534	408.73
395.913	417.77
396.292	428.17
396.671	418.9
397.05	417.77
397.429	440.6
397.808	419.81
398.186	434.49
398.565	431.1
398.944	422.52
399.323	439.24
399.701	432.91
400.08	451.67
400.458	451.22
400.837	451.89
401.215	446.25
401.594	453.25
401.972	481.27
402.351	456.87
402.729	463.65
403.107	482.18
403.486	467.49
403.864	473.59
404.242	481.05
404.62	484.44
404.999	486.02
405.377	492.57
405.755	493.25
406.133	498.45
406.511	502.06
406.889	505.23
407.267	510.65
407.645	514.94
408.023	540.03
408.401	541.16
408.779	553.36
409.156	564.43
409.534	559.91
409.912	588.16
410.29	581.61
410.667	599.01
411.045	605.11
411.422	597.43
411.8	638.33
412.178	645.79
412.555	655.05
412.933	667.26
413.31	676.75
413.687	683.53
414.065	696.18
414.442	705.22
414.819	734.37
415.197	741.38
415.574	777.31
415.951	789.74
416.328	783.19
416.705	772.11
417.082	814.37
417.46	822.05
417.837	838.55
418.214	873.13
418.591	879.91
418.967	873.8
419.344	894.14
419.721	929.62
420.098	910.19
420.475	941.37
420.852	936.63
421.228	968.04
421.605	972.79
421.982	980.69
422.358	1009.62
422.735	991.09
423.111	1032.44
423.488	1053.91
423.864	1047.36
424.241	1088.49
424.617	1093.91
424.994	1105.21
425.37	1093.91
425.746	1123.52
426.123	1142.5
426.499	1158.32
426.875	1184.08
427.251	1186.79
427.627	1215.04
428.003	1270.86
428.379	1241.7
428.756	1278.77
429.132	1293.68
429.507	1294.36
429.883	1316.73
430.259	1361.48
430.635	1333.23
431.011	1356.05
431.387	1396.73
431.763	1438.54
432.138	1461.81
432.514	1451.19
432.89	1456.39
433.265	1508.59
433.641	1521.25
434.016	1534.58
434.392	1560.79
434.767	1593.33
435.143	1580
435.518	1617.51
435.894	1616.84
436.269	1680.34
436.644	1667
437.02	1694.8
437.395	1703.61
437.77	1721.69
438.145	1764.85
438.52	1754.01
438.895	1798.3
439.271	1773.89
439.646	1834.01
440.021	1830.84
440.395	1830.39
440.77	1837.85
441.145	1867.22
441.52	1893.44
441.895	1881.46
442.27	1896.38
442.645	1927.79
443.019	1920.1
443.394	1977.5
443.769	1939.99
444.143	1953.32
444.518	2009.37
444.892	1982.02
445.267	1986.54
445.641	2014.11
446.016	2033.32
446.39	2051.85
446.764	2076.03
447.139	2087.33
447.513	2089.82
447.887	2069.93
448.262	2101.12
448.636	2111.51
449.01	2153.32
449.384	2157.84
449.758	2193.09
450.132	2169.59
450.506	2203.49
450.88	2251.62
451.254	2228.35
451.628	2248.23
452.002	2265.18
452.376	2286.2
452.75	2318.74
453.123	2339.75
453.497	2352.64
453.871	2358.51
454.244	2402.8
454.618	2431.73
454.992	2483.03
455.365	2473.31
455.739	2524.16
456.112	2569.58
456.486	2596.25
456.859	2596.47
457.232	2645.51
457.606	2632.4
457.979	2669.46
458.352	2730.25
458.725	2789.46
459.099	2796.01
459.472	2838.27
459.845	2878.05
460.218	2886.63
460.591	2926.41
460.964	2899.74
461.337	3004.6
461.71	3019.06
462.083	3104.93
462.456	3036.91
462.829	3083.69
463.201	3095.22
463.574	3174.99
463.947	3203.69
464.32	3308.54
464.692	3310.12
465.065	3298.37
465.438	3343.12
465.81	3363
466.183	3433.74
466.555	3524.13
466.928	3537.69
467.3	3530.23
467.672	3564.13
468.045	3646.84
468.417	3697.23
468.789	3679.38
469.161	3773.39
469.534	3800.96
469.906	3880.96
470.278	3899.04
470.65	3946.27
471.022	4038.69
471.394	4096.32
471.766	4115.3
472.138	4154.17
472.51	4264.68
472.882	4304
473.253	4331.34
473.625	4415.86
473.997	4508.74
474.369	4534.27
474.74	4549.19
475.112	4665.34
475.484	4675.29
475.855	4814.04
476.227	4860.14
476.598	4952.79
476.97	4998.67
477.341	5108.04
477.713	5185.1
478.084	5176.74
478.455	5357.98
478.827	5351.43
479.198	5573.57
479.569	5593.68
479.94	5676.16
480.311	5728.37
480.682	5902.83
481.053	5997.29
481.424	6101.01
481.795	6169.03
482.166	6266.43
482.537	6309.82
482.908	6479.76
483.279	6467.78
483.65	6655.57
484.021	6716.59
484.391	6862.57
484.762	6885.62
485.133	6936.92
485.503	7102.79
485.874	7230.47
486.244	7296.01
486.615	7416.68
486.985	7394.09
487.356	7636.34
487.726	7663.23
488.097	7880.17
488.467	7899.16
488.837	8038.59
489.207	8142.31
489.578	8248.53
489.948	8362.2
490.318	8427.05
490.688	8462.53
491.058	8586.6
491.428	8755.18
491.798	8802.86
492.168	8957.89
492.538	9060.26
492.908	9098.9
493.278	9195.39
493.648	9303.87
494.017	9404.88
494.387	9472.9
494.757	9593.12
495.126	9692.33
495.496	9726.23
495.866	9820.91
496.235	9970.06
496.605	10018.87
496.974	10090.74
497.344	10164.63
497.713	10229.72
498.082	10373.89
498.452	10494.12
498.821	10500.67
499.19	10568.47
499.559	10589.93
499.928	10719.2
500.298	10779.08
500.667	10873.32
501.036	10862.02
501.405	10991.5
501.774	11079.86
502.143	11095.68
502.512	11194.66
502.88	11306.75
503.249	11330.25
503.618	11418.61
503.987	11424.26
504.356	11505.39
504.724	11651.37
505.093	11709
505.462	11805.49
505.83	11926.17
506.199	11973.63
506.567	12082.78
506.936	12114.19
507.304	12327.51
507.672	12375.2
508.041	12499.71
508.409	12458.36
508.777	12574.06
509.145	12726.83
509.514	12682.08
509.882	12861.51
510.25	12872.36
510.618	13022.19
510.986	13078.91
511.354	13106.48
511.722	13214.27
512.09	13458.56
512.458	13421.72
512.826	13592.79
513.193	13638.89
513.561	13634.83
513.929	13750.53
514.297	13873.69
514.664	14039.56
515.032	14098.09
515.4	14219.22
515.767	14246.79
516.135	14361.59
516.502	14318.42
516.869	14624.18
517.237	14676.38
517.604	14735.81
517.972	14873.66
518.339	15008.8
518.706	14980.55
519.073	15079.76
519.44	15189.13
519.808	15397.49
520.175	15360.43
520.542	15615.56
520.909	15700.53
521.276	15712.96
521.643	15809.91
522.009	15989.57
522.376	16170.13
522.743	16213.51
523.11	16502.55
523.477	16592.26
523.843	16721.07
524.21	16852.37
524.577	16974.62
524.943	17052.14
525.31	17215.52
525.676	17428.4
526.043	17558.79
526.409	17583.87
526.776	17699.58
527.142	17761.72
527.508	17913.58
527.874	18109.06
528.241	18196.97
528.607	18150.64
528.973	18409.61
529.339	18388.6
529.705	18684.64
530.071	18774.35
530.437	18890.05
530.803	18964.4
531.169	19083.27
531.535	19126.21
531.901	19277.16
532.267	19294.79
532.632	19405.07
532.998	19524.61
533.364	19566.65
533.73	19735.46
534.095	19895.45
534.461	19927.54
534.826	20092.06
535.192	20137.7
535.557	20225.16
535.923	20318.49
536.288	20362.78
536.653	20556
537.019	20538.6
537.384	20561.2
537.749	20663.57
538.114	20728.88
538.479	20863.34
538.845	20905.59
539.21	20894.52
539.575	21057.23
539.94	21149.2
540.305	21222.87
540.67	21226.04
541.034	21312.59
541.399	21384.9
541.764	21447.95
542.129	21576.99
542.494	21680.04
542.858	21792.8
543.223	21778.79
543.587	22023.53
543.952	21865.12
544.316	22131.78
544.681	22014.27
545.045	22156.63
545.41	22270.98
545.774	22380.36
546.138	22405.67
546.503	22497.64
546.867	22536.51
547.231	22695.15
547.595	22706.23
547.959	22784.42
548.324	22871.42
548.688	22947.8
549.052	22992.55
549.416	23104.63
549.779	23130.62
550.143	23214.23
550.507	23442.02
550.871	23465.53
551.235	23439.09
551.599	23756.14
551.962	23775.58
552.326	23855.12
552.689	23891.96
553.053	23824.84
553.417	23955.91
553.78	24284.49
554.143	24185.51
554.507	24486.29
554.87	24461.43
555.234	24658.04
555.597	24596.12
555.96	24747.53
556.323	24912.27
556.686	24913.4
557.05	24926.05
557.413	25172.15
557.776	25106.84
558.139	25405.59
558.502	25332.82
558.865	25473.61
559.228	25686.26
559.59	25705.47
559.953	25847.39
560.316	26068.17
560.679	26142.74
561.041	26197.21
561.404	26414.6
561.767	26633.58
562.129	26588.61
562.492	26835.61
562.854	26803.97
563.217	26870.41
563.579	26854.36
563.941	27113.34
564.304	27246.9
564.666	27421.13
565.028	27348.81
565.39	27550.84
565.753	27712.2
566.115	27844.62
566.477	28031.06
566.839	27974.56
567.201	28196.7
567.563	28160.77
567.925	28406.87
568.287	28334.55
568.648	28618.16
569.01	28838.49
569.372	28833.75
569.734	28752.17
570.095	29019.28
570.457	29066.96
570.819	29066.74
571.18	29270.8
571.542	29387.86
571.903	29436.22
572.265	29669.21
572.626	29509.66
572.987	29784.46
573.349	29861.07
573.71	29822.42
574.071	29910.1
574.432	30038.24
574.794	30216.76
575.155	30180.83
575.516	30089.08
575.877	30284.1
576.238	30411.33
576.599	30487.72
576.96	30523.42
577.32	30535.4
577.681	30659.69
578.042	30729.52
578.403	30783.75
578.763	30716.86
579.124	30851.32
579.485	30957.31
579.845	31049.28
580.206	30905.11
580.566	31089.96
580.927	30958.44
581.287	31120.69
581.648	30966.8
582.008	31165.21
582.368	30997.08
582.728	31232.78
583.089	31203.63
583.449	31276.17
583.809	31284.98
584.169	31237.53
584.529	31259.22
584.889	31498.08
585.249	31307.81
585.609	31167.25
585.969	31529.04
586.329	31388.71
586.688	31306.9
587.048	31376.96
587.408	31349.61
587.768	31353.91
588.127	31358.2
588.487	31403.62
588.846	31549.83
589.206	31364.98
589.565	31393.68
589.925	31560.46
590.284	31403.62
590.643	31394.13
591.003	31536.28
591.362	31616.95
591.721	31510.74
592.08	31606.33
592.44	31583.51
592.799	31596.61
593.158	31578.08
593.517	31525.2
593.876	31623.28
594.235	31541.7
594.593	31561.13
594.952	31655.37
595.311	31583.05
595.67	31582.38
596.029	31785.08
596.387	31815.36
596.746	31846.1
597.104	31792.09
597.463	31718.42
597.822	31837.96
598.18	31679.32
598.538	31658.31
598.897	31965.42
599.255	31631.64
599.613	32016.26
599.972	31823.73
600.33	31902.37
600.688	31795.7
601.046	32025.98
601.404	32140.55
601.762	32072.76
602.12	32328.8
602.478	32276.82
602.836	32124.73
603.194	32041.35
603.552	32236.37
603.91	32108.92
604.268	32328.57
604.625	32181.91
604.983	32309.36
605.341	32099.65
605.698	32265.75
606.056	32402.92
606.413	32363.37
606.771	32361.11
607.128	32551.16
607.485	32381.9
607.843	32367.21
608.2	32606.08
608.557	32616.02
608.914	32626.64
609.272	32668.9
609.629	32912.51
609.986	32906.63
610.343	32699.41
610.7	32888.56
611.057	32950.02
611.414	32941.66
611.771	32822.57
612.127	33077.25
612.484	32984.6
612.841	33103.47
613.198	32976.46
613.554	33061.88
613.911	33249.22
614.267	33195.67
614.624	33228.43
614.98	33232.5
615.337	33533.96
615.693	33307.75
616.05	33288.32
616.406	33527.64
616.762	33359.5
617.118	33417.81
617.475	33346.85
617.831	33479.95
618.187	33438.82
618.543	33473.85
618.899	33610.35
619.255	33529.44
619.611	33643.34
619.967	33635.43
620.323	33742.32
620.678	33663
621.034	33463
621.39	33587.75
621.746	33484.02
622.101	33894.18
622.457	33693.28
622.812	33778.93
623.168	33748.42
623.523	33814.41
623.879	33924.24
624.234	33559.72
624.589	33762.88
624.945	33734.41
625.3	33811.02
625.655	33642.66
626.01	33709.1
626.365	33659.61
626.72	33743.45
627.075	33663.45
627.43	33641.08
627.785	33506.17
628.14	33642.89
628.495	33578.03
628.85	33629.1
629.205	33557.01
629.559	33731.92
629.914	33589.1
630.269	33506.17
630.623	33404.47
630.978	33449.67
631.332	33530.35
631.687	33461.87
632.041	33407.64
632.396	33390.69
632.75	33309.34
633.104	33311.14
633.459	33190.92
633.813	33198.15
634.167	33209
634.521	33091.49
634.875	33156.12
635.229	33116.8
635.583	32945.5
635.937	33029.8
636.291	32925.39
636.645	33042.68
636.999	32958.61
637.352	32891.49
637.706	32661.9
638.06	32845.85
638.413	32629.35
638.767	32499.19
639.121	32570.15
639.474	32417.61
639.828	32553.2
640.181	32549.58
640.534	32493.31
640.888	32421
641.241	32344.39
641.594	32252.19
641.947	32303.71
642.301	32265.75
642.654	32311.4
643.007	32281.11
643.36	32269.82
643.713	32149.37
644.066	32335.58
644.419	32103.04
644.771	31814.01
645.124	31654.24
645.477	31531.08
645.83	31219.22
646.182	31132.67
646.535	31051.32
646.888	31206.79
647.24	30915.95
647.593	30993.24
647.945	31196.17
648.298	30855.39
648.65	30812.45
649.002	30792.34
649.355	30924.54
649.707	30800.25
650.059	31012.45
650.411	31280.91
650.763	31342.38
651.115	31632.09
651.467	31601.58
651.819	31428.48
652.171	31347.35
652.523	31378.54
652.875	31318.2
653.227	31188.04
653.578	31479.78
653.93	31221.26
654.282	31134.25
654.633	30942.62
654.985	31181.71
655.337	31115.27
655.688	31013.58
656.039	31167.47
656.391	30870.53
656.742	31046.12
657.094	30978.1
657.445	31078.43
657.796	30994.82
658.147	30897.42
658.498	30947.14
658.849	30964.09
659.2	30851.32
659.551	30738.78
659.902	30935.16
660.253	30792.57
660.604	30820.81
660.955	30661.95
661.306	30678.9
661.656	30774.94
662.007	30703.75
662.358	30727.93
662.708	30732.91
663.059	30652.68
663.409	30347.61
663.76	30606.36
664.11	30599.12
664.461	30600.71
664.811	30590.31
665.161	30421.73
665.511	30392.58
665.862	30503.31
666.212	30511.44
666.562	30633.7
666.912	30478.22
667.262	30437.55
667.612	30416.3
667.962	30557.32
668.312	30452.24
668.662	30483.42
669.011	30432.35
669.361	30227.16
669.711	30296.76
670.06	30338.79
670.41	30211.56
670.76	30134.28
671.109	30253.37
671.459	30180.38
671.808	30161.62
672.157	30303.31
672.507	30059.03
672.856	29907.17
673.205	30096.54
673.554	30249.76
673.904	29944.23
674.253	30361.39
674.602	30169.31
674.951	29728.19
675.3	29450.45
675.649	29929.54
675.998	29933.38
676.346	30020.61
676.695	29973.6
677.044	29786.26
677.393	29968.41
677.741	29825.59
678.09	29698.36
678.438	29627.85
678.787	29830.11
679.135	29701.75
679.484	29550.11
679.832	29678.47
680.181	29552.82
680.529	29574.29
680.877	29492.71
681.225	29500.17
681.573	29544.01
681.922	29418.36
682.27	29417.01
682.618	29296.33
682.966	29234.64
683.314	29306.96
683.661	29168.88
684.009	29212.49
684.357	28953.52
684.705	28961.2
685.053	28881.66
685.4	28807.53
685.748	28864.93
686.095	28741.55
686.443	28608.89
686.79	28685.95
687.138	28664.03
687.485	28818.38
687.832	28497.49
688.18	28538.16
688.527	28305.17
688.874	28389.92
689.221	28282.58
689.568	28147.21
689.915	28145.63
690.262	28129.36
690.609	28110.15
690.956	27995.35
691.303	27977.05
691.65	27844.17
691.997	27803.94
692.344	27661.8
692.69	27675.59
693.037	27646.21
693.383	27406.21
693.73	27539.54
694.077	27392.43
694.423	27272.88
694.769	27153.79
695.116	27176.84
695.462	26969.62
695.808	27059.78
696.155	27011.87
696.501	26932.55
696.847	26865.89
697.193	26632.22
697.539	26711.32
697.885	26404.21
698.231	26350.42
698.577	26530.08
698.923	26580.02
699.269	26277.43
699.614	26099.81
699.96	26136.87
700.306	26095.97
700.651	25925.58
700.997	25957.89
701.342	25919.25
701.688	25872.92
702.033	25721.74
702.379	25673.15
702.724	25568.52
703.069	25719.93
703.415	25367.85
703.76	25366.49
704.105	25397.23
704.45	25343.44
704.795	25230.9
705.14	25149.32
705.485	25134.86
705.83	25163.79
706.175	24994.98
706.52	24900.52
706.865	24823.01
707.209	24827.75
707.554	24656.23
707.899	24818.94
708.243	24608.32
708.588	24609.9
708.932	24293.08
709.277	24389.12
709.621	24466.86
709.966	24183.47
710.31	24338.5
710.654	24089.69
710.998	24173.08
711.342	24066.19
711.687	24076.13
712.031	24047.21
712.375	23974.89
712.719	23927.66
713.063	23841.79
713.407	23907.32
713.75	23772.19
714.094	23757.72
714.438	23563.6
714.782	23571.74
715.125	23423.27
715.469	23483.61
715.812	23425.08
716.156	23380.33
716.499	23340.56
716.843	23235.02
717.186	23138.53
717.53	23241.13
717.873	23177.17
718.216	23210.84
718.559	23051.98
718.902	22933.79
719.246	22924.07
719.589	22908.48
719.932	22801.59
720.275	22798.2
720.617	22796.39
720.96	22798.65
721.303	22628.03
721.646	22637.53
721.989	22593.01
722.331	22621.03
722.674	22564.31
723.016	22570.18
723.359	22564.53
723.701	22534.03
724.044	22411.32
724.386	22274.82
724.729	22362.73
725.071	22299.46
725.413	22226.69
725.755	22077.99
726.097	22033.02
726.439	22084.09
726.782	22008.16
727.124	22150.53
727.465	22019.01
727.807	22033.47
728.149	21888.17
728.491	21822.86
728.833	21919.13
729.175	21703.54
729.516	21807.72
729.858	21653.37
730.199	21727.27
730.541	21553.03
730.882	21675.29
731.224	21684.33
731.565	21339.26
731.906	21369.31
732.248	21484.11
732.589	21351.91
732.93	21407.95
733.271	21391.91
733.612	21291.8
733.953	21407.5
734.294	21234.4
734.635	21195.76
734.976	21183.1
735.317	21098.13
735.658	21207.28
735.999	21147.85
736.339	21039.83
736.68	21072.6
737.021	21051.81
737.361	20929.55
737.702	21004.8
738.042	20902.66
738.383	20862.43
738.723	20973.84
739.063	20806.61
739.404	20824.24
739.744	20742.89
740.084	20760.06
740.424	20814.98
740.764	20656.11
741.104	20596
741.444	20526.4
741.784	20537.92
742.124	20588.09
742.464	20520.75
742.804	20494.53
743.143	20448.43
743.483	20449.56
743.823	20302.67
744.162	20304.48
744.502	20343.12
744.841	20316.23
745.181	20242.56
745.52	20196.46
745.86	20217.93
746.199	20149.68
746.538	20088.21
746.877	20182.68
747.216	20131.83
747.556	19954.21
747.895	19979.29
748.234	19938.84
748.573	19949.24
748.911	19971.61
749.25	19864.04
749.589	19841.89
749.928	19772.74
750.267	19744.95
750.605	19718.73
750.944	19646.19
751.283	19594.22
751.621	19636.25
751.96	19485.74
752.298	19444.39
752.636	19525.74
752.975	19354.22
753.313	19367.78
753.651	19365.52
753.989	19205.07
754.327	19290.27
754.666	19253.89
755.004	19189.26
755.342	19181.8
755.679	19137.05
756.017	19118.97
756.355	19094.12
756.693	18940.67
757.031	18927.57
757.368	18890.28
757.706	18833.11
758.044	18792.43
758.381	18689.16
758.719	18587.69
759.056	18632.43
759.394	18517.86
759.731	18453.91
760.068	18502.72
760.405	18425.66
760.743	18381.14
761.08	18407.81
761.417	18239
761.754	18162.39
762.091	18128.27
762.428	18072.22
762.765	18038.78
763.102	18043.07
763.438	17944.54
763.775	17808.73
764.112	17870.42
764.449	17846.01
764.785	17718.79
765.122	17488.28
765.458	17583.2
765.795	17542.52
766.131	17491.9
766.467	17457.55
766.804	17362.18
767.14	17235.63
767.476	17269.53
767.812	17193.6
768.148	17171.46
768.485	17098.24
768.821	17017.79
769.157	16987.05
769.492	16967.84
769.828	16876.32
770.164	16688.08
770.5	16764.01
770.836	16710.68
771.171	16556.33
771.507	16572.15
771.842	16403.57
772.178	16459.16
772.513	16459.38
772.849	16368.99
773.184	16343
773.519	16239.5
773.855	16093.07
774.19	16110.24
774.525	16040.19
774.86	16037.02
775.195	16004.48
775.53	15958.83
775.865	15845.84
776.2	15743.24
776.535	15655.11
776.87	15635.9
777.205	15600.42
777.539	15512.06
777.874	15610.37
778.209	15402.24
778.543	15345.74
778.878	15329.47
779.212	15291.5
779.547	15229.36
779.881	15228.68
780.215	15070.95
780.55	15083.83
780.884	14990.95
781.218	14896.03
781.552	14904.85
781.886	14894
782.22	14736.27
782.554	14717.73
782.888	14617.4
783.222	14521.13
783.556	14588.47
783.889	14423.96
784.223	14407.91
784.557	14434.8
784.89	14369.04
785.224	14303.06
785.557	14188.26
785.891	14166.79
786.224	14119.56
786.558	14198.43
786.891	13967.25
787.224	13921.37
787.557	14021.71
787.891	13931.31
788.224	13835.5
788.557	13770.87
788.89	13767.25
789.223	13853.8
789.556	13730.42
789.888	13623.98
790.221	13557.09
790.554	13406.13
790.887	13520.48
791.219	13422.4
791.552	13423.53
791.884	13243.42
792.217	13248.17
792.549	13243.87
792.882	13149.64
793.214	13078.23
793.546	13115.06
793.879	13016.76
794.211	12949.87
794.543	12985.58
794.875	12898.57
795.207	12939.02
795.539	12861.96
795.871	12780.61
796.203	12721.4
796.535	12709.88
796.867	12718.92
797.198	12557.34
797.53	12638.47
797.862	12574.29
798.193	12534.29
798.525	12574.51
798.856	12498.81
799.188	12374.29
799.519	12318.93
799.85	12258.82
800.182	12266.95
800.513	12146.5
800.844	12151.02
801.175	12251.36
801.506	12169.1
801.837	12097.01
802.168	12050.91
802.499	12015.88
802.83	11913.97
803.161	11888.88
803.491	11972.27
803.822	11920.75
804.153	11811.37
804.483	11723.01
804.814	11791.26
805.145	11682.79
805.475	11656.12
805.805	11594.43
806.136	11572.96
806.466	11646.18
806.796	11659.96
807.126	11556.69
807.457	11491.83
807.787	11484.15
808.117	11415.45
808.447	11443.02
808.777	11458.61
809.107	11373.87
809.436	11259.07
809.766	11313.53
810.096	11235.79
810.426	11136.59
810.755	11259.52
811.085	11190.14
811.414	11158.73
811.744	11085.51
812.073	11074.67
812.403	11097.26
812.732	10951.05
813.061	11023.59
813.39	10983.14
813.719	10872.86
814.049	10957.83
814.378	10851.17
814.707	10812.98
815.036	10789.7
815.365	10711.74
815.693	10705.18
816.022	10690.95
816.351	10628.35
816.68	10545.64
817.008	10591.74
817.337	10472.65
817.665	10566.43
817.994	10535.47
818.322	10519.88
818.651	10403.27
818.979	10476.49
819.307	10473.55
819.636	10445.3
819.964	10375.02
820.292	10408.7
820.62	10371.86
820.948	10351.75
821.276	10357.4
821.604	10282.6
821.932	10377.74
822.259	10403.27
822.587	10348.81
822.915	10274.24
823.243	10324.4
823.57	10298.64
823.898	10330.05
824.225	10223.16
824.553	10321.69
824.88	10291.64
825.207	10327.12
825.535	10242.6
825.862	10382.03
826.189	10267.46
826.516	10305.87
826.843	10269.04
827.17	10328.47
827.497	10325.76
827.824	10323.95
828.151	10352.88
828.478	10331.18
828.805	10362.82
829.131	10202.37
829.458	10262.03
829.785	10226.33
830.111	10249.15
830.438	10323.05
830.764	10229.26
831.09	10222.26
831.417	10240.11
831.743	10237.4
832.069	10251.86
832.395	10181.81
832.722	10216.61
833.048	10166.89
833.374	10225.65
833.7	10193.56
834.026	10180
834.351	10094.58
834.677	10094.13
835.003	10194.24
835.329	10155.14
835.654	10117.63
835.98	10102.71
836.306	10086.9
836.631	10052.55
836.956	10107.69
837.282	10092.55
837.607	10005.99
837.932	10008.03
838.258	9968.71
838.583	9985.88
838.908	9963.51
839.233	9952.89
839.558	9946.33
839.883	9911.53
840.208	9917.86
840.533	9906.11
840.858	9927.8
841.182	9853.68
841.507	9847.81
841.832	9783.63
842.156	9761.71
842.481	9792.21
842.805	9702.73
843.13	9706.11
843.454	9642.61
843.778	9631.77
844.103	9620.47
844.427	9622.5
844.751	9619.56
845.075	9525.33
845.399	9518.32
845.723	9513.13
846.047	9519
846.371	9443.3
846.695	9385.67
847.019	9315.84
847.343	9318.33
847.666	9273.36
847.99	9258.89
848.313	9192.46
848.637	9159.46
848.96	9188.84
849.284	9204.43
849.607	9066.36
849.931	9034.27
850.254	8969.19
850.577	8954.27
850.9	8955.63
851.223	8899.36
851.546	8852.35
851.869	8794.73
852.192	8870.88
852.515	8756.54
852.838	8656.2
853.161	8712.47
853.483	8654.17
853.806	8587.27
854.129	8616.88
854.451	8546.37
854.774	8515.19
855.096	8521.74
855.419	8493.04
855.741	8504.11
856.063	8433.15
856.385	8443.32
856.708	8342.76
857.03	8283.55
857.352	8328.07
857.674	8311.12
857.996	8307.51
858.318	8272.03
858.64	8239.03
858.961	8217.11
859.283	8165.14
859.605	8229.32
859.926	8189.77
860.248	8209.66
860.57	8095.76
860.891	8191.58
861.212	8061.86
861.534	8046.5
861.855	8026.61
862.176	8022.54
862.498	7987.97
862.819	8019.83
863.14	8049.44
863.461	7961.3
863.782	7954.52
864.103	7961.3
864.424	7935.09
864.745	7955.88
865.065	7818.48
865.386	7867.29
865.707	7821.87
866.027	7879.95
866.348	7839.95
866.668	7847.63
866.989	7782.1
867.309	7718.82
867.63	7781.19
867.95	7835.66
868.27	7672.5
868.59	7744.36
868.91	7722.21
869.23	7737.58
869.55	7640.63
869.87	7698.26
870.19	7652.84
870.51	7617.81
870.83	7641.99
871.15	7668.43
871.469	7630.01
871.789	7599.73
872.109	7579.84
872.428	7536.45
872.748	7574.65
873.067	7489.45
873.386	7567.87
873.706	7526.06
874.025	7423.24
874.344	7507.53
874.663	7488.55
874.982	7464.37
875.301	7435.44
875.62	7419.62
875.939	7429.79
876.258	7379.62
876.577	7359.96
876.896	7404.48
877.214	7331.49
877.533	7367.65
877.852	7342.34
878.17	7326.52
878.489	7374.2
878.807	7335.56
879.125	7333.07
879.444	7304.6
879.762	7319.28
880.08	7289.68
880.398	7293.52
880.716	7253.75
881.034	7250.13
881.352	7190.02
881.67	7192.51
881.988	7173.98
882.306	7166.97
882.624	7171.49
882.941	7172.4
883.259	7122.23
883.577	7110.7
883.894	7061.89
884.212	7066.18
884.529	7070.48
884.846	7033.64
885.164	7056.47
885.481	6967.2
885.798	7004.94
886.115	6990.71
886.432	6903.7
886.75	6925.4
887.067	6935.79
887.383	6884.49
887.7	6904.15
888.017	6847.88
888.334	6839.52
888.651	6845.17
888.967	6828.9
889.284	6780.32
889.6	6768.79
889.917	6748.9
890.233	6718.85
890.55	6670.26
890.866	6695.57
891.182	6669.58
891.498	6601.79
891.815	6655.8
892.131	6585.74
892.447	6603.37
892.763	6608.8
893.079	6564.05
893.395	6569.93
893.71	6479.31
894.026	6521.57
894.342	6484.5
894.657	6437.73
894.973	6452.87
895.289	6469.59
895.604	6418.07
895.92	6378.52
896.235	6323.38
896.55	6368.58
896.865	6309.37
897.181	6285.87
897.496	6302.14
897.811	6259.2
898.126	6221.69
898.441	6188.92
898.756	6161.12
899.071	6152.76
899.386	6215.59
899.7	6146.66
900.015	6065.76
900.33	6006.1
900.644	6019.88
900.959	6072.54
901.273	6022.82
901.588	5945.99
901.902	5953.67
902.216	5952.77
902.531	5909.15
902.845	5874.35
903.159	5899.66
903.473	5900.57
903.787	5863.73
904.101	5836.61
904.415	5869.61
904.729	5770.63
905.042	5790.06
905.356	5750.96
905.67	5745.32
905.984	5786.67
906.297	5710.97
906.611	5649.95
906.924	5686.33
907.237	5659.22
907.551	5641.14
907.864	5576.73
908.177	5618.76
908.491	5581.93
908.804	5552.33
909.117	5527.02
909.43	5451.76
909.743	5473.91
910.056	5451.31
910.368	5429.39
910.681	5342.84
910.994	5418.77
911.307	5417.41
911.619	5322.73
911.932	5315.04
912.244	5301.26
912.557	5256.74
912.869	5265.55
913.181	5245.22
913.494	5171.32
913.806	5192.56
914.118	5163.41
914.43	5113.69
914.742	5112.34
915.054	5102.39
915.366	5083.19
915.678	5061.04
915.99	5036.63
916.302	5028.95
916.613	5041.83
916.925	5008.39
917.236	4938.33
917.548	4953.02
917.859	4996.41
918.171	4938.78
918.482	4857.88
918.794	4864.66
919.105	4863.53
919.416	4835.96
919.727	4833.02
920.038	4794.38
920.349	4814.27
920.66	4719.13
920.971	4718.45
921.282	4692.91
921.593	4692.01
921.903	4687.26
922.214	4643.2
922.525	4644.1
922.835	4609.3
923.146	4571.56
923.456	4559.58
923.767	4511.68
924.077	4536.53
924.387	4574.05
924.697	4468.29
925.008	4487.5
925.318	4493.6
925.628	4422.19
925.938	4430.77
926.248	4411.79
926.558	4412.02
926.867	4378.12
927.177	4367.72
927.487	4341.96
927.796	4334.28
928.106	4282.08
928.416	4299.48
928.725	4277.78
929.034	4229.87
929.344	4254.28
929.653	4254.96
929.962	4235.07
930.271	4166.15
930.581	4147.62
930.89	4142.87
931.199	4139.03
931.508	4133.15
931.817	4128.86
932.125	4107.39
932.434	4077.11
932.743	4061.52
933.051	4034.17
933.36	4010.9
933.669	3999.6
933.977	3985.14
934.286	3980.39
934.594	3965.02
934.902	3962.99
935.21	3917.57
935.519	3945.14
935.827	3891.58
936.135	3869.66
936.443	3838.7
936.751	3840.96
937.059	3808.19
937.367	3815.2
937.674	3818.59
937.982	3793.28
938.29	3810.9
938.597	3784.69
938.905	3726.84
939.213	3702.88
939.52	3678.93
939.827	3725.93
940.135	3649.78
940.442	3672.6
940.749	3638.03
941.056	3667.86
941.363	3590.12
941.67	3612.94
941.977	3574.52
942.284	3571.36
942.591	3604.81
942.898	3551.93
943.205	3524.58
943.511	3499.95
943.818	3481.42
944.125	3467.41
944.431	3440.52
944.738	3462.89
945.044	3439.61
945.35	3401.42
945.657	3393.74
945.963	3386.51
946.269	3363.46
946.575	3378.82
946.881	3358.26
947.187	3351.25
947.493	3312.16
947.799	3331.82
948.105	3281.88
948.41	3293.63
948.716	3298.6
949.022	3236.68
949.327	3234.65
949.633	3199.39
949.938	3158.49
950.244	3203.91
950.549	3152.39
950.854	3158.94
951.16	3165.72
951.465	3134.76
951.77	3122.79
952.075	3140.86
952.38	3120.75
952.685	3061.77
952.99	3081.88
953.294	3047.53
953.599	3046.85
953.904	3061.09
954.209	3027.42
954.513	3015.22
954.818	3017.93
955.122	2995.56
955.426	2947.42
955.731	2967.99
956.035	2946.52
956.339	2964.6
956.643	2911.04
956.948	2879.4
957.252	2928.21
957.556	2896.58
957.86	2885.5
958.163	2866.29
958.467	2867.2
958.771	2826.97
959.075	2826.97
959.378	2811.61
959.682	2817.26
959.985	2782.68
960.289	2800.76
960.592	2764.15
960.896	2782.46
961.199	2769.57
961.502	2736.81
961.805	2731.83
962.108	2699.97
962.411	2726.86
962.714	2716.92
963.017	2666.07
963.32	2667.88
963.623	2680.31
963.926	2686.64
964.228	2650.71
964.531	2621.1
964.833	2622.23
965.136	2636.24
965.438	2602.12
965.741	2575.68
966.043	2602.35
966.345	2560.09
966.648	2561.67
966.95	2549.47
967.252	2516.7
967.554	2521.22
967.856	2496.59
968.158	2494.1
968.46	2464.5
968.761	2490.71
969.063	2481.67
969.365	2458.17
969.666	2479.41
969.968	2430.37
970.269	2414.33
970.571	2413.2
970.872	2400.32
971.174	2377.27
971.475	2386.99
971.776	2340.66
972.077	2392.18
972.378	2335.24
972.679	2338.85
972.98	2358.74
973.281	2323.94
973.582	2337.5
973.883	2347.44
974.183	2309.7
974.484	2300.43
974.785	2282.81
975.085	2278.06
975.386	2262.47
975.686	2263.6
975.986	2242.13
976.287	2226.76
976.587	2193.54
976.887	2220.44
977.187	2250.04
977.487	2185.86
977.787	2200.1
978.087	2158.52
978.387	2165.75
978.687	2179.76
978.987	2179.99
979.286	2148.57
979.586	2150.83
979.885	2126.43
980.185	2143.6
980.484	2099.76
980.784	2108.12
981.083	2106.09
981.382	2111.06
981.682	2094.34
981.981	2052.76
982.28	2073.32
982.579	2037.62
982.878	2045.53
983.177	2010.72
983.475	2023.83
983.774	1991.06
984.073	2005.75
984.372	2011.63
984.67	2008.69
984.969	1985.64
985.267	1965.53
985.566	1985.64
985.864	1965.98
986.162	1946.09
986.461	1939.54
986.759	1959.65
987.057	1895.02
987.355	1921.91
987.653	1907.68
987.951	1891.41
988.249	1883.04
988.547	1895.02
988.844	1861.8
989.142	1874.91
989.44	1887.79
989.737	1846.43
990.035	1825.64
990.332	1819.32
990.63	1811.41
990.927	1827.68
991.224	1831.75
991.521	1815.25
991.819	1805.08
992.116	1805.53
992.413	1796.27
992.71	1781.13
993.006	1788.36
993.303	1748.58
993.6	1764.4
993.897	1773.44
994.193	1736.83
994.49	1718.75
994.787	1712.43
995.083	1696.16
995.379	1695.48
995.676	1674.91
995.972	1675.37
996.268	1671.3
996.565	1680.34
996.861	1642.6
997.157	1666.1
997.453	1655.71
997.749	1652.54
998.044	1611.41
998.34	1636.95
998.636	1620.23
998.932	1623.39
999.227	1582.71
999.523	1612.54
999.818	1596.05
1000.114	1620.23
1000.409	1571.41
1000.704	1548.82
1001	1556.5
1001.295	1575.93
1001.59	1536.16
1001.885	1542.71
1002.18	1523.05
1002.475	1520.34
1002.77	1513.34
1003.065	1514.01
1003.359	1506.56
1003.654	1479.44
1003.949	1470.85
1004.243	1497.29
1004.538	1473.34
1004.832	1456.39
1005.127	1449.61
1005.421	1439.21
1005.715	1423.62
1006.009	1455.71
1006.304	1408.48
1006.598	1397.86
1006.892	1391.53
1007.186	1424.3
1007.48	1398.31
1007.773	1379.33
1008.067	1393.79
1008.361	1396.73
1008.655	1372.55
1008.948	1386.56
1009.242	1363.96
1009.535	1370.29
1009.829	1311.76
1010.122	1305.21
1010.415	1293.23
1010.708	1313.12
1011.001	1329.84
1011.295	1302.95
1011.588	1283.74
1011.881	1279.67
1012.173	1291.42
1012.466	1265.66
1012.759	1255.94
1013.052	1245.55
1013.344	1264.98
1013.637	1260.46
1013.93	1236.51
1014.222	1253.68
1014.514	1233.57
1014.807	1220.91
1015.099	1205.77
1015.391	1209.84
1015.683	1226.34
1015.976	1173.23
1016.268	1172.55
1016.56	1176.4
1016.851	1174.36
1017.143	1160.12
1017.435	1165.32
1017.727	1149.5
1018.018	1145.66
1018.31	1133.91
1018.602	1130.07
1018.893	1172.78
1019.185	1133.68
1019.476	1129.17
1019.767	1122.39
1020.058	1093.69
1020.35	1083.74
1020.641	1078.77
1020.932	1102.05
1021.223	1090.3
1021.514	1075.61
1021.804	1053.24
1022.095	1081.48
1022.386	1066.57
1022.677	1030.18
1022.967	1050.52
1023.258	1016.63
1023.548	1022.05
1023.839	1022.5
1024.129	1035.83
1024.419	1008.26
1024.709	1016.17
1025	1020.02
1025.29	1000.58
1025.58	991.32
1025.87	966.23
1026.16	970.07
1026.449	959.68
1026.739	958.32
1027.029	961.49
1027.319	978.21
1027.608	962.39
1027.898	949.06
1028.187	935.95
1028.477	928.49
1028.766	925.1
1029.055	935.5
1029.344	907.7
1029.634	895.5
1029.923	897.08
1030.212	919.23
1030.501	896.4
1030.79	890.98
1031.078	882.62
1031.367	870.41
1031.656	877.65
1031.945	878.55
1032.233	864.54
1032.522	848.49
1032.81	848.27
1033.099	847.14
1033.387	855.5
1033.675	838.78
1033.963	814.37
1034.251	834.94
1034.54	810.08
1034.828	808.95
1035.116	813.92
1035.403	820.25
1035.691	799
1035.979	802.39
1036.267	793.13
1036.554	773.92
1036.842	773.24
1037.129	775.73
1037.417	772.34
1037.704	760.81
1037.992	759.91
1038.279	750.64
1038.566	746.58
1038.853	746.58
1039.14	746.58
