Data from whiteboard_FLMS001491_00026.txt Node
Date: Wed Feb 08 11:25:50 GMT 2017
User: dcchb
Spectrometer: FLMS00149
Trigger mode: 0
Integration Time (sec): 2.000000E-2
Scans to average: 10
Electric dark correction enabled: true
Nonlinearity correction enabled: false
Boxcar width: 0
XAxis mode: Wavelengths
Number of Pixels in Spectrum: 2048
>>>>>Begin Spectral Data<<<<<
341.393	2.54
341.776	2.54
342.16	2.54
342.543	-55.99
342.927	-64.57
343.31	-59.83
343.693	-80.85
344.077	-72.48
344.46	-44.69
344.843	-33.61
345.226	-33.39
345.61	-46.95
345.993	-4.24
346.376	-25.93
346.759	-13.95
347.142	22.88
347.525	53.39
347.908	66.5
348.291	75.31
348.674	80.96
349.057	116.89
349.44	124.57
349.823	159.83
350.206	156.44
350.588	220.62
350.971	264
351.354	260.61
351.737	274.63
352.119	299.03
352.502	283.44
352.884	309.65
353.267	331.8
353.65	326.83
354.032	348.3
354.414	321.63
354.797	351.23
355.179	348.3
355.562	374.51
355.944	356.66
356.326	372.25
356.709	367.28
357.091	374.06
357.473	379.71
357.855	380.84
358.238	379.26
358.62	388.29
359.002	404.11
359.384	385.58
359.766	404.57
360.148	382.87
360.53	386.49
360.912	387.39
361.294	380.16
361.676	360.72
362.057	379.03
362.439	384.68
362.821	395.07
363.203	393.04
363.584	391.23
363.966	380.39
364.348	388.97
364.729	402.98
365.111	344.23
365.493	376.09
365.874	375.64
366.256	374.96
366.637	375.64
367.019	366.37
367.4	388.29
367.781	379.93
368.163	398.92
368.544	388.97
368.925	380.84
369.306	381.29
369.688	392.59
370.069	376.32
370.45	367.5
370.831	397.56
371.212	384.45
371.593	381.29
371.974	400.05
372.355	406.37
372.736	403.44
373.117	381.74
373.498	381.74
373.879	400.95
374.26	394.17
374.641	405.24
375.021	394.4
375.402	406.37
375.783	400.05
376.163	430.33
376.544	406.6
376.925	411.35
377.305	421.06
377.686	435.07
378.066	417.9
378.447	411.12
378.827	448.41
379.208	433.72
379.588	443.21
379.968	430.78
380.349	440.27
380.729	451.57
381.109	445.92
381.489	452.47
381.87	448.86
382.25	463.32
382.63	462.87
383.01	469.87
383.39	486.82
383.77	464.9
384.15	466.94
384.53	474.62
384.91	485.02
385.29	480.27
385.67	496.77
386.049	525.01
386.429	519.82
386.809	502.42
387.189	500.38
387.568	520.04
387.948	522.75
388.328	541.74
388.707	529.76
389.087	547.39
389.466	539.7
389.846	545.35
390.225	563.88
390.605	558.69
390.984	569.31
391.363	560.49
391.743	582.41
392.122	571.79
392.501	595.75
392.881	603.66
393.26	610.21
393.639	619.7
394.018	606.37
394.397	629.64
394.776	641.85
395.155	626.03
395.534	653.6
395.913	666.71
396.292	675.52
396.671	689.3
397.05	687.95
397.429	707.38
397.808	685.24
398.186	716.42
398.565	741.28
398.944	734.73
399.323	729.3
399.701	756.19
400.08	763.88
400.458	741.28
400.837	772.24
401.215	784.44
401.594	826.02
401.972	812.46
402.351	859.02
402.729	865.34
403.107	847.72
403.486	843.42
403.864	879.81
404.242	887.49
404.62	907.6
404.999	942.18
405.377	909.19
405.755	965.91
406.133	990.54
406.511	990.54
406.889	1019.92
407.267	1038.67
407.645	1043.19
408.023	1052.91
408.401	1082.97
408.779	1099.69
409.156	1134.94
409.534	1149.4
409.912	1158.9
410.29	1199.8
410.667	1199.8
411.045	1213.81
411.422	1253.58
411.8	1261.04
412.178	1300.14
412.555	1325.45
412.933	1352.56
413.31	1340.81
413.687	1376.97
414.065	1411.32
414.442	1401.83
414.819	1444.31
415.197	1481.15
415.574	1504.2
415.951	1498.77
416.328	1542.39
416.705	1514.37
417.082	1525.67
417.46	1553.91
417.837	1597.53
418.214	1595.72
418.591	1657.41
418.967	1675.49
419.344	1662.84
419.721	1682.95
420.098	1718.88
420.475	1766.56
420.852	1764.3
421.228	1780.35
421.605	1793.23
421.982	1823.96
422.358	1820.8
422.735	1869.16
423.111	1857.41
423.488	1931.31
423.864	1934.92
424.241	1959.78
424.617	1968.37
424.994	2004.98
425.37	2018.99
425.746	2027.57
426.123	2060.79
426.499	2085.2
426.875	2098.76
427.251	2148.7
427.627	2257.62
428.003	2242.26
428.379	2246.55
428.756	2271.18
429.132	2313.44
429.507	2359.99
429.883	2384.4
430.259	2444.96
430.635	2473.66
431.011	2455.81
431.387	2512.31
431.763	2570.84
432.138	2557.73
432.514	2655.35
432.89	2673.66
433.265	2747.33
433.641	2763.15
434.016	2762.7
434.392	2813.09
434.767	2889.92
435.143	2895.35
435.518	2888.57
435.894	2963.14
436.269	2990.26
436.644	3047.66
437.02	3072.29
437.395	3072.52
437.77	3116.13
438.145	3207.66
438.52	3240.42
438.895	3214.44
439.271	3213.76
439.646	3305.51
440.021	3395.9
440.395	3381.66
440.77	3387.54
441.145	3403.81
441.52	3463.02
441.895	3488.33
442.27	3517.03
442.645	3527.2
443.019	3582.79
443.394	3611.71
443.769	3638.6
444.143	3638.6
444.518	3694.2
444.892	3671.6
445.267	3703.46
445.641	3780.97
446.016	3773.06
446.39	3823.23
446.764	3880.63
447.139	3811.03
447.513	3897.81
447.887	3919.28
448.262	3945.26
448.636	3947.07
449.01	3995.43
449.384	4097.58
449.758	4094.19
450.132	4204.47
450.506	4186.61
450.88	4179.16
451.254	4253.73
451.628	4287.85
452.002	4382.31
452.376	4398.58
452.75	4426.15
453.123	4443.56
453.497	4556.77
453.871	4568.75
454.244	4685.13
454.618	4671.35
454.992	4804.9
455.365	4789.76
455.739	4891
456.112	4946.37
456.486	5009.87
456.859	5041.96
457.232	5131.67
457.606	5160.82
457.979	5205.8
458.352	5362.18
458.725	5436.07
459.099	5440.59
459.472	5611.89
459.845	5640.81
460.218	5705.22
460.591	5752.67
460.964	5746.12
461.337	5937.53
461.71	5976.62
462.083	6046
462.456	6120.12
462.829	6149.05
463.201	6252.1
463.574	6281.93
463.947	6382.04
464.32	6590.39
464.692	6594.01
465.065	6630.16
465.438	6770.73
465.81	6786.09
466.183	6892.53
466.555	6995.35
466.928	7088.01
467.3	7112.64
467.672	7217.95
468.045	7423.36
468.417	7401.44
468.789	7466.53
469.161	7614.09
469.534	7778.61
469.906	7892.28
470.278	7975.44
470.65	8072.39
471.022	8195.55
471.394	8391.47
471.766	8520.28
472.138	8572.49
472.51	8784.91
472.882	8936.77
473.253	8989.42
473.625	9172.47
473.997	9357.32
474.369	9455.18
474.74	9549.86
475.112	9678.67
475.484	9931.32
475.855	10059.45
476.227	10170.86
476.598	10364.3
476.97	10493.57
477.341	10798.19
477.713	10926.32
478.084	11012.42
478.455	11254.45
478.827	11343.71
479.198	11768.56
479.569	11722.23
479.94	12143.24
480.311	12164.48
480.682	12403.35
481.053	12751.36
481.424	12919.49
481.795	13052.82
482.166	13257.56
482.537	13408.07
482.908	13767.15
483.279	13964.21
483.65	14151.1
484.021	14462.05
484.391	14654.36
484.762	14671.99
485.133	14818.2
485.503	15093.22
485.874	15491.63
486.244	15672.64
486.615	15896.59
486.985	16151.95
487.356	16482.11
487.726	16596.91
488.097	16859.5
488.467	17046.61
488.837	17415.87
489.207	17595.07
489.578	17845.46
489.948	18051.33
490.318	18411.1
490.688	18326.58
491.058	18703.29
491.428	19005.66
491.798	19083.17
492.168	19500.11
492.538	19575.81
492.908	19796.6
493.278	20056.25
493.648	20111.39
494.017	20307.77
494.387	20500.31
494.757	20628.67
495.126	20889.68
495.496	20977.81
495.866	21093.74
496.235	21478.81
496.605	21577.12
496.974	21745.25
497.344	21860.72
497.713	21980.04
498.082	22115.86
498.452	22523.31
498.821	22559.01
499.19	22599.69
499.559	22818.44
499.928	22961.49
500.298	23188.83
500.667	23393.79
501.036	23475.15
501.405	23754.91
501.774	23768.7
502.143	24055.24
502.512	24069.48
502.88	24412.52
503.249	24428.79
503.618	24670.14
503.987	24687.09
504.356	24919.18
504.724	25155.33
505.093	25386.51
505.462	25389.45
505.83	25662.66
506.199	25870.79
506.567	26185.36
506.936	26134.74
507.304	26545.8
507.672	26565.46
508.041	26678.23
508.409	26953.02
508.777	27136.74
509.145	27390.97
509.514	27404.99
509.882	27588.94
510.25	27635.94
510.618	27924.52
510.986	28101.01
511.354	28356.83
511.722	28439.76
512.09	28762.69
512.458	28726.76
512.826	29068.22
513.193	29228.21
513.561	29274.32
513.929	29592.5
514.297	29663.01
514.664	30142.31
515.032	30213.05
515.4	30356.32
515.767	30590.21
516.135	30835.86
516.502	30596.09
516.869	31286.24
517.237	31364.88
517.604	31267.26
517.972	31783.18
518.339	31975.03
518.706	32088.25
519.073	32306.78
519.44	32533.21
519.808	32880.32
520.175	32999.19
520.542	33252.52
520.909	33552.62
521.276	33475.56
521.643	34104.02
522.009	34287.74
522.376	34558.92
522.743	34755.3
523.11	35104.9
523.477	35461.95
523.843	35724.54
524.21	36018.32
524.577	36233.23
524.943	36302.6
525.31	36728.13
525.676	37016.26
526.043	37238.85
526.409	37326.76
526.776	37677.71
527.142	37853.52
527.508	38057.13
527.874	38350.69
528.241	38543.45
528.607	38592.94
528.973	39073.38
529.339	39077.22
529.705	39383.2
530.071	39756.75
530.437	39905.67
530.803	40002.85
531.169	40137.08
531.535	40298.88
531.901	40333.91
532.267	40733.67
532.632	40899.77
532.998	41159.43
533.364	41116.26
533.73	41303.83
534.095	41733.65
534.461	41981.33
534.826	42060.42
535.192	42100.42
535.557	42610.24
535.923	42556
536.288	42757.35
536.653	42993.28
537.019	42908.98
537.384	43134.97
537.749	43380.61
538.114	43540.83
538.479	43577.44
538.845	43843.65
539.21	43887.26
539.575	44067.37
539.94	44234.37
540.305	44623.74
540.67	44446.8
541.034	44539.9
541.399	44898.76
541.764	44986.67
542.129	45149.6
542.494	45221.24
542.858	45270.05
543.223	45481.35
543.587	45539.65
543.952	45616.03
544.316	45903.03
544.681	45723.6
545.045	46101.22
545.41	46282.68
545.774	46293.3
546.138	46450.59
546.503	46583.46
546.867	46599.96
547.231	46990.46
547.595	47008.31
547.959	47141.42
548.324	47089.44
548.688	47190.23
549.052	47451.69
549.416	47595.64
549.779	47633.61
550.143	47797.9
550.507	47864.56
550.871	48083.54
551.235	48148.17
551.599	48399.69
551.962	48406.47
552.326	48571.21
552.689	48912.44
553.053	48690.75
553.417	48838.77
553.78	49413.9
554.143	49151.08
554.507	49537.74
554.87	49693.67
555.234	49931.4
555.597	49736.83
555.96	49893.21
556.323	50051.85
556.686	50138.85
557.05	50343.14
557.413	50494.77
557.776	50631.27
558.139	50798.49
558.502	50877.14
558.865	51008.88
559.228	51194.42
559.59	51222.89
559.953	51397.58
560.316	51587.17
560.679	51649.77
561.041	51851.57
561.404	52011.57
561.767	52104.45
562.129	52067.84
562.492	52396.87
562.854	52406.59
563.217	52384.67
563.579	52590.76
563.941	52841.15
564.304	52956.4
564.666	53139
565.028	53137.19
565.39	53329.95
565.753	53372.21
566.115	53463.06
566.477	53678.42
566.839	53699.89
567.201	53927.45
567.563	53972.65
567.925	54143.94
568.287	54261.45
568.648	54262.13
569.01	54498.96
569.372	54666.42
569.734	54588.68
570.095	54798.62
570.457	54943.7
570.819	55055.78
571.18	54990.02
571.542	55153.63
571.903	55153.86
572.265	55290.13
572.626	55425.27
572.987	55408.54
573.349	55449.9
573.71	55593.4
574.071	55658.93
574.432	55765.14
574.794	56008.3
575.155	55928.53
575.516	55893.5
575.877	56069.54
576.238	56093.27
576.599	56142.76
576.96	56212.36
577.32	56277.22
577.681	56373.26
578.042	56364
578.403	56379.14
578.763	56425.24
579.124	56473.15
579.485	56544.56
579.845	56575.07
580.206	56593.6
580.566	56576.87
580.927	56616.42
581.287	56659.81
581.648	56564.67
582.008	56786.59
582.368	56684.22
582.728	56777.09
583.089	56742.97
583.449	56682.63
583.809	56714.05
584.169	56798.56
584.529	56742.52
584.889	56939.8
585.249	56774.83
585.609	56768.51
585.969	56865.91
586.329	56800.82
586.688	56900.03
587.048	56725.34
587.408	56778
587.768	56792.69
588.127	56719.47
588.487	56754.72
588.846	56982.96
589.206	56835.62
589.565	56777.09
589.925	56934.15
590.284	56899.13
590.643	57018.9
591.003	57013.25
591.362	56987.94
591.721	56992.46
592.08	57008.05
592.44	57085.11
592.799	57075.62
593.158	56999.24
593.517	57035.39
593.876	57158.33
594.235	57077.43
594.593	57081.27
594.952	57138.22
595.311	57066.13
595.67	57183.19
596.029	57330.3
596.387	57307.48
596.746	57285.1
597.104	57272.45
597.463	57240.59
597.822	57315.84
598.18	57188.16
598.538	57260.25
598.897	57357.42
599.255	57147.03
599.613	57490.52
599.972	57352.67
600.33	57441.48
600.688	57323.52
601.046	57432.22
601.404	57429.28
601.762	57434.25
602.12	57559
602.478	57465.21
602.836	57502.73
603.194	57279.68
603.552	57402.39
603.91	57299.11
604.268	57439.22
604.625	57379.79
604.983	57481.26
605.341	57362.39
605.698	57502.05
606.056	57530.75
606.413	57492.78
606.771	57591.99
607.128	57615.49
607.485	57464.76
607.843	57525.32
608.2	57670.4
608.557	57757.63
608.914	57647.13
609.272	57751.98
609.629	57859.1
609.986	57846.22
610.343	57742.27
610.7	57959.66
611.057	57906.56
611.414	57965.76
611.771	58007.12
612.127	58034.91
612.484	58088.25
612.841	58160.56
613.198	58043.05
613.554	58071.3
613.911	58207.79
614.267	58186.1
614.624	58151.07
614.98	58239.88
615.337	58292.54
615.693	58256.6
616.05	58308.13
616.406	58427.22
616.762	58289.6
617.118	58403.04
617.475	58442.81
617.831	58499.76
618.187	58492.08
618.543	58563.49
618.899	58644.84
619.255	58586.09
619.611	58537.95
619.967	58650.04
620.323	58675.35
620.678	58609.59
621.034	58574.11
621.39	58574.34
621.746	58529.59
622.101	58752.41
622.457	58561.68
622.812	58631.96
623.168	58684.16
623.523	58624.5
623.879	58728.68
624.234	58512.19
624.589	58589.48
624.945	58630.15
625.3	58689.59
625.655	58540.21
626.01	58580.89
626.365	58539.76
626.72	58507.67
627.075	58413.21
627.43	58430.16
627.785	58344.29
628.14	58458.18
628.495	58458.18
628.85	58381.12
629.205	58228.13
629.559	58450.27
629.914	58209.6
630.269	58305.64
630.623	58268.35
630.978	58180
631.332	58212.54
631.687	58241.01
632.041	58135.03
632.396	58172.09
632.75	58055.25
633.104	58100.22
633.459	57974.8
633.813	58049.38
634.167	58037.85
634.521	57964.86
634.875	58022.71
635.229	57963.73
635.583	57817.29
635.937	57954.69
636.291	57917.86
636.645	57915.37
636.999	57798.99
637.352	57890.06
637.706	57750.85
638.06	57885.09
638.413	57795.15
638.767	57697.07
639.121	57836.05
639.474	57583.18
639.828	57710.63
640.181	57678.54
640.534	57718.54
640.888	57648.03
641.241	57546.57
641.594	57560.8
641.947	57638.99
642.301	57549.5
642.654	57638.54
643.007	57653
643.36	57555.61
643.713	57572.78
644.066	57626.11
644.419	57455.04
644.771	57311.54
645.124	57003.3
645.477	56995.39
645.83	56830.2
646.182	56688.96
646.535	56605.35
646.888	56622.75
647.24	56511.79
647.593	56680.37
647.945	56567.16
648.298	56447.84
648.65	56360.61
649.002	56290.33
649.355	56372.13
649.707	56356.77
650.059	56455.97
650.411	56749.07
650.763	56770.32
651.115	56988.39
651.467	56823.42
651.819	56786.81
652.171	56783.65
652.523	56696.19
652.875	56669.07
653.227	56620.26
653.578	56772.58
653.93	56624.56
654.282	56441.74
654.633	56437.22
654.985	56436.76
655.337	56449.87
655.688	56495.07
656.039	56444.67
656.391	56274.74
656.742	56328.97
657.094	56321.29
657.445	56426.14
657.796	56297.33
658.147	56293.04
658.498	56212.59
658.849	56279.48
659.2	56267.96
659.551	56140.05
659.902	56228.41
660.253	56153.61
660.604	56229.54
660.955	55985.93
661.306	56109.54
661.656	56028.87
662.007	56062.54
662.358	56111.35
662.708	56009.88
663.059	56006.95
663.409	55842.43
663.76	56076.32
664.11	56028.87
664.461	55999.94
664.811	55950.45
665.161	55962.2
665.511	55954.52
665.862	55951.58
666.212	56132.37
666.562	56055.98
666.912	55991.8
667.262	55978.7
667.612	55936.44
667.962	55957.68
668.312	55917
668.662	56094.85
669.011	55888.3
669.361	55908.87
669.711	55930.34
670.06	55839.72
670.41	55884.01
670.76	55715.43
671.109	55938.7
671.459	55851.47
671.808	55775.77
672.157	55760.85
672.507	55632.49
672.856	55629.78
673.205	55683.11
673.554	55777.57
673.904	55659.61
674.253	55789.32
674.602	55672.49
674.951	55252.16
675.3	55101.88
675.649	55462.55
675.998	55519.05
676.346	55477.92
676.695	55555.66
677.044	55297.81
677.393	55413.97
677.741	55434.98
678.09	55303.24
678.438	55252.39
678.787	55297.81
679.135	55343.91
679.484	55065.73
679.832	55166.52
680.181	54928.33
680.529	55104.82
680.877	54900.99
681.225	54863.47
681.573	55017.14
681.922	54797.49
682.27	54724.04
682.618	54772.4
682.966	54624.83
683.314	54720.43
683.661	54581.67
684.009	54533.99
684.357	54407.89
684.705	54384.16
685.053	54375.58
685.4	54263.26
685.748	54038.64
686.095	54138.29
686.443	54008.58
686.79	54009.71
687.138	53968.13
687.485	53986.43
687.832	53820.56
688.18	53883.39
688.527	53736.95
688.874	53644.75
689.221	53597.52
689.568	53606.56
689.915	53388.48
690.262	53495.6
690.609	53381.93
690.956	53225.55
691.303	53169.05
691.65	52991.43
691.997	53062.16
692.344	52830.98
692.69	52941.04
693.037	52896.07
693.383	52600.26
693.73	52732.46
694.077	52522.07
694.423	52623.98
694.769	52509.41
695.116	52356.87
695.462	52304.67
695.808	52176.76
696.155	52319.81
696.501	52080.27
696.847	52049.31
697.193	51907.84
697.539	51940.16
697.885	51733.84
698.231	51579.94
698.577	51657.91
698.923	51537.68
699.269	51505.82
699.614	51275.54
699.96	51130.24
700.306	51257.92
700.651	51090.69
700.997	51013.4
701.342	50968.21
701.688	50897.7
702.033	50769.8
702.379	50854.31
702.724	50643.7
703.069	50805.5
703.415	50220.43
703.76	50347.89
704.105	50276.7
704.45	50177.04
704.795	49992.41
705.14	49829.48
705.485	49783.83
705.83	49680.56
706.175	49671.52
706.52	49679.43
706.865	49474.69
707.209	49396.95
707.554	49266.56
707.899	49387.68
708.243	49025.43
708.588	49066.34
708.932	48772.79
709.277	48670.19
709.621	48733.46
709.966	48588.84
710.31	48578.89
710.654	48205.12
710.998	48251.44
711.342	48295.74
711.687	48199.69
712.031	47994.5
712.375	47761.51
712.719	47777.78
713.063	47742.76
713.407	47674.51
713.75	47528.3
714.094	47494.63
714.438	47208.31
714.782	47404.46
715.125	47142.77
715.469	47150.91
715.812	46992.04
716.156	46853.74
716.499	46799.73
716.843	46825.72
717.186	46564.26
717.53	46671.15
717.873	46583.46
718.216	46448.33
718.559	46270.93
718.902	46227.54
719.246	46138.73
719.589	45953.2
719.932	45848.57
720.275	45829.81
720.617	45788.01
720.96	45644.51
721.303	45662.81
721.646	45721.57
721.989	45278.41
722.331	45556.15
722.674	45592.53
723.016	45353.67
723.359	45209.72
723.701	45376.04
724.044	45093.79
724.386	44857.41
724.729	45008.59
725.071	44870.29
725.413	44953.68
725.755	44800.69
726.097	44634.36
726.439	44477.53
726.782	44364.31
727.124	44615.15
727.465	44282.73
727.807	44246.58
728.149	44183.3
728.491	44345.11
728.833	44235.73
729.175	44151.44
729.516	44041.61
729.858	43960.26
730.199	44049.97
730.541	44105.11
730.882	43798.23
731.224	43885.23
731.565	43605.92
731.906	43703.31
732.248	43752.35
732.589	43523.43
732.93	43470.33
733.271	43350.56
733.612	43491.12
733.953	43459.25
734.294	43267.62
734.635	43257.22
734.976	43372.25
735.317	43119.37
735.658	43138.36
735.999	43004.35
736.339	42911.7
736.68	43077.79
737.021	42923.22
737.361	42651.59
737.702	42845.48
738.042	42629.44
738.383	42497.47
738.723	42528.2
739.063	42520.52
739.404	42541.99
739.744	42268.55
740.084	42176.12
740.424	42172.05
740.764	42107.65
741.104	42229.91
741.444	41863.81
741.784	41761.22
742.124	41844.83
742.464	41667.66
742.804	41549.02
743.143	41538.17
743.483	41508.8
743.823	41309.7
744.162	41264.73
744.502	41364.39
744.841	41159.2
745.181	41229.48
745.52	41021.58
745.86	41089.82
746.199	40832.66
746.538	40793.33
746.877	40875.37
747.216	40815.71
747.556	40569.16
747.895	40427.92
748.234	40333.23
748.573	40249.62
748.911	40235.16
749.25	40253.91
749.589	39940.02
749.928	40003.75
750.267	40167.59
750.605	39929.4
750.944	39721.05
751.283	39526.25
751.621	39676.08
751.96	39360.83
752.298	39404.44
752.636	39314.05
752.975	39195.86
753.313	38897.11
753.651	39224.56
753.989	38929.43
754.327	38843.78
754.666	38743.9
755.004	38829.54
755.342	38745.03
755.679	38562.21
756.017	38559.72
756.355	38522.43
756.693	38383.23
757.031	38467.52
757.368	38124.93
757.706	38152.05
758.044	37910.02
758.381	37922.22
758.719	37703.7
759.056	37816.01
759.394	37726.75
759.731	37459.41
760.068	37496.7
760.405	37333.54
760.743	37228
761.08	37250.83
761.417	37054.9
761.754	36982.81
762.091	36810.84
762.428	36712.99
762.765	36598.42
763.102	36685.87
763.438	36576.5
763.775	36352.55
764.112	36410.62
764.449	36302.6
764.785	36161.82
765.122	36083.63
765.458	35790.75
765.795	35791.21
766.131	35676.63
766.467	35621.49
766.804	35361.84
767.14	35391.67
767.476	35416.07
767.812	35271.67
768.148	35084.56
768.485	35013.15
768.821	34908.97
769.157	34734.06
769.492	34729.54
769.828	34658.13
770.164	34438.02
770.5	34303.34
770.836	34376.33
771.171	34065.83
771.507	34021.99
771.842	33636.46
772.178	33784.25
772.513	33653.86
772.849	33563.92
773.184	33491.38
773.519	33386.75
773.855	33315.79
774.19	33153.31
774.525	32946.99
774.86	33022.47
775.195	32807.33
775.53	32644.62
775.865	32538.41
776.2	32269.04
776.535	32109.95
776.87	31966.67
777.205	31832.67
777.539	31787.47
777.874	31945.66
778.209	31653.91
778.543	31460.47
778.878	31363.75
779.212	31368.5
779.547	31139.35
779.881	31143.19
780.215	30775.29
780.55	30986.59
780.884	30657.56
781.218	30576.2
781.552	30456.43
781.886	30141.41
782.22	30119.72
782.554	30007.86
782.888	29771.25
783.222	29596.34
783.556	29497.36
783.889	29446.29
784.223	29107.77
784.557	29242.23
784.89	29246.75
785.224	29027.09
785.557	28943.02
785.891	28815.12
786.224	28677.72
786.558	28581
786.891	28394.34
787.224	28245.87
787.557	28182.82
787.891	28102.59
788.224	28107.79
788.557	28011.07
788.89	27939.89
789.223	27854.01
789.556	27645.66
789.888	27592.55
790.221	27450.86
790.554	27197.31
790.887	27361.6
791.219	27049.97
791.552	27129.06
791.884	26932.23
792.217	26850.88
792.549	26703.99
792.882	26582.63
793.214	26489.08
793.546	26463.77
793.879	26361.62
794.211	26286.6
794.543	26286.37
794.875	26163.21
795.207	26211.34
795.539	26069.88
795.871	25976.55
796.203	25790.34
796.535	25619.72
796.867	25732.26
797.198	25512.15
797.53	25507.41
797.862	25423.34
798.193	25466.28
798.525	25167.53
798.856	25287.3
799.188	24944.26
799.519	25018.16
799.85	24891.15
800.182	24903.36
800.513	24840.08
800.844	24735.23
801.175	24806.86
801.506	24730.03
801.837	24514.67
802.168	24487.77
802.499	24441.45
802.83	24374.78
803.161	24422.69
803.491	24509.69
803.822	24337.27
804.153	24252.53
804.483	24018.41
804.814	23903.16
805.145	23872.88
805.475	23854.8
805.805	23777.74
806.136	23810.73
806.466	23845.08
806.796	23739.55
807.126	23530.29
807.457	23585.43
807.787	23589.27
808.117	23398.54
808.447	23328.26
808.777	23350.85
809.107	23332.55
809.436	23191.09
809.766	23251.87
810.096	23248.26
810.426	22931.2
810.755	23022.95
811.085	23081.26
811.414	22916.06
811.744	22848.5
812.073	22716.3
812.403	22727.37
812.732	22534.83
813.061	22579.35
813.39	22423.87
813.719	22385
814.049	22540.03
814.378	22434.72
814.707	22252.13
815.036	22206.48
815.365	22148.63
815.693	21952.25
816.022	21958.8
816.351	21992.47
816.68	21787.51
817.008	21866.37
817.337	21675.42
817.665	21639.49
817.994	21691.69
818.322	21599.04
818.651	21423.67
818.979	21341.64
819.307	21454.41
819.636	21410.12
819.964	21216.9
820.292	21413.05
820.62	21194.08
820.948	21281.3
821.276	21237.69
821.604	21057.36
821.932	21164.47
822.259	21183.91
822.587	21095.77
822.915	20993.4
823.243	21112.5
823.57	20918.83
823.898	21025.04
824.225	20920.64
824.553	20953.63
824.88	21009.22
825.207	21038.15
825.535	20952.5
825.862	21071.14
826.189	20915.21
826.516	20968.32
826.843	20929.45
827.17	20840.86
827.497	20902.11
827.824	20777.14
828.151	20789.11
828.478	20734.2
828.805	20855.55
829.131	20654.88
829.458	20592.28
829.785	20630.7
830.111	20624.6
830.438	20686.29
830.764	20683.81
831.09	20627.08
831.417	20513.87
831.743	20587.76
832.069	20521.78
832.395	20449.46
832.722	20506.64
833.048	20504.6
833.374	20479.74
833.7	20424.15
834.026	20410.82
834.351	20323.59
834.677	20390.93
835.003	20420.54
835.329	20418.5
835.654	20360.65
835.98	20268.45
836.306	20207.21
836.631	20270.48
836.956	20349.8
837.282	20213.54
837.607	20155.23
837.932	20054.67
838.258	20073.2
838.583	20059.19
838.908	20066.42
839.233	20011.51
839.558	20006.76
839.883	20014.45
840.208	19972.19
840.533	19893.54
840.858	19861.23
841.182	19851.74
841.507	19820.55
841.832	19830.04
842.156	19713.44
842.481	19780.1
842.805	19668.92
843.13	19727.9
843.454	19646.55
843.778	19653.78
844.103	19654.91
844.427	19544.63
844.751	19545.98
845.075	19497.17
845.399	19404.74
845.723	19278.19
846.047	19340.34
846.371	19190.96
846.695	19274.8
847.019	19083.62
847.343	19033.45
847.666	18873.23
847.99	18864.87
848.313	18873.23
848.637	18748.04
848.96	18779.9
849.284	18750.07
849.607	18531.55
849.931	18514.82
850.254	18425.11
850.577	18333.13
850.9	18110.31
851.223	18157.32
851.546	18176.75
851.869	17954.84
852.192	18049.53
852.515	17897.44
852.838	17847.72
853.161	17866.48
853.483	17743.09
853.806	17698.57
854.129	17655.41
854.451	17526.83
854.774	17480.73
855.096	17415.42
855.419	17365.48
855.741	17358.02
856.063	17306.04
856.385	17196.89
856.708	17203.9
857.03	17059.95
857.352	17172.26
857.674	17112.6
857.996	17020.4
858.318	16923
858.64	16788.09
858.961	16817.47
859.283	16758.49
859.605	16688.66
859.926	16721.65
860.248	16634.42
860.57	16468.78
860.891	16498.38
861.212	16427.42
861.534	16455.22
861.855	16292.74
862.176	16359.17
862.498	16349.23
862.819	16300.19
863.14	16237.6
863.461	16219.07
863.782	16108.33
864.103	16167.32
864.424	16058.39
864.745	16056.81
865.065	16025.4
865.386	16015.45
865.707	15931.61
866.027	15943.37
866.348	15864.72
866.668	15839.87
866.989	15743.6
867.309	15631.28
867.63	15704.95
867.95	15721
868.27	15564.17
868.59	15563.26
868.91	15475.58
869.23	15560.55
869.55	15375.92
869.87	15515.13
870.19	15424.51
870.51	15358.97
870.83	15384.06
871.15	15276.49
871.469	15301.8
871.789	15348.13
872.109	15254.57
872.428	15132.54
872.748	15146.1
873.067	15129.6
873.386	15190.17
873.706	15079.66
874.025	15086.89
874.344	14978.65
874.663	15065.88
874.982	15013.22
875.301	14901.36
875.62	14946.1
875.939	14851.87
876.258	14839.21
876.577	14750.4
876.896	14740.01
877.214	14802.61
877.533	14787.01
877.852	14717.18
878.17	14732.78
878.489	14626.56
878.807	14694.36
879.125	14600.35
879.444	14627.02
879.762	14504.31
880.08	14493.23
880.398	14495.95
880.716	14446
881.034	14407.81
881.352	14430.64
881.67	14365.33
881.988	14409.4
882.306	14350.19
882.624	14284.65
882.941	14277.87
883.259	14190.42
883.577	14176.18
883.894	14118.56
884.212	14144.09
884.529	14146.8
884.846	14030.42
885.164	14000.59
885.481	13994.94
885.798	14080.14
886.115	13941.16
886.432	13901.39
886.75	13982.51
887.067	13970.99
887.383	13894.15
887.7	13894.61
888.017	13792.01
888.334	13881.27
888.651	13808.96
888.967	13720.83
889.284	13730.09
889.6	13611.9
889.917	13565.58
890.233	13644.44
890.55	13570.55
890.866	13525.58
891.182	13542.75
891.498	13465.24
891.815	13430.44
892.131	13383.21
892.447	13392.02
892.763	13321.51
893.079	13313.15
893.395	13299.82
893.71	13223.89
894.026	13263.21
894.342	13145.7
894.657	13166.26
894.973	13178.24
895.289	13080.39
895.604	13013.5
895.92	12993.61
896.235	13003.1
896.55	12968.08
896.865	12893.28
897.181	12863
897.496	12874.29
897.811	12759.5
898.126	12779.16
898.441	12740.29
898.756	12665.94
899.071	12586.62
899.386	12678.82
899.7	12483.12
900.015	12496.23
900.33	12412.61
900.644	12426.17
900.959	12416.91
901.273	12324.03
901.588	12273.63
901.902	12231.37
902.216	12169.23
902.531	12154.99
902.845	12170.13
903.159	12051.04
903.473	12022.34
903.787	11964.71
904.101	11924.94
904.415	11986.63
904.729	11899.63
905.042	11807.2
905.356	11766.07
905.67	11745.06
905.984	11794.77
906.297	11647.89
906.611	11595.23
906.924	11574.67
907.237	11516.36
907.551	11523.14
907.864	11438.4
908.177	11430.04
908.491	11436.59
908.804	11366.54
909.117	11283.83
909.43	11248.12
909.743	11145.53
910.056	11126.54
910.368	11038.41
910.681	11004.51
910.994	10936.94
911.307	10927.9
911.619	10875.02
911.932	10967
912.244	10761.13
912.557	10733.56
912.869	10640.68
913.181	10615.82
913.494	10667.35
913.806	10565.88
914.118	10467.8
914.43	10538.99
914.742	10454.47
915.054	10378.31
915.366	10326.56
915.678	10303.74
915.99	10221.71
916.302	10136.06
916.613	10138.77
916.925	10103.97
917.236	10052
917.548	10016.29
917.859	10016.52
918.171	9889.51
918.482	9786.01
918.794	9732.68
919.105	9771.32
919.416	9635.28
919.727	9597.77
920.038	9600.71
920.349	9534.72
920.66	9523.87
920.971	9380.15
921.282	9445.01
921.593	9290.21
921.903	9306.7
922.214	9262.86
922.525	9248.63
922.835	9134.28
923.146	9151
923.456	9095.64
923.767	8953.49
924.077	9015.19
924.387	8903.1
924.697	8888.41
925.008	8898.35
925.318	8782.2
925.628	8734.06
925.938	8758.7
926.248	8624.46
926.558	8661.52
926.867	8580.17
927.177	8502.43
927.487	8520.51
927.796	8385.6
928.106	8440.96
928.416	8346.28
928.725	8366.39
929.034	8262.21
929.344	8334.53
929.653	8276.9
929.962	8153.51
930.271	8135.44
930.581	8068.32
930.89	8031.48
931.199	8012.28
931.508	7960.75
931.817	7922.56
932.125	7925.72
932.434	7890.47
932.743	7831.49
933.051	7784.03
933.36	7753.52
933.669	7742
933.977	7710.81
934.286	7655.67
934.594	7682.11
934.902	7636.24
935.21	7623.81
935.519	7589.91
935.827	7497.26
936.135	7454.55
936.443	7399.41
936.751	7391.05
937.059	7361.67
937.367	7323.25
937.674	7342.01
937.982	7292.07
938.29	7285.97
938.597	7257.49
938.905	7154.67
939.213	7118.97
939.52	7131.17
939.827	7129.81
940.135	7119.19
940.442	7084.84
940.749	7036.48
941.056	7010.95
941.363	6938.63
941.67	6988.12
941.977	6891.17
942.284	6884.17
942.591	6852.76
942.898	6866.32
943.205	6893.89
943.511	6815.47
943.818	6768.24
944.125	6718.07
944.431	6786.77
944.738	6658.19
945.044	6703.61
945.35	6618.41
945.657	6616.61
945.963	6589.71
946.269	6553.1
946.575	6543.84
946.881	6535.03
947.187	6484.41
947.493	6465.42
947.799	6423.39
948.105	6444.18
948.41	6409.61
948.716	6391.98
949.022	6388.59
949.327	6351.53
949.633	6274.02
949.938	6274.69
950.244	6294.13
950.549	6230.18
950.854	6199.44
951.16	6225.43
951.465	6186.56
951.77	6151.53
952.075	6125.55
952.38	6146.56
952.685	6102.27
952.99	6117.41
953.294	6077.41
953.599	6062.95
953.904	6039.9
954.209	5995.83
954.513	5961.26
954.818	5931.43
955.122	5927.58
955.426	5881.03
955.731	5838.32
956.035	5847.59
956.339	5863.63
956.643	5786.8
956.948	5771.43
957.252	5779.57
957.556	5721.04
957.86	5720.81
958.163	5721.49
958.467	5591.1
958.771	5709.51
959.075	5601.27
959.378	5588.38
959.682	5556.29
959.985	5533.7
960.289	5490.31
960.592	5512.23
960.896	5438.56
961.199	5465
961.502	5416.19
961.805	5422.96
962.108	5413.25
962.411	5367.37
962.714	5310.88
963.017	5340.48
963.32	5371.89
963.623	5246.92
963.926	5286.92
964.228	5218.45
964.531	5165.8
964.833	5161.5
965.136	5119.47
965.438	5095.74
965.741	5034.73
966.043	5045.57
966.345	5010.32
966.648	4977.55
966.95	5058.23
967.252	4945.01
967.554	4913.37
967.856	4953.37
968.158	4889.42
968.46	4873.15
968.761	4888.06
969.063	4819.14
969.365	4763.55
969.666	4755.86
969.968	4735.53
970.269	4710.89
970.571	4686.94
970.872	4673.83
971.174	4625.92
971.475	4662.53
971.776	4572.37
972.077	4594.96
972.378	4562.2
972.679	4535.08
972.98	4559.26
973.281	4470.45
973.582	4456.66
973.883	4434.29
974.183	4401.07
974.484	4409.21
974.785	4362.2
975.085	4366.27
975.386	4397.23
975.686	4314.07
975.986	4296.44
976.287	4273.39
976.587	4192.26
976.887	4232.26
977.187	4186.16
977.487	4189.32
977.787	4125.82
978.087	4116.78
978.387	4089.89
978.687	4092.15
978.987	4089.21
979.286	4027.97
979.586	4020.97
979.885	3998.82
980.185	3992.72
980.484	3968.77
980.784	3971.48
981.083	3945.94
981.382	3891.93
981.682	3907.98
981.981	3864.36
982.28	3854.87
982.579	3838.6
982.878	3807.64
983.177	3781.65
983.475	3787.75
983.774	3738.94
984.073	3777.13
984.372	3710.24
984.67	3702.56
984.969	3700.52
985.267	3657.81
985.566	3594.76
985.864	3593.41
986.162	3573.75
986.461	3568.1
986.759	3571.71
987.057	3554.31
987.355	3478.38
987.653	3525.39
987.951	3470.02
988.249	3458.5
988.547	3404.26
988.844	3404.94
989.142	3403.81
989.44	3409.68
989.737	3340.76
990.035	3346.86
990.332	3365.62
990.63	3325.39
990.927	3324.26
991.224	3289.91
991.521	3270.48
991.819	3272.06
992.116	3259.63
992.413	3237.26
992.71	3229.58
993.006	3173.08
993.303	3165.4
993.6	3190.26
993.897	3145.74
994.193	3126.3
994.49	3111.84
994.787	3098.05
995.083	3114.32
995.379	3073.2
995.676	3052.86
995.972	3062.35
996.268	3023.93
996.565	3031.62
996.861	2995.68
997.157	3011.73
997.453	2976.02
997.749	2981.22
998.044	2888.12
998.34	2955.91
998.636	2902.35
998.932	2932.86
999.227	2913.65
999.523	2872.3
999.818	2871.62
1000.114	2839.08
1000.409	2806.76
1000.704	2828
1001	2820.77
1001.295	2799.08
1001.59	2781.9
1001.885	2751.62
1002.18	2736.93
1002.475	2702.13
1002.77	2726.09
1003.065	2697.16
1003.359	2697.39
1003.654	2667.33
1003.949	2661.46
1004.243	2632.98
1004.538	2682.02
1004.832	2617.84
1005.127	2644.05
1005.421	2622.59
1005.715	2587.11
1006.009	2608.35
1006.304	2582.59
1006.598	2538.52
1006.892	2533.1
1007.186	2526.54
1007.48	2501.69
1007.773	2474.79
1008.067	2499.65
1008.361	2473.89
1008.655	2462.82
1008.948	2451.52
1009.242	2404.51
1009.535	2392.08
1009.829	2411.74
1010.122	2396.15
1010.415	2355.02
1010.708	2361.58
1011.001	2358.41
1011.295	2333.55
1011.588	2338.53
1011.881	2317.28
1012.173	2315.25
1012.466	2310.28
1012.759	2288.36
1013.052	2273.9
1013.344	2247.23
1013.637	2235.7
1013.93	2234.57
1014.222	2221.69
1014.514	2233.22
1014.807	2202.94
1015.099	2164.52
1015.391	2185.76
1015.683	2167.68
1015.976	2138.76
1016.268	2102.83
1016.56	2131.98
1016.851	2102.37
1017.143	2084.75
1017.435	2091.3
1017.727	2058.31
1018.018	2068.02
1018.31	2060.79
1018.602	2039.32
1018.893	2013.56
1019.185	1999.33
1019.476	1971.53
1019.767	1998.65
1020.058	1990.51
1020.35	1957.29
1020.641	1897.41
1020.932	1936.28
1021.223	1916.62
1021.514	1920.01
1021.804	1850.18
1022.095	1871.87
1022.386	1839.78
1022.677	1848.14
1022.967	1830.29
1023.258	1805.21
1023.548	1800.46
1023.839	1774.7
1024.129	1802.49
1024.419	1704.64
1024.709	1750.07
1025	1734.47
1025.29	1708.49
1025.58	1704.64
1025.87	1734.47
1026.16	1702.38
1026.449	1680.01
1026.739	1642.95
1027.029	1666.68
1027.319	1619.67
1027.608	1627.36
1027.898	1627.36
1028.187	1580.13
1028.477	1558.21
1028.766	1595.49
1029.055	1553.01
1029.344	1536.06
1029.634	1572.44
1029.923	1554.82
1030.212	1512.11
1030.501	1508.49
1030.79	1513.46
1031.078	1487.48
1031.367	1490.64
1031.656	1453.13
1031.945	1459
1032.233	1420.36
1032.522	1433.69
1032.81	1396.63
1033.099	1419.23
1033.387	1376.52
1033.675	1390.75
1033.963	1392.11
1034.251	1368.83
1034.54	1328.38
1034.828	1348.5
1035.116	1330.64
1035.403	1335.39
1035.691	1339.46
1035.979	1316.41
1036.267	1274.37
1036.554	1262.62
1036.842	1303.53
1037.129	1269.18
1037.417	1260.59
1037.704	1260.59
1037.992	1274.15
1038.279	1233.24
1038.566	1205.45
1038.853	1205.45
1039.14	1205.45
