Data from white_steel_sheet_FLMS001491_095.txt Node
Date: Tue Feb 07 10:58:50 GMT 2017
User: dcchb
Spectrometer: FLMS00149
Trigger mode: 0
Integration Time (sec): 2.000000E-2
Scans to average: 10
Electric dark correction enabled: true
Nonlinearity correction enabled: false
Boxcar width: 0
XAxis mode: Wavelengths
Number of Pixels in Spectrum: 2048
>>>>>Begin Spectral Data<<<<<
341.393	-4.96
341.776	-4.96
342.16	-4.96
342.543	-73.66
342.927	-51.96
343.31	-63.71
343.693	-69.14
344.077	-76.82
344.46	-57.84
344.843	-53.54
345.226	-41.79
345.61	-23.26
345.993	-6.54
346.376	-6.31
346.759	12.22
347.142	16.06
347.525	61.93
347.908	55.83
348.291	54.25
348.674	87.02
349.057	111.65
349.44	121.37
349.823	152.1
350.206	160.24
350.588	178.99
350.971	202.49
351.354	218.99
351.737	244.3
352.119	250.4
352.502	250.85
352.884	265.77
353.267	282.27
353.65	294.92
354.032	287.24
354.414	322.27
354.797	306.67
355.179	319.33
355.562	328.14
355.944	323.62
356.326	312.55
356.709	338.31
357.091	324.75
357.473	350.06
357.855	341.47
358.238	327.69
358.62	336.5
359.002	335.15
359.384	344.64
359.766	324.07
360.148	336.5
360.53	350.29
360.912	345.54
361.294	352.77
361.676	339.67
362.057	352.77
362.439	326.56
362.821	345.54
363.203	324.53
363.584	314.58
363.966	324.53
364.348	320.23
364.729	326.33
365.111	311.64
365.493	317.07
365.874	329.05
366.256	321.81
366.637	331.53
367.019	307.35
367.4	311.42
367.781	314.81
368.163	327.46
368.544	314.13
368.925	340.12
369.306	332.43
369.688	340.34
370.069	318.88
370.45	303.73
370.831	334.02
371.212	331.76
371.593	317.97
371.974	325.2
372.355	311.64
372.736	328.37
373.117	330.85
373.498	338.76
373.879	326.33
374.26	338.08
374.641	317.52
375.021	326.79
375.402	323.62
375.783	346.67
376.163	333.11
376.544	315.26
376.925	324.98
377.305	330.85
377.686	347.58
378.066	338.08
378.447	344.86
378.827	337.86
379.208	344.41
379.588	350.51
379.968	362.72
380.349	350.06
380.729	330.17
381.109	348.48
381.489	337.86
381.87	351.19
382.25	366.78
382.63	362.94
383.01	359.78
383.39	357.07
383.77	372.89
384.15	370.4
384.53	381.92
384.91	380.8
385.29	359.33
385.67	379.21
386.049	387.57
386.429	371.53
386.809	386.9
387.189	394.35
387.568	370.17
387.948	381.7
388.328	388.7
388.707	391.64
389.087	412.21
389.466	426.9
389.846	428.03
390.225	422.38
390.605	413.34
390.984	424.18
391.363	411.75
391.743	414.24
392.122	437.97
392.501	419.66
392.881	428.48
393.26	436.39
393.639	446.78
394.018	448.36
394.397	468.25
394.776	455.6
395.155	462.37
395.534	461.92
395.913	450.17
396.292	482.04
396.671	442.26
397.05	490.62
397.429	489.27
397.808	502.83
398.186	499.66
398.565	515.93
398.944	499.89
399.323	517.29
399.701	547.57
400.08	522.94
400.458	534.92
400.837	551.19
401.215	566.55
401.594	555.25
401.972	557.29
402.351	559.1
402.729	584.63
403.107	607.23
403.486	589.83
403.864	613.33
404.242	602.03
404.62	623.05
404.999	619.88
405.377	647
405.755	646.78
406.133	641.35
406.511	657.17
406.889	672.54
407.267	682.71
407.645	678.41
408.023	684.29
408.401	697.85
408.779	714.12
409.156	735.81
409.534	740.11
409.912	725.42
410.29	757.73
410.667	758.64
411.045	816.72
411.422	799.77
411.8	785.98
412.178	807.9
412.555	835.47
412.933	816.94
413.31	862.59
413.687	882.93
414.065	876.6
414.442	888.8
414.819	896.49
415.197	907.11
415.574	903.27
415.951	916.15
416.328	935.13
416.705	940.78
417.082	939.65
417.46	954.57
417.837	974.68
418.214	983.49
418.591	998.18
418.967	1005.64
419.344	1032.3
419.721	1028.24
420.098	1025.3
420.475	1036.6
420.852	1031.85
421.228	1064.62
421.605	1073.88
421.982	1104.17
422.358	1077.95
422.735	1095.58
423.111	1118.63
423.488	1120.21
423.864	1110.49
424.241	1132.41
424.617	1155.24
424.994	1177.84
425.37	1179.64
425.746	1180.1
426.123	1188.23
426.499	1223.48
426.875	1225.52
427.251	1263.48
427.627	1267.33
428.003	1293.77
428.379	1280.66
428.756	1292.41
429.132	1336.93
429.507	1365.4
429.883	1357.94
430.259	1411.95
430.635	1394.55
431.011	1405.63
431.387	1468.9
431.763	1460.99
432.138	1475.23
432.514	1467.77
432.89	1514.78
433.265	1530.37
433.641	1555
434.016	1537.6
434.392	1618.5
434.767	1600.42
435.143	1635
435.518	1643.13
435.894	1677.71
436.269	1695.34
436.644	1710.7
437.02	1738.95
437.395	1750.25
437.77	1752.06
438.145	1788.89
438.52	1802
438.895	1799.51
439.271	1810.81
439.646	1850.36
440.021	1859.85
440.395	1873.41
440.77	1878.61
441.145	1914.99
441.52	1922.22
441.895	1913.18
442.27	1970.81
442.645	1969.68
443.019	1999.74
443.394	1994.31
443.769	2056.23
444.143	2020.75
444.518	2075.21
444.892	2032.28
445.267	2048.1
445.641	2105.5
446.016	2105.04
446.39	2102.33
446.764	2140.3
447.139	2131.03
447.513	2202.67
447.887	2196.57
448.262	2204.48
448.636	2191.37
449.01	2238.37
449.384	2253.06
449.758	2281.08
450.132	2309.78
450.506	2289.9
450.88	2277.02
451.254	2321.54
451.628	2376
452.002	2432.27
452.376	2414.19
452.75	2438.37
453.123	2477.69
453.497	2473.4
453.871	2502.55
454.244	2587.06
454.618	2583.9
454.992	2646.27
455.365	2646.05
455.739	2687.85
456.112	2724.24
456.486	2734.18
456.859	2733.95
457.232	2806.95
457.606	2798.81
457.979	2826.83
458.352	2870.9
458.725	2937.11
459.099	2957.68
459.472	2993.83
459.845	3028.86
460.218	3079.48
460.591	3085.58
460.964	3119.03
461.337	3148.63
461.71	3183.21
462.083	3281.28
462.456	3265.01
462.829	3275.18
463.201	3332.81
463.574	3371.9
463.947	3427.27
464.32	3495.29
464.692	3523.99
465.065	3538.9
465.438	3577.77
465.81	3651.44
466.183	3666.13
466.555	3742.97
466.928	3775.28
467.3	3776.41
467.672	3865.22
468.045	3914.49
468.417	3980.25
468.789	3958.78
469.161	4027.25
469.534	4082.17
469.906	4173.92
470.278	4194.71
470.65	4276.29
471.022	4310.64
471.394	4361.48
471.766	4445.32
472.138	4489.61
472.51	4575.94
472.882	4680.34
473.253	4670.17
473.625	4756.73
473.997	4863.16
474.369	4883.28
474.74	4964.63
475.112	5050.73
475.484	5151.97
475.855	5209.59
476.227	5273.1
476.598	5348.12
476.97	5402.36
477.341	5548.12
477.713	5595.12
478.084	5664.05
478.455	5808.9
478.827	5889.35
479.198	6029.46
479.569	6002.57
479.94	6227.65
480.311	6252.05
480.682	6387.87
481.053	6558.94
481.424	6628.77
481.795	6676.9
482.166	6831.7
482.537	6883.67
482.908	6997.34
483.279	7110.34
483.65	7149.43
484.021	7409.54
484.391	7435.3
484.762	7574.05
485.133	7588.74
485.503	7736.08
485.874	7864.89
486.244	7943.76
486.615	8097.88
486.985	8162.06
487.356	8385.56
487.726	8419
488.097	8611.09
488.467	8596.17
488.837	8774.25
489.207	8910.06
489.578	9060.34
489.948	9099.66
490.318	9301.69
490.688	9355.25
491.058	9461.01
491.428	9538.52
491.798	9719.08
492.168	9895.35
492.538	9934.22
492.908	10041.56
493.278	10125.17
493.648	10169.01
494.017	10342.12
494.387	10405.84
494.757	10445.62
495.126	10639.06
495.496	10687.87
495.866	10750.24
496.235	10806.74
496.605	10913.63
496.974	11073.62
497.344	11096.45
497.713	11249.44
498.082	11365.59
498.452	11389.77
498.821	11446.27
499.19	11490.56
499.559	11708.63
499.928	11738.01
500.298	11833.83
500.667	11941.62
501.036	12030.21
501.405	12168.06
501.774	12159.92
502.143	12234.72
502.512	12325.57
502.88	12403.76
503.249	12467.93
503.618	12564.66
503.987	12683.07
504.356	12724.65
504.724	12817.53
505.093	12897.98
505.462	12940.24
505.83	13040.12
506.199	13155.37
506.567	13268.37
506.936	13371.19
507.304	13563.27
507.672	13582.26
508.041	13649.6
508.409	13803.27
508.777	13860.21
509.145	14005.3
509.514	13979.99
509.882	14144.27
510.25	14157.61
510.618	14312.18
510.986	14403.48
511.354	14577.26
511.722	14664.94
512.09	14794.2
512.458	14789.23
512.826	14992.84
513.193	15034.42
513.561	15132.72
513.929	15269.9
514.297	15396.45
514.664	15514.63
515.032	15640.51
515.4	15746.72
515.767	15808.19
516.135	15976.09
516.502	15902.42
516.869	16208.85
517.237	16251.34
517.604	16246.37
517.972	16415.63
518.339	16566.36
518.706	16624.66
519.073	16819.68
519.44	16896.52
519.808	17120.69
520.175	17077.76
520.542	17329.73
520.909	17478.2
521.276	17525.66
521.643	17648.36
522.009	17790.28
522.376	17908.24
522.743	18019.88
523.11	18303.71
523.477	18432.52
523.843	18522.24
524.21	18689.01
524.577	18910.48
524.943	18981.44
525.31	19061.21
525.676	19325.16
526.043	19445.15
526.409	19496
526.776	19712.94
527.142	19768.99
527.508	19886.72
527.874	20118.13
528.241	20155.87
528.607	20334.17
528.973	20417.1
529.339	20420.27
529.705	20728.51
530.071	20939.8
530.437	20937.99
530.803	21043.08
531.169	21222.51
531.535	21275.84
531.901	21354.25
532.267	21435.16
532.632	21669.27
532.998	21636.51
533.364	21798.99
533.73	21906.56
534.095	22119.21
534.461	22177.96
534.826	22334.79
535.192	22295.7
535.557	22535.24
535.923	22490.04
536.288	22673.32
536.653	22822.46
537.019	22652.3
537.384	22869.92
537.749	23054.1
538.114	23168.9
538.479	23088.45
538.845	23199.86
539.21	23270.14
539.575	23374.09
539.94	23467.65
540.305	23700.86
540.67	23708.54
541.034	23642.1
541.399	23869.22
541.764	23896.79
542.129	23984.02
542.494	24150.11
542.858	24241.86
543.223	24264.91
543.587	24441.18
543.952	24376.1
544.316	24553.72
544.681	24562.31
545.045	24691.34
545.41	24725.69
545.774	24808.18
546.138	24911.9
546.503	24905.35
546.867	24963.65
547.231	25124.78
547.595	25214.27
547.959	25256.98
548.324	25328.16
548.688	25329.52
549.052	25531.09
549.416	25589.62
549.779	25731.54
550.143	25709.39
550.507	25963.4
550.871	25968.37
551.235	26047.46
551.599	26232.54
551.962	26228.93
552.326	26237.52
552.689	26443.61
553.053	26415.36
553.417	26490.39
553.78	27001.79
554.143	26712.53
554.507	27013.77
554.87	27106.19
555.234	27339.86
555.597	27139.87
555.96	27240.43
556.323	27470.48
556.686	27432.06
557.05	27738.72
557.413	27771.26
557.776	27811.94
558.139	27994.53
558.502	28126.28
558.865	28103.68
559.228	28377.57
559.59	28310.91
559.953	28461.86
560.316	28783.21
560.679	28725.59
561.041	28832.02
561.404	29055.75
561.767	29314.5
562.129	29294.39
562.492	29532.8
562.854	29548.62
563.217	29668.39
563.579	29679.23
563.941	29758.78
564.304	29907.93
564.666	30162.61
565.028	30178.88
565.39	30169.84
565.753	30490.74
566.115	30671.75
566.477	30784.97
566.839	30824.29
567.201	31115.35
567.563	31021.8
567.925	31338.63
568.287	31152.87
568.648	31271.28
569.01	31365.97
569.372	31748.78
569.734	31489.36
570.095	31785.39
570.457	31930.7
570.819	32009.57
571.18	31984.94
571.542	32183.57
571.903	32269.45
572.265	32401.87
572.626	32394.87
572.987	32485.26
573.349	32544.02
573.71	32761.64
574.071	32723.45
574.432	32841.18
574.794	33073.49
575.155	33057
575.516	33042.76
575.877	33259.7
576.238	33202.3
576.599	33238.91
576.96	33289.31
577.32	33257.67
577.681	33416.31
578.042	33517.32
578.403	33480.49
578.763	33614.05
579.124	33565.46
579.485	33740.37
579.845	33956.18
580.206	33752.57
580.566	33663.54
580.927	33870.08
581.287	34079.34
581.648	33834.38
582.008	33980.59
582.368	33868.73
582.728	34054.26
583.089	33860.37
583.449	34034.83
583.809	33878.9
584.169	34048.61
584.529	34022.17
584.889	34170.19
585.249	34028.27
585.609	33856.98
585.969	34037.76
586.329	33988.27
586.688	34163.41
587.048	34039.12
587.408	33974.71
587.768	34009.06
588.127	34065.11
588.487	34089.51
588.846	34369.05
589.206	33988.27
589.565	34066.01
589.925	34239.79
590.284	34184.88
590.643	34093.35
591.003	34159.12
591.362	34295.84
591.721	34123.86
592.08	34112.79
592.44	34096.74
592.799	34122.73
593.158	34169.06
593.517	34117.76
593.876	34259
594.235	34089.74
594.593	34125.22
594.952	34260.36
595.311	34090.42
595.67	34224.42
596.029	34340.58
596.387	34252.22
596.746	34445.89
597.104	34248.61
597.463	34198.89
597.822	34390.97
598.18	34166.35
598.538	34212.22
598.897	34442.27
599.255	34148.04
599.613	34577.41
599.972	34349.17
600.33	34393.46
600.688	34283.63
601.046	34421.03
601.404	34583.29
601.762	34512.78
602.12	34679.55
602.478	34556.62
602.836	34491.31
603.194	34360.47
603.552	34499.22
603.91	34335.16
604.268	34607.47
604.625	34444.76
604.983	34612.66
605.341	34400.01
605.698	34618.99
606.056	34752.09
606.413	34670.97
606.771	34698.08
607.128	34945.31
607.485	34603.4
607.843	34581.7
608.2	34822.15
608.557	34939.21
608.914	34818.08
609.272	34922.94
609.629	34982.6
609.986	35152.99
610.343	34995.7
610.7	35249.48
611.057	35130.84
611.414	35167.45
611.771	35184.85
612.127	35233.66
612.484	35398.18
612.841	35347.79
613.198	35243.83
613.554	35181.24
613.911	35485.86
614.267	35427.11
614.624	35289.93
614.98	35379.2
615.337	35515.24
615.693	35543.71
616.05	35579.87
616.406	35786.19
616.762	35449.93
617.118	35661.9
617.475	35687.21
617.831	35675.91
618.187	35843.59
618.543	35825.74
618.899	35919.07
619.255	35869.35
619.611	35859.86
619.967	35936.02
620.323	36026.41
620.678	35959.52
621.034	35847.89
621.39	35857.6
621.746	35770.6
622.101	36167.42
622.457	35884.49
622.812	35951.61
623.168	36162.68
623.523	36111.38
623.879	36139.18
624.234	35856.02
624.589	35985.28
624.945	36092.85
625.3	36236.8
625.655	35980.09
626.01	36089.46
626.365	36063.47
626.72	35958.84
627.075	36029.35
627.43	36031.84
627.785	35959.52
628.14	35972.63
628.495	36063.02
628.85	35964.72
629.205	35841.11
629.559	35991.84
629.914	35937.6
630.269	35955
630.623	35934.66
630.978	35757.49
631.332	35832.74
631.687	35978.28
632.041	35744.84
632.396	35839.52
632.75	35575.35
633.104	35871.84
633.459	35568.57
633.813	35524.28
634.167	35405.41
634.521	35533.54
634.875	35561.11
635.229	35391.17
635.583	35323.15
635.937	35368.35
636.291	35350.05
636.645	35278.41
636.999	35196.83
637.352	35297.39
637.706	35052.2
638.06	35119.09
638.413	35185.3
638.767	35031.18
639.121	34999.55
639.474	34849.49
639.828	34804.52
640.181	34884.52
640.534	34845.88
640.888	34683.4
641.241	34502.38
641.594	34698.76
641.947	34720.01
642.301	34536.28
642.654	34539.9
643.007	34489.73
643.36	34527.24
643.713	34438.66
644.066	34584.87
644.419	34367.47
644.771	34035.05
645.124	33711.44
645.477	33470.09
645.83	33511.45
646.182	33254.73
646.535	33307.84
646.888	33398.23
647.24	33125.92
647.593	33382.87
647.945	33243.66
648.298	33092.93
648.65	33070.78
649.002	32991.46
649.355	33049.31
649.707	32974.06
650.059	33033.27
650.411	33502.64
650.763	33419.47
651.115	33874.83
651.467	33607.72
651.819	33663.08
652.171	33555.52
652.523	33498.34
652.875	33616.53
653.227	33456.54
653.578	33634.61
653.93	33423.99
654.282	33195.53
654.633	33307.84
654.985	33367.72
655.337	33346.48
655.688	33254.73
656.039	33340.15
656.391	33151.46
656.742	33162.08
657.094	33130.67
657.445	33309.87
657.796	33174.51
658.147	33031.46
658.498	33013.16
658.849	33080.27
659.2	33015.87
659.551	32916.66
659.902	32996.43
660.253	33002.99
660.604	32891.8
660.955	32625.14
661.306	32884.35
661.656	32714.63
662.007	32775.88
662.358	32746.27
662.708	32514.19
663.059	32571.36
663.409	32346.51
663.76	32654.07
664.11	32595.09
664.461	32512.61
664.811	32514.19
665.161	32432.83
665.511	32138.15
665.862	32305.83
666.212	32305.83
666.562	32250.69
666.912	32177.47
667.262	32060.41
667.612	32042.79
667.962	31974.99
668.312	31877.14
668.662	31901.32
669.011	31750.37
669.361	31719.86
669.711	31556.92
670.06	31439.87
670.41	31362.58
670.76	31367.55
671.109	31456.14
671.459	31359.42
671.808	31108.12
672.157	31241
672.507	30905.19
672.856	30909.03
673.205	30930.5
673.554	31040.1
673.904	30916.72
674.253	30968.69
674.602	30856.15
674.951	30495.48
675.3	30086
675.649	30724.18
675.998	30646.67
676.346	30758.53
676.695	30814.57
677.044	30525.77
677.393	30614.8
677.741	30603.96
678.09	30516.5
678.438	30414.13
678.787	30507.23
679.135	30510.85
679.484	30233.8
679.832	30488.25
680.181	30182.72
680.529	30348.82
680.877	30256.85
681.225	30274.25
681.573	30536.16
681.922	30224.98
682.27	30150.18
682.618	30387.92
682.966	30283.51
683.314	30392.44
683.661	30265.66
684.009	30171.42
684.357	30161.48
684.705	30202.84
685.053	30320.57
685.4	30139.33
685.748	30102.95
686.095	30054.82
686.443	30153.8
686.79	30053.24
687.138	30093.23
687.485	30111.31
687.832	30041.26
688.18	30159.9
688.527	29928.27
688.874	30044.65
689.221	30010.3
689.568	29908.15
689.915	29862.05
690.262	29922.84
690.609	29812.34
690.956	29650.76
691.303	29825.9
691.65	29671.55
691.997	29761.94
692.344	29585.22
692.69	29645.79
693.037	29682.4
693.383	29430.2
693.73	29502.97
694.077	29375.51
694.423	29398.11
694.769	29329.41
695.116	29225.91
695.462	29265.46
695.808	29212.13
696.155	29295.52
696.501	29031.34
696.847	29145.46
697.193	28824.34
697.539	29116.08
697.885	28687.4
698.231	28682.2
698.577	28621.86
698.923	28644.91
699.269	28582.54
699.614	28362.66
699.96	28359.27
700.306	28359.04
700.651	28298.48
700.997	28190.91
701.342	28153.4
701.688	28059.84
702.033	27967.19
702.379	28023.23
702.724	27813.52
703.069	28006.28
703.415	27592.28
703.76	27669.8
704.105	27663.47
704.45	27547.09
704.795	27463.02
705.14	27444.04
705.485	27245.17
705.83	27249.69
706.175	27154.78
706.52	27101.22
706.865	27123.14
707.209	27000.66
707.554	26968.34
707.899	26961.34
708.243	26838.63
708.588	26794.56
708.932	26603.61
709.277	26554.34
709.621	26631.63
709.966	26524.51
710.31	26538.98
710.654	26387.79
710.998	26386.89
711.342	26480.22
711.687	26250.4
712.031	26094.24
712.375	26074.58
712.719	26071.42
713.063	25995.71
713.407	25994.81
713.75	25977.18
714.094	25870.29
714.438	25848.37
714.782	25957.3
715.125	25690.19
715.469	25734.48
715.812	25586.91
716.156	25477.08
716.499	25415.62
716.843	25579
717.186	25436.86
717.53	25426.69
717.873	25355.73
718.216	25364.54
718.559	25208.16
718.902	25127.49
719.246	25133.82
719.589	24988.06
719.932	24955.52
720.275	24974.72
720.617	25007.27
720.96	24942.86
721.303	24817.67
721.646	24813.15
721.989	24768.63
722.331	24825.12
722.674	24665.35
723.016	24640.27
723.359	24666.71
723.701	24690.66
724.044	24532.93
724.386	24400.95
724.729	24520.05
725.071	24457.45
725.413	24456.77
725.755	24400.28
726.097	24189.43
726.439	24178.36
726.782	24070.57
727.124	24257.91
727.465	24115.76
727.807	24082.09
728.149	24116.67
728.491	23923.9
728.833	24009.1
729.175	23934.07
729.516	23839.16
729.858	23759.62
730.199	23923.45
730.541	23747.19
730.882	23748.32
731.224	23858.37
731.565	23608.21
731.906	23547.42
732.248	23614.53
732.589	23558.26
732.93	23503.8
733.271	23396.01
733.612	23459.28
733.953	23492.28
734.294	23373.18
734.635	23354.65
734.976	23306.75
735.317	23264.26
735.658	23257.03
735.999	23181.55
736.339	23076.7
736.68	23169.57
737.021	23097.03
737.361	22981.1
737.702	23090.25
738.042	22916.7
738.383	22859.98
738.723	23031.72
739.063	22906.76
739.404	22821.79
739.744	22895.46
740.084	22751.28
740.424	22751.73
740.764	22793.77
741.104	22747.44
741.444	22608.46
741.784	22416.83
742.124	22491.85
742.464	22534.34
742.804	22469.48
743.143	22438.29
743.483	22488.46
743.823	22385.41
744.162	22299.31
744.502	22224.97
744.841	22175.48
745.181	22323.27
745.52	22179.77
745.86	22217.74
746.199	22057.06
746.538	22039.21
746.877	22157.4
747.216	22046.67
747.556	22037.85
747.895	21982.71
748.234	21917.18
748.573	21831.98
748.911	21820.01
749.25	21804.19
749.589	21658.43
749.928	21768.93
750.267	21697.75
750.605	21706.34
750.944	21552.67
751.283	21446.23
751.621	21623.17
751.96	21493.23
752.298	21359.68
752.636	21403.75
752.975	21283.52
753.313	21213.69
753.651	21279.45
753.989	21201.26
754.327	21081.27
754.666	20945.45
755.004	21007.37
755.342	21088.05
755.679	21000.37
756.017	20919.92
756.355	20900.71
756.693	20752.46
757.031	20862.74
757.368	20663.88
757.706	20597.21
758.044	20619.58
758.381	20637.89
758.719	20566.48
759.056	20527.84
759.394	20396.09
759.731	20296.2
760.068	20239.71
760.405	20030.22
760.743	20079.03
761.08	20133.27
761.417	19936.67
761.754	19955.2
762.091	19959.26
762.428	19885.59
762.765	19769.44
763.102	19814.41
763.438	19656.67
763.775	19644.47
764.112	19533.74
764.449	19556.79
764.785	19514.08
765.122	19305.04
765.458	19208.55
765.795	19223.24
766.131	19238.83
766.467	19131.71
766.804	19107.76
767.14	18897.6
767.476	18987.76
767.812	18864.83
768.148	18868.9
768.485	18842.68
768.821	18581.22
769.157	18611.05
769.492	18515.23
769.828	18516.59
770.164	18382.81
770.5	18374.45
770.836	18378.97
771.171	18193.21
771.507	18201.12
771.842	18037.05
772.178	18139.88
772.513	18098.97
772.849	17988.47
773.184	17880.45
773.519	17897.62
773.855	17849.49
774.19	17657.63
774.525	17670.51
774.86	17657.63
775.195	17560
775.53	17462.83
775.865	17302.16
776.2	17238.66
776.535	17149.17
776.87	17182.16
777.205	17112.78
777.539	17029.17
777.874	16990.53
778.209	16868.05
778.543	16876.18
778.878	16755.51
779.212	16694.04
779.547	16597.09
779.881	16692.91
780.215	16415.63
780.55	16567.71
780.884	16422.41
781.218	16271.45
781.552	16316.42
781.886	16315.29
782.22	16235.75
782.554	16127.05
782.888	15976.77
783.222	15861.52
783.556	15793.5
783.889	15887.51
784.223	15697
784.557	15698.36
784.89	15681.64
785.224	15587.4
785.557	15564.58
785.891	15488.19
786.224	15453.17
786.558	15468.53
786.891	15395.54
787.224	15220.18
787.557	15247.07
787.891	15200.97
788.224	15291.14
788.557	15220.86
788.89	15133.18
789.223	15116.9
789.556	14959.62
789.888	14905.38
790.221	14792.39
790.554	14718.72
790.887	14760.76
791.219	14662.45
791.552	14634.66
791.884	14575.22
792.217	14502.46
792.549	14533.64
792.882	14358.96
793.214	14250.49
793.546	14403.25
793.879	14263.82
794.211	14149.7
794.543	14203.26
794.875	14209.81
795.207	14157.61
795.539	14063.37
795.871	14067.89
796.203	13972.98
796.535	13776.15
796.867	13841.01
797.198	13798.52
797.53	13759.2
797.862	13698.19
798.193	13747.45
798.525	13624.74
798.856	13643.95
799.188	13427.23
799.519	13493.9
799.85	13354.01
800.182	13408.7
800.513	13383.84
800.844	13274.92
801.175	13350.4
801.506	13251.19
801.837	13213.9
802.168	13115.83
802.499	13110.86
802.83	13048.03
803.161	13121.93
803.491	13080.12
803.822	12968.03
804.153	12900.01
804.483	12856.63
804.814	12765.1
805.145	12750.87
805.475	12738.21
805.805	12692.79
806.136	12725.1
806.466	12711.32
806.796	12575.28
807.126	12554.03
807.457	12574.6
807.787	12497.09
808.117	12426.35
808.447	12341.38
808.777	12412.12
809.107	12323.76
809.436	12232.01
809.766	12365.11
810.096	12262.29
810.426	12173.48
810.755	12213.48
811.085	12093.26
811.414	12121.73
811.744	12074.05
812.073	12053.48
812.403	12030.43
812.732	11983.43
813.061	11934.62
813.39	11899.36
813.719	11856.65
814.049	11961.28
814.378	11958.34
814.707	11785.24
815.036	11794.51
815.365	11691.23
815.693	11665.7
816.022	11728.52
816.351	11600.61
816.68	11576.21
817.008	11550.44
817.337	11539.6
817.665	11430
817.994	11509.09
818.322	11474.97
818.651	11455.76
818.979	11333.28
819.307	11472.25
819.636	11327.63
819.964	11208.53
820.292	11346.61
820.62	11287.85
820.948	11284.46
821.276	11271.13
821.604	11201.3
821.932	11299.6
822.259	11260.28
822.587	11204.69
822.915	11229.78
823.243	11246.27
823.57	11206.27
823.898	11271.58
824.225	11185.26
824.553	11184.35
824.88	11167.4
825.207	11278.14
825.535	11204.69
825.862	11257.12
826.189	11179.38
826.516	11224.58
826.843	11179.16
827.17	11261.64
827.497	11232.26
827.824	11191.13
828.151	11182.54
828.478	11212.83
828.805	11215.76
829.131	11138.48
829.458	11144.13
829.785	11116.33
830.111	11059.38
830.438	11151.81
830.764	11152.04
831.09	11157.46
831.417	11056.9
831.743	11127.18
832.069	11128.08
832.395	11003.79
832.722	11118.37
833.048	11013.28
833.374	11102.77
833.7	10987.75
834.026	10991.59
834.351	10997.24
834.677	11057.8
835.003	11058.48
835.329	11028.42
835.654	11014.87
835.98	10893.06
836.306	10998.82
836.631	10890.58
836.956	10915.43
837.282	10906.39
837.607	10862.55
837.932	10839.05
838.258	10831.82
838.583	10818.26
838.908	10708.89
839.233	10858.03
839.558	10780.52
839.883	10705.95
840.208	10656.91
840.533	10682.22
840.858	10685.83
841.182	10684.93
841.507	10602.9
841.832	10608.1
842.156	10526.74
842.481	10616.23
842.805	10613.52
843.13	10533.97
843.454	10520.64
843.778	10449.46
844.103	10444.26
844.427	10470.02
844.751	10408.78
845.075	10402.9
845.399	10378.05
845.723	10312.51
846.047	10285.39
846.371	10209.01
846.695	10182.57
847.019	10187.09
847.343	10070.26
847.666	10026.64
847.99	10022.12
848.313	10006.08
848.637	9934.89
848.96	9918.4
849.284	9875.01
849.607	9839.53
849.931	9829.81
850.254	9835.24
850.577	9703.94
850.9	9670.72
851.223	9651.06
851.546	9559.54
851.869	9586.65
852.192	9565.19
852.515	9426.88
852.838	9450.16
853.161	9455.58
853.483	9437.51
853.806	9330.62
854.129	9349.6
854.451	9295.14
854.774	9272.09
855.096	9220.11
855.419	9157.29
855.741	9141.92
856.063	9089.27
856.385	9091.3
856.708	9120.23
857.03	9015.37
857.352	9082.26
857.674	9002.26
857.996	9031.64
858.318	8959.55
858.64	8994.81
858.961	8961.13
859.283	8868.03
859.605	8749.39
859.926	8831.87
860.248	8761.14
860.57	8703.29
860.891	8808.14
861.212	8734.02
861.534	8802.04
861.855	8742.16
862.176	8640.01
862.498	8656.51
862.819	8700.8
863.14	8581.26
863.461	8654.7
863.782	8596.85
864.103	8612.44
864.424	8559.79
864.745	8519.11
865.065	8531.32
865.386	8454.26
865.707	8522.05
866.027	8520.92
866.348	8498.55
866.668	8450.41
866.989	8393.47
867.309	8358.89
867.63	8346.91
867.95	8350.3
868.27	8372.68
868.59	8376.07
868.91	8308.5
869.23	8300.81
869.55	8295.84
869.87	8353.01
870.19	8269.18
870.51	8269.63
870.83	8262.4
871.15	8256.52
871.469	8181.95
871.789	8214.49
872.109	8176.75
872.428	8103.53
872.748	8188.05
873.067	8125
873.386	8113.25
873.706	8236.86
874.025	8030.99
874.344	8035.51
874.663	8102.4
874.982	8098.11
875.301	8122.51
875.62	8029.41
875.939	8000.48
876.258	8004.78
876.577	8008.17
876.896	8009.97
877.214	7992.12
877.533	7988.96
877.852	7937.21
878.17	7919.35
878.489	7935.17
878.807	7979.47
879.125	7921.84
879.444	7933.59
879.762	7885.23
880.08	7855.4
880.398	7765.46
880.716	7823.99
881.034	7821.73
881.352	7784.22
881.67	7773.6
881.988	7770.88
882.306	7780.83
882.624	7775.4
882.941	7734.95
883.259	7633.94
883.577	7702.86
883.894	7611.11
884.212	7557.33
884.529	7597.78
884.846	7622.86
885.164	7560.04
885.481	7554.62
885.798	7552.13
886.115	7506.03
886.432	7491.57
886.75	7424.68
887.067	7496.31
887.383	7452.47
887.7	7428.29
888.017	7348.75
888.334	7413.38
888.651	7364.57
888.967	7326.15
889.284	7345.13
889.6	7282.53
889.917	7219.49
890.233	7280.27
890.55	7259.71
890.866	7255.87
891.182	7253.83
891.498	7139.94
891.815	7191.24
892.131	7146.04
892.447	7066.72
892.763	7111.92
893.079	7076.66
893.395	7025.14
893.71	7036.21
894.026	7003.9
894.342	6994.41
894.657	6943.56
894.973	6932.94
895.289	6922.09
895.604	7010.9
895.92	6855.43
896.235	6850.46
896.55	6836.22
896.865	6823.34
897.181	6814.52
897.496	6796.45
897.811	6759.84
898.126	6730.91
898.441	6685.94
898.756	6681.87
899.071	6664.92
899.386	6652.49
899.7	6654.53
900.015	6599.39
900.33	6575.21
900.644	6529.79
900.959	6544.02
901.273	6542.21
901.588	6475.78
901.902	6444.14
902.216	6473.52
902.531	6431.48
902.845	6412.73
903.159	6397.81
903.473	6352.62
903.787	6343.35
904.101	6247.31
904.415	6227.65
904.729	6215.22
905.042	6148.55
905.356	6180.87
905.67	6198.95
905.984	6203.24
906.297	6132.73
906.611	6095.45
906.924	6097.93
907.237	6042.34
907.551	6078.5
907.864	6010.03
908.177	6024.71
908.491	5983.81
908.804	5927.54
909.117	5892.74
909.43	5897.26
909.743	5864.49
910.056	5825.62
910.368	5834.66
910.681	5774.1
910.994	5754.89
911.307	5723.03
911.619	5706.3
911.932	5720.77
912.244	5690.49
912.557	5683.93
912.869	5637.38
913.181	5608.68
913.494	5606.65
913.806	5537.04
914.118	5612.07
914.43	5545.41
914.742	5555.8
915.054	5471.51
915.366	5402.58
915.678	5455.46
915.99	5386.09
916.302	5377.27
916.613	5332.08
916.925	5351.96
917.236	5337.5
917.548	5338.18
917.859	5345.64
918.171	5263.6
918.482	5267.67
918.794	5232.64
919.105	5224.28
919.416	5160.78
919.727	5134.12
920.038	5181.8
920.349	5069.26
920.66	5053.44
920.971	5073.55
921.282	5091.18
921.593	5048.24
921.903	4978.41
922.214	4984.29
922.525	4961.69
922.835	5017.74
923.146	4862.71
923.456	4932.77
923.767	4899.09
924.077	4899.77
924.387	4834.46
924.697	4855.03
925.008	4780.68
925.318	4803.96
925.628	4780.91
925.938	4775.48
926.248	4683.96
926.558	4699.55
926.867	4637.18
927.177	4690.74
927.487	4631.53
927.796	4625.2
928.106	4644.64
928.416	4562.83
928.725	4565.09
929.034	4546.11
929.344	4565.09
929.653	4516.96
929.962	4478.54
930.271	4463.63
930.581	4420.01
930.89	4440.12
931.199	4429.5
931.508	4408.26
931.817	4377.98
932.125	4361.26
932.434	4353.35
932.743	4296.17
933.051	4288.94
933.36	4267.02
933.669	4252.11
933.977	4268.83
934.286	4234.71
934.594	4198.1
934.902	4163.52
935.21	4179.79
935.519	4150.87
935.827	4101.15
936.135	4149.96
936.443	4141.15
936.751	4071.09
937.059	4071.55
937.367	4093.24
937.674	4040.59
937.982	4046.24
938.29	4009.4
938.597	4035.84
938.905	3948.84
939.213	3940.93
939.52	3918.1
939.827	3913.58
940.135	3931.66
940.442	3919.23
940.749	3906.13
941.056	3878.1
941.363	3833.36
941.67	3835.85
941.977	3790.42
942.284	3787.26
942.591	3778.45
942.898	3763.98
943.205	3750.2
943.511	3734.38
943.818	3709.97
944.125	3655.96
944.431	3681.05
944.738	3674.04
945.044	3706.81
945.35	3627.26
945.657	3647.6
945.963	3584.78
946.269	3584.78
946.575	3566.93
946.881	3537.32
947.187	3559.47
947.493	3522.41
947.799	3540.94
948.105	3506.36
948.41	3438.34
948.716	3467.04
949.022	3463.43
949.327	3476.53
949.633	3431.11
949.938	3402.41
950.244	3406.7
950.549	3383.2
950.854	3370.55
951.16	3370.77
951.465	3322.19
951.77	3311.79
952.075	3354.5
952.38	3345.69
952.685	3315.18
952.99	3269.08
953.294	3248.06
953.599	3284.9
953.904	3263.66
954.209	3216.43
954.513	3208.52
954.818	3164
955.122	3155.19
955.426	3149.99
955.731	3153.83
956.035	3163.55
956.339	3149.08
956.643	3128.07
956.948	3096.66
957.252	3039.93
957.556	3068.18
957.86	3009.88
958.163	3010.56
958.467	3016.43
958.771	3026.83
959.075	2975.76
959.378	2942.99
959.682	2997.9
959.985	2932.37
960.289	2937.34
960.592	2903.89
960.896	2945.02
961.199	2865.48
961.502	2917.23
961.805	2872.48
962.108	2882.42
962.411	2861.18
962.714	2821.41
963.017	2809.88
963.32	2845.59
963.623	2792.71
963.926	2815.08
964.228	2791.13
964.531	2770.56
964.833	2764.69
965.136	2725.59
965.438	2740.51
965.741	2730.34
966.043	2703.45
966.345	2720.85
966.648	2717.23
966.95	2684.01
967.252	2680.62
967.554	2671.58
967.856	2635.88
968.158	2661.87
968.46	2627.06
968.761	2606.73
969.063	2626.84
969.365	2607.86
969.666	2589.1
969.968	2558.36
970.269	2552.04
970.571	2533.96
970.872	2566.5
971.174	2495.77
971.475	2530.34
971.776	2546.39
972.077	2491.02
972.378	2507.07
972.679	2513.39
972.98	2484.24
973.281	2455.99
973.582	2480.4
973.883	2424.81
974.183	2411.25
974.484	2435.88
974.785	2419.61
975.085	2390.69
975.386	2395.66
975.686	2400.63
975.986	2378.93
976.287	2357.01
976.587	2350.01
976.887	2340.97
977.187	2294.19
977.487	2305.49
977.787	2306.62
978.087	2292.84
978.387	2260.97
978.687	2267.3
978.987	2256
979.286	2258.49
979.586	2241.76
979.885	2214.19
980.185	2200.63
980.484	2234.76
980.784	2214.65
981.083	2200.86
981.382	2181.43
981.682	2165.61
981.981	2178.04
982.28	2141.43
982.579	2180.75
982.878	2149.79
983.177	2140.07
983.475	2131.03
983.774	2069.11
984.073	2088.32
984.372	2095.33
984.67	2070.02
984.969	2083.35
985.267	2072.73
985.566	2048.1
985.864	2057.59
986.162	2049.9
986.461	2024.59
986.759	2020.3
987.057	2005.16
987.355	1992.73
987.653	1968.1
987.951	1965.16
988.249	1975.78
988.547	2007.87
988.844	1949.12
989.142	1982.56
989.44	1965.39
989.737	1907.76
990.035	1899.63
990.332	1911.6
990.63	1907.99
990.927	1898.72
991.224	1877.03
991.521	1877.03
991.819	1879.74
992.116	1854.65
992.413	1872.06
992.71	1842.9
993.006	1860.76
993.303	1823.92
993.6	1814.2
993.897	1813.53
994.193	1785.5
994.49	1800.42
994.787	1780.53
995.083	1798.84
995.379	1771.49
995.676	1780.76
995.972	1749.12
996.268	1760.65
996.565	1729.01
996.861	1709.8
997.157	1705.05
997.453	1710.25
997.749	1704.15
998.044	1705.05
998.34	1685.39
998.636	1683.81
998.932	1654.21
999.227	1679.74
999.523	1658.5
999.818	1650.37
1000.114	1633.19
1000.409	1656.24
1000.704	1638.39
1001	1610.14
1001.295	1613.53
1001.59	1631.38
1001.885	1590.93
1002.18	1580.76
1002.475	1590.48
1002.77	1588.22
1003.065	1540.09
1003.359	1529.01
1003.654	1570.14
1003.949	1545.51
1004.243	1510.26
1004.538	1510.93
1004.832	1505.96
1005.127	1533.99
1005.421	1495.34
1005.715	1508.45
1006.009	1485.17
1006.304	1470.03
1006.598	1488.79
1006.892	1467.55
1007.186	1469.58
1007.48	1458.96
1007.773	1412.63
1008.067	1445.17
1008.361	1414.44
1008.655	1386.42
1008.948	1395.01
1009.242	1409.69
1009.535	1417.38
1009.829	1364.5
1010.122	1368.11
1010.415	1351.39
1010.708	1370.15
1011.001	1331.96
1011.295	1356.59
1011.588	1326.31
1011.881	1334.44
1012.173	1324.5
1012.466	1322.92
1012.759	1310.71
1013.052	1315.91
1013.344	1301.22
1013.637	1318.4
1013.93	1283.14
1014.222	1294.67
1014.514	1258.74
1014.807	1270.26
1015.099	1261.45
1015.391	1230.72
1015.683	1220.1
1015.976	1224.61
1016.268	1212.86
1016.56	1210.38
1016.851	1190.94
1017.143	1212.41
1017.435	1213.99
1017.727	1173.54
1018.018	1177.84
1018.31	1174.9
1018.602	1170.6
1018.893	1157.72
1019.185	1162.24
1019.476	1169.25
1019.767	1148.46
1020.058	1144.39
1020.35	1145.52
1020.641	1075.47
1020.932	1109.59
1021.223	1098.97
1021.514	1145.97
1021.804	1084.28
1022.095	1089.7
1022.386	1090.38
1022.677	1070.04
1022.967	1046.54
1023.258	1059.2
1023.548	1062.13
1023.839	1047.22
1024.129	1060.55
1024.419	1037.95
1024.709	1033.43
1025	1023.49
1025.29	1013.09
1025.58	1008.35
1025.87	1002.47
1026.16	1001.34
1026.449	1006.77
1026.739	960.21
1027.029	980.55
1027.319	982.14
1027.608	948.24
1027.898	972.64
1028.187	955.02
1028.477	964.28
1028.766	941.01
1029.055	927.67
1029.344	938.52
1029.634	938.75
1029.923	948.46
1030.212	906.88
1030.501	927.9
1030.79	913.21
1031.078	897.84
1031.367	879.09
1031.656	899.88
1031.945	877.05
1032.233	864.85
1032.522	883.15
1032.81	857.62
1033.099	854.91
1033.387	862.82
1033.675	866.66
1033.963	840.9
1034.251	852.65
1034.54	844.74
1034.828	835.02
1035.116	849.71
1035.403	833.21
1035.691	815.81
1035.979	825.76
1036.267	822.14
1036.554	810.84
1036.842	793.21
1037.129	787.34
1037.417	782.37
1037.704	791.86
1037.992	774.46
1038.279	779.2
1038.566	758.64
1038.853	758.64
1039.14	758.64
