Data from white_steel_sheet_FLMS001491_050.txt Node
Date: Tue Feb 07 10:57:56 GMT 2017
User: dcchb
Spectrometer: FLMS00149
Trigger mode: 0
Integration Time (sec): 2.000000E-2
Scans to average: 10
Electric dark correction enabled: true
Nonlinearity correction enabled: false
Boxcar width: 0
XAxis mode: Wavelengths
Number of Pixels in Spectrum: 2048
>>>>>Begin Spectral Data<<<<<
341.393	-12.33
341.776	-12.33
342.16	-12.33
342.543	-51.65
342.927	-58.88
343.31	-62.5
343.693	-75.61
344.077	-54.36
344.46	-74.93
344.843	-66.11
345.226	-44.87
345.61	-43.52
345.993	-3.29
346.376	-6
346.759	12.98
347.142	27.89
347.525	36.26
347.908	56.59
348.291	103.15
348.674	89.36
349.057	104.95
349.44	139.98
349.823	151.73
350.206	151.06
350.588	199.42
350.971	238.51
351.354	228.12
351.737	251.62
352.119	248
352.502	257.04
352.884	284.84
353.267	297.72
353.65	309.02
354.032	294.33
354.414	297.72
354.797	313.08
355.179	344.27
355.562	328.45
355.944	315.12
356.326	347.66
356.709	322.8
357.091	339.98
357.473	360.09
357.855	332.29
358.238	346.98
358.62	342.91
359.002	348.11
359.384	361.45
359.766	344.04
360.148	348.56
360.53	355.57
360.912	338.85
361.294	358.96
361.676	339.75
362.057	338.4
362.439	343.37
362.821	352.86
363.203	338.85
363.584	311.05
363.966	343.37
364.348	342.69
364.729	327.32
365.111	330.49
365.493	338.4
365.874	325.51
366.256	316.7
366.637	320.54
367.019	322.58
367.4	330.71
367.781	338.4
368.163	332.75
368.544	317.6
368.925	337.49
369.306	339.07
369.688	331.16
370.069	339.3
370.45	343.82
370.831	355.34
371.212	337.04
371.593	332.97
371.974	336.81
372.355	318.06
372.736	338.62
373.117	323.93
373.498	330.94
373.879	322.35
374.26	335.23
374.641	305.63
375.021	316.02
375.402	324.61
375.783	335.68
376.163	352.18
376.544	332.29
376.925	343.37
377.305	351.05
377.686	347.89
378.066	356.93
378.447	344.72
378.827	340.88
379.208	367.55
379.588	359.19
379.968	346.53
380.349	365.51
380.729	356.93
381.109	345.85
381.489	360.32
381.87	351.28
382.25	392.18
382.63	360.09
383.01	355.57
383.39	350.15
383.77	377.49
384.15	360.77
384.53	392.18
384.91	372.74
385.29	382.69
385.67	380.65
386.049	396.92
386.429	387.21
386.809	381.33
387.189	395.57
387.568	387.89
387.948	412.52
388.328	391.95
388.707	410.03
389.087	393.99
389.466	420.43
389.846	447.54
390.225	414.1
390.605	405.96
390.984	443.93
391.363	425.4
391.743	422.01
392.122	431.27
392.501	457.94
392.881	445.06
393.26	444.38
393.639	458.84
394.018	463.36
394.397	465.62
394.776	459.52
395.155	472.85
395.534	467.21
395.913	468.34
396.292	482.57
396.671	503.81
397.05	497.03
397.429	502.01
397.808	525.06
398.186	497.49
398.565	518.96
398.944	512.4
399.323	521.44
399.701	542.23
400.08	524.83
400.458	549.01
400.837	564.38
401.215	566.64
401.594	555.79
401.972	582.91
402.351	572.74
402.729	570.25
403.107	603.02
403.486	606.86
403.864	609.8
404.242	608.9
404.62	633.3
404.999	665.62
405.377	665.84
405.755	666.07
406.133	663.36
406.511	646.64
406.889	683.02
407.267	695.9
407.645	702.68
408.023	710.14
408.401	762.56
408.779	738.84
409.156	748.33
409.534	778.38
409.912	761.43
410.29	779.51
410.667	796.01
411.045	836.01
411.422	818.16
411.8	820.42
412.178	865.61
412.555	865.39
412.933	856.12
413.31	893.18
413.687	877.59
414.065	911.71
414.442	906.06
414.819	900.87
415.197	926.63
415.574	952.16
415.951	979.73
416.328	967.08
416.705	976.8
417.082	987.42
417.46	991.26
417.837	1011.37
418.214	1025.83
418.591	1013.63
418.967	1038.49
419.344	1035.33
419.721	1095.66
420.098	1073.29
420.475	1071.26
420.852	1083.91
421.228	1096.79
421.605	1111.26
421.982	1135.21
422.358	1136.11
422.735	1132.27
423.111	1144.02
423.488	1199.84
423.864	1192.61
424.241	1185.15
424.617	1189.22
424.994	1223.57
425.37	1214.76
425.746	1205.94
426.123	1254.76
426.499	1255.89
426.875	1280.07
427.251	1286.17
427.627	1320.97
428.003	1344.7
428.379	1341.76
428.756	1350.12
429.132	1391.47
429.507	1400.51
429.883	1398.93
430.259	1445.94
430.635	1459.72
431.011	1481.19
431.387	1513.28
431.763	1526.16
432.138	1490.23
432.514	1563.22
432.89	1581.53
433.265	1595.09
433.641	1627.63
434.016	1612.03
434.392	1658.59
434.767	1701.52
435.143	1691.13
435.518	1698.13
435.894	1692.03
436.269	1736.32
436.644	1772.48
437.02	1761.86
437.395	1807.96
437.77	1813.61
438.145	1818.58
438.52	1870.78
438.895	1857.9
439.271	1863.78
439.646	1960.95
440.021	1939.71
440.395	1946.49
440.77	1958.92
441.145	1986.94
441.52	2035.53
441.895	2024.45
442.27	2055.64
442.645	2015.41
443.019	2037.11
443.394	2106.94
443.769	2087.28
444.143	2060.38
444.518	2118.24
444.892	2156.43
445.267	2148.29
445.641	2196.2
446.016	2195.97
446.39	2174.96
446.764	2252.47
447.139	2217.22
447.513	2261.51
447.887	2257.67
448.262	2281.39
448.636	2301.28
449.01	2329.53
449.384	2326.37
449.758	2354.16
450.132	2385.35
450.506	2409.3
450.88	2398.68
451.254	2421.96
451.628	2457.89
452.002	2499.69
452.376	2473.71
452.75	2515.06
453.123	2515.51
453.497	2602.97
453.871	2612.46
454.244	2675.73
454.618	2666.02
454.992	2721.84
455.365	2729.29
455.739	2793.25
456.112	2812.68
456.486	2813.81
456.859	2840.48
457.232	2895.62
457.606	2895.84
457.979	2944.88
458.352	3021.94
458.725	3017.87
459.099	3041.83
459.472	3127.47
459.845	3157.53
460.218	3212.67
460.591	3217.64
460.964	3219
461.337	3273.01
461.71	3343.51
462.083	3427.35
462.456	3413.79
462.829	3399.78
463.201	3471.87
463.574	3509.61
463.947	3547.12
464.32	3576.73
464.692	3645.88
465.065	3677.74
465.438	3712.09
465.81	3761.81
466.183	3808.59
466.555	3910.5
466.928	3932.88
467.3	3913.67
467.672	3989.15
468.045	4131.29
468.417	4082.03
468.789	4078.18
469.161	4176.49
469.534	4250.83
469.906	4345.3
470.278	4400.66
470.65	4417.61
471.022	4496.7
471.394	4558.62
471.766	4593.65
472.138	4681.33
472.51	4750.03
472.882	4818.5
473.253	4883.36
473.625	4936.92
473.997	5081.1
474.369	5094.2
474.74	5154.99
475.112	5246.51
475.484	5314.76
475.855	5398.15
476.227	5467.75
476.598	5604.92
476.97	5649.44
477.341	5789.1
477.713	5889.66
478.084	5907.97
478.455	6084.68
478.827	6137.11
479.198	6242.87
479.569	6259.82
479.94	6495.75
480.311	6502.98
480.682	6707.72
481.053	6812.12
481.424	6940.71
481.795	6944.55
482.166	7058.22
482.537	7167.37
482.908	7348.15
483.279	7399
483.65	7601.48
484.021	7731.2
484.391	7782.95
484.762	7877.63
485.133	7974.35
485.503	8096.38
485.874	8283.95
486.244	8331.41
486.615	8502.7
486.985	8557.61
487.356	8775.69
487.726	8827.89
488.097	8955.8
488.467	8999.64
488.837	9241.66
489.207	9299.06
489.578	9422.22
489.948	9523.24
490.318	9722.78
490.688	9717.81
491.058	9853.63
491.428	10004.13
491.798	10098.36
492.168	10271.02
492.538	10330.67
492.908	10405.47
493.278	10568.18
493.648	10655.19
494.017	10791.45
494.387	10896.76
494.757	10968.62
495.126	11079.58
495.496	11150.31
495.866	11228.28
496.235	11371.78
496.605	11436.18
496.974	11502.17
497.344	11618.78
497.713	11712.11
498.082	11881.14
498.452	11925.21
498.821	12027.13
499.19	12121.59
499.559	12208.14
499.928	12218.31
500.298	12329.27
500.667	12481.13
501.036	12508.7
501.405	12675.92
501.774	12599.32
502.143	12717.73
502.512	12840.67
502.88	12948.46
503.249	12984.16
503.618	13178.74
503.987	13203.82
504.356	13346.64
504.724	13354.32
505.093	13477.03
505.462	13586.18
505.83	13636.8
506.199	13729.91
506.567	13928.55
506.936	14015.78
507.304	14112.5
507.672	14213.28
508.041	14263
508.409	14324.69
508.777	14468.64
509.145	14639.26
509.514	14628.64
509.882	14796.55
510.25	14840.39
510.618	14963.32
510.986	15028.86
511.354	15222.3
511.722	15340.49
512.09	15467.04
512.458	15412.8
512.826	15624.09
513.193	15620.03
513.561	15839.91
513.929	15906.35
514.297	15948.61
514.664	16204.87
515.032	16306.56
515.4	16355.83
515.767	16517.4
516.135	16641.7
516.502	16606.67
516.869	16924.63
517.237	16945.19
517.604	16931.18
517.972	17186.09
518.339	17269.02
518.706	17375.91
519.073	17500.88
519.44	17572.29
519.808	17885.28
520.175	17772.74
520.542	18044.82
520.909	18194.42
521.276	18249.56
521.643	18496.56
522.009	18621.98
522.376	18767.74
522.743	18877.34
523.11	19152.14
523.477	19229.65
523.843	19327.05
524.21	19622.18
524.577	19574.5
524.943	19751.67
525.31	19958.9
525.676	20179.23
526.043	20190.75
526.409	20347.13
526.776	20588.71
527.142	20630.97
527.508	20688.59
527.874	20990.96
528.241	21064.4
528.607	21147.11
528.973	21329.03
529.339	21354.79
529.705	21704.39
530.071	21801.33
530.437	21829.13
530.803	21974.21
531.169	22238.38
531.535	22134.88
531.901	22258.27
532.267	22352.28
532.632	22661.88
532.998	22611.93
533.364	22785.26
533.73	22804.7
534.095	22959.5
534.461	23112.94
534.826	23271.58
535.192	23284.23
535.557	23478.8
535.923	23441.06
536.288	23635.41
536.653	23737.78
537.019	23776.87
537.384	23869.3
537.749	23963.99
538.114	24051.22
538.479	24129.63
538.845	24310.65
539.21	24215.28
539.575	24401.27
539.94	24479
540.305	24656.85
540.67	24702.5
541.034	24765.55
541.399	24981.81
541.764	24875.15
542.129	24981.36
542.494	25111.53
542.858	25177.52
543.223	25229.27
543.587	25440.79
543.952	25448.7
544.316	25503.38
544.681	25534.57
545.045	25753.32
545.41	25893.66
545.774	25984.95
546.138	25970.72
546.503	26052.07
546.867	26064.72
547.231	26273.53
547.595	26308.79
547.959	26364.6
548.324	26508.1
548.688	26502.45
549.052	26678.04
549.416	26736.8
549.779	26732.73
550.143	26954.87
550.507	27061.31
550.871	27126.84
551.235	27118.93
551.599	27340.4
551.962	27452.26
552.326	27425.82
552.689	27576.32
553.053	27482.99
553.417	27741.74
553.78	28048.63
554.143	27859.03
554.507	28080.72
554.87	28197.78
555.234	28433.02
555.597	28278
555.96	28428.28
556.323	28613.36
556.686	28598.22
557.05	28790.75
557.413	28910.3
557.776	29006.79
558.139	29090.41
558.502	29255.6
558.865	29357.29
559.228	29588.7
559.59	29675.7
559.953	29646.55
560.316	30111.17
560.679	29971.06
561.041	30252.18
561.404	30317.72
561.767	30559.52
562.129	30460.54
562.492	30911.15
562.854	30834.32
563.217	30837.93
563.579	31007.19
563.941	31190.47
564.304	31330.57
564.666	31370.57
565.028	31490.12
565.39	31691.24
565.753	31724.69
566.115	31914.97
566.477	32122.87
566.839	32236.99
567.201	32373.48
567.563	32401.51
567.925	32547.72
568.287	32535.51
568.648	32721.05
569.01	32869.97
569.372	33050.3
569.734	32981.15
570.095	33096.86
570.457	33287.59
570.819	33377.98
571.18	33417.75
571.542	33566.67
571.903	33694.35
572.265	33697.97
572.626	33882.37
572.987	33911.3
573.349	33997.17
573.71	34189.93
574.071	34298.63
574.432	34310.84
574.794	34527.55
575.155	34415.01
575.516	34357.16
575.877	34563.26
576.238	34689.36
576.599	34767.77
576.96	34755.57
577.32	34900.65
577.681	34868.79
578.042	34908.79
578.403	34945.85
578.763	34919.63
579.124	35144.26
579.485	35247.08
579.845	35311.94
580.206	35271.71
580.566	35341.09
580.927	35306.52
581.287	35504.02
581.648	35256.57
582.008	35464.25
582.368	35352.16
582.728	35497.7
583.089	35427.42
583.449	35436.46
583.809	35467.87
584.169	35501.76
584.529	35510.58
584.889	35671.93
585.249	35535.89
585.609	35355.1
585.969	35560.07
586.329	35458.38
586.688	35590.58
587.048	35523.01
587.408	35454.53
587.768	35414.53
588.127	35424.03
588.487	35456.12
588.846	35744.02
589.206	35502.67
589.565	35574.08
589.925	35616.11
590.284	35479.17
590.643	35556.68
591.003	35617.24
591.362	35718.93
591.721	35561.88
592.08	35588.32
592.44	35584.93
592.799	35657.01
593.158	35578.37
593.517	35628.77
593.876	35664.7
594.235	35563.01
594.593	35673.51
594.952	35712.38
595.311	35609.11
595.67	35791.25
596.029	35944.69
596.387	35819.27
596.746	35912.6
597.104	35720.97
597.463	35666.28
597.822	35777.01
598.18	35786.05
598.538	35786.73
598.897	36016.33
599.255	35560.29
599.613	36150.56
599.972	35858.82
600.33	35860.4
600.688	35827.41
601.046	35985.37
601.404	35880.06
601.762	35966.38
602.12	36092.48
602.478	35972.71
602.836	36025.37
603.194	35927.97
603.552	36058.81
603.91	35822.66
604.268	35982.66
604.625	35876.67
604.983	36036.89
605.341	35983.79
605.698	36125.02
606.056	36168.41
606.413	36132.93
606.771	36327.28
607.128	36352.14
607.485	36253.38
607.843	36199.83
608.2	36411.12
608.557	36435.53
608.914	36336.54
609.272	36525.69
609.629	36498.57
609.986	36527.73
610.343	36388.97
610.7	36727.27
611.057	36681.39
611.414	36620.6
611.771	36616.54
612.127	36746.93
612.484	36831.45
612.841	36850.88
613.198	36837.55
613.554	36809.98
613.911	37086.81
614.267	37013.59
614.624	36970.43
614.98	37002.52
615.337	37257.42
615.693	37075.96
616.05	37010.2
616.406	37225.11
616.762	37274.6
617.118	37129.97
617.475	37270.08
617.831	37298.33
618.187	37302.62
618.543	37490.86
618.899	37613.8
619.255	37483.41
619.611	37581.71
619.967	37501.26
620.323	37520.92
620.678	37539
621.034	37483.41
621.39	37461.71
621.746	37410.41
622.101	37849.05
622.457	37514.82
622.812	37691.31
623.168	37676.4
623.523	37537.64
623.879	37795.49
624.234	37451.77
624.589	37709.84
624.945	37754.81
625.3	37732.89
625.655	37828.71
626.01	37679.33
626.365	37650.18
626.72	37537.42
627.075	37547.36
627.43	37767.92
627.785	37521.15
628.14	37719.11
628.495	37722.5
628.85	37543.97
629.205	37499.9
629.559	37797.52
629.914	37379.23
630.269	37500.13
630.623	37414.26
630.978	37447.02
631.332	37305.33
631.687	37529.96
632.041	37332.68
632.396	37495.84
632.75	37274.82
633.104	37285.22
633.459	37155.51
633.813	37176.3
634.167	37085.9
634.521	36993.48
634.875	37102.17
635.229	36944.21
635.583	36851.33
635.937	36741.96
636.291	36700.15
636.645	36822.18
636.999	36702.18
637.352	36802.97
637.706	36539.7
638.06	36776.53
638.413	36612.7
638.767	36463.55
639.121	36691.34
639.474	36375.87
639.828	36449.08
640.181	36463.32
640.534	36398.69
640.888	36332.02
641.241	36203.67
641.594	36186.49
641.947	36140.84
642.301	36148.75
642.654	36159.83
643.007	36119.38
643.36	36102.65
643.713	35844.81
644.066	36049.55
644.419	35835.54
644.771	35492.27
645.124	35092.96
645.477	35019.52
645.83	34946.07
646.182	34782.69
646.535	34683.48
646.888	34829.01
647.24	34563.03
647.593	34846.87
647.945	34663.59
648.298	34672.18
648.65	34601.9
649.002	34478.29
649.355	34526.65
649.707	34386.31
650.059	34509.47
650.411	34996.01
650.763	35011.61
651.115	35416.79
651.467	35075.56
651.819	35136.35
652.171	35069.23
652.523	34926.41
652.875	34976.35
653.227	34840.76
653.578	35108.78
653.93	35123.24
654.282	34803.7
654.633	34769.58
654.985	34838.73
655.337	34781.11
655.688	34837.37
656.039	34909.92
656.391	34468.12
656.742	34649.36
657.094	34604.61
657.445	34724.38
657.796	34569.81
658.147	34658.62
658.498	34537.04
658.849	34558.29
659.2	34406.65
659.551	34316.71
659.902	34450.94
660.253	34442.36
660.604	34339.76
660.955	34213.44
661.306	34218.86
661.656	34047.34
662.007	34201.91
662.358	34170.05
662.708	34188.13
663.059	33977.74
663.409	33737.74
663.76	34031.75
664.11	33865.88
664.461	34032.42
664.811	33938.19
665.161	33857.51
665.511	33646.45
665.862	33635.82
666.212	33719.89
666.562	33765.54
666.912	33597.86
667.262	33466.34
667.612	33512.89
667.962	33363.97
668.312	33189.96
668.662	33398.54
669.011	33162.16
669.361	33025.45
669.711	33070.87
670.06	32814.38
670.41	32836.75
670.76	32738
671.109	32859.8
671.459	32646.25
671.808	32557.89
672.157	32663.87
672.507	32245.35
672.856	32422.3
673.205	32338.91
673.554	32462.75
673.904	32244.22
674.253	32280.38
674.602	32277.89
674.951	31719.72
675.3	31580.96
675.649	32092.81
675.998	32024.12
676.346	31957.9
676.695	32170.1
677.044	31881.97
677.393	31843.1
677.741	31893.05
678.09	31812.6
678.438	31877.68
678.787	31762.43
679.135	31742.54
679.484	31589.32
679.832	31860.5
680.181	31599.04
680.529	31731.92
680.877	31624.8
681.225	31601.75
681.573	31806.49
681.922	31507.07
682.27	31579.16
682.618	31550
682.966	31591.58
683.314	31661.19
683.661	31601.98
684.009	31472.94
684.357	31432.27
684.705	31415.77
685.053	31625.26
685.4	31538.48
685.748	31477.24
686.095	31427.07
686.443	31392.49
686.79	31431.36
687.138	31453.96
687.485	31432.72
687.832	31246.28
688.18	31446.96
688.527	31292.84
688.874	31391.14
689.221	31352.27
689.568	31293.74
689.915	31324.7
690.262	31223.23
690.609	31126.74
690.956	31071.82
691.303	31154.31
691.65	31067.3
691.997	31108.89
692.344	30916.12
692.69	30891.26
693.037	30966.29
693.383	30695.56
693.73	30835.45
694.077	30675.22
694.423	30835.45
694.769	30705.73
695.116	30690.59
695.462	30752.28
695.808	30513.65
696.155	30522.23
696.501	30308.91
696.847	30439.52
697.193	30264.84
697.539	30329.02
697.885	29997.05
698.231	30063.04
698.577	29925.19
698.923	30052.64
699.269	29870.95
699.614	29697.62
699.96	29703.5
700.306	29749.83
700.651	29583.5
700.997	29486.56
701.342	29536.5
701.688	29377.18
702.033	29240.91
702.379	29322.94
702.724	29215.38
703.069	29355.49
703.415	28905.78
703.76	28931.32
704.105	28938.77
704.45	28827.14
704.795	28673.7
705.14	28646.13
705.485	28648.61
705.83	28495.17
706.175	28644.77
706.52	28470.54
706.865	28394.61
707.209	28360.48
707.554	28291.78
707.899	28301.05
708.243	28027.38
708.588	28129.75
708.932	27891.12
709.277	27886.37
709.621	27958.69
709.966	27737.67
710.31	27755.08
710.654	27560.05
710.998	27519.15
711.342	27606.15
711.687	27471.69
712.031	27438.7
712.375	27325.71
712.719	27336.78
713.063	27333.84
713.407	27285.94
713.75	27043.68
714.094	27185.15
714.438	27071.93
714.782	27087.52
715.125	26884.36
715.469	27089.33
715.812	26786.06
716.156	26730.7
716.499	26703.35
716.843	26752.16
717.186	26688.66
717.53	26718.04
717.873	26677.82
718.216	26532.96
718.559	26434.66
718.902	26332.06
719.246	26357.82
719.589	26240.09
719.932	26222.69
720.275	26160.77
720.617	26188.56
720.96	25991.51
721.303	26056.81
721.646	26055.68
721.989	25800.55
722.331	25956.25
722.674	25820.44
723.016	25834.9
723.359	25826.54
723.701	25902.02
724.044	25632.19
724.386	25478.52
724.729	25541.8
725.071	25592.19
725.413	25557.39
725.755	25568.24
726.097	25529.15
726.439	25396.72
726.782	25328.25
727.124	25412.76
727.465	25323.05
727.807	25284.63
728.149	25275.59
728.491	25216.16
728.833	25194.69
729.175	25094.81
729.516	25015.49
729.858	24935.04
730.199	24932.32
730.541	24945.21
730.882	24767.13
731.224	24895.26
731.565	24747.92
731.906	24800.12
732.248	24763.97
732.589	24689.17
732.93	24533.69
733.271	24543.18
733.612	24581.6
733.953	24577.53
734.294	24468.83
734.635	24516.06
734.976	24455.73
735.317	24320.82
735.658	24324.43
735.999	24397.65
736.339	24097.32
736.68	24265.9
737.021	24209.86
737.361	24009.86
737.702	24181.61
738.042	24036.08
738.383	23929.41
738.723	24048.96
739.063	23895.06
739.404	24036.3
739.744	23914.5
740.084	23883.99
740.424	23913.59
740.764	23681.28
741.104	23800.38
741.444	23730.32
741.784	23700.27
742.124	23687.84
742.464	23638.35
742.804	23655.52
743.143	23500.72
743.483	23437.67
743.823	23401.97
744.162	23344.12
744.502	23440.39
744.841	23290.79
745.181	23406.94
745.52	23272.71
745.86	23207.85
746.199	23192.71
746.538	23120.62
746.877	23118.59
747.216	23086.05
747.556	23131.24
747.895	23168.3
748.234	22899.61
748.573	22928.08
748.911	22856
749.25	22873.4
749.589	22677.69
749.928	22793.62
750.267	22828.65
750.605	22713.85
750.944	22666.85
751.283	22578.26
751.621	22592.5
751.96	22373.07
752.298	22543.91
752.636	22417.36
752.975	22277.71
753.313	22240.42
753.651	22300.3
753.989	22202.9
754.327	22094.89
754.666	22115.45
755.004	21966.07
755.342	22067.99
755.679	21987.77
756.017	21825.51
756.355	21982.12
756.693	21812.18
757.031	21889.01
757.368	21631.39
757.706	21710.04
758.044	21660.32
758.381	21566.54
758.719	21454.22
759.056	21534.9
759.394	21343.94
759.731	21291.06
760.068	21211.74
760.405	21259.43
760.743	21051.3
761.08	21088.13
761.417	20993.9
761.754	20940.34
762.091	20852.21
762.428	20739.21
762.765	20694.7
763.102	20821.25
763.438	20626.68
763.775	20518.2
764.112	20566.34
764.449	20544.64
764.785	20273.24
765.122	20226.23
765.458	20165.22
765.795	20196.63
766.131	20167.48
766.467	20072.34
766.804	19984.21
767.14	19845.23
767.476	19885.9
767.812	19834.83
768.148	19830.99
768.485	19768.62
768.821	19513.26
769.157	19568.85
769.492	19563.65
769.828	19488.4
770.164	19331.57
770.5	19294.96
770.836	19202.53
771.171	19115.98
771.507	19087.73
771.842	18987.62
772.178	19060.16
772.513	18876.44
772.849	18885.03
773.184	18712.83
773.519	18679.16
773.855	18586.73
774.19	18578.82
774.525	18475.32
774.86	18525.71
775.195	18411.37
775.53	18320.52
775.865	18220.64
776.2	18177.7
776.535	17972.28
776.87	18102.67
777.205	17961.89
777.539	17819.97
777.874	17830.59
778.209	17651.61
778.543	17683.48
778.878	17585.17
779.212	17567.09
779.547	17501.56
779.881	17403.03
780.215	17340.89
780.55	17368.68
780.884	17210.04
781.218	17168.69
781.552	17113.32
781.886	16982.48
782.22	16975.25
782.554	16927.56
782.888	16779.32
783.222	16796.72
783.556	16648.47
783.889	16734.12
784.223	16570.28
784.557	16484.19
784.89	16509.72
785.224	16358.31
785.557	16320.57
785.891	16242.61
786.224	16301.82
786.558	16185.66
786.891	16038.55
787.224	15966.91
787.557	16041.26
787.891	15878.33
788.224	15956.52
788.557	15916.29
788.89	15832.22
789.223	15844.2
789.556	15717.88
789.888	15644.66
790.221	15533.25
790.554	15444.44
790.887	15449.64
791.219	15443.08
791.552	15442.63
791.884	15263.88
792.217	15229.98
792.549	15114.5
792.882	15036.31
793.214	14973.94
793.546	15023.21
793.879	14887.84
794.211	14772.59
794.543	14960.38
794.875	14800.16
795.207	14975.98
795.539	14757.9
795.871	14680.39
796.203	14607.85
796.535	14449.89
796.867	14490.34
797.198	14468.19
797.53	14403.11
797.862	14242.66
798.193	14344.13
798.525	14277.24
798.856	14235.88
799.188	14157.69
799.519	14128.99
799.85	14031.59
800.182	13964.93
800.513	14028.2
800.844	13892.39
801.175	13977.13
801.506	13938.72
801.837	13828.66
802.168	13751.83
802.499	13791.6
802.83	13724.26
803.161	13700.76
803.491	13705.5
803.822	13657.59
804.153	13483.13
804.483	13426.41
804.814	13395.9
805.145	13374.44
805.475	13351.16
805.805	13367.88
806.136	13363.59
806.466	13366.98
806.796	13262.35
807.126	13217.15
807.457	13092.18
807.787	13117.72
808.117	13127.21
808.447	13072.07
808.777	13072.98
809.107	12980.32
809.436	12938.97
809.766	12863.94
810.096	12840.67
810.426	12883.6
810.755	12801.57
811.085	12781.68
811.414	12730.61
811.744	12678.18
812.073	12618.75
812.403	12566.55
812.732	12589.15
813.061	12556.83
813.39	12451.07
813.719	12451.07
814.049	12506.44
814.378	12471.41
814.707	12396.84
815.036	12385.54
815.365	12322.71
815.693	12198.2
816.022	12221.47
816.351	12117.52
816.68	12172.43
817.008	12141.25
817.337	11946.68
817.665	12038.2
817.994	12034.81
818.322	12029.61
818.651	11936.06
818.979	11889.73
819.307	11926.56
819.636	11907.36
819.964	11813.35
820.292	11896.96
820.62	11845.66
820.948	11811.77
821.276	11868.26
821.604	11739.23
821.932	11740.13
822.259	11790.52
822.587	11700.36
822.915	11675.72
823.243	11809.28
823.57	11785.33
823.898	11755.5
824.225	11683.41
824.553	11694.03
824.88	11689.06
825.207	11720.02
825.535	11713.69
825.862	11708.49
826.189	11669.62
826.516	11636.18
826.843	11705.1
827.17	11747.81
827.497	11771.99
827.824	11730.86
828.151	11795.04
828.478	11684.31
828.805	11766.57
829.131	11752.11
829.458	11629.85
829.785	11677.31
830.111	11720.02
830.438	11699.23
830.764	11687.7
831.09	11706.91
831.417	11585.78
831.743	11678.66
832.069	11619.91
832.395	11575.61
832.722	11652.22
833.048	11566.12
833.374	11610.64
833.7	11582.17
834.026	11614.26
834.351	11583.3
834.677	11574.48
835.003	11624.43
835.329	11517.99
835.654	11548.95
835.98	11513.24
836.306	11499.68
836.631	11446.58
836.956	11458.78
837.282	11380.36
837.607	11429.4
837.932	11363.64
838.258	11375.84
838.583	11342.4
838.908	11312.12
839.233	11240.48
839.558	11306.92
839.883	11194.83
840.208	11217.66
840.533	11223.31
840.858	11250.65
841.182	11254.49
841.507	11209.3
841.832	11115.51
842.156	11066.02
842.481	11080.94
842.805	11056.53
843.13	11030.09
843.454	11019.92
843.778	10955.29
844.103	11001.84
844.427	10958.68
844.751	11001.17
845.075	10860.83
845.399	10805.92
845.723	10786.26
846.047	10795.97
846.371	10741.51
846.695	10719.82
847.019	10690.89
847.343	10646.15
847.666	10556.88
847.99	10555.75
848.313	10496.55
848.637	10396.44
848.96	10353.5
849.284	10309.66
849.607	10352.6
849.931	10273.28
850.254	10149.89
850.577	10190.34
850.9	10079.16
851.223	10123.22
851.546	10057.69
851.869	10012.49
852.192	10015.88
852.515	9923.23
852.838	9861.08
853.161	9925.71
853.483	9854.76
853.806	9792.61
854.129	9758.94
854.451	9709.45
854.774	9761.2
855.096	9652.05
855.419	9643.91
855.741	9618.6
856.063	9594.87
856.385	9499.96
856.708	9532.28
857.03	9499.51
857.352	9479.62
857.674	9387.65
857.996	9435.33
858.318	9361.89
858.64	9356.24
858.961	9402.79
859.283	9325.5
859.605	9215.68
859.926	9326.63
860.248	9211.61
860.57	9152.4
860.891	9185.39
861.212	9164.38
861.534	9168.67
861.855	9155.56
862.176	9127.09
862.498	9132.74
862.819	9151.5
863.14	9046.19
863.461	8999.18
863.782	8993.53
864.103	9020.2
864.424	8955.12
864.745	8974.1
865.065	8980.88
865.386	8906.08
865.707	8946.76
866.027	8914.44
866.348	8898.4
866.668	8917.15
866.989	8808.45
867.309	8806.42
867.63	8736.82
867.95	8783.6
868.27	8739.76
868.59	8766.2
868.91	8703.37
869.23	8721.23
869.55	8631.74
869.87	8702.02
870.19	8628.35
870.51	8648.46
870.83	8684.62
871.15	8618.63
871.469	8651.17
871.789	8648.69
872.109	8674
872.428	8611.4
872.748	8573.43
873.067	8563.26
873.386	8562.81
873.706	8537.73
874.025	8508.8
874.344	8502.93
874.663	8539.31
874.982	8404.17
875.301	8441.01
875.62	8469.25
875.939	8398.97
876.258	8409.6
876.577	8323.5
876.896	8369.82
877.214	8312.2
877.533	8291.63
877.852	8319.88
878.17	8345.19
878.489	8329.6
878.807	8339.31
879.125	8262.03
879.444	8328.69
879.762	8297.28
880.08	8276.72
880.398	8213.67
880.716	8180
881.034	8217.28
881.352	8154.01
881.67	8118.3
881.988	8172.54
882.306	8127.12
882.624	8134.35
882.941	8046.89
883.259	8004.86
883.577	8126.89
883.894	8052.32
884.212	7978.19
884.529	7996.27
884.846	7957.4
885.164	7954.01
885.481	7939.55
885.798	7894.81
886.115	7850.97
886.432	7858.2
886.75	7906.56
887.067	7836.28
887.383	7745.88
887.7	7788.82
888.017	7744.98
888.334	7803.51
888.651	7720.57
888.967	7693.68
889.284	7657.75
889.6	7639.67
889.917	7566.68
890.233	7643.29
890.55	7556.06
890.866	7570.75
891.182	7615.04
891.498	7458.66
891.815	7532.78
892.131	7435.84
892.447	7467.02
892.763	7371.66
893.079	7432.45
893.395	7377.76
893.71	7337.53
894.026	7361.26
894.342	7301.15
894.657	7314.71
894.973	7317.19
895.289	7246.01
895.604	7228.61
895.92	7147.48
896.235	7108.16
896.55	7122.4
896.865	7116.52
897.181	7118.33
897.496	7054.15
897.811	7086.69
898.126	7020.93
898.441	6982.06
898.756	6998.56
899.071	6946.81
899.386	7006.02
899.7	6894.38
900.015	6898
900.33	6818
900.644	6827.04
900.959	6877.21
901.273	6839.69
901.588	6780.03
901.902	6715.4
902.216	6728.74
902.531	6695.52
902.845	6687.38
903.159	6678.12
903.473	6601.28
903.787	6633.14
904.101	6585.24
904.415	6556.08
904.729	6560.15
905.042	6514.73
905.356	6466.82
905.67	6526.25
905.984	6408.74
906.297	6384.79
906.611	6356.09
906.924	6345.92
907.237	6351.34
907.551	6354.06
907.864	6315.64
908.177	6258.24
908.491	6273.61
908.804	6195.42
909.117	6175.76
909.43	6119.49
909.743	6135.3
910.056	6067.51
910.368	6079.49
910.681	6027.29
910.994	6024.35
911.307	6027.29
911.619	6002.2
911.932	5990.68
912.244	5941.19
912.557	5930.56
912.869	5918.14
913.181	5923.56
913.494	5888.31
913.806	5850.11
914.118	5840.62
914.43	5763.56
914.742	5785.48
915.054	5700.97
915.366	5737.58
915.678	5691.47
915.99	5685.83
916.302	5604.25
916.613	5604.7
916.925	5550.24
917.236	5559.27
917.548	5581.2
917.859	5534.42
918.171	5505.94
918.482	5523.57
918.794	5500.52
919.105	5450.8
919.416	5414.19
919.727	5430.01
920.038	5378.71
920.349	5321.54
920.66	5302.56
920.971	5324.7
921.282	5305.95
921.593	5240.87
921.903	5230.47
922.214	5212.62
922.525	5142.79
922.835	5188.66
923.146	5098.5
923.456	5125.61
923.767	5095.78
924.077	5101.89
924.387	5052.85
924.697	5025.28
925.008	5038.38
925.318	5000.19
925.628	5000.42
925.938	4963.36
926.248	4926.75
926.558	4903.25
926.867	4916.13
927.177	4896.47
927.487	4868.45
927.796	4827.99
928.106	4780.09
928.416	4766.08
928.725	4767.43
929.034	4775.11
929.344	4771.72
929.653	4752.52
929.962	4684.27
930.271	4627.55
930.581	4649.02
930.89	4640.43
931.199	4566.08
931.508	4564.72
931.817	4581.67
932.125	4580.32
932.434	4503.26
932.743	4519.08
933.051	4523.37
933.36	4509.13
933.669	4437.95
933.977	4432.75
934.286	4439.98
934.594	4429.13
934.902	4371.96
935.21	4339.42
935.519	4405.18
935.827	4361.79
936.135	4272.08
936.443	4265.98
936.751	4246.99
937.059	4274.11
937.367	4226.2
937.674	4186.88
937.982	4189.59
938.29	4211.06
938.597	4170.16
938.905	4145.07
939.213	4115.47
939.52	4119.31
939.827	4132.19
940.135	4074.79
940.442	4053.78
940.749	4066.88
941.056	4052.2
941.363	4015.81
941.67	4019.88
941.977	3938.98
942.284	3955.48
942.591	3957.06
942.898	3929.26
943.205	3921.13
943.511	3919.32
943.818	3898.3
944.125	3853.33
944.431	3869.15
944.738	3830.73
945.044	3783.95
945.35	3805.42
945.657	3768.59
945.963	3800.68
946.269	3771.3
946.575	3743.28
946.881	3706.89
947.187	3696.05
947.493	3671.41
947.799	3651.3
948.105	3654.92
948.41	3613.79
948.716	3614.92
949.022	3577.41
949.327	3552.32
949.633	3542.6
949.938	3573.56
950.244	3525.43
950.549	3529.5
950.854	3522.94
951.16	3521.59
951.465	3463.96
951.77	3468.93
952.075	3480.46
952.38	3477.52
952.685	3447.92
952.99	3392.1
953.294	3411.31
953.599	3356.39
953.904	3322.95
954.209	3362.04
954.513	3314.14
954.818	3328.15
955.122	3288.15
955.426	3256.96
955.731	3267.81
956.035	3257.64
956.339	3219.22
956.643	3265.55
956.948	3196.4
957.252	3179.9
957.556	3169.96
957.86	3158.43
958.163	3150.98
958.467	3171.99
958.771	3151.43
959.075	3148.26
959.378	3148.94
959.682	3107.81
959.985	3071.2
960.289	3087.48
960.592	3053.35
960.896	3051.09
961.199	3004.77
961.502	3004.77
961.805	2986.69
962.108	2974.48
962.411	2967.7
962.714	2922.51
963.017	2964.09
963.32	2926.35
963.623	2900.81
963.926	2948.95
964.228	2891.32
964.531	2887.03
964.833	2890.64
965.136	2858.33
965.438	2856.07
965.741	2830.98
966.043	2816.07
966.345	2837.09
966.648	2804.09
966.95	2779.91
967.252	2757.99
967.554	2790.99
967.856	2748.28
968.158	2722.74
968.46	2753.02
968.761	2716.19
969.063	2719.35
969.365	2695.85
969.666	2689.07
969.968	2677.99
970.269	2657.88
970.571	2641.39
970.872	2655.4
971.174	2637.77
971.475	2645.68
971.776	2593.25
972.077	2595.74
972.378	2578.34
972.679	2601.16
972.98	2561.16
973.281	2550.99
973.582	2542.63
973.883	2528.17
974.183	2503.76
974.484	2538.56
974.785	2526.81
975.085	2489.75
975.386	2460.37
975.686	2494.95
975.986	2466.02
976.287	2437.77
976.587	2422.63
976.887	2407.95
977.187	2446.14
977.487	2420.6
977.787	2417.21
978.087	2396.87
978.387	2388.74
978.687	2349.64
978.987	2398.91
979.286	2362.07
979.586	2316.42
979.885	2293.82
980.185	2313.71
980.484	2291.79
980.784	2288.4
981.083	2238.91
981.382	2264.67
981.682	2268.29
981.981	2242.98
982.28	2245.92
982.579	2223.77
982.878	2219.93
983.177	2233.49
983.475	2224.67
983.774	2191.68
984.073	2162.75
984.372	2168.18
984.67	2159.82
984.969	2150.55
985.267	2153.71
985.566	2165.47
985.864	2129.08
986.162	2136.99
986.461	2111.23
986.759	2113.72
987.057	2114.85
987.355	2090.21
987.653	2075.52
987.951	2047.28
988.249	2067.84
988.547	2044.56
988.844	2048.86
989.142	2033.04
989.44	2002.08
989.737	2020.38
990.035	1995.3
990.332	2003.21
990.63	1986.04
990.927	1933.83
991.224	1971.12
991.521	1957.34
991.819	1905.81
992.116	1926.38
992.413	1911.46
992.71	1917.11
993.006	1919.37
993.303	1894.06
993.6	1893.61
993.897	1888.41
994.193	1863.55
994.49	1851.8
994.787	1855.42
995.083	1844.12
995.379	1838.24
995.676	1838.02
995.972	1841.63
996.268	1818.58
996.565	1841.41
996.861	1805.7
997.157	1794.18
997.453	1755.31
997.749	1762.99
998.044	1761.41
998.34	1768.87
998.636	1753.5
998.932	1713.95
999.227	1717.34
999.523	1720.28
999.818	1712.6
1000.114	1703.78
1000.409	1685.48
1000.704	1687.29
1001	1693.61
1001.295	1651.81
1001.59	1665.37
1001.885	1662.65
1002.18	1649.77
1002.475	1646.61
1002.77	1612.26
1003.065	1601.86
1003.359	1624.01
1003.654	1621.98
1003.949	1614.97
1004.243	1593.28
1004.538	1579.27
1004.832	1603.9
1005.127	1540.17
1005.421	1533.39
1005.715	1554.18
1006.009	1533.17
1006.304	1523.45
1006.598	1516.67
1006.892	1536.56
1007.186	1520.74
1007.48	1489.33
1007.773	1504.24
1008.067	1475.77
1008.361	1460.85
1008.655	1458.14
1008.948	1455.43
1009.242	1420.17
1009.535	1457.91
1009.829	1420.85
1010.122	1419.27
1010.415	1409.1
1010.708	1413.62
1011.001	1375.88
1011.295	1400.29
1011.588	1393.51
1011.881	1377.24
1012.173	1366.62
1012.466	1345.15
1012.759	1366.62
1013.052	1367.97
1013.344	1376.79
1013.637	1357.13
1013.93	1315.77
1014.222	1323
1014.514	1347.86
1014.807	1299.73
1015.099	1291.59
1015.391	1281.65
1015.683	1254.08
1015.976	1274.19
1016.268	1255.66
1016.56	1248.2
1016.851	1236
1017.143	1248.2
1017.435	1266.73
1017.727	1253.85
1018.018	1206.39
1018.31	1199.84
1018.602	1199.16
1018.893	1195.77
1019.185	1195.55
1019.476	1202.1
1019.767	1193.51
1020.058	1195.77
1020.35	1178.82
1020.641	1163.68
1020.932	1160.75
1021.223	1134.08
1021.514	1107.87
1021.804	1124.59
1022.095	1127.98
1022.386	1134.53
1022.677	1111.93
1022.967	1104.48
1023.258	1091.14
1023.548	1103.35
1023.839	1084.59
1024.129	1077.58
1024.419	1064.03
1024.709	1059.73
1025	1069.68
1025.29	1038.26
1025.58	1017.93
1025.87	1025.61
1026.16	1033.07
1026.449	1052.73
1026.739	1025.16
1027.029	1033.97
1027.319	998.49
1027.608	1010.02
1027.898	1011.6
1028.187	965.72
1028.477	978.6
1028.766	999.62
1029.055	963.01
1029.344	980.19
1029.634	971.15
1029.923	962.56
1030.212	944.03
1030.501	946.74
1030.79	941.32
1031.078	922.33
1031.367	926.63
1031.656	903.35
1031.945	919.85
1032.233	908.1
1032.522	913.97
1032.81	899.74
1033.099	901.54
1033.387	867.19
1033.675	881.66
1033.963	861.55
1034.251	881.88
1034.54	889.12
1034.828	867.42
1035.116	845.27
1035.403	859.51
1035.691	841.21
1035.979	833.3
1036.267	832.85
1036.554	824.71
1036.842	830.59
1037.129	826.52
1037.417	799.85
1037.704	804.6
1037.992	793.98
1038.279	822.22
1038.566	782.23
1038.853	782.23
1039.14	782.23
