Data from whiteboard_FLMS001491_00029.txt Node
Date: Wed Feb 08 11:25:51 GMT 2017
User: dcchb
Spectrometer: FLMS00149
Trigger mode: 0
Integration Time (sec): 2.000000E-2
Scans to average: 10
Electric dark correction enabled: true
Nonlinearity correction enabled: false
Boxcar width: 0
XAxis mode: Wavelengths
Number of Pixels in Spectrum: 2048
>>>>>Begin Spectral Data<<<<<
341.393	-26.82
341.776	-26.82
342.16	-26.82
342.543	-78.35
342.927	-67.95
343.31	-69.53
343.693	-72.47
344.077	-45.13
344.46	-68.85
344.843	-50.55
345.226	-55.97
345.61	-43.54
345.993	-20.27
346.376	-1.96
346.759	20.41
347.142	33.52
347.525	41.43
347.908	46.4
348.291	66.06
348.674	103.57
349.057	116.9
349.44	131.14
349.823	156.68
350.206	180.18
350.588	212.95
350.971	228.99
351.354	251.14
351.737	282.1
352.119	278.26
352.502	305.15
352.884	281.65
353.267	319.16
353.65	323.9
354.032	323
354.414	334.3
354.797	328.2
355.179	372.94
355.562	375.43
355.944	371.36
356.326	387.41
356.709	382.66
357.091	406.39
357.473	378.14
357.855	375.43
358.238	362.09
358.62	384.47
359.002	390.34
359.384	411.59
359.766	402.09
360.148	384.02
360.53	388.99
360.912	386.5
361.294	371.81
361.676	370.68
362.057	381.08
362.439	367.52
362.821	368.87
363.203	387.86
363.584	360.74
363.966	375.43
364.348	377.91
364.729	381.76
365.111	382.21
365.493	392.83
365.874	380.17
366.256	377.69
366.637	371.36
367.019	346.5
367.4	385.82
367.781	362.09
368.163	361.42
368.544	385.37
368.925	379.04
369.306	397.35
369.688	376.33
370.069	403.22
370.45	385.82
370.831	392.83
371.212	376.78
371.593	387.18
371.974	370.46
372.355	388.76
372.736	383.11
373.117	381.08
373.498	393.96
373.879	375.88
374.26	388.76
374.641	398.93
375.021	391.47
375.402	411.81
375.783	415.65
376.163	432.6
376.544	427.4
376.925	406.61
377.305	413.17
377.686	434.86
378.066	411.59
378.447	441.64
378.827	434.86
379.208	417.69
379.588	456.56
379.968	458.59
380.349	434.41
380.729	454.75
381.109	431.92
381.489	448.87
381.87	442.09
382.25	442.77
382.63	470.34
383.01	466.27
383.39	443
383.77	481.64
384.15	477.12
384.53	490.23
384.91	494.52
385.29	477.57
385.67	497.01
386.049	515.76
386.429	519.15
386.809	510.11
387.189	513.28
387.568	534.29
387.948	519.6
388.328	532.03
388.707	529.1
389.087	551.24
389.466	542.2
389.846	563.45
390.225	560.73
390.605	568.87
390.984	590.34
391.363	574.52
391.743	580.85
392.122	591.02
392.501	607.74
392.881	623.78
393.26	578.59
393.639	627.17
394.018	620.85
394.397	620.85
394.776	651.13
395.155	656.55
395.534	654.97
395.913	658.13
396.292	692.71
396.671	703.33
397.05	691.13
397.429	708.07
397.808	720.96
398.186	708.53
398.565	724.8
398.944	760.05
399.323	730.45
399.701	738.13
400.08	759.82
400.458	759.37
400.837	802.76
401.215	812.48
401.594	799.15
401.972	810.67
402.351	831.69
402.729	852.93
403.107	845.92
403.486	849.99
403.864	902.65
404.242	916.66
404.62	897.45
404.999	943.55
405.377	922.76
405.755	973.83
406.133	967.05
406.511	996.2
406.889	1010.89
407.267	1032.81
407.645	1029.65
408.023	1061.29
408.401	1061.29
408.779	1115.75
409.156	1126.14
409.534	1136.31
409.912	1157.78
410.29	1195.97
410.667	1207.27
411.045	1213.82
411.422	1227.38
411.8	1267.83
412.178	1286.14
412.555	1306.7
412.933	1314.61
413.31	1377.21
413.687	1365.46
414.065	1406.36
414.442	1393.71
414.819	1433.25
415.197	1442.97
415.574	1472.12
415.951	1511.67
416.328	1536.75
416.705	1525.23
417.082	1544.44
417.46	1595.51
417.837	1614.27
418.214	1627.37
418.591	1644.32
418.967	1678.44
419.344	1657.2
419.721	1699.01
420.098	1677.09
420.475	1743.53
420.852	1746.92
421.228	1775.84
421.605	1812
421.982	1828.95
422.358	1814.94
422.735	1846.8
423.111	1852
423.488	1904.43
423.864	1916.4
424.241	1950.3
424.617	1997.76
424.994	1982.84
425.37	2000.47
425.746	2039.57
426.123	2060.81
426.499	2070.07
426.875	2096.51
427.251	2152.56
427.627	2196.4
428.003	2244.76
428.379	2247.02
428.756	2244.31
429.132	2322.5
429.507	2354.81
429.883	2375.6
430.259	2424.87
430.635	2433.9
431.011	2422.38
431.387	2528.59
431.763	2601.36
432.138	2577.4
432.514	2653.11
432.89	2652.66
433.265	2704.86
433.641	2777.17
434.016	2760.22
434.392	2856.04
434.767	2867.57
435.143	2866.66
435.518	2925.42
435.894	2941.01
436.269	2990.05
436.644	3012.65
437.02	3037.5
437.395	3099.88
437.77	3128.12
438.145	3177.39
438.52	3208.12
438.895	3240.89
439.271	3232.98
439.646	3364.5
440.021	3363.15
440.395	3370.15
440.77	3326.54
441.145	3421
441.52	3446.08
441.895	3462.13
442.27	3510.71
442.645	3498.28
443.019	3569.47
443.394	3547.55
443.769	3621.67
444.143	3658.28
444.518	3715
444.892	3689.24
445.267	3703.48
445.641	3779.63
446.016	3798.39
446.39	3827.31
446.764	3839.97
447.139	3828.22
447.513	3900.31
447.887	3897.6
448.262	3920.87
448.636	3967.42
449.01	4054.88
449.384	4077.03
449.758	4156.57
450.132	4199.96
450.506	4204.25
450.88	4217.36
451.254	4242.67
451.628	4305.04
452.002	4392.95
452.376	4349.79
452.75	4408.99
453.123	4496.68
453.497	4489.22
453.871	4559.27
454.244	4665.71
454.618	4704.81
454.992	4738.03
455.365	4786.16
455.739	4917.91
456.112	5000.17
456.486	5002.2
456.859	5088.75
457.232	5162.19
457.606	5163.32
457.979	5236.54
458.352	5308.18
458.725	5423.2
459.099	5421.4
459.472	5522.64
459.845	5587.04
460.218	5723.31
460.591	5751.11
460.964	5742.97
461.337	5908.62
461.71	6004.88
462.083	6068.61
462.456	6083.3
462.829	6117.2
463.201	6265.22
463.574	6237.65
463.947	6390.86
464.32	6540.69
464.692	6582.72
465.065	6653.23
465.438	6788.14
465.81	6793.11
466.183	6878.76
466.555	7014.35
466.928	7094.35
467.3	7055.93
467.672	7227.45
468.045	7411.85
468.417	7404.4
468.789	7448.46
469.161	7579.76
469.534	7769.58
469.906	7916.25
470.278	7989.01
470.65	8046.86
471.022	8198.73
471.394	8405.95
471.766	8472.62
472.138	8577.02
472.51	8820.18
472.882	8946.73
473.253	9014.97
473.625	9134.29
473.997	9377
474.369	9474.4
474.74	9477.34
475.112	9811.79
475.484	9896.99
475.855	10041.84
476.227	10172.91
476.598	10379.68
476.97	10525.67
477.341	10832.33
477.713	10913.91
478.084	10989.84
478.455	11318.64
478.827	11381.01
479.198	11754.56
479.569	11781
479.94	12116.59
480.311	12185.74
480.682	12519.97
481.053	12688.78
481.424	12978.49
481.795	13073.85
482.166	13281.3
482.537	13452.82
482.908	13736.43
483.279	13894.62
483.65	14182.97
484.021	14456.41
484.391	14610.08
484.762	14752.45
485.133	14968.72
485.503	15107.7
485.874	15495.03
486.244	15658.19
486.615	15878.75
486.985	16082.81
487.356	16509.24
487.726	16618.16
488.097	17044.59
488.467	17044.82
488.837	17293.85
489.207	17603.9
489.578	17779.72
489.948	18025.81
490.318	18272.36
490.688	18356.65
491.058	18738.79
491.428	18949.4
491.798	19082.51
492.168	19494.47
492.538	19558.2
492.908	19762.04
493.278	19968.81
493.648	20006.55
494.017	20432.75
494.387	20424.39
494.757	20654.22
495.126	20894.44
495.496	20870.26
495.866	21153.64
496.235	21360.64
496.605	21513.86
496.974	21708.65
497.344	21858.03
497.713	22010.11
498.082	22239.49
498.452	22500.5
498.821	22520.61
499.19	22614.17
499.559	22838.57
499.928	23049.18
500.298	23286.46
500.667	23380.92
501.036	23426.35
501.405	23707.02
501.774	23770.07
502.143	23924.64
502.512	24095.48
502.88	24496.83
503.249	24481.69
503.618	24605.07
503.987	24887.78
504.356	24969.36
504.724	25140.43
505.093	25273.76
505.462	25466.07
505.83	25698.6
506.199	25875.55
506.567	26223.11
506.936	26225.37
507.304	26452.93
507.672	26523.44
508.041	26794.85
508.409	26840.04
508.777	27026.48
509.145	27262.18
509.514	27439.35
509.882	27532.23
510.25	27688.38
510.618	27844.31
510.986	27999.11
511.354	28330.17
511.722	28495.59
512.09	28799.09
512.458	28691.07
512.826	28967.9
513.193	29232.07
513.561	29256.48
513.929	29583.25
514.297	29822.56
514.664	29981.88
515.032	30138.04
515.4	30398.82
515.767	30453.96
516.135	30658.47
516.502	30571.92
516.869	31248.74
517.237	31291.23
517.604	31350.88
517.972	31701.61
518.339	31997.65
518.706	31978.66
519.073	32301.82
519.44	32493.91
519.808	32910.62
520.175	32879.88
520.542	33335.24
520.909	33580.43
521.276	33622.46
521.643	33995.33
522.009	34264.93
522.376	34579.5
522.743	34725.26
523.11	35037.34
523.477	35414.05
523.843	35653.37
524.21	35954.83
524.577	36177.42
524.943	36408.6
525.31	36565.21
525.676	36983.5
526.043	37243.16
526.409	37393.66
526.776	37682.02
527.142	37830.26
527.508	38082.91
527.874	38380.76
528.241	38412.39
528.607	38679.28
528.973	39102.09
529.339	38975.54
529.705	39471.12
530.071	39674.06
530.437	39787.95
530.803	40048.51
531.169	40220.26
531.535	40189.3
531.901	40488.05
532.267	40759.9
532.632	40895.94
532.998	40984.98
533.364	41330.51
533.73	41463.39
534.095	41680.33
534.461	41863.6
534.826	42057.72
535.192	42224.72
535.557	42380.65
535.923	42373.42
536.288	42730.47
536.653	43075.1
537.019	42950.13
537.384	43123.68
537.749	43424.24
538.114	43451.58
538.479	43752.14
538.845	43882.76
539.21	43938.35
539.575	44103.09
539.94	44283.2
540.305	44573.59
540.67	44420.6
541.034	44585.11
541.399	44982.84
541.764	44891.09
542.129	45122.5
542.494	45131.54
542.858	45355.04
543.223	45481.81
543.587	45628.48
543.952	45550.96
544.316	45856.27
544.681	45755.25
545.045	46121.57
545.41	46303.26
545.774	46328.34
546.138	46339.19
546.503	46445.86
546.867	46463.48
547.231	46897.14
547.595	46808.78
547.959	46973.98
548.324	47143.24
548.688	47165.84
549.052	47398.37
549.416	47498.93
549.779	47698.48
550.143	47653.28
550.507	47978.7
550.871	48151.12
551.235	48151.8
551.599	48382.53
551.962	48434.5
552.326	48500.49
552.689	48915.39
553.053	48658.23
553.417	48959.91
553.78	49400.13
554.143	49252.56
554.507	49336.17
554.87	49549.73
555.234	49960.34
555.597	49739.55
555.96	49851.87
556.323	50133.89
556.686	50127.34
557.05	50368.69
557.413	50487.1
557.776	50673.09
558.139	50834.67
558.502	50825.4
558.865	50879.18
559.228	51132.51
559.59	51233.98
559.953	51240.53
560.316	51553.52
560.679	51577.25
561.041	51795.54
561.404	51982.43
561.767	52089.55
562.129	52064.92
562.492	52447.96
562.854	52347.85
563.217	52386.72
563.579	52594.85
563.941	52838.46
564.304	52978.34
564.666	53047.04
565.028	53239.8
565.39	53304.43
565.753	53402.51
566.115	53474.14
566.477	53663.74
566.839	53723.63
567.201	53919.33
567.563	53978.09
567.925	54207.46
568.287	54174.47
568.648	54231.41
569.01	54392.99
569.372	54655.58
569.734	54577.62
570.095	54755.92
570.457	54880.66
570.819	54944.61
571.18	54975.12
571.542	55142.35
571.903	55251.5
572.265	55306.86
572.626	55304.38
572.987	55399.07
573.349	55425.96
573.71	55625.73
574.071	55624.37
574.432	55726.74
574.794	55951.59
575.155	55934.19
575.516	55883.8
575.877	56014.87
576.238	56130.57
576.599	56172.15
576.96	56128.76
577.32	56230
577.681	56371.7
578.042	56351.36
578.403	56412.37
578.763	56355.88
579.124	56424.12
579.485	56548.41
579.845	56594.97
580.206	56618.92
580.566	56495.76
580.927	56636.77
581.287	56654.4
581.648	56577.34
582.008	56716.32
582.368	56686.04
582.728	56801.51
583.089	56636.32
583.449	56665.7
583.809	56736.43
584.169	56765.58
584.529	56705.25
584.889	56924.9
585.249	56804.68
585.609	56700.5
585.969	56921.51
586.329	56867.73
586.688	56815.98
587.048	56849.88
587.408	56767.62
587.768	56782.53
588.127	56852.14
588.487	56750.67
588.846	56910.21
589.206	56811.23
589.565	56808.97
589.925	56968.74
590.284	56869.31
590.643	56900.5
591.003	56993.15
591.362	57008.52
591.721	57006.71
592.08	56996.31
592.44	57079.25
592.799	57042.86
593.158	57052.13
593.517	57035.86
593.876	57071.56
594.235	57040.83
594.593	57095.97
594.952	57124.9
595.311	57108.17
595.67	57149.98
596.029	57311.78
596.387	57275.4
596.746	57330.09
597.104	57236.08
597.463	57252.58
597.822	57344.1
598.18	57259.58
598.538	57251.9
598.897	57273.82
599.255	57152.69
599.613	57504.77
599.972	57356.53
600.33	57444.44
600.688	57301.84
601.046	57414.61
601.404	57447.37
601.762	57402.4
602.12	57523.76
602.478	57494.38
602.836	57476.75
603.194	57335.29
603.552	57395.62
603.91	57314.27
604.268	57449.18
604.625	57301.16
604.983	57442.18
605.341	57323.31
605.698	57488.5
606.056	57495.28
606.413	57488.28
606.771	57550.65
607.128	57560.14
607.485	57515.39
607.843	57525.56
608.2	57688.05
608.557	57734.82
608.914	57630.65
609.272	57753.58
609.629	57758.1
609.986	57888.27
610.343	57836.97
610.7	57910.86
611.057	57843.75
611.414	57908.6
611.771	57947.93
612.127	58031.31
612.484	57995.16
612.841	58072.44
613.198	57989.05
613.554	58097.07
613.911	58210.07
614.267	58138.43
614.624	58191.08
614.98	58154.02
615.337	58308.37
615.693	58271.53
616.05	58344.98
616.406	58427.01
616.762	58265.66
617.118	58400.12
617.475	58384.52
617.831	58501.81
618.187	58500.23
618.543	58537.51
618.899	58616.83
619.255	58591.98
619.611	58483.28
619.967	58667.23
620.323	58677.4
620.678	58521.02
621.034	58508.36
621.39	58520.57
621.746	58439.66
622.101	58754.23
622.457	58458.42
622.812	58570.06
623.168	58605.76
623.523	58622.48
623.879	58665.19
624.234	58548.14
624.589	58540.23
624.945	58636.95
625.3	58608.47
625.655	58517.4
626.01	58601.47
626.365	58577.06
626.72	58499.78
627.075	58431.3
627.43	58443.96
627.785	58391.3
628.14	58402.83
628.495	58437.86
628.85	58392.21
629.205	58358.08
629.559	58384.3
629.914	58242.38
630.269	58335.26
630.623	58172.55
630.978	58129.62
631.332	58248.71
631.687	58267.47
632.041	58156.28
632.396	58140.24
632.75	58029.28
633.104	58116.51
633.459	57998.55
633.813	57976.85
634.167	58022.95
634.521	57979.34
634.875	58067.7
635.229	57886.91
635.583	57864.99
635.937	57862.28
636.291	57877.42
636.645	57888.49
636.999	57798.55
637.352	57842.17
637.706	57737.76
638.06	57839.91
638.413	57741.83
638.767	57741.83
639.121	57755.84
639.474	57590.19
639.828	57679.23
640.181	57759.23
640.534	57721.26
640.888	57601.49
641.241	57546.58
641.594	57573.92
641.947	57620.02
642.301	57550.65
642.654	57646.69
643.007	57624.09
643.36	57551.78
643.713	57514.94
644.066	57637.65
644.419	57444.21
644.771	57265.23
645.124	57007.61
645.477	56948.18
645.83	56811.68
646.182	56709.77
646.535	56583.22
646.888	56675.87
647.24	56470.9
647.593	56694.17
647.945	56600.16
648.298	56435.87
648.65	56403.79
649.002	56325.82
649.355	56372.6
649.707	56315.2
650.059	56434.52
650.411	56707.05
650.763	56782.98
651.115	56975.3
651.467	56887.16
651.819	56865.24
652.171	56741.4
652.523	56651.24
652.875	56623.89
653.227	56611.46
653.578	56798.13
653.93	56665.93
654.282	56471.35
654.633	56419.38
654.985	56374.18
655.337	56485.37
655.688	56481.3
656.039	56505.7
656.391	56240.85
656.742	56275.43
657.094	56303.9
657.445	56375.76
657.796	56284.24
658.147	56251.02
658.498	56168.31
658.849	56229.1
659.2	56132.83
659.551	56110.01
659.902	56206.5
660.253	56117.69
660.604	56211.7
660.955	56019.84
661.306	56126.28
661.656	55987.98
662.007	56045.38
662.358	56035.89
662.708	56035.21
663.059	55977.58
663.409	55875.44
663.76	55978.03
664.11	55893.97
664.461	56040.18
664.811	55973.29
665.161	56035.66
665.511	55948.88
665.862	56010.58
666.212	56074.75
666.562	56046.28
666.912	55946.17
667.262	56007.41
667.612	55971.25
667.962	56046.05
668.312	56058.48
668.662	55990.69
669.011	55968.09
669.361	55921.99
669.711	55910.46
670.06	55893.97
670.41	55838.15
670.76	55775.55
671.109	55821.2
671.459	55800.64
671.808	55786.4
672.157	55783.91
672.507	55594.99
672.856	55605.39
673.205	55722.67
673.554	55783.46
673.904	55656.91
674.253	55725.61
674.602	55650.13
674.951	55228.67
675.3	55065.97
675.649	55443.81
675.998	55501.21
676.346	55424.38
676.695	55560.19
677.044	55290.14
677.393	55394.77
677.741	55396.81
678.09	55230.26
678.438	55243.82
678.787	55247.66
679.135	55285.62
679.484	55075.91
679.832	55129.02
680.181	54947.1
680.529	54987.1
680.877	54844.28
681.225	54792.08
681.573	54988.23
681.922	54818.97
682.27	54659.65
682.618	54689.25
682.966	54616.04
683.314	54667.11
683.661	54626.2
684.009	54417.4
684.357	54385.99
684.705	54364.97
685.053	54320.45
685.4	54276.61
685.748	54117.07
686.095	54081.59
686.443	54015.6
686.79	54009.95
687.138	54007.24
687.485	53901.93
687.832	53822.61
688.18	53892.89
688.527	53635.04
688.874	53734.02
689.221	53642.95
689.568	53525.22
689.915	53436.18
690.262	53401.6
690.609	53220.59
690.956	53254.72
691.303	53101.05
691.65	53046.36
691.997	52951.22
692.344	52799.36
692.69	52819.02
693.037	52940.37
693.383	52670.32
693.73	52746.71
694.077	52570.44
694.423	52537.67
694.769	52455.19
695.116	52268.07
695.462	52343.55
695.808	52331.12
696.155	52301.97
696.501	51995.31
696.847	51987.18
697.193	51800.52
697.539	51934.3
697.885	51731.82
698.231	51660.41
698.577	51645.27
698.923	51571.82
699.269	51445.95
699.614	51258.84
699.96	51248.89
700.306	51220.64
700.651	51177.26
700.997	50925.74
701.342	50962.57
701.688	50918.96
702.033	50811.39
702.379	50692.75
702.724	50693.65
703.069	50760.77
703.415	50287.11
703.76	50290.5
704.105	50250.05
704.45	50161.69
704.795	49946.78
705.14	49876.95
705.485	49877.4
705.83	49684.41
706.175	49790.4
706.52	49666.34
706.865	49408.94
707.209	49410.52
707.554	49198.33
707.899	49347.93
708.243	49171.66
708.588	48990.65
708.932	48747.49
709.277	48673.14
709.621	48630.43
709.966	48505.24
710.31	48570.09
710.654	48276.54
710.998	48252.81
711.342	48254.85
711.687	48132.36
712.031	47858.25
712.375	47790.9
712.719	47760.62
713.063	47715.2
713.407	47805.82
713.75	47557.24
714.094	47508.65
714.438	47390.01
714.782	47232.73
715.125	47085.84
715.469	47156.12
715.812	46975.11
716.156	46834.09
716.499	46762.68
716.843	46757.49
717.186	46540.09
717.53	46655.79
717.873	46537.38
718.216	46522.92
718.559	46331.06
718.902	46007.9
719.246	46084.06
719.589	45913.67
719.932	45772.43
720.275	45662.15
720.617	45859.2
720.96	45746.89
721.303	45609.04
721.646	45696.27
721.989	45466.22
722.331	45632.54
722.674	45329.95
723.016	45434.36
723.359	45329.27
723.701	45391.19
724.044	45105.33
724.386	44933.13
724.729	45002.28
725.071	44913.69
725.413	44725
725.755	44772.45
726.097	44656.52
726.439	44462.18
726.782	44439.81
727.124	44573.36
727.465	44263.54
727.807	44245.69
728.149	44244.33
728.491	44202.75
728.833	44294.5
729.175	44092.02
729.516	44166.82
729.858	44002.76
730.199	43982.19
730.541	44002.53
730.882	43845.02
731.224	43915.75
731.565	43574.74
731.906	43694.74
732.248	43690.67
732.589	43613.16
732.93	43423.11
733.271	43406.84
733.612	43536.78
733.953	43553.73
734.294	43359.16
734.635	43292.27
734.976	43424.01
735.317	43105.83
735.658	43149.9
735.999	43094.98
736.339	42923.46
736.68	43007.08
737.021	42892.05
737.361	42675.56
737.702	42803.24
738.042	42551.27
738.383	42540.2
738.723	42414.1
739.063	42336.13
739.404	42483.02
739.744	42181.33
740.084	42161.9
740.424	42174.1
740.764	42062.47
741.104	42247.77
741.444	41885.3
741.784	41778.41
742.124	41836.94
742.464	41831.51
742.804	41700.67
743.143	41524.18
743.483	41408.93
743.823	41405.54
744.162	41299.55
744.502	41296.39
744.841	41098.65
745.181	41343.39
745.52	40985.89
745.86	40985.21
746.199	40874.25
746.538	40797.42
746.877	40826.12
747.216	40794.25
747.556	40684.65
747.895	40465
748.234	40483.3
748.573	40258.22
748.911	40261.38
749.25	40151.78
749.589	40076.53
749.928	39968.96
750.267	39942.3
750.605	39932.81
750.944	39764.22
751.283	39496.21
751.621	39641.29
751.96	39422.08
752.298	39394.06
752.636	39278.81
752.975	39113.84
753.313	38938.93
753.651	39120.17
753.989	38910.46
754.327	39008.08
754.666	38648.32
755.004	38845.15
755.342	38723.8
755.679	38581.88
756.017	38316.35
756.355	38494.43
756.693	38325.39
757.031	38475.22
757.368	38171.04
757.706	38196.58
758.044	37957.26
758.381	37955
758.719	37710.94
759.056	37761.11
759.394	37688.8
759.731	37384.62
760.068	37413.55
760.405	37385.08
760.743	37193.44
761.08	37319.99
761.417	37040.23
761.754	37003.17
762.091	36893.79
762.428	36755.26
762.765	36446.8
763.102	36789.84
763.438	36526.34
763.775	36354.82
764.112	36398.66
764.449	36335.84
764.785	36171.77
765.122	35983.08
765.458	35837.55
765.795	35855.17
766.131	35651.11
766.467	35631.45
766.804	35440.72
767.14	35255.87
767.476	35311.91
767.812	35201.63
768.148	35212.93
768.485	35028.53
768.821	34902.88
769.157	34727.52
769.492	34596.45
769.828	34665.37
770.164	34197.36
770.5	34296.34
770.836	34229.68
771.171	33951.27
771.507	34160.98
771.842	33740.65
772.178	33855.23
772.513	33678.28
772.849	33695
773.184	33397.16
773.519	33375.92
773.855	33260.44
774.19	33088.24
774.525	32870.17
774.86	33006.43
775.195	32925.53
775.53	32746.55
775.865	32465.88
776.2	32215.95
776.535	31938.89
776.87	32125.55
777.205	32018.66
777.539	31796.07
777.874	31908.16
778.209	31684.89
778.543	31436.98
778.878	31235.86
779.212	31363.54
779.547	31051.01
779.881	31059.82
780.215	30834.29
780.55	30804.23
780.884	30594.29
781.218	30555.65
781.552	30495.99
781.886	30343.91
782.22	30093.97
782.554	30023.91
782.888	29758.38
783.222	29658.73
783.556	29605.85
783.889	29472.52
784.223	29242.47
784.557	29155.01
784.89	29244.73
785.224	28862.81
785.557	28902.36
785.891	28754.57
786.224	28720.22
786.558	28658.07
786.891	28414.92
787.224	28238.42
787.557	28157.3
787.891	28162.72
788.224	28067.36
788.557	28035.94
788.89	27867.13
789.223	27856.29
789.556	27724.09
789.888	27608.84
790.221	27462.4
790.554	27294.49
790.887	27205.91
791.219	27145.12
791.552	27095.63
791.884	26886.14
792.217	26791
792.549	26740.38
792.882	26545.59
793.214	26405.7
793.546	26450
793.879	26309.89
794.211	26205.94
794.543	26260.4
794.875	26059.72
795.207	26164.58
795.539	26074.41
795.871	26102.44
796.203	25776.34
796.535	25640.3
796.867	25515.56
797.198	25550.59
797.53	25597.14
797.862	25353.98
798.193	25416.8
798.525	25266.98
798.856	25294.55
799.188	25027.21
799.519	24963.03
799.85	24802.36
800.182	24866.76
800.513	24831.96
800.844	24601.46
801.175	24866.76
801.506	24659.99
801.837	24650.27
802.168	24587.9
802.499	24560.33
802.83	24401.24
803.161	24414.8
803.491	24433.1
803.822	24356.49
804.153	24150.85
804.483	24032.43
804.814	23874.25
805.145	23911.31
805.475	23822.95
805.805	23678.09
806.136	23917.63
806.466	23825.21
806.796	23768.94
807.126	23498.89
807.457	23607.36
807.787	23482.62
808.117	23354.94
808.447	23325.33
808.777	23423.18
809.107	23243.98
809.436	23290.08
809.766	23237.88
810.096	23115.17
810.426	23029.3
810.755	23109.52
811.085	23002.18
811.414	22940.71
811.744	22764.67
812.073	22769.42
812.403	22671.79
812.732	22614.17
813.061	22428.18
813.39	22464.34
813.719	22301.18
814.049	22418.69
814.378	22331.23
814.707	22294.85
815.036	22164.91
815.365	22221.41
815.693	21982.09
816.022	21894.64
816.351	21978.7
816.68	21871.36
817.008	21945.03
817.337	21583.46
817.665	21673.85
817.994	21631.82
818.322	21496.23
818.651	21457.36
818.979	21455.1
819.307	21598.37
819.636	21254.88
819.964	21195.67
820.292	21292.39
820.62	21316.8
820.948	21198.61
821.276	21192.06
821.604	21134.43
821.932	21162.23
822.259	21096.01
822.587	21104.37
822.915	21039.74
823.243	21061.44
823.57	20977.82
823.898	21088.1
824.225	20973.53
824.553	20965.4
824.88	20920.88
825.207	21029.8
825.535	20932.63
825.862	20981.89
826.189	20834.1
826.516	20943.02
826.843	21024.38
827.17	20880.65
827.497	20877.94
827.824	20769.92
828.151	20742.58
828.478	20759.52
828.805	20862.8
829.131	20664.39
829.458	20589.81
829.785	20660.77
830.111	20627.1
830.438	20717.72
830.764	20669.13
831.09	20611.28
831.417	20558.17
831.743	20624.61
832.069	20587.33
832.395	20493.09
832.722	20639.08
833.048	20464.84
833.374	20484.28
833.7	20289.93
834.026	20401.57
834.351	20507.78
834.677	20428.23
835.003	20393.43
835.329	20349.37
835.654	20313.43
835.98	20230.95
836.306	20313.43
836.631	20226.43
836.956	20311.17
837.282	20185.3
837.607	20079.32
837.932	20071.41
838.258	20078.41
838.583	20087.45
838.908	19994.57
839.233	20014.69
839.558	19906.21
839.883	19917.96
840.208	19906.21
840.533	19950.73
840.858	19921.81
841.182	19856.05
841.507	19719.55
841.832	19728.14
842.156	19837.06
842.481	19754.58
842.805	19731.76
843.13	19750.06
843.454	19622.15
843.778	19712.09
844.103	19609.95
844.427	19586
844.751	19556.62
845.075	19501.03
845.399	19429.62
845.723	19162.28
846.047	19276.17
846.371	19215.61
846.695	19306
847.019	19084.77
847.343	19008.16
847.666	18971.32
847.99	18800.03
848.313	18878.44
848.637	18771.55
848.96	18706.02
849.284	18727.94
849.607	18499.47
849.931	18514.16
850.254	18421.73
850.577	18258.35
850.9	18207.5
851.223	18167.95
851.546	18022.87
851.869	17966.38
852.192	18049.54
852.515	17959.6
852.838	17837.34
853.161	17896.1
853.483	17792.15
853.806	17669.44
854.129	17608.65
854.451	17531.59
854.774	17476.67
855.096	17565.48
855.419	17376.56
855.741	17317.36
856.063	17237.36
856.385	17112.62
856.708	17174.53
857.03	17172.5
857.352	17117.36
857.674	16998.95
857.996	16950.59
858.318	16879.63
858.64	16918.72
858.961	16824.94
859.283	16799.4
859.605	16708.11
859.926	16641.89
860.248	16607.09
860.57	16513.99
860.891	16513.08
861.212	16470.82
861.534	16358.06
861.855	16372.97
862.176	16291.62
862.498	16317.16
862.819	16291.62
863.14	16260.66
863.461	16197.38
863.782	16135.47
864.103	16098.18
864.424	16085.52
864.745	16053.43
865.065	15970.5
865.386	15891.86
865.707	15948.58
866.027	15803.27
866.348	15830.61
866.668	15858.86
866.989	15693.9
867.309	15676.49
867.63	15715.82
867.95	15666.33
868.27	15579.77
868.59	15512.21
868.91	15542.49
869.23	15432.43
869.55	15401.7
869.87	15453.45
870.19	15427.01
870.51	15368.03
870.83	15362.83
871.15	15237.64
871.469	15174.81
871.789	15302.27
872.109	15226.34
872.428	15184.3
872.748	15100.92
873.067	15029.51
873.386	15132.78
873.706	15181.14
874.025	15055.27
874.344	15027.25
874.663	15061.37
874.982	14999.68
875.301	14971.65
875.62	14767.14
875.939	14861.37
876.258	14856.4
876.577	14774.37
876.896	14812.56
877.214	14753.81
877.533	14841.26
877.852	14736.86
878.17	14722.62
878.489	14645.11
878.807	14655.28
879.125	14584.77
879.444	14501.61
879.762	14529.41
880.08	14582.74
880.398	14444.66
880.716	14436.3
881.034	14352.91
881.352	14383.42
881.67	14375.96
881.988	14324.89
882.306	14333.93
882.624	14303.2
882.941	14261.16
883.259	14227.27
883.577	14164.44
883.894	14154.95
884.212	14142.3
884.529	14154.05
884.846	14081.51
885.164	14087.61
885.481	14067.27
885.798	14076.54
886.115	13893.72
886.432	13983.88
886.75	13967.61
887.067	13962.19
887.383	13853.49
887.7	13825.92
888.017	13873.6
888.334	13830.22
888.651	13822.53
888.967	13803.32
889.284	13794.51
889.6	13707.05
889.917	13585.48
890.233	13661.41
890.55	13532.6
890.866	13597.23
891.182	13538.47
891.498	13485.14
891.815	13437.91
892.131	13494.18
892.447	13383.45
892.763	13405.59
893.079	13377.12
893.395	13282.89
893.71	13282.66
894.026	13280.17
894.342	13202.89
894.657	13114.3
894.973	13091.48
895.289	13014.87
895.604	13023.91
895.92	12981.88
896.235	12937.36
896.55	12927.19
896.865	12832.05
897.181	12821.43
897.496	12861.88
897.811	12875.89
898.126	12801.32
898.441	12662.11
898.756	12686.74
899.071	12653.07
899.386	12589.34
899.7	12458.5
900.015	12479.06
900.33	12346.41
900.644	12459.18
900.959	12457.14
901.273	12356.58
901.588	12265.51
901.902	12317.03
902.216	12220.99
902.531	12196.59
902.845	12152.07
903.159	12064.39
903.473	12011.28
903.787	12004.27
904.101	11945.97
904.415	11991.62
904.729	11888.8
905.042	11860.1
905.356	11806.54
905.67	11795.47
905.984	11752.76
906.297	11679.54
906.611	11539.43
906.924	11528.13
907.237	11556.83
907.551	11499.43
907.864	11346.21
908.177	11438.87
908.491	11408.13
908.804	11345.54
909.117	11280.45
909.43	11190.74
909.743	11115.48
910.056	11091.76
910.368	11052.66
910.681	10984.41
910.994	10997.52
911.307	10929.95
911.619	10822.84
911.932	10892.21
912.244	10758.21
912.557	10788.94
912.869	10706.68
913.181	10647.25
913.494	10620.36
913.806	10579.45
914.118	10543.52
914.43	10419.23
914.742	10411.1
915.054	10390.98
915.366	10321.38
915.678	10270.54
915.99	10171.55
916.302	10146.47
916.613	10127.94
916.925	10038.22
917.236	10051.78
917.548	9985.12
917.859	10000.26
918.171	9908.51
918.482	9840.26
918.794	9858.57
919.105	9779.02
919.416	9648.4
919.727	9623.77
920.038	9572.25
920.349	9462.65
920.66	9470.1
920.971	9465.13
921.282	9360.05
921.593	9367.06
921.903	9264.46
922.214	9201.64
922.525	9267.85
922.835	9129.32
923.146	9138.59
923.456	9052.04
923.767	9012.49
924.077	8970.68
924.387	8934.75
924.697	8938.82
925.008	8869.67
925.318	8792.61
925.628	8782.66
925.938	8734.76
926.248	8649.79
926.558	8656.11
926.867	8640.3
927.177	8579.05
927.487	8505.84
927.796	8410.92
928.106	8520.3
928.416	8434.43
928.725	8311.04
929.034	8310.36
929.344	8322.11
929.653	8259.97
929.962	8194.66
930.271	8226.75
930.581	8107.88
930.89	8050.03
931.199	8015.23
931.508	7899.3
931.817	7922.12
932.125	7929.35
932.434	7923.93
932.743	7818.17
933.051	7765.97
933.36	7793.99
933.669	7739.3
933.977	7727.33
934.286	7700.21
934.594	7618.4
934.902	7534.11
935.21	7578.4
935.519	7601.9
935.827	7491.85
936.135	7433.1
936.443	7430.16
936.751	7384.06
937.059	7319.43
937.367	7333.66
937.674	7389.03
937.982	7307.22
938.29	7198.98
938.597	7223.61
938.905	7147.68
939.213	7203.05
939.52	7141.8
939.827	7118.53
940.135	7076.04
940.442	7029.49
940.749	6996.95
941.056	7038.98
941.363	6983.39
941.67	6941.36
941.977	6897.06
942.284	6869.95
942.591	6836.95
942.898	6876.73
943.205	6851.19
943.511	6778.2
943.818	6829.27
944.125	6714.47
944.431	6695.26
944.738	6650.52
945.044	6693.91
945.35	6573.23
945.657	6603.06
945.963	6582.27
946.269	6517.19
946.575	6581.59
946.881	6490.52
947.187	6507.92
947.493	6444.42
947.799	6455.72
948.105	6419.11
948.41	6422.27
948.716	6444.42
949.022	6381.15
949.327	6387.93
949.633	6288.94
949.938	6285.56
950.244	6304.76
950.549	6296.63
950.854	6237.19
951.16	6231.32
951.465	6206.91
951.77	6173.92
952.075	6096.41
952.38	6090.53
952.685	6111.77
952.99	6049.86
953.294	6030.19
953.599	6001.04
953.904	5989.52
954.209	5989.52
954.513	5951.78
954.818	5937.54
955.122	5922.85
955.426	5889.41
955.731	5843.76
956.035	5843.31
956.339	5803.08
956.643	5812.8
956.948	5806.25
957.252	5721.28
957.556	5724.89
957.86	5735.06
958.163	5775.29
958.467	5687.83
958.771	5628.4
959.075	5666.81
959.378	5596.76
959.682	5549.53
959.985	5563.31
960.289	5544.56
960.592	5490.55
960.896	5455.07
961.199	5469.08
961.502	5426.59
961.805	5383.43
962.108	5411.23
962.411	5349.99
962.714	5323.55
963.017	5337.11
963.32	5297.56
963.623	5228.63
963.926	5275.64
964.228	5203.1
964.531	5135.3
964.833	5180.95
965.136	5168.07
965.438	5133.72
965.741	5061.86
966.043	5054.85
966.345	5047.17
966.648	5011.69
966.95	5035.87
967.252	4981.63
967.554	4948.19
967.856	4905.93
968.158	4850.11
968.46	4885.37
968.761	4804.69
969.063	4818.93
969.365	4817.57
969.666	4775.31
969.968	4751.36
970.269	4705.26
970.571	4659.61
970.872	4698.48
971.174	4622.32
971.475	4659.84
971.776	4608.76
972.077	4586.16
972.378	4554.53
972.679	4524.7
972.98	4506.17
973.281	4510.91
973.582	4480.18
973.883	4430.01
974.183	4415.32
974.484	4409.9
974.785	4376.68
975.085	4376.23
975.386	4350.46
975.686	4341.43
975.986	4266.4
976.287	4237.93
976.587	4250.81
976.887	4215.55
977.187	4213.52
977.487	4190.92
977.787	4153.18
978.087	4129.23
978.387	4077.25
978.687	4129.91
978.987	4060.75
979.286	4040.42
979.586	4046.29
979.885	3996.35
980.185	3956.58
980.484	3942.57
980.784	3929.91
981.083	3877.48
981.382	3893.53
981.682	3875.67
981.981	3865.28
982.28	3837.03
982.579	3826.18
982.878	3833.87
983.177	3811.95
983.475	3760.42
983.774	3730.37
984.073	3690.82
984.372	3670.26
984.67	3700.31
984.969	3658.73
985.267	3612.63
985.566	3630.71
985.864	3604.04
986.162	3587.09
986.461	3609.02
986.759	3524.5
987.057	3511.39
987.355	3489.92
987.653	3461
987.951	3468.91
988.249	3461.9
988.547	3429.36
988.844	3394.11
989.142	3402.47
989.44	3364.95
989.737	3361.79
990.035	3321.57
990.332	3376.03
990.63	3330.83
990.927	3350.94
991.224	3229.36
991.521	3279.31
991.819	3287.22
992.116	3244.96
992.413	3221.45
992.71	3209.48
993.006	3162.25
993.303	3155.02
993.6	3148.46
993.897	3138.97
994.193	3098.29
994.49	3111.18
994.787	3073.21
995.083	3077.73
995.379	3091.97
995.676	3071.63
995.972	3036.83
996.268	3026.43
996.565	3032.08
996.861	2968.58
997.157	2997.96
997.453	2950.28
997.749	2986.21
998.044	2959.77
998.34	2943.04
998.636	2907.11
998.932	2937.17
999.227	2892.88
999.523	2882.93
999.818	2887.45
1000.114	2858.07
1000.409	2834.8
1000.704	2801.35
1001	2827.11
1001.295	2742.15
1001.59	2759.32
1001.885	2786.89
1002.18	2722.26
1002.475	2747.57
1002.77	2711.64
1003.065	2667.57
1003.359	2707.57
1003.654	2683.16
1003.949	2644.29
1004.243	2667.8
1004.538	2634.13
1004.832	2632.54
1005.127	2658.76
1005.421	2590.51
1005.715	2580.57
1006.009	2580.34
1006.304	2569.72
1006.598	2572.43
1006.892	2518.42
1007.186	2501.7
1007.48	2496.73
1007.773	2490.63
1008.067	2495.15
1008.361	2459.89
1008.655	2452.21
1008.948	2396.17
1009.242	2399.56
1009.535	2380.35
1009.829	2378.77
1010.122	2389.39
1010.415	2356.62
1010.708	2393
1011.001	2344.42
1011.295	2336.96
1011.588	2326.11
1011.881	2297.86
1012.173	2315.26
1012.466	2299.67
1012.759	2272.78
1013.052	2306.68
1013.344	2235.27
1013.637	2251.31
1013.93	2207.92
1014.222	2238.2
1014.514	2187.13
1014.807	2193.01
1015.099	2156.62
1015.391	2157.53
1015.683	2130.18
1015.976	2173.8
1016.268	2136.06
1016.56	2114.37
1016.851	2076.4
1017.143	2086.34
1017.435	2075.95
1017.727	2047.93
1018.018	2033.69
1018.31	2033.69
1018.602	2029.17
1018.893	2033.92
1019.185	1990.98
1019.476	2012
1019.767	1961.15
1020.058	1920.47
1020.35	1930.87
1020.641	1924.99
1020.932	1922.05
1021.223	1922.51
1021.514	1881.15
1021.804	1889.29
1022.095	1852.9
1022.386	1852
1022.677	1853.13
1022.967	1821.72
1023.258	1800.7
1023.548	1779.68
1023.839	1766.13
1024.129	1766.13
1024.419	1756.86
1024.709	1722.51
1025	1741.49
1025.29	1732.91
1025.58	1708.95
1025.87	1709.18
1026.16	1679.35
1026.449	1670.76
1026.739	1658.33
1027.029	1658.56
1027.319	1603.64
1027.608	1627.6
1027.898	1597.99
1028.187	1587.37
1028.477	1590.31
1028.766	1560.71
1029.055	1590.76
1029.344	1552.35
1029.634	1566.58
1029.923	1567.04
1030.212	1526.13
1030.501	1517.77
1030.79	1494.72
1031.078	1478.45
1031.367	1496.53
1031.656	1463.31
1031.945	1444.33
1032.233	1442.74
1032.522	1418.79
1032.81	1421.95
1033.099	1428.28
1033.387	1383.76
1033.675	1390.77
1033.963	1391.9
1034.251	1354.39
1034.54	1358.9
1034.828	1364.55
1035.116	1349.19
1035.403	1341.5
1035.691	1313.26
1035.979	1321.84
1036.267	1306.7
1036.554	1312.35
1036.842	1259.92
1037.129	1277.55
1037.417	1282.3
1037.704	1264.9
1037.992	1246.59
1038.279	1237.55
1038.566	1232.81
1038.853	1232.81
1039.14	1232.81
