Data from white_poster_card_FLMS001491_00032.txt Node
Date: Wed Feb 08 11:51:25 GMT 2017
User: dcchb
Spectrometer: FLMS00149
Trigger mode: 0
Integration Time (sec): 2.000000E-2
Scans to average: 10
Electric dark correction enabled: true
Nonlinearity correction enabled: false
Boxcar width: 0
XAxis mode: Wavelengths
Number of Pixels in Spectrum: 2048
>>>>>Begin Spectral Data<<<<<
341.393	-15.75
341.776	-15.75
342.16	-15.75
342.543	-54.62
342.927	-72.7
343.31	-83.32
343.693	-74.28
344.077	-59.59
344.46	-46.71
344.843	-37.44
345.226	-41.51
345.61	-35.86
345.993	-27.05
346.376	-13.94
346.759	2.56
347.142	13.18
347.525	59.28
347.908	43.91
348.291	96.34
348.674	90.01
349.057	114.42
349.44	117.36
349.823	132.95
350.206	179.95
350.588	201.87
350.971	206.39
351.354	227.41
351.737	249.78
352.119	249.56
352.502	256.56
352.884	279.61
353.267	258.14
353.65	309.44
354.032	302.66
354.414	308.99
354.797	322.1
355.179	348.76
355.562	308.99
355.944	337.46
356.326	340.4
356.709	343.34
357.091	328.88
357.473	350.57
357.855	330.46
358.238	337.46
358.62	344.69
359.002	349.21
359.384	360.74
359.766	338.37
360.148	325.71
360.53	355.77
360.912	347.18
361.294	335.66
361.676	341.08
362.057	351.47
362.439	344.69
362.821	339.95
363.203	359.61
363.584	313.96
363.966	329.78
364.348	327.52
364.729	337.69
365.111	331.59
365.493	368.2
365.874	332.72
366.256	323.68
366.637	316.22
367.019	325.26
367.4	328.65
367.781	331.36
368.163	287.29
368.544	323.9
368.925	320.29
369.306	335.43
369.688	291.36
370.069	321.87
370.45	322.32
370.831	327.07
371.212	309.67
371.593	301.31
371.974	308.99
372.355	325.94
372.736	315.32
373.117	351.25
373.498	353.73
373.879	308.54
374.26	320.29
374.641	334.07
375.021	347.41
375.402	314.64
375.783	352.38
376.163	357.12
376.544	340.17
376.925	334.98
377.305	348.08
377.686	338.14
378.066	370.91
378.447	345.82
378.827	307.63
379.208	329.33
379.588	355.99
379.968	320.06
380.349	336.11
380.729	361.42
381.109	365.94
381.489	333.17
381.87	323.23
382.25	349.67
382.63	340.85
383.01	336.33
383.39	355.54
383.77	359.38
384.15	334.07
384.53	367.52
384.91	367.07
385.29	366.61
385.67	361.87
386.049	386.05
386.429	358.93
386.809	407.97
387.189	360.74
387.568	379.95
387.948	375.65
388.328	369.78
388.707	404.35
389.087	395.77
389.466	392.83
389.846	380.17
390.225	393.73
390.605	377.69
390.984	387.18
391.363	400.74
391.743	382.21
392.122	394.41
392.501	393.51
392.881	402.32
393.26	395.77
393.639	413.39
394.018	430.34
394.397	404.35
394.776	402.55
395.155	411.59
395.534	404.35
395.913	420.85
396.292	420.85
396.671	422.88
397.05	404.35
397.429	425.37
397.808	428.76
398.186	425.37
398.565	432.15
398.944	438.03
399.323	443.45
399.701	433.51
400.08	424.24
400.458	449.1
400.837	483.45
401.215	463.79
401.594	441.87
401.972	475.76
402.351	456.78
402.729	464.47
403.107	472.15
403.486	488.19
403.864	463.56
404.242	500.4
404.62	475.99
404.999	483.45
405.377	502.2
405.755	478.93
406.133	520.06
406.511	508.53
406.889	521.41
407.267	489.1
407.645	508.76
408.023	545.82
408.401	542.88
408.779	540.62
409.156	565.93
409.534	578.59
409.912	571.58
410.29	592.82
410.667	594.86
411.045	596.44
411.422	605.93
411.8	647.74
412.178	645.25
412.555	674.4
412.933	668.75
413.31	685.02
413.687	699.04
414.065	696.1
414.442	724.35
414.819	732.03
415.197	722.09
415.574	766.15
415.951	780.62
416.328	781.74
416.705	798.92
417.082	799.15
417.46	801.41
417.837	831.91
418.214	838.01
418.591	875.08
418.967	863.55
419.344	901.97
419.721	903.32
420.098	912.36
420.475	926.83
420.852	933.83
421.228	943.77
421.605	963.44
421.982	980.84
422.358	969.54
422.735	1012.7
423.111	995.98
423.488	1022.87
423.864	1090.66
424.241	1042.76
424.617	1095.41
424.994	1085.24
425.37	1118.91
425.746	1093.83
426.123	1112.13
426.499	1146.03
426.875	1168.63
427.251	1198.91
427.627	1175.63
428.003	1204.56
428.379	1224.22
428.756	1255.86
429.132	1268.29
429.507	1283.65
429.883	1338.11
430.259	1306.93
430.635	1308.74
431.011	1372.01
431.387	1385.34
431.763	1396.87
432.138	1402.97
432.514	1419.24
432.89	1445
433.265	1466.47
433.641	1507.83
434.016	1498.79
434.392	1522.29
434.767	1562.29
435.143	1557.09
435.518	1588.5
435.894	1600.48
436.269	1609.52
436.644	1665.34
437.02	1658.33
437.395	1694.72
437.77	1693.13
438.145	1706.92
438.52	1733.81
438.895	1736.97
439.271	1734.94
439.646	1801.15
440.021	1803.64
440.395	1808.38
440.77	1822.62
441.145	1820.14
441.52	1845.9
441.895	1833.47
442.27	1880.02
442.645	1869.4
443.019	1902.39
443.394	1894.48
443.769	1929.06
444.143	1914.6
444.518	1945.1
444.892	1970.87
445.267	1976.74
445.641	1993.24
446.016	2007.7
446.39	2046.57
446.764	1990.98
447.139	2061.71
447.513	2043.63
447.887	2056.29
448.262	2049.28
448.636	2065.1
449.01	2087.7
449.384	2128.83
449.758	2144.87
450.132	2165.21
450.506	2155.95
450.88	2209.5
451.254	2186.68
451.628	2193.69
452.002	2266
452.376	2278.2
452.75	2261.03
453.123	2287.92
453.497	2322.27
453.871	2344.87
454.244	2371.99
454.618	2400.01
454.992	2437.29
455.365	2465.54
455.739	2497.18
456.112	2528.37
456.486	2574.01
456.859	2546.44
457.232	2602.49
457.606	2596.39
457.979	2639.55
458.352	2699.66
458.725	2682.26
459.099	2729.72
459.472	2785.53
459.845	2770.62
460.218	2802.03
460.591	2860.56
460.964	2845.42
461.337	2932.42
461.71	2996.15
462.083	2974
462.456	3000.44
462.829	3022.59
463.201	3086.09
463.574	3113.89
463.947	3131.06
464.32	3202.25
464.692	3209.25
465.065	3221
465.438	3274.33
465.81	3341.9
466.183	3376.93
466.555	3430.26
466.928	3431.17
467.3	3439.08
467.672	3478.62
468.045	3602.69
468.417	3573.54
468.789	3630.03
469.161	3691.72
469.534	3731.95
469.906	3809.01
470.278	3801.55
470.65	3844.49
471.022	3910.93
471.394	4031.38
471.766	4065.27
472.138	4077.03
472.51	4146.18
472.882	4238.38
473.253	4244.25
473.625	4297.36
473.997	4402.67
474.369	4450.35
474.74	4477.92
475.112	4536
475.484	4619.61
475.855	4683.11
476.227	4735.77
476.598	4840.17
476.97	4897.34
477.341	5029.77
477.713	5055.76
478.084	5123.78
478.455	5252.59
478.827	5301.4
479.198	5366.26
479.569	5429.98
479.94	5616.19
480.311	5620.71
480.682	5710.88
481.053	5856.41
481.424	5957.2
481.795	6019.35
482.166	6120.59
482.537	6184.54
482.908	6357.87
483.279	6398.32
483.65	6498.88
484.021	6580.91
484.391	6749.05
484.762	6768.93
485.133	6826.33
485.503	6896.16
485.874	7001.24
486.244	7125.08
486.615	7256.6
486.985	7295.25
487.356	7432.19
487.726	7509.48
488.097	7721.9
488.467	7742.47
488.837	7849.36
489.207	7943.36
489.578	8110.14
489.948	8139.52
490.318	8283.24
490.688	8273.07
491.058	8462.45
491.428	8544.48
491.798	8664.25
492.168	8781.76
492.538	8805.49
492.908	8910.12
493.278	9030.57
493.648	9075.09
494.017	9213.61
494.387	9236.21
494.757	9419.48
495.126	9501.74
495.496	9443.44
495.866	9614.28
496.235	9683.66
496.605	9789.19
496.974	9842.75
497.344	9975.63
497.713	10056.76
498.082	10087.26
498.452	10228.73
498.821	10278.67
499.19	10313.02
499.559	10316.86
499.928	10497.87
500.298	10416.97
500.667	10607.25
501.036	10683.41
501.405	10810.18
501.774	10840.46
502.143	10938.99
502.512	10950.97
502.88	11060.34
503.249	11018.99
503.618	11193.45
503.987	11244.75
504.356	11307.8
504.724	11396.61
505.093	11425.31
505.462	11538.98
505.83	11526.32
506.199	11676.83
506.567	11854.9
506.936	11849.93
507.304	11985.29
507.672	12002.69
508.041	12132.86
508.409	12239.07
508.777	12247.88
509.145	12406.52
509.514	12400.42
509.882	12449.69
510.25	12610.36
510.618	12654.2
510.986	12675.9
511.354	12808.55
511.722	12975.1
512.09	13115.88
512.458	13115.43
512.826	13166.73
513.193	13318.14
513.561	13319.49
513.929	13434.07
514.297	13612.82
514.664	13749.54
515.032	13745.02
515.4	13909.76
515.767	13924.45
516.135	14059.14
516.502	14012.36
516.869	14288.51
517.237	14329.64
517.604	14281.5
517.972	14477.88
518.339	14690.08
518.706	14659.12
519.073	14713.81
519.44	14781.15
519.808	15045.78
520.175	15003.97
520.542	15254.58
520.909	15241.03
521.276	15402.15
521.643	15538.19
522.009	15718.98
522.376	15731.41
522.743	15922.82
523.11	16009.82
523.477	16231.73
523.843	16213.66
524.21	16473.08
524.577	16455.46
524.943	16664.04
525.31	16682.57
525.676	16979.96
526.043	16955.33
526.409	17129.11
526.776	17268.32
527.142	17331.82
527.508	17469.44
527.874	17618.59
528.241	17748.98
528.607	17772.26
528.973	18008.86
529.339	18077.56
529.705	18184.45
530.071	18268.52
530.437	18405.91
530.803	18557.55
531.169	18666.25
531.535	18706.25
531.901	18742.63
532.267	18881.16
532.632	18970.19
532.998	19072.11
533.364	19231.66
533.73	19223.97
534.095	19477.07
534.461	19542.83
534.826	19598.88
535.192	19664.86
535.557	19849.27
535.923	19777.4
536.288	19837.52
536.653	20009.26
537.019	20012.65
537.384	20106.89
537.749	20249.26
538.114	20229.6
538.479	20341.68
538.845	20486.31
539.21	20450.38
539.575	20433.43
539.94	20609.7
540.305	20794.1
540.67	20771.73
541.034	20701.22
541.399	20894.89
541.764	20969.01
542.129	21115.67
542.494	21210.81
542.858	21277.7
543.223	21315.22
543.587	21431.15
543.952	21426.63
544.316	21461.88
544.681	21587.53
545.045	21618.94
545.41	21685.15
545.774	21778.26
546.138	21895.31
546.503	21999.04
546.867	22036.1
547.231	22156.32
547.595	22171.47
547.959	22293.95
548.324	22331.23
548.688	22396.77
549.052	22438.8
549.416	22404.68
549.779	22570.78
550.143	22608.52
550.507	22860.26
550.871	22843.99
551.235	22869.53
551.599	23076.07
551.962	23108.62
552.326	23166.92
552.689	23450.98
553.053	23203.08
553.417	23325.78
553.78	23703.18
554.143	23621.14
554.507	23744.08
554.87	23746.34
555.234	23990.4
555.597	23933
555.96	24115.59
556.323	24197.63
556.686	24242.15
557.05	24433.78
557.413	24427
557.776	24520.33
558.139	24718.06
558.502	24852.98
558.865	24869.02
559.228	25040.32
559.59	25100.43
559.953	25043.93
560.316	25494.32
560.679	25439.4
561.041	25679.62
561.404	25715.55
561.767	25908.32
562.129	25825.61
562.492	26181.98
562.854	26093.4
563.217	26117.12
563.579	26125.26
563.941	26387.85
564.304	26467.17
564.666	26694.74
565.028	26808.63
565.39	26830.55
565.753	27065.12
566.115	27125.01
566.477	27117.1
566.839	27275.74
567.201	27517.77
567.563	27476.86
567.925	27691.32
568.287	27690.64
568.648	27727.03
569.01	27945.1
569.372	28059.9
569.734	28088.37
570.095	28338.99
570.457	28424.86
570.819	28439.55
571.18	28472.32
571.542	28562.94
571.903	28621.69
572.265	28732.87
572.626	28771.52
572.987	28968.57
573.349	29027.33
573.71	29105.75
574.071	29175.57
574.432	29373.08
574.794	29416.92
575.155	29290.83
575.516	29419.64
575.877	29512.06
576.238	29664.83
576.599	29663.47
576.96	29842.45
577.32	29712.06
577.681	30009.68
578.042	30053.52
578.403	30044.03
578.763	30031.6
579.124	30044.7
579.485	30248.77
579.845	30192.5
580.206	30194.08
580.566	30274.08
580.927	30293.51
581.287	30378.03
581.648	30290.8
582.008	30328.09
582.368	30390.91
582.728	30349.1
583.089	30440.17
583.449	30430.68
583.809	30574.18
584.169	30580.96
584.529	30394.3
584.889	30721.75
585.249	30588.64
585.609	30333.51
585.969	30598.81
586.329	30517.69
586.688	30614.41
587.048	30617.57
587.408	30555.88
587.768	30648.08
588.127	30500.96
588.487	30457.35
588.846	30590.9
589.206	30446.5
589.565	30676.55
589.925	30641.07
590.284	30609.89
590.643	30710.45
591.003	30797.23
591.362	30820.28
591.721	30735.76
592.08	30718.36
592.44	30895.08
592.799	30751.8
593.158	30761.97
593.517	30840.39
593.876	30780.5
594.235	30766.95
594.593	30834.51
594.952	30954.74
595.311	30778.02
595.67	30782.99
596.029	31073.38
596.387	31170.1
596.746	31203.32
597.104	31028.41
597.463	30883.1
597.822	31139.36
598.18	31036.54
598.538	30989.76
598.897	31144.11
599.255	30862.08
599.613	31282.19
599.972	31013.04
600.33	31248.06
600.688	31126.48
601.046	31209.19
601.404	31403.76
601.762	31227.72
602.12	31338.23
602.478	31532.57
602.836	31366.03
603.194	31229.53
603.552	31494.16
603.91	31222.3
604.268	31535.96
604.625	31311.56
604.983	31551.78
605.341	31388.4
605.698	31603.76
606.056	31605.79
606.413	31656.87
606.771	31641.27
607.128	31694.83
607.485	31601.27
607.843	31607.6
608.2	31831.78
608.557	31823.87
608.914	31650.99
609.272	31881.72
609.629	31912.68
609.986	32079.23
610.343	31759.01
610.7	32032.9
611.057	32058.44
611.414	32062.28
611.771	32114.71
612.127	32179.34
612.484	32163.07
612.841	32092.11
613.198	32162.39
613.554	32181.82
613.911	32414.59
614.267	32386.34
614.624	32267.02
614.98	32307.24
615.337	32489.84
615.693	32423.62
616.05	32399.44
616.406	32633.34
616.762	32362.84
617.118	32468.82
617.475	32480.12
617.831	32646.44
618.187	32618.87
618.543	32615.03
618.899	32780.45
619.255	32723.5
619.611	32696.84
619.967	32862.03
620.323	32945.87
620.678	32701.36
621.034	32627.46
621.39	32664.97
621.746	32790.17
622.101	33003.04
622.457	32742.26
622.812	32766.21
623.168	32929.15
623.523	32801.47
623.879	32948.58
624.234	32690.74
624.589	32832.2
624.945	32786.1
625.3	32911.97
625.655	32937.51
626.01	32994.23
626.365	32947
626.72	32854.35
627.075	32727.35
627.43	32774.58
627.785	32643.73
628.14	32802.15
628.495	32769.6
628.85	32721.7
629.205	32579.55
629.559	32738.64
629.914	32646.67
630.269	32561.25
630.623	32567.12
630.978	32407.81
631.332	32749.72
631.687	32650.06
632.041	32487.35
632.396	32554.47
632.75	32511.76
633.104	32512.21
633.459	32374.59
633.813	32425.43
634.167	32326.9
634.521	32196.06
634.875	32394.7
635.229	32352.21
635.583	32103.41
635.937	32119
636.291	32123.75
636.645	32231.54
636.999	31949.06
637.352	32224.76
637.706	31738.22
638.06	31936.41
638.413	31917.42
638.767	31882.62
639.121	31880.14
639.474	31632.69
639.828	31731.44
640.181	31710.65
640.534	31694.38
640.888	31685.34
641.241	31437.66
641.594	31378.45
641.947	31548.85
642.301	31489.19
642.654	31373.48
643.007	31423.65
643.36	31446.25
643.713	31205.35
644.066	31418.91
644.419	31176.65
644.771	30963.1
645.124	30674.97
645.477	30705.7
645.83	30480.4
646.182	30299.61
646.535	30200.41
646.888	30306.62
647.24	30096.68
647.593	30379.38
647.945	30262.55
648.298	30042.22
648.65	29915.89
649.002	29965.16
649.355	30071.37
649.707	29938.94
650.059	30139.17
650.411	30473.62
650.763	30476.33
651.115	30753.39
651.467	30607.85
651.819	30565.59
652.171	30395.66
652.523	30449.67
652.875	30477.69
653.227	30425.26
653.578	30598.81
653.93	30399.27
654.282	30268.43
654.633	30284.02
654.985	30195.66
655.337	30233.17
655.688	30331.48
656.039	30299.39
656.391	30040.41
656.742	30223.68
657.094	30185.94
657.445	30187.07
657.796	30030.69
658.147	30161.31
658.498	30082.67
658.849	30115.66
659.2	30010.35
659.551	29832.05
659.902	30128.09
660.253	29983.24
660.604	29961.77
660.955	29722.68
661.306	29876.57
661.656	29944.14
662.007	29857.59
662.358	29842.45
662.708	29817.59
663.059	29769.91
663.409	29618.95
663.76	29875.9
664.11	29820.3
664.461	29722.23
664.811	29838.61
665.161	29738.05
665.511	29637.03
665.862	29713.64
666.212	29708.89
666.562	29680.42
666.912	29680.87
667.262	29677.93
667.612	29569.01
667.962	29760.87
668.312	29524.94
668.662	29645.62
669.011	29706.63
669.361	29586.41
669.711	29577.15
670.06	29572.17
670.41	29355
670.76	29404.27
671.109	29469.13
671.459	29405.63
671.808	29466.87
672.157	29357.94
672.507	29221.9
672.856	29223.93
673.205	29239.08
673.554	29385.51
673.904	29231.39
674.253	29238.4
674.602	29217.38
674.951	28821.91
675.3	28642.48
675.649	29133.54
675.998	29184.39
676.346	29087.22
676.695	29221.68
677.044	28881.35
677.393	29032.08
677.741	29188.91
678.09	29045.86
678.438	28885.19
678.787	28963.15
679.135	28904.85
679.484	28697.17
679.832	28905.3
680.181	28736.49
680.529	28707.56
680.877	28705.98
681.225	28697.4
681.573	28805.19
681.922	28705.3
682.27	28416.72
682.618	28476.84
682.966	28384.41
683.314	28392.54
683.661	28416.27
684.009	28282.94
684.357	28079.56
684.705	28182.38
685.053	28184.87
685.4	28087.02
685.748	27981.03
686.095	27928.15
686.443	27964.99
686.79	27901.94
687.138	27947.58
687.485	27915.49
687.832	27693.81
688.18	27750.98
688.527	27657.42
688.874	27589.4
689.221	27349.63
689.568	27453.81
689.915	27382.18
690.262	27410.88
690.609	27319.35
690.956	27114.39
691.303	26949.19
691.65	27002.75
691.997	26943.54
692.344	26850.89
692.69	26852.47
693.037	26898.8
693.383	26581.52
693.73	26715.07
694.077	26566.38
694.423	26587.17
694.769	26565.93
695.116	26367.29
695.462	26369.55
695.808	26299.72
696.155	26283.45
696.501	26063.34
696.847	26167.74
697.193	25920.74
697.539	25915.32
697.885	25823.57
698.231	25687.98
698.577	25693.41
698.923	25668.1
699.269	25529.34
699.614	25409.8
699.96	25412.74
700.306	25390.59
700.651	25306.75
700.997	25314.89
701.342	25155.79
701.688	25130.26
702.033	25120.77
702.379	24971.84
702.724	24984.72
703.069	25008.68
703.415	24696.6
703.76	24767.78
704.105	24805.29
704.45	24628.35
704.795	24406.66
705.14	24442.82
705.485	24477.62
705.83	24322.82
706.175	24445.76
706.52	24259.55
706.865	24105.88
707.209	24170.73
707.554	24036.27
707.899	24049.83
708.243	23907.92
708.588	23895.04
708.932	23719.22
709.277	23773
709.621	23733.68
709.966	23462.28
710.31	23570.3
710.654	23447.36
710.998	23468.15
711.342	23487.59
711.687	23415.73
712.031	23305.9
712.375	23146.35
712.719	23178.9
713.063	23201.27
713.407	23310.64
713.75	23031.78
714.094	23085.11
714.438	23027.04
714.782	22921.5
715.125	22874.27
715.469	22946.13
715.812	22868.17
716.156	22606.48
716.499	22735.29
716.843	22836.08
717.186	22650.1
717.53	22627.72
717.873	22624.56
718.216	22577.56
718.559	22498.24
718.902	22361.29
719.246	22400.61
719.589	22375.3
719.932	22191.8
720.275	22121.75
720.617	22124.69
720.96	21983.67
721.303	22070.9
721.646	22077
721.989	21858.93
722.331	22034.07
722.674	21750.01
723.016	21945.93
723.359	21913.39
723.701	21933.96
724.044	21683.57
724.386	21564.48
724.729	21723.79
725.071	21646.73
725.413	21677.47
725.755	21670.46
726.097	21519.96
726.439	21496
726.782	21550.69
727.124	21564.93
727.465	21404.93
727.807	21350.24
728.149	21351.37
728.491	21270.92
728.833	21340.07
729.175	21227.08
729.516	21276.57
729.858	21170.59
730.199	21113.19
730.541	20942.8
730.882	21051.04
731.224	21113.41
731.565	20861.44
731.906	20956.13
732.248	20948.45
732.589	20780.54
732.93	20738.73
733.271	20751.84
733.612	20763.82
733.953	20709.13
734.294	20766.76
734.635	20616.93
734.976	20649.02
735.317	20553.65
735.658	20547.78
735.999	20496.25
736.339	20447.44
736.68	20573.31
737.021	20613.31
737.361	20354.11
737.702	20436.37
738.042	20296.03
738.383	20248.13
738.723	20307.33
739.063	20343.72
739.404	20358.18
739.744	20190.05
740.084	20104.63
740.424	20196.83
740.764	20165.19
741.104	20247
741.444	20032.09
741.784	20069.83
742.124	19998.41
742.464	19950.96
742.804	19892.88
743.143	19821.24
743.483	19779.21
743.823	19783.28
744.162	19749.61
744.502	19804.97
744.841	19744.18
745.181	19757.52
745.52	19588.03
745.86	19721.59
746.199	19721.13
746.538	19690.85
746.877	19626.67
747.216	19690.85
747.556	19608.37
747.895	19522.5
748.234	19431.2
748.573	19459.22
748.911	19384.42
749.25	19355.72
749.589	19278.89
749.928	19233.92
750.267	19381.26
750.605	19198.89
750.944	19169.06
751.283	19036.86
751.621	19085.22
751.96	18951.66
752.298	18934.26
752.636	18938.78
752.975	18846.81
753.313	18778.56
753.651	18889.97
753.989	18759.8
754.327	18632.12
754.666	18630.32
755.004	18606.14
755.342	18721.84
755.679	18595.29
756.017	18478.91
756.355	18528.85
756.693	18375.86
757.031	18457.21
757.368	18276.43
757.706	18343.54
758.044	18144.45
758.381	18188.07
758.719	18135.41
759.056	18154.62
759.394	18078.92
759.731	17956.89
760.068	17943.33
760.405	17889.54
760.743	17818.81
761.08	17837.12
761.417	17752.82
761.754	17679.38
762.091	17585.14
762.428	17586.27
762.765	17523.68
763.102	17491.14
763.438	17507.41
763.775	17342.21
764.112	17371.37
764.449	17302.89
764.785	17207.3
765.122	17140.41
765.458	17024.03
765.795	17012.5
766.131	17168.43
766.467	16954.2
766.804	16883.24
767.14	16852.73
767.476	16772.96
767.812	16757.82
768.148	16799.63
768.485	16605.51
768.821	16591.27
769.157	16462.91
769.492	16515.79
769.828	16459.75
770.164	16263.6
770.5	16370.04
770.836	16261.79
771.171	16170.04
771.507	16175.24
771.842	16044.85
772.178	16042.59
772.513	15927.11
772.849	15954.23
773.184	15839.43
773.519	15876.04
773.855	15793.55
774.19	15667.68
774.525	15590.62
774.86	15527.12
775.195	15573.9
775.53	15498.87
775.865	15441.92
776.2	15304.53
776.535	15244.64
776.87	15243.96
777.205	15163.74
777.539	15109.05
777.874	15071.76
778.209	14935.5
778.543	14933.69
778.878	14865.89
779.212	14831.09
779.547	14780.02
779.881	14781.38
780.215	14638.78
780.55	14726.01
780.884	14571.21
781.218	14563.3
781.552	14566.24
781.886	14420.93
782.22	14419.58
782.554	14309.75
782.888	14277.44
783.222	14099.13
783.556	14183.43
783.889	14059.36
784.223	14008.06
784.557	13996.99
784.89	14004.45
785.224	13909.99
785.557	13835.87
785.891	13814.62
786.224	13748.86
786.558	13667.73
786.891	13625.25
787.224	13599.49
787.557	13546.38
787.891	13499.38
788.224	13476.1
788.557	13461.64
788.89	13385.93
789.223	13485.82
789.556	13192.27
789.888	13258.03
790.221	13126.05
790.554	13074.3
790.887	13138.26
791.219	13013.06
791.552	13055.09
791.884	12978.71
792.217	12869.34
792.549	12770.13
792.882	12750.47
793.214	12761.54
793.546	12763.58
793.879	12669.79
794.211	12571.72
794.543	12674.54
794.875	12561.1
795.207	12660.08
795.539	12508.89
795.871	12557.03
796.203	12384.15
796.535	12382.57
796.867	12299.63
797.198	12251.27
797.53	12320.88
797.862	12170.82
798.193	12270.26
798.525	12110.26
798.856	12178.73
799.188	12017.61
799.519	11905.97
799.85	11868.23
800.182	11888.8
800.513	11955.01
800.844	11834.79
801.175	11841.12
801.506	11802.92
801.837	11806.54
802.168	11707.33
802.499	11697.39
802.83	11692.42
803.161	11612.65
803.491	11651.29
803.822	11605.64
804.153	11521.58
804.483	11438.19
804.814	11411.75
805.145	11383.5
805.475	11479.77
805.805	11430.5
806.136	11300.11
806.466	11282.26
806.796	11253.33
807.126	11163.39
807.457	11181.02
807.787	11145.09
808.117	11078.42
808.447	11043.85
808.777	11062.83
809.107	10971.53
809.436	10974.92
809.766	10956.62
810.096	10900.12
810.426	10877.52
810.755	10892.21
811.085	10790.52
811.414	10847.69
811.744	10793.01
812.073	10685.67
812.403	10738.32
812.732	10680.24
813.061	10726.57
813.39	10628.49
813.719	10549.17
814.049	10577.65
814.378	10571.09
814.707	10595.27
815.036	10539.91
815.365	10456.97
815.693	10398.44
816.022	10351.21
816.351	10336.07
816.68	10374.04
817.008	10345.34
817.337	10282.96
817.665	10203.64
817.994	10220.37
818.322	10204.55
818.651	10170.88
818.979	10167.94
819.307	10154.61
819.636	10186.24
819.964	10093.36
820.292	10143.08
820.62	10089.97
820.948	10102.63
821.276	10121.84
821.604	10040.26
821.932	10039.81
822.259	10067.6
822.587	10087.49
822.915	9978.11
823.243	10083.42
823.57	9987.6
823.898	10015.4
824.225	10035.29
824.553	10001.62
824.88	10031.67
825.207	9982.63
825.535	10008.85
825.862	9985.8
826.189	9965.23
826.516	10017.89
826.843	10031.22
827.17	9979.7
827.497	10034.61
827.824	9981.05
828.151	9994.84
828.478	10004.55
828.805	10017.21
829.131	9985.12
829.458	10012.24
829.785	9894.5
830.111	9993.03
830.438	9936.31
830.764	9988.28
831.09	9953.71
831.417	9857.89
831.743	9957.1
832.069	9945.8
832.395	9897.21
832.722	9916.42
833.048	9859.7
833.374	9947.83
833.7	9828.74
834.026	9899.02
834.351	9863.99
834.677	9844.56
835.003	9894.27
835.329	9858.34
835.654	9852.92
835.98	9873.94
836.306	9776.08
836.631	9774.5
836.956	9826.7
837.282	9802.75
837.607	9761.85
837.932	9723.66
838.258	9731.57
838.583	9685.69
838.908	9726.59
839.233	9662.64
839.558	9642.98
839.883	9647.05
840.208	9569.08
840.533	9585.58
840.858	9548.52
841.182	9565.69
841.507	9650.44
841.832	9491.57
842.156	9496.77
842.481	9498.13
842.805	9466.94
843.13	9493.83
843.454	9417.9
843.778	9410.9
844.103	9341.29
844.427	9365.93
844.751	9351.01
845.075	9266.95
845.399	9304.23
845.723	9195.31
846.047	9285.7
846.371	9136.55
846.695	9164.12
847.019	9151.24
847.343	9088.42
847.666	9078.48
847.99	8986.73
848.313	9008.65
848.637	8895.66
848.96	8860.18
849.284	8826.51
849.607	8782.89
849.931	8762.33
850.254	8731.59
850.577	8687.3
850.9	8664.93
851.223	8590.58
851.546	8625.61
851.869	8515.1
852.192	8608.66
852.515	8473.52
852.838	8463.58
853.161	8450.47
853.483	8437.59
853.806	8345.84
854.129	8397.14
854.451	8315.78
854.774	8313.07
855.096	8212.51
855.419	8213.19
855.741	8225.39
856.063	8173.64
856.385	8212.96
856.708	8102
857.03	8101.1
857.352	8186.3
857.674	8095.68
857.996	8035.57
858.318	8005.96
858.64	8049.12
858.961	8068.56
859.283	7947.21
859.605	7915.79
859.926	7930.48
860.248	7895.23
860.57	7872.41
860.891	7866.08
861.212	7868.11
861.534	7816.36
861.855	7815.46
862.176	7820.43
862.498	7772.75
862.819	7795.8
863.14	7765.52
863.461	7717.38
863.782	7686.87
864.103	7721
864.424	7675.58
864.745	7732.97
865.065	7695.01
865.386	7643.49
865.707	7610.04
866.027	7699.08
866.348	7674.67
866.668	7597.84
866.989	7603.03
867.309	7566.65
867.63	7523.71
867.95	7584.5
868.27	7481.68
868.59	7542.7
868.91	7451.4
869.23	7446.65
869.55	7458.41
869.87	7481
870.19	7372.53
870.51	7415.47
870.83	7459.99
871.15	7401.91
871.469	7438.07
871.789	7422.02
872.109	7399.2
872.428	7333.89
872.748	7379.09
873.067	7345.64
873.386	7350.61
873.706	7283.27
874.025	7255.02
874.344	7240.33
874.663	7299.99
874.982	7215.93
875.301	7247.11
875.62	7267
875.939	7182.25
876.258	7211.18
876.577	7123.5
876.896	7176.83
877.214	7185.19
877.533	7109.26
877.852	7176.38
878.17	7135.93
878.489	7137.74
878.807	7129.15
879.125	7084.4
879.444	7065.65
879.762	7052.77
880.08	7095.93
880.398	7045.99
880.716	7048.7
881.034	7041.69
881.352	6966.89
881.67	6964.63
881.988	7040.34
882.306	6993.56
882.624	6951.98
882.941	6904.75
883.259	6921.02
883.577	6910.62
883.894	6869.27
884.212	6832.43
884.529	6877.63
884.846	6853
885.164	6835.82
885.481	6826.33
885.798	6802.6
886.115	6719.67
886.432	6728.48
886.75	6718.31
887.067	6670.18
887.383	6641.7
887.7	6712.44
888.017	6660.01
888.334	6693.91
888.651	6618.43
888.967	6631.99
889.284	6557.86
889.6	6550.63
889.917	6599.9
890.233	6581.14
890.55	6549.05
890.866	6473.57
891.182	6512.67
891.498	6515.38
891.815	6475.15
892.131	6436.96
892.447	6356.06
892.763	6391.31
893.079	6380.69
893.395	6319
893.71	6397.64
894.026	6290.07
894.342	6319.68
894.657	6295.72
894.973	6253.92
895.289	6172.56
895.604	6224.31
895.92	6197.65
896.235	6175.05
896.55	6152.45
896.865	6147.93
897.181	6140.47
897.496	6128.72
897.811	6073.58
898.126	6036.97
898.441	5997.65
898.756	6009.86
899.071	6015.73
899.386	5964.21
899.7	5927.6
900.015	5949.74
900.33	5883.98
900.644	5874.04
900.959	5883.76
901.273	5820.03
901.588	5781.61
901.902	5851.44
902.216	5789.3
902.531	5823.87
902.845	5789.3
903.159	5768.96
903.473	5708.17
903.787	5703.2
904.101	5652.35
904.415	5688.06
904.729	5635.63
905.042	5608.28
905.356	5567.61
905.67	5575.74
905.984	5586.14
906.297	5512.92
906.611	5556.31
906.924	5494.84
907.237	5452.58
907.551	5477.89
907.864	5438.35
908.177	5418.23
908.491	5394.28
908.804	5398.8
909.117	5354.28
909.43	5378.91
909.743	5312.47
910.056	5249.88
910.368	5294.17
910.681	5227.96
910.994	5234.51
911.307	5215.75
911.619	5189.99
911.932	5209.88
912.244	5127.17
912.557	5135.3
912.869	5090.33
913.181	5048.75
913.494	5125.13
913.806	5032.03
914.118	5018.7
914.43	4973.95
914.742	5013.05
915.054	4977.79
915.366	4912.71
915.678	4945.93
915.99	4860.06
916.302	4881.52
916.613	4880.17
916.925	4880.17
917.236	4827.97
917.548	4822.32
917.859	4792.94
918.171	4734.41
918.482	4760.4
918.794	4712.26
919.105	4748.65
919.416	4709.33
919.727	4653.06
920.038	4681.08
920.349	4635.88
920.66	4668.65
920.971	4626.84
921.282	4587.07
921.593	4591.36
921.903	4575.32
922.214	4540.97
922.525	4516.56
922.835	4533.28
923.146	4443.12
923.456	4419.39
923.767	4423.01
924.077	4444.25
924.387	4396.11
924.697	4400.63
925.008	4365.83
925.318	4413.74
925.628	4304.59
925.938	4296.45
926.248	4350.46
926.558	4310.24
926.867	4271.14
927.177	4257.13
927.487	4248.09
927.796	4220.75
928.106	4206.29
928.416	4213.07
928.725	4196.8
929.034	4105.95
929.344	4148.66
929.653	4143.01
929.962	4103.92
930.271	4079.74
930.581	4038.61
930.89	4011.72
931.199	4021.21
931.508	4033.41
931.817	3987.31
932.125	3952.28
932.434	3965.62
932.743	3944.83
933.051	3896.24
933.36	3908.67
933.669	3898.5
933.977	3867.09
934.286	3884.71
934.594	3879.29
934.902	3845.85
935.21	3798.39
935.519	3836.13
935.827	3774.21
936.135	3790.71
936.443	3711.39
936.751	3723.81
937.059	3703.93
937.367	3709.13
937.674	3677.94
937.982	3688.11
938.29	3671.39
938.597	3689.69
938.905	3632.07
939.213	3614.66
939.52	3622.35
939.827	3602.01
940.135	3586.64
940.442	3549.36
940.749	3541.67
941.056	3560.88
941.363	3485.63
941.67	3475.01
941.977	3481.79
942.284	3462.58
942.591	3503.26
942.898	3460.54
943.205	3460.54
943.511	3427.78
943.818	3408.57
944.125	3398.17
944.431	3425.52
944.738	3376.48
945.044	3330.15
945.35	3329.47
945.657	3334.45
945.963	3317.05
946.269	3280.21
946.575	3324.73
946.881	3256.71
947.187	3222.13
947.493	3222.58
947.799	3266.65
948.105	3197.5
948.41	3168.8
948.716	3216.94
949.022	3168.12
949.327	3189.14
949.633	3123.38
949.938	3153.89
950.244	3117.05
950.549	3094
950.854	3096.26
951.16	3024.85
951.465	3036.6
951.77	3019.65
952.075	3068.01
952.38	3075.92
952.685	3014.45
952.99	2980.56
953.294	2971.74
953.599	2956.83
953.904	2947.34
954.209	2964.74
954.513	2952.54
954.818	2931.97
955.122	2922.25
955.426	2916.83
955.731	2878.41
956.035	2888.36
956.339	2883.38
956.643	2875.02
956.948	2852.88
957.252	2815.59
957.556	2825.31
957.86	2807
958.163	2814.69
958.467	2770.17
958.771	2789.15
959.075	2767.68
959.378	2788.25
959.682	2814.01
959.985	2729.49
960.289	2704.18
960.592	2710.06
960.896	2724.52
961.199	2693.33
961.502	2708.47
961.805	2683.62
962.108	2647.46
962.411	2629.15
962.714	2604.97
963.017	2637.97
963.32	2595.71
963.623	2591.64
963.926	2636.16
964.228	2555.71
964.531	2550.96
964.833	2548.03
965.136	2535.82
965.438	2552.32
965.741	2519.1
966.043	2496.05
966.345	2519.1
966.648	2517.52
966.95	2489.27
967.252	2468.48
967.554	2441.81
967.856	2440.91
968.158	2436.16
968.46	2392.32
968.761	2417.18
969.063	2407.69
969.365	2407.46
969.666	2396.62
969.968	2380.8
970.269	2342.61
970.571	2364.53
970.872	2339.9
971.174	2337.86
971.475	2337.41
971.776	2309.39
972.077	2302.61
972.378	2322.5
972.679	2319.33
972.98	2306
973.281	2264.42
973.582	2303.96
973.883	2261.03
974.183	2240.46
974.484	2221.26
974.785	2220.58
975.085	2194.82
975.386	2235.04
975.686	2197.75
975.986	2186.23
976.287	2215.61
976.587	2164.99
976.887	2169.96
977.187	2165.66
977.487	2154.59
977.787	2152.33
978.087	2113.24
978.387	2139.22
978.687	2113.69
978.987	2099.22
979.286	2127.25
979.586	2113.91
979.885	2079.11
980.185	2085.21
980.484	2054.25
980.784	2090.19
981.083	2013.35
981.382	2039.34
981.682	2039.57
981.981	2021.26
982.28	2024.88
982.579	2033.24
982.878	2018.77
983.177	1999.11
983.475	1990.3
983.774	1973.35
984.073	1957.76
984.372	1950.08
984.67	1941.94
984.969	1934.71
985.267	1946.23
985.566	1928.83
985.864	1904.2
986.162	1874.37
986.461	1922.28
986.759	1884.09
987.057	1884.09
987.355	1880.7
987.653	1865.11
987.951	1849.74
988.249	1864.65
988.547	1844.99
988.844	1839.8
989.142	1821.72
989.44	1830.53
989.737	1804.09
990.035	1812.68
990.332	1797.99
990.63	1802.96
990.927	1784.2
991.224	1768.61
991.521	1762.06
991.819	1770.42
992.116	1742.17
992.413	1765
992.71	1723.64
993.006	1717.09
993.303	1740.14
993.6	1734.71
993.897	1720.93
994.193	1720.93
994.49	1659.91
994.787	1675.05
995.083	1672.34
995.379	1657.65
995.676	1671.21
995.972	1658.56
996.268	1633.25
996.565	1612.46
996.861	1644.55
997.157	1642.06
997.453	1614.27
997.749	1623.3
998.044	1586.47
998.34	1607.71
998.636	1586.02
998.932	1577.88
999.227	1553.02
999.523	1573.81
999.818	1593.93
1000.114	1532.69
1000.409	1534.04
1000.704	1539.92
1001	1535.4
1001.295	1540.82
1001.59	1493.36
1001.885	1528.39
1002.18	1473.48
1002.475	1494.27
1002.77	1473.7
1003.065	1471.44
1003.359	1456.98
1003.654	1455.4
1003.949	1482.74
1004.243	1481.39
1004.538	1451.56
1004.832	1422.86
1005.127	1428.73
1005.421	1424.44
1005.715	1410.43
1006.009	1422.63
1006.304	1368.17
1006.598	1368.85
1006.892	1427.6
1007.186	1394.38
1007.48	1384.67
1007.773	1386.02
1008.067	1349.41
1008.361	1337.89
1008.655	1335.85
1008.948	1329.98
1009.242	1343.99
1009.535	1327.04
1009.829	1303.54
1010.122	1292.24
1010.415	1299.7
1010.708	1313.26
1011.001	1283.65
1011.295	1288.62
1011.588	1267.38
1011.881	1253.6
1012.173	1266.03
1012.466	1257.44
1012.759	1253.82
1013.052	1222.41
1013.344	1254.5
1013.637	1229.64
1013.93	1228.74
1014.222	1195.75
1014.514	1213.6
1014.807	1196.88
1015.099	1221.96
1015.391	1176.76
1015.683	1195.52
1015.976	1162.53
1016.268	1181.51
1016.56	1139.93
1016.851	1170.66
1017.143	1123.2
1017.435	1121.62
1017.727	1131.79
1018.018	1121.4
1018.31	1147.16
1018.602	1097.67
1018.893	1130.21
1019.185	1104.67
1019.476	1096.09
1019.767	1098.35
1020.058	1091.12
1020.35	1084.56
1020.641	1103.54
1020.932	1066.71
1021.223	1076.65
1021.514	1056.09
1021.804	1044.11
1022.095	1042.08
1022.386	1039.59
1022.677	1037.78
1022.967	1020.38
1023.258	1054.28
1023.548	1006.37
1023.839	995.75
1024.129	994.17
1024.419	989.2
1024.709	974.51
1025	1008.86
1025.29	973.15
1025.58	996.43
1025.87	957.33
1026.16	977.67
1026.449	956.2
1026.739	936.54
1027.029	942.87
1027.319	953.04
1027.608	972.25
1027.898	928.63
1028.187	912.81
1028.477	926.6
1028.766	926.15
1029.055	911.91
1029.344	908.3
1029.634	889.09
1029.923	879.14
1030.212	886.83
1030.501	904.68
1030.79	889.31
1031.078	890.67
1031.367	877.79
1031.656	868.3
1031.945	871.46
1032.233	853.61
1032.522	851.8
1032.81	846.38
1033.099	832.37
1033.387	861.74
1033.675	818.35
1033.963	831.46
1034.251	831.24
1034.54	812.93
1034.828	812.93
1035.116	789.65
1035.403	785.81
1035.691	805.47
1035.979	799.37
1036.267	772.93
1036.554	781.07
1036.842	789.65
1037.129	784.68
1037.417	783.33
1037.704	780.62
1037.992	772.93
1038.279	775.64
1038.566	758.47
1038.853	758.47
1039.14	758.47
