Data from whiteboard_FLMS001491_00010.txt Node
Date: Wed Feb 08 11:24:56 GMT 2017
User: dcchb
Spectrometer: FLMS00149
Trigger mode: 0
Integration Time (sec): 2.000000E-2
Scans to average: 10
Electric dark correction enabled: true
Nonlinearity correction enabled: false
Boxcar width: 0
XAxis mode: Wavelengths
Number of Pixels in Spectrum: 2048
>>>>>Begin Spectral Data<<<<<
341.393	-6.61
341.776	-6.61
342.16	-6.61
342.543	-83.67
342.927	-80.05
343.31	-86.16
343.693	-83.44
344.077	-37.12
344.46	-55.42
344.843	-47.29
345.226	-45.25
345.61	-27.63
345.993	-29.43
346.376	-7.97
346.759	1.53
347.142	30.23
347.525	59.15
347.908	56.21
348.291	76.33
348.674	80.39
349.057	115.87
349.44	147.06
349.823	127.4
350.206	172.82
350.588	219.6
350.971	229.32
351.354	248.98
351.737	277.45
352.119	270.44
352.502	307.28
352.884	314.96
353.267	325.36
353.65	333.95
354.032	326.49
354.414	351.35
354.797	340.05
355.179	353.15
355.562	362.42
355.944	368.07
356.326	371.01
356.709	376.88
357.091	371.46
357.473	389.99
357.855	378.92
358.238	401.29
358.62	392.7
359.002	388.41
359.384	387.05
359.766	396.09
360.148	381.4
360.53	400.38
360.912	398.13
361.294	377.79
361.676	407.39
362.057	370.56
362.439	371.23
362.821	385.24
363.203	376.66
363.584	382.31
363.966	385.24
364.348	375.98
364.729	366.71
365.111	367.84
365.493	393.38
365.874	398.58
366.256	389.76
366.637	394.06
367.019	362.87
367.4	403.1
367.781	397.9
368.163	378.92
368.544	371.69
368.925	382.08
369.306	384.79
369.688	370.56
370.069	385.24
370.45	400.38
370.831	413.27
371.212	380.05
371.593	400.16
371.974	392.48
372.355	403.55
372.736	402.42
373.117	398.8
373.498	396.54
373.879	390.22
374.26	384.79
374.641	398.8
375.021	406.49
375.402	409.42
375.783	425.02
376.163	415.07
376.544	438.12
376.925	438.12
377.305	428.41
377.686	417.11
378.066	415.53
378.447	436.09
378.827	419.14
379.208	420.5
379.588	447.16
379.968	452.59
380.349	436.54
380.729	472.7
381.109	462.3
381.489	471.34
381.87	451.23
382.25	455.98
382.63	475.41
383.01	466.37
383.39	469.99
383.77	469.76
384.15	494.39
384.53	479.03
384.91	506.37
385.29	529.2
385.67	486.48
386.049	505.01
386.429	528.74
386.809	523.77
387.189	516.31
387.568	530.55
387.948	546.6
388.328	528.74
388.707	547.95
389.087	553.83
389.466	561.96
389.846	556.77
390.225	573.71
390.605	564.45
390.984	575.75
391.363	590.44
391.743	570.78
392.122	609.42
392.501	622.75
392.881	625.92
393.26	611
393.639	613.26
394.018	629.31
394.397	668.4
394.776	620.94
395.155	649.64
395.534	651.23
395.913	646.71
396.292	660.94
396.671	699.81
397.05	697.1
397.429	704.11
397.808	714.73
398.186	706.14
398.565	716.76
398.944	746.36
399.323	742.07
399.701	741.62
400.08	769.19
400.458	767.61
400.837	803.31
401.215	771.45
401.594	813.26
401.972	821.62
402.351	848.96
402.729	841.05
403.107	881.28
403.486	880.82
403.864	890.77
404.242	883.99
404.62	905.68
404.999	940.26
405.377	934.38
405.755	950.65
406.133	996.53
406.511	992.46
406.889	1008.28
407.267	1027.26
407.645	1066.81
408.023	1082.4
408.401	1093.93
408.779	1132.8
409.156	1119.24
409.534	1138.44
409.912	1181.83
410.29	1215.05
410.667	1220.48
411.045	1253.47
411.422	1243.3
411.8	1284.66
412.178	1304.32
412.555	1349.06
412.933	1367.14
413.31	1368.72
413.687	1369.63
414.065	1405.78
414.442	1422.96
414.819	1448.27
415.197	1475.84
415.574	1520.36
415.951	1514.71
416.328	1523.97
416.705	1569.39
417.082	1601.26
417.46	1622.73
417.837	1597.87
418.214	1608.71
418.591	1649.62
418.967	1664.31
419.344	1669.73
419.721	1730.75
420.098	1711.54
420.475	1742.95
420.852	1775.72
421.228	1791.76
421.605	1793.57
421.982	1843.74
422.358	1860.01
422.735	1888.26
423.111	1873.79
423.488	1890.97
423.864	1923.73
424.241	1980
424.617	2004.64
424.994	2000.12
425.37	2025.88
425.746	2036.73
426.123	2091.19
426.499	2109.04
426.875	2145.2
427.251	2172.09
427.627	2180.68
428.003	2210.28
428.379	2282.14
428.756	2291.86
429.132	2321.92
429.507	2356.72
429.883	2396.26
430.259	2433.55
430.635	2479.88
431.011	2461.12
431.387	2539.76
431.763	2607.11
432.138	2613.43
432.514	2624.51
432.89	2655.92
433.265	2715.35
433.641	2763.94
434.016	2796.25
434.392	2828.12
434.767	2863.6
435.143	2847.78
435.518	2907.89
435.894	2948.79
436.269	3010.49
436.644	3056.81
437.02	3123.93
437.395	3108.11
437.77	3150.14
438.145	3194.89
438.52	3195.79
438.895	3268.33
439.271	3291.83
439.646	3350.82
440.021	3391.27
440.395	3395.11
440.77	3407.99
441.145	3452.51
441.52	3517.82
441.895	3539.51
442.27	3556.69
442.645	3568.44
443.019	3624.48
443.394	3598.94
443.769	3669.23
444.143	3649.34
444.518	3694.31
444.892	3706.74
445.267	3765.95
445.641	3752.16
446.016	3843.23
446.39	3830.8
446.764	3911.71
447.139	3881.65
447.513	3999.61
447.887	3940.18
448.262	3985.83
448.636	4009.56
449.01	4060.63
449.384	4135.65
449.758	4151.92
450.132	4202.77
450.506	4226.5
450.88	4301.3
451.254	4251.58
451.628	4293.84
452.002	4416.55
452.376	4417.91
452.75	4450.45
453.123	4534.51
453.497	4613.61
453.871	4649.31
454.244	4720.72
454.618	4780.16
454.992	4819.7
455.365	4789.42
455.739	4943.32
456.112	5009.53
456.486	5061.73
456.859	5088.17
457.232	5189.64
457.606	5199.58
457.979	5272.57
458.352	5421.95
458.725	5453.81
459.099	5480.25
459.472	5590.76
459.845	5726.35
460.218	5754.82
460.591	5807.25
460.964	5831.88
461.337	6016.51
461.71	6049.95
462.083	6159.78
462.456	6194.13
462.829	6220.57
463.201	6318.87
463.574	6368.14
463.947	6482.48
464.32	6610.84
464.692	6673.89
465.065	6733.55
465.438	6873.21
465.81	6896.49
466.183	7001.34
466.555	7144.16
466.928	7173.31
467.3	7184.61
467.672	7350.03
468.045	7519.29
468.417	7527.66
468.789	7619.63
469.161	7700.76
469.534	7855.56
469.906	8063.91
470.278	8098.94
470.65	8210.8
471.022	8420.29
471.394	8530.79
471.766	8590
472.138	8706.38
472.51	8961.06
472.882	8987.5
473.253	9123.55
473.625	9277.67
473.997	9481.05
474.369	9572.8
474.74	9683.53
475.112	9850.31
475.484	10046.01
475.855	10201.94
476.227	10290.07
476.598	10573.22
476.97	10697.29
477.341	10968.47
477.713	11125.3
478.084	11118.3
478.455	11506.08
478.827	11670.6
479.198	11948.78
479.569	11953.3
479.94	12292.5
480.311	12480.52
480.682	12730.91
481.053	12951.24
481.424	13150.33
481.795	13358.01
482.166	13533.6
482.537	13726.14
482.908	14011.33
483.279	14158.22
483.65	14427.13
484.021	14710.52
484.391	14870.96
484.762	14986.44
485.133	15127.23
485.503	15485.64
485.874	15742.13
486.244	15934.67
486.615	16209.46
486.985	16367.65
487.356	16731.48
487.726	16783.01
488.097	17205.37
488.467	17190.68
488.837	17631.8
489.207	17799.02
489.578	18151.78
489.948	18302.06
490.318	18599.91
490.688	18626.35
491.058	18965.55
491.428	19275.82
491.798	19477.4
492.168	19779.31
492.538	19923.04
492.908	20137.95
493.278	20348.34
493.648	20506.07
494.017	20748.32
494.387	21017.92
494.757	21066.28
495.126	21371.13
495.496	21493.62
495.866	21641.41
496.235	21851.8
496.605	22167.5
496.974	22186.93
497.344	22401.84
497.713	22447.49
498.082	22771.77
498.452	23025.78
498.821	23168.6
499.19	23127.02
499.559	23508.7
499.928	23570.4
500.298	23741.92
500.667	24021.91
501.036	24003.15
501.405	24250.61
501.774	24218.52
502.143	24550.94
502.512	24588.9
502.88	24877.26
503.249	24781.66
503.618	25129.9
503.987	25119.96
504.356	25406.96
504.724	25538.26
505.093	25724.46
505.462	25868.19
505.83	25962.42
506.199	26197.22
506.567	26577.55
506.936	26563.09
507.304	26875.62
507.672	27021.83
508.041	27169.4
508.409	27494.14
508.777	27666.33
509.145	27879.21
509.514	27987.23
509.882	28133.89
510.25	28263.16
510.618	28509.7
510.986	28579.76
511.354	28823.37
511.722	29139.06
512.09	29430.58
512.458	29463.35
512.826	29638.26
513.193	29982.21
513.561	30043.22
513.929	30386.26
514.297	30667.61
514.664	30825.57
515.032	30941.5
515.4	31157.09
515.767	31325.22
516.135	31531.09
516.502	31605.67
516.869	32090.85
517.237	32201.36
517.604	32268.02
517.972	32608.58
518.339	32901.45
518.706	33021
519.073	33190.71
519.44	33404.94
519.808	33781.88
520.175	33691.49
520.542	34098.93
520.909	34281.75
521.276	34272.71
521.643	34691.01
522.009	34973.49
522.376	35214.61
522.743	35284.89
523.11	35636.29
523.477	36098.43
523.843	36153.34
524.21	36427.23
524.577	36696.15
524.943	36939.09
525.31	37119.42
525.676	37631.27
526.043	37749.23
526.409	37920.3
526.776	38342.44
527.142	38369.1
527.508	38719.83
527.874	39037.34
528.241	39108.07
528.607	39302.64
528.973	39605.68
529.339	39771.55
529.705	40100.58
530.071	40331.31
530.437	40719.78
530.803	41034.34
531.169	41133.55
531.535	41110.95
531.901	41367.22
532.267	41551.39
532.632	41792.06
532.998	42052.4
533.364	42213.75
533.73	42405.16
534.095	42741.19
534.461	42895.99
534.826	43152.03
535.192	43237.45
535.557	43493.94
535.923	43597.22
536.288	43696.42
536.653	43887.83
537.019	43927.6
537.384	44104.09
537.749	44419.79
538.114	44564.87
538.479	44650.52
538.845	44806.9
539.21	44796.51
539.575	45037.63
539.94	45140.23
540.305	45385.19
540.67	45307.23
541.034	45614.56
541.399	45725.97
541.764	45884.61
542.129	45887.55
542.494	46099.75
542.858	46158.96
543.223	46343.13
543.587	46516.23
543.952	46396.01
544.316	46731.14
544.681	46728.43
545.045	46784.7
545.41	47140.85
545.774	47085.71
546.138	47144.01
546.503	47211.36
546.867	47316.89
547.231	47794.17
547.595	47629.2
547.959	47792.36
548.324	47868.29
548.688	47946.48
549.052	48071.22
549.416	48353.47
549.779	48346.47
550.143	48411.78
550.507	48580.36
550.871	48705.1
551.235	48633.24
551.599	49135.6
551.962	49114.81
552.326	49246.78
552.689	49395.93
553.053	49125.88
553.417	49343.5
553.78	49867.78
554.143	49722.93
554.507	49934.9
554.87	50117.27
555.234	50416.02
555.597	50287.21
555.96	50426.19
556.323	50677.48
556.686	50747.54
557.05	51003.35
557.413	51051.03
557.776	51166.06
558.139	51308.65
558.502	51485.14
558.865	51582.99
559.228	51880.16
559.59	51959.48
559.953	52066.6
560.316	52398.34
560.679	52511.11
561.041	52574.15
561.404	52754.71
561.767	52991.54
562.129	52838.33
562.492	53321.25
562.854	53161.94
563.217	53241.71
563.579	53415.71
563.941	53637.18
564.304	53710.85
564.666	53801.69
565.028	53885.98
565.39	54000.11
565.753	54161.23
566.115	54223.38
566.477	54359.42
566.839	54508.11
567.201	54622.46
567.563	54602.12
567.925	54841.44
568.287	54805.96
568.648	54870.14
569.01	55037.14
569.372	55186.06
569.734	55040.3
570.095	55238.94
570.457	55389.45
570.819	55407.3
571.18	55418.83
571.542	55535.21
571.903	55529.1
572.265	55708.76
572.626	55722.32
572.987	55876.21
573.349	55814.97
573.71	56043.44
574.071	56028.53
574.432	56065.36
574.794	56268.07
575.155	56207.73
575.516	56136.32
575.877	56310.1
576.238	56351
576.599	56439.14
576.96	56464.45
577.32	56453.6
577.681	56518.46
578.042	56633.26
578.403	56633.48
578.763	56716.19
579.124	56769.52
579.485	56944.21
579.845	56978.11
580.206	56895.4
580.566	56964.77
580.927	56962.06
581.287	57122.51
581.648	57008.39
582.008	57073.25
582.368	57135.16
582.728	57223.75
583.089	57226.24
583.449	57248.16
583.809	57235.95
584.169	57361.15
584.529	57279.34
584.889	57423.29
585.249	57352.56
585.609	57252
585.969	57501.93
586.329	57321.83
586.688	57450.41
587.048	57420.13
587.408	57328.38
587.768	57352.33
588.127	57376.29
588.487	57368.15
588.846	57542.61
589.206	57368.6
589.565	57308.49
589.925	57543.29
590.284	57447.92
590.643	57479.79
591.003	57524.08
591.362	57602.5
591.721	57507.13
592.08	57545.32
592.44	57571.76
592.799	57572.44
593.158	57513.01
593.517	57518.66
593.876	57554.14
594.235	57531.54
594.593	57516.17
594.952	57537.87
595.311	57540.8
595.67	57552.78
596.029	57674.81
596.387	57658.09
596.746	57686.11
597.104	57601.59
597.463	57528.83
597.822	57603.63
598.18	57559.33
598.538	57526.11
598.897	57684.98
599.255	57483.18
599.613	57851.3
599.972	57675.72
600.33	57710.52
600.688	57620.8
601.046	57780.8
601.404	57832.32
601.762	57785.32
602.12	57912.09
602.478	57929.95
602.836	57877.74
603.194	57774.92
603.552	57813.56
603.91	57771.08
604.268	57924.52
604.625	57790.97
604.983	57929.27
605.341	57803.62
605.698	57975.14
606.056	57985.09
606.413	58038.19
606.771	58071.64
607.128	58050.17
607.485	58039.32
607.843	58017.63
608.2	58244.29
608.557	58222.59
608.914	58095.82
609.272	58301.91
609.629	58297.62
609.986	58433.44
610.343	58269.6
610.7	58485.41
611.057	58418.07
611.414	58452.42
611.771	58410.16
612.127	58514.11
612.484	58541.23
612.841	58644.28
613.198	58417.62
613.554	58496.26
613.911	58601.11
614.267	58648.34
614.624	58628.68
614.98	58618.06
615.337	58725.41
615.693	58672.98
616.05	58664.84
616.406	58790.49
616.762	58705.74
617.118	58741.22
617.475	58711.62
617.831	58825.97
618.187	58822.58
618.543	58843.37
618.899	58866.19
619.255	58862.35
619.611	58869.13
619.967	58955.46
620.323	58975.34
620.678	58836.81
621.034	58796.36
621.39	58881.79
621.746	58867.32
622.101	59142.12
622.457	58838.17
622.812	58964.04
623.168	59006.98
623.523	58993.19
623.879	59083.81
624.234	58900.54
624.589	58991.61
624.945	59068.22
625.3	59081.55
625.655	58954.33
626.01	59041.55
626.365	59022.8
626.72	58947.09
627.075	59011.27
627.43	58957.94
627.785	58883.14
628.14	58971.05
628.495	58984.38
628.85	58978.73
629.205	58878.85
629.559	59035.45
629.914	58813.76
630.269	58931.5
630.623	58872.07
630.978	58796.59
631.332	58930.82
631.687	58910.48
632.041	58800.88
632.396	58827.1
632.75	58640.44
633.104	58711.85
633.459	58582.13
633.813	58538.07
634.167	58578.74
634.521	58575.58
634.875	58559.76
635.229	58419.88
635.583	58379.65
635.937	58383.49
636.291	58348.47
636.645	58323.16
636.999	58201.8
637.352	58266.43
637.706	58117.29
638.06	58221.01
638.413	58090.85
638.767	58070.73
639.121	58081.35
639.474	57916.61
639.828	57942.6
640.181	57980.11
640.534	57906.9
640.888	57832.55
641.241	57724.08
641.594	57755.04
641.947	57781.7
642.301	57682.27
642.654	57643.17
643.007	57559.33
643.36	57649.73
643.713	57522.5
644.066	57631.42
644.419	57475.49
644.771	57369.73
645.124	57212.68
645.477	57194.6
645.83	56978.56
646.182	56893.59
646.535	56751.45
646.888	56835.06
647.24	56687.49
647.593	56882.29
647.945	56773.14
648.298	56678.45
648.65	56560.94
649.002	56524.33
649.355	56671.9
649.707	56634.61
650.059	56768.39
650.411	57161.6
650.763	57152.34
651.115	57398.66
651.467	57272.11
651.819	57274.14
652.171	57264.65
652.523	57207.03
652.875	57237.53
653.227	57123.19
653.578	57304.43
653.93	57321.83
654.282	57129.51
654.633	57090.19
654.985	57194.37
655.337	57144.88
655.688	57144.66
656.039	57179.91
656.391	57028.05
656.742	57057.65
657.094	57066.69
657.445	57118.89
657.796	57019.01
658.147	56979.46
658.498	56921.61
658.849	57015.62
659.2	56911.67
659.551	56871.89
659.902	56881.39
660.253	56906.47
660.604	56896.53
660.955	56689.98
661.306	56769.3
661.656	56644.1
662.007	56728.85
662.358	56689.07
662.708	56568.4
663.059	56557.55
663.409	56344.9
663.76	56578.34
664.11	56478.68
664.461	56396.43
664.811	56418.12
665.161	56450.89
665.511	56351.23
665.862	56354.62
666.212	56325.92
666.562	56301.06
666.912	56281.4
667.262	56223.1
667.612	56287.28
667.962	56274.85
668.312	56149.65
668.662	56199.37
669.011	56131.12
669.361	56110.78
669.711	56030.56
670.06	56032.14
670.41	56040.73
670.76	55970
671.109	56114.4
671.459	55985.82
671.808	55939.04
672.157	56062.65
672.507	55792.15
672.856	55840.06
673.205	55902.2
673.554	55996.44
673.904	55781.3
674.253	55969.09
674.602	55808.19
674.951	55430.58
675.3	55276
675.649	55694.98
675.998	55763.22
676.346	55725.71
676.695	55896.33
677.044	55495.89
677.393	55685.94
677.741	55792.37
678.09	55638.71
678.438	55610.68
678.787	55744.47
679.135	55660.63
679.484	55487.07
679.832	55664.24
680.181	55399.39
680.529	55545.15
680.877	55412.72
681.225	55390.58
681.573	55571.36
681.922	55388.32
682.27	55256.57
682.618	55303.35
682.966	55271.94
683.314	55326.62
683.661	55215.67
684.009	55031.72
684.357	54897.26
684.705	54937.03
685.053	54960.76
685.4	54892.51
685.748	54767.32
686.095	54785.17
686.443	54699.97
686.79	54590.82
687.138	54632.41
687.485	54660.43
687.832	54487.1
688.18	54595.34
688.527	54351.28
688.874	54330.04
689.221	54283.26
689.568	54170.72
689.915	53997.39
690.262	54029.26
690.609	53924.18
690.956	53903.61
691.303	53831.3
691.65	53634.01
691.997	53675.37
692.344	53407.58
692.69	53341.37
693.037	53431.08
693.383	53089.85
693.73	53333.91
694.077	52983.86
694.423	53002.17
694.769	52899.34
695.116	52917.65
695.462	52786.58
695.808	52720.37
696.155	52745.68
696.501	52489.64
696.847	52467.04
697.193	52235.18
697.539	52385.46
697.885	52155.41
698.231	52022.76
698.577	51987.05
698.923	51840.39
699.269	51787.51
699.614	51651.01
699.96	51595.65
700.306	51511.13
700.651	51333.96
700.997	51365.37
701.342	51165.38
701.688	51159.5
702.033	51024.14
702.379	51136.45
702.724	50906.85
703.069	51062.56
703.415	50701.44
703.76	50692.62
704.105	50713.64
704.45	50594.09
704.795	50398.84
705.14	50349.13
705.485	50389.35
705.83	50192.07
706.175	50264.61
706.52	50070.94
706.865	49937.39
707.209	49792.31
707.554	49790.95
707.899	49882.25
708.243	49587.11
708.588	49648.58
708.932	49414.69
709.277	49393
709.621	49355.93
709.966	49202.72
710.31	49226.22
710.654	49012.89
710.998	48934.48
711.342	48974.93
711.687	48833.01
712.031	48844.08
712.375	48527.03
712.719	48616.74
713.063	48447.94
713.407	48633.47
713.75	48411.78
714.094	48412.91
714.438	48073.93
714.782	48223.76
715.125	47946.48
715.469	48031.67
715.812	47787.16
716.156	47624
716.499	47574.96
716.843	47573.61
717.186	47292.94
717.53	47434.18
717.873	47312.6
718.216	47380.39
718.559	46925.04
718.902	46875.55
719.246	46813.63
719.589	46621.09
719.932	46542
720.275	46602.79
720.617	46259.74
720.96	46395.33
721.303	46307.2
721.646	46295.45
721.989	46072.4
722.331	46289.8
722.674	46064.72
723.016	46046.42
723.359	45929.13
723.701	46002.12
724.044	45703.83
724.386	45576.37
724.729	45687.56
725.071	45462.93
725.413	45405.98
725.755	45326.89
726.097	45252.76
726.439	45083.05
726.782	45053.67
727.124	45278.98
727.465	44864.3
727.807	44919.21
728.149	44817.52
728.491	44711.76
728.833	44871.98
729.175	44583.18
729.516	44617.75
729.858	44344.77
730.199	44505.21
730.541	44450.98
730.882	44462.5
731.224	44436.97
731.565	44135.28
731.906	44283.3
732.248	44213.92
732.589	43821.62
732.93	43828.4
733.271	43669.3
733.612	43781.39
733.953	43813.25
734.294	43743.2
734.635	43456.43
734.976	43551.79
735.317	43448.07
735.658	43524.22
735.999	43420.04
736.339	43382.53
736.68	43463.43
737.021	43291.46
737.361	43195.42
737.702	43420.95
738.042	43226.83
738.383	43147.06
738.723	43234.51
739.063	42991.58
739.404	43079.71
739.744	43002.88
740.084	42706.17
740.424	42663.45
740.764	42716.56
741.104	42862.09
741.444	42572.61
741.784	42382.78
742.124	42454.42
742.464	42337.59
742.804	42276.35
743.143	42218.49
743.483	42305.5
743.823	42090.59
744.162	42123.81
744.502	42116.12
744.841	41939.63
745.181	42009.69
745.52	41898.05
745.86	41995.68
746.199	41858.5
746.538	41820.09
746.877	41998.39
747.216	41642.01
747.556	41610.83
747.895	41538.74
748.234	41350.49
748.573	41291.97
748.911	41356.14
749.25	41275.47
749.589	40912.77
749.928	40966.1
750.267	40911.64
750.605	41018.07
750.944	40771.75
751.283	40520.46
751.621	40588.93
751.96	40329.28
752.298	40346
752.636	40323.18
752.975	40139.23
753.313	40057.65
753.651	40106.23
753.989	39876.64
754.327	39825.79
754.666	39508.96
755.004	39557.77
755.342	39542.41
755.679	39403.65
756.017	39171.57
756.355	39138.8
756.693	38884.34
757.031	38964.79
757.368	38806.61
757.706	38631.7
758.044	38575.2
758.381	38608.65
758.719	38334.08
759.056	38333.17
759.394	38129.11
759.731	37832.17
760.068	37901.77
760.405	37708.1
760.743	37645.96
761.08	37628.78
761.417	37284.84
761.754	37248.68
762.091	37163.49
762.428	36942.02
762.765	36679.21
763.102	36765.98
763.438	36692.54
763.775	36585.65
764.112	36584.74
764.449	36589.04
764.785	36385.43
765.122	36207.35
765.458	36121.48
765.795	35994.03
766.131	35932.33
766.467	35754.26
766.804	35675.39
767.14	35417.54
767.476	35434.27
767.812	35166.7
768.148	35225.68
768.485	35174.16
768.821	34848.97
769.157	34803.1
769.492	34803.77
769.828	34721.97
770.164	34408.98
770.5	34327.4
770.836	34480.84
771.171	34161.31
771.507	34145.49
771.842	33853.06
772.178	33977.81
772.513	33859.84
772.849	33686.06
773.184	33517.71
773.519	33621.88
773.855	33446.07
774.19	33289.01
774.525	33224.38
774.86	33261.44
775.195	33060.09
775.53	32839.08
775.865	32770.38
776.2	32540.1
776.535	32330.39
776.87	32416.04
777.205	32285.65
777.539	32198.42
777.874	32335.36
778.209	32037.29
778.543	31978.76
778.878	31542.39
779.212	31728.37
779.547	31546.23
779.881	31595.95
780.215	31430.76
780.55	31468.95
780.884	31193.02
781.218	31171.55
781.552	31050.88
781.886	30933.14
782.22	30825.57
782.554	30593.26
782.888	30353.27
783.222	30296.77
783.556	30120.51
783.889	30210.9
784.223	29857.69
784.557	29844.13
784.89	29881.19
785.224	29786.5
785.557	29599.84
785.891	29580.63
786.224	29499.05
786.558	29332.73
786.891	29191.04
787.224	29051.16
787.557	28971.61
787.891	28852.07
788.224	28896.13
788.557	28845.96
788.89	28761.67
789.223	28711.5
789.556	28459.53
789.888	28223.61
790.221	28216.6
790.554	28088.7
790.887	27913.79
791.219	27825.2
791.552	27672.66
791.884	27601.25
792.217	27471.54
792.549	27418.66
792.882	27161.49
793.214	27032.45
793.546	27111.55
793.879	26921.72
794.211	26630.66
794.543	26806.47
794.875	26725.12
795.207	26753.59
795.539	26580.04
795.871	26401.06
796.203	26198.12
796.535	26063.66
796.867	25928.3
797.198	25974.63
797.53	25971.69
797.862	25746.84
798.193	25795.65
798.525	25440.63
798.856	25576.45
799.188	25248.32
799.519	25279.05
799.85	24891.04
800.182	25053.3
800.513	25004.26
800.844	24672.06
801.175	24928.33
801.506	24784.38
801.837	24676.81
802.168	24644.27
802.499	24545.29
802.83	24507.77
803.161	24415.12
803.491	24383.03
803.822	24326.76
804.153	24166.99
804.483	23886.1
804.814	23889.71
805.145	23744.63
805.475	23851.52
805.805	23724.52
806.136	23739.43
806.466	23727.23
806.796	23628.02
807.126	23397.97
807.457	23355.04
807.787	23393.68
808.117	23356.84
808.447	23366.33
808.777	23269.16
809.107	23177.87
809.436	23147.13
809.766	23099
810.096	23055.61
810.426	22912.34
810.755	22956.18
811.085	22989.85
811.414	22868.49
811.744	22640.03
812.073	22810.64
812.403	22670.76
812.732	22556.41
813.061	22608.84
813.39	22527.03
813.719	22443.2
814.049	22449.3
814.378	22431.22
814.707	22248.62
815.036	22352.12
815.365	22138.12
815.693	21965.02
816.022	22054.28
816.351	21904.45
816.68	21959.59
817.008	21970.21
817.337	21766.38
817.665	21767.73
817.994	21889.54
818.322	21824.68
818.651	21676.21
818.979	21600.96
819.307	21640.28
819.636	21579.26
819.964	21465.14
820.292	21502.43
820.62	21553.73
820.948	21525.48
821.276	21588.08
821.604	21541.07
821.932	21521.86
822.259	21645.48
822.587	21449.55
822.915	21543.11
823.243	21561.41
823.57	21454.75
823.898	21471.92
824.225	21495.88
824.553	21424.69
824.88	21478.02
825.207	21607.74
825.535	21527.97
825.862	21516.89
826.189	21466.72
826.516	21626.04
826.843	21567.51
827.17	21603.67
827.497	21541.98
827.824	21448.65
828.151	21577
828.478	21506.5
828.805	21688.41
829.131	21486.84
829.458	21357.57
829.785	21377.69
830.111	21478.7
830.438	21405.03
830.764	21322.55
831.09	21362.32
831.417	21236.9
831.743	21351.02
832.069	21261.53
832.395	21144.92
832.722	21236.22
833.048	21170.91
833.374	21222.44
833.7	21093.17
834.026	21116.22
834.351	21062.89
834.677	21034.42
835.003	21044.81
835.329	20944.48
835.654	21016.57
835.98	20836.68
836.306	20800.53
836.631	20781.54
836.956	20740.87
837.282	20687.31
837.607	20610.93
837.932	20483.47
838.258	20575
838.583	20459.52
838.908	20311.27
839.233	20285.06
839.558	20343.59
839.883	20151.73
840.208	20097.27
840.533	20200.32
840.858	20142.46
841.182	20014.78
841.507	19954.22
841.832	19886.88
842.156	19866.54
842.481	19839.87
842.805	19715.36
843.13	19695.02
843.454	19659.77
843.778	19561.92
844.103	19613.89
844.427	19543.16
844.751	19494.35
845.075	19352.43
845.399	19347.91
845.723	19332.77
846.047	19237.4
846.371	19123.73
846.695	19064.53
847.019	18906.57
847.343	18896.85
847.666	18766
847.99	18646.01
848.313	18652.79
848.637	18594.48
848.96	18480.59
849.284	18382.74
849.607	18301.84
849.931	18215.74
850.254	18188.62
850.577	18062.07
850.9	17977.55
851.223	17933.26
851.546	17872.92
851.869	17812.58
852.192	17898.91
852.515	17759.02
852.838	17680.16
853.161	17610.55
853.483	17568.3
853.806	17441.07
854.129	17458.92
854.451	17354.06
854.774	17365.59
855.096	17282.88
855.419	17284.01
855.741	17225.03
856.063	17190
856.385	17183.45
856.708	16998.59
857.03	17016.9
857.352	17045.15
857.674	16940.74
857.996	16856.9
858.318	16759.73
858.64	16842.21
858.961	16776.9
859.283	16787.75
859.605	16698.71
859.926	16689.67
860.248	16656.68
860.57	16602.44
860.891	16571.71
861.212	16527.64
861.534	16635.44
861.855	16448.78
862.176	16515.44
862.498	16495.78
862.819	16444.71
863.14	16344.15
863.461	16303.47
863.782	16296.01
864.103	16321.32
864.424	16315.45
864.745	16236.8
865.065	16244.49
865.386	16181.89
865.707	16151.38
866.027	16126.53
866.348	16145.51
866.668	16189.57
866.989	16105.28
867.309	16050.14
867.63	16037.94
867.95	15998.62
868.27	16049.47
868.59	16001.33
868.91	15931.28
869.23	15962.46
869.55	15899.64
869.87	15904.61
870.19	15919.07
870.51	15950.48
870.83	15980.09
871.15	15829.81
871.469	15817.61
871.789	15886.53
872.109	15830.49
872.428	15742.58
872.748	15748.23
873.067	15854.89
873.386	15732.19
873.706	15741.68
874.025	15625.75
874.344	15588.23
874.663	15671.62
874.982	15594.11
875.301	15483.6
875.62	15561.12
875.939	15477.5
876.258	15462.81
876.577	15319.77
876.896	15340.11
877.214	15317.05
877.533	15377.39
877.852	15313.44
878.17	15244.97
878.489	15227.57
878.807	15239.77
879.125	15083.16
879.444	15081.58
879.762	15016.05
880.08	14967.69
880.398	14879.55
880.716	14924.97
881.034	14860.12
881.352	14862.6
881.67	14822.6
881.988	14785.09
882.306	14750.52
882.624	14701.25
882.941	14652.67
883.259	14645.89
883.577	14600.24
883.894	14498.09
884.212	14466.68
884.529	14454.03
884.846	14414.48
885.164	14303.07
885.481	14199.12
885.798	14322.28
886.115	14117.99
886.432	14162.73
886.75	14066.47
887.067	14080.7
887.383	13931.33
887.7	14068.5
888.017	13887.49
888.334	14007.94
888.651	13891.33
888.967	13791.67
889.284	13702.18
889.6	13707.38
889.917	13633.48
890.233	13711.9
890.55	13559.14
890.866	13528.18
891.182	13486.82
891.498	13447.95
891.815	13375.86
892.131	13285.92
892.447	13333.83
892.763	13190.56
893.079	13196.66
893.395	13132.48
893.71	13111.46
894.026	13090.45
894.342	12998.47
894.657	12932.26
894.973	12924.12
895.289	12925.93
895.604	12908.08
895.92	12844.8
896.235	12727.07
896.55	12831.24
896.865	12721.87
897.181	12683.68
897.496	12624.24
897.811	12607.52
898.126	12503.12
898.441	12512.61
898.756	12476.9
899.071	12443.23
899.386	12459.5
899.7	12383.35
900.015	12313.07
900.33	12216.35
900.644	12194.88
900.959	12137.93
901.273	12053.19
901.588	12161.21
901.902	12064.71
902.216	12051.83
902.531	12069.91
902.845	11907.65
903.159	11900.2
903.473	11822.46
903.787	11763.7
904.101	11723.03
904.415	11763.25
904.729	11714.44
905.042	11734.55
905.356	11669.69
905.67	11645.74
905.984	11530.71
906.297	11567.77
906.611	11530.04
906.924	11421.11
907.237	11419.3
907.551	11386.76
907.864	11241.91
908.177	11323.94
908.491	11334.11
908.804	11210.04
909.117	11134.11
909.43	11077.17
909.743	11061.12
910.056	10996.94
910.368	10892.09
910.681	10936.38
910.994	10850.28
911.307	10904.52
911.619	10781.13
911.932	10741.58
912.244	10676.27
912.557	10745.42
912.869	10698.42
913.181	10705.42
913.494	10648.25
913.806	10579.33
914.118	10557.18
914.43	10464.75
914.742	10428.82
915.054	10427.69
915.366	10384.98
915.678	10375.04
915.99	10406
916.302	10186.12
916.613	10190.18
916.925	10217.3
917.236	10246.23
917.548	10072.9
917.859	10124.65
918.171	9979.12
918.482	9936.18
918.794	9955.61
919.105	10018.21
919.416	9890.76
919.727	9922.62
920.038	9858.89
920.349	9761.04
920.66	9812.79
920.971	9728.95
921.282	9698.22
921.593	9592.91
921.903	9567.38
922.214	9502.29
922.525	9494.38
922.835	9495.29
923.146	9450.54
923.456	9426.14
923.767	9353.14
924.077	9307.27
924.387	9312.02
924.697	9286.93
925.008	9274.28
925.318	9113.15
925.628	9119.7
925.938	9108.18
926.248	9044.9
926.558	8987.73
926.867	8938.69
927.177	8958.35
927.487	8910.44
927.796	8808.98
928.106	8783.44
928.416	8725.36
928.725	8680.17
929.034	8645.37
929.344	8605.37
929.653	8572.6
929.962	8482.66
930.271	8480.62
930.581	8381.87
930.89	8367.63
931.199	8310.91
931.508	8278.82
931.817	8277.69
932.125	8185.49
932.434	8162.44
932.743	8135.1
933.051	8072.05
933.36	8005.61
933.669	8003.35
933.977	7933.52
934.286	7945.95
934.594	7893.07
934.902	7825.27
935.21	7798.83
935.519	7752.06
935.827	7663.7
936.135	7667.31
936.443	7576.69
936.751	7493.53
937.059	7534.21
937.367	7482.68
937.674	7445.85
937.982	7413.76
938.29	7370.6
938.597	7349.81
938.905	7320.2
939.213	7213.99
939.52	7184.16
939.827	7210.6
940.135	7154.56
940.442	7138.06
940.749	7123.15
941.056	7149.59
941.363	7018.97
941.67	7000.21
941.977	6969.48
942.284	6927.67
942.591	6972.19
942.898	6857.62
943.205	6879.31
943.511	6776.94
943.818	6765.64
944.125	6670.5
944.431	6709.6
944.738	6648.58
945.044	6662.82
945.35	6577.62
945.657	6582.37
945.963	6588.92
946.269	6547.79
946.575	6469.6
946.881	6521.13
947.187	6528.59
947.493	6423.05
947.799	6396.61
948.105	6364.75
948.41	6284.07
948.716	6331.3
949.022	6302.15
949.327	6305.31
949.633	6259.44
949.938	6218.99
950.244	6195.49
950.549	6156.84
950.854	6158.88
951.16	6075.72
951.465	6110.97
951.77	6045.89
952.075	6013.8
952.38	5991.42
952.685	6041.59
952.99	5943.29
953.294	5899.68
953.599	5895.38
953.904	5875.27
954.209	5842.95
954.513	5845.89
954.818	5763.18
955.122	5791.2
955.426	5782.62
955.731	5723.41
956.035	5776.97
956.339	5683.86
956.643	5698.78
956.948	5639.57
957.252	5621.04
957.556	5642.73
957.86	5600.7
958.163	5539.91
958.467	5528.39
958.771	5580.81
959.075	5468.95
959.378	5461.72
959.682	5474.15
959.985	5463.75
960.289	5400.71
960.592	5403.42
960.896	5378.56
961.199	5396.19
961.502	5379.24
961.805	5289.97
962.108	5238.68
962.411	5227.83
962.714	5231.67
963.017	5209.07
963.32	5195.06
963.623	5190.32
963.926	5192.58
964.228	5127.94
964.531	5128.85
964.833	5113.26
965.136	5023.54
965.438	5058.34
965.741	5032.13
966.043	5026.48
966.345	5025.8
966.648	4926.59
966.95	4979.7
967.252	4936.08
967.554	4921.62
967.856	4879.82
968.158	4858.8
968.46	4819.7
968.761	4819.93
969.063	4855.86
969.365	4821.96
969.666	4780.61
969.968	4730.44
970.269	4718.69
970.571	4774.28
970.872	4762.53
971.174	4653.83
971.475	4659.48
971.776	4632.14
972.077	4582.42
972.378	4625.58
972.679	4583.1
972.98	4604.57
973.281	4577.22
973.582	4598.01
973.883	4576.77
974.183	4532.71
974.484	4498.36
974.785	4492.03
975.085	4450.22
975.386	4471.92
975.686	4462.88
975.986	4436.44
976.287	4413.39
976.587	4390.11
976.887	4325.48
977.187	4353.73
977.487	4347.85
977.787	4305.59
978.087	4318.47
978.387	4299.27
978.687	4279.15
978.987	4238.93
979.286	4234.63
979.586	4240.28
979.885	4202.32
980.185	4144.92
980.484	4125.71
980.784	4135.65
981.083	4111.25
981.382	4110.8
981.682	4112.15
981.981	4062.44
982.28	4044.36
982.579	3991.48
982.878	3976.56
983.177	3907.19
983.475	3937.24
983.774	3920.29
984.073	3890.69
984.372	3896.34
984.67	3862.44
984.969	3849.56
985.267	3823.8
985.566	3763.46
985.864	3771.6
986.162	3711.03
986.461	3730.92
986.759	3720.75
987.057	3671.49
987.355	3693.63
987.653	3627.64
987.951	3617.93
988.249	3617.02
988.547	3564.6
988.844	3556.01
989.142	3539.29
989.44	3476.91
989.737	3470.81
990.035	3443.47
990.332	3444.15
990.63	3412.96
990.927	3365.5
991.224	3375.67
991.521	3392.4
991.819	3363.7
992.116	3372.96
992.413	3341.55
992.71	3307.2
993.006	3263.59
993.303	3262.46
993.6	3214.55
993.897	3215
994.193	3212.51
994.49	3196.47
994.787	3146.75
995.083	3123.25
995.379	3088.68
995.676	3104.49
995.972	3110.37
996.268	3099.3
996.565	3036.25
996.861	3031.5
997.157	3022.24
997.453	3004.84
997.749	2943.82
998.044	2928
998.34	2944.05
998.636	2934.56
998.932	2949.24
999.227	2886.2
999.523	2916.48
999.818	2854.56
1000.114	2821.56
1000.409	2843.03
1000.704	2822.24
1001	2789.47
1001.295	2769.14
1001.59	2788.8
1001.885	2738.63
1002.18	2728.69
1002.475	2723.71
1002.77	2705.18
1003.065	2687.33
1003.359	2686.2
1003.654	2643.72
1003.949	2647.33
1004.243	2633.55
1004.538	2606.2
1004.832	2594.45
1005.127	2584.96
1005.421	2574.34
1005.715	2563.94
1006.009	2562.14
1006.304	2533.44
1006.598	2512.87
1006.892	2478.3
1007.186	2503.61
1007.48	2493.89
1007.773	2462.03
1008.067	2438.75
1008.361	2410.05
1008.655	2432.65
1008.948	2394
1009.242	2380.9
1009.535	2351.29
1009.829	2374.57
1010.122	2356.94
1010.415	2301.13
1010.708	2336.38
1011.001	2312.2
1011.295	2308.13
1011.588	2325.98
1011.881	2261.35
1012.173	2268.58
1012.466	2266.32
1012.759	2224.29
1013.052	2199.66
1013.344	2225.65
1013.637	2203.73
1013.93	2182.03
1014.222	2160.34
1014.514	2156.95
1014.807	2134.8
1015.099	2117.4
1015.391	2126.44
1015.683	2112.66
1015.976	2095.71
1016.268	2051.41
1016.56	2097.06
1016.851	2048.25
1017.143	2023.62
1017.435	1998.54
1017.727	2004.64
1018.018	2008.48
1018.31	2000.57
1018.602	1986.11
1018.893	1956.05
1019.185	1942.94
1019.476	1923.73
1019.767	1919.89
1020.058	1903.85
1020.35	1877.86
1020.641	1881.7
1020.932	1836.96
1021.223	1836.05
1021.514	1841.7
1021.804	1820.69
1022.095	1808.71
1022.386	1821.82
1022.677	1787.92
1022.967	1783.63
1023.258	1800.57
1023.548	1764.64
1023.839	1735.04
1024.129	1754.25
1024.419	1726.68
1024.709	1718.54
1025	1726.9
1025.29	1700.69
1025.58	1712.21
1025.87	1698.43
1026.16	1670.41
1026.449	1671.54
1026.739	1657.08
1027.029	1629.51
1027.319	1646.45
1027.608	1588.83
1027.898	1601.94
1028.187	1581.82
1028.477	1577.08
1028.766	1570.98
1029.055	1584.31
1029.344	1562.61
1029.634	1545.67
1029.923	1532.33
1030.212	1551.77
1030.501	1541.37
1030.79	1534.82
1031.078	1490.75
1031.367	1491.66
1031.656	1502.5
1031.945	1492.33
1032.233	1455.72
1032.522	1468.83
1032.81	1448.94
1033.099	1436.06
1033.387	1427.02
1033.675	1440.58
1033.963	1401.49
1034.251	1417.76
1034.54	1394.71
1034.828	1398.78
1035.116	1386.8
1035.403	1380.47
1035.691	1378.89
1035.979	1361.26
1036.267	1327.82
1036.554	1353.58
1036.842	1286.92
1037.129	1327.14
1037.417	1299.8
1037.704	1316.07
1037.992	1285.11
1038.279	1265.67
1038.566	1291.89
1038.853	1291.89
1039.14	1291.89
