Data from whiteboard_FLMS001491_00088.txt Node
Date: Wed Feb 08 11:28:30 GMT 2017
User: dcchb
Spectrometer: FLMS00149
Trigger mode: 0
Integration Time (sec): 2.000000E-2
Scans to average: 10
Electric dark correction enabled: true
Nonlinearity correction enabled: false
Boxcar width: 0
XAxis mode: Wavelengths
Number of Pixels in Spectrum: 2048
>>>>>Begin Spectral Data<<<<<
341.393	-4.38
341.776	-4.38
342.16	-4.38
342.543	-51.16
342.927	-65.39
343.31	-61.55
343.693	-71.5
344.077	-79.4
344.46	-64.04
344.843	-48.22
345.226	-48.9
345.61	-26.3
345.993	-5.28
346.376	-9.8
346.759	-1.44
347.142	17.32
347.525	50.99
347.908	69.97
348.291	76.07
348.674	76.75
349.057	125.34
349.44	131.89
349.823	139.57
350.206	169.63
350.588	222.06
350.971	227.71
351.354	252.56
351.737	266.57
352.119	284.43
352.502	286.69
352.884	301.83
353.267	311.77
353.65	337.08
354.032	312.22
354.414	341.38
354.797	327.59
355.179	351.32
355.562	349.51
355.944	356.97
356.326	347.7
356.709	381.15
357.091	348.61
357.473	386.35
357.855	361.04
358.238	386.12
358.62	369.85
359.002	375.05
359.384	368.04
359.766	374.59
360.148	372.79
360.53	399.45
360.912	375.95
361.294	376.18
361.676	370.98
362.057	370.08
362.439	370.75
362.821	371.88
363.203	355.84
363.584	370.98
363.966	369.4
364.348	365.78
364.729	369.4
365.111	359.45
365.493	380.47
365.874	355.16
366.256	350.19
366.637	342.28
367.019	349.28
367.4	353.58
367.781	340.47
368.163	366.01
368.544	344.09
368.925	347.02
369.306	373.01
369.688	339.34
370.069	360.81
370.45	347.25
370.831	362.62
371.212	363.52
371.593	363.75
371.974	344.76
372.355	384.54
372.736	373.01
373.117	372.79
373.498	364.88
373.879	357.42
374.26	376.4
374.641	368.27
375.021	381.37
375.402	365.33
375.783	387.25
376.163	392.9
376.544	384.76
376.925	372.11
377.305	385.89
377.686	383.18
378.066	403.52
378.447	399.45
378.827	394.26
379.208	393.13
379.588	426.34
379.968	384.99
380.349	420.7
380.729	396.74
381.109	404.88
381.489	401.49
381.87	408.49
382.25	404.88
382.63	442.62
383.01	424.31
383.39	423.63
383.77	422.95
384.15	425.44
384.53	439.68
384.91	456.17
385.29	442.84
385.67	429.73
386.049	467.7
386.429	443.29
386.809	448.49
387.189	467.25
387.568	469.73
387.948	459.56
388.328	483.07
388.707	468.38
389.087	493.46
389.466	500.92
389.846	510.64
390.225	509.51
390.605	513.12
390.984	490.98
391.363	510.41
391.743	516.51
392.122	512.9
392.501	532.78
392.881	538.66
393.26	562.16
393.639	563.06
394.018	572.78
394.397	555.83
394.776	556.51
395.155	576.62
395.534	574.14
395.913	596.51
396.292	599.22
396.671	611.65
397.05	622.95
397.429	631.09
397.808	659.33
398.186	648.03
398.565	653.01
398.944	639.67
399.323	697.75
399.701	685.32
400.08	699.11
400.458	660.69
400.837	722.61
401.215	697.07
401.594	726.9
401.972	727.81
402.351	774.58
402.729	785.21
403.107	787.24
403.486	791.31
403.864	811.19
404.242	831.08
404.62	844.41
404.999	860.23
405.377	837.86
405.755	890.74
406.133	890.29
406.511	906.56
406.889	932.77
407.267	940
407.645	992.66
408.023	1009.15
408.401	1020
408.779	1019.78
409.156	1065.65
409.534	1085.54
409.912	1091.86
410.29	1118.08
410.667	1131.64
411.045	1151.75
411.422	1189.04
411.8	1199.66
412.178	1232.43
412.555	1253.44
412.933	1248.24
413.31	1297.51
413.687	1344.74
414.065	1328.69
414.442	1375.25
414.819	1373.21
415.197	1394.45
415.574	1437.39
415.951	1470.16
416.328	1444.17
416.705	1501.57
417.082	1511.06
417.46	1490.27
417.837	1540.44
418.214	1537.95
418.591	1601
418.967	1606.88
419.344	1602.13
419.721	1644.84
420.098	1649.14
420.475	1702.47
420.852	1688.01
421.228	1732.3
421.605	1750.6
421.982	1711.28
422.358	1770.94
422.735	1798.51
423.111	1808.91
423.488	1881.9
423.864	1841.22
424.241	1871.5
424.617	1920.54
424.994	1928.68
425.37	1922.12
425.746	1984.27
426.123	1988.34
426.499	2011.61
426.875	2056.13
427.251	2073.31
427.627	2129.35
428.003	2162.8
428.379	2159.41
428.756	2222.91
429.132	2262
429.507	2267.2
429.883	2309.91
430.259	2340.64
430.635	2344.26
431.011	2413.64
431.387	2394.65
431.763	2454.99
432.138	2473.97
432.514	2548.55
432.89	2543.13
433.265	2603.69
433.641	2666.29
434.016	2670.81
434.392	2711.48
434.767	2776.11
435.143	2736.79
435.518	2806.85
435.894	2819.73
436.269	2888.65
436.644	2914.64
437.02	2955.54
437.395	2954.87
437.77	3032.6
438.145	3076.9
438.52	3053.17
438.895	3101.75
439.271	3126.16
439.646	3200.28
440.021	3204.12
440.395	3222.88
440.77	3233.28
441.145	3285.48
441.52	3296.33
441.895	3338.13
442.27	3361.63
442.645	3360.28
443.019	3427.4
443.394	3415.64
443.769	3458.58
444.143	3427.17
444.518	3435.08
444.892	3474.63
445.267	3545.58
445.641	3543.32
446.016	3563.44
446.39	3622.87
446.764	3677.11
447.139	3666.49
447.513	3726.14
447.887	3761.62
448.262	3732.25
448.636	3795.3
449.01	3877.55
449.384	3847.27
449.758	3879.14
450.132	3927.27
450.506	3941.05
450.88	4010.66
451.254	4019.7
451.628	4063.54
452.002	4082.97
452.376	4131.78
452.75	4263.08
453.123	4206.81
453.497	4312.34
453.871	4353.25
454.244	4381.27
454.618	4413.58
454.992	4460.59
455.365	4515.28
455.739	4693.58
456.112	4696.51
456.486	4721.15
456.859	4755.27
457.232	4897.87
457.606	4839.11
457.979	4952.1
458.352	5042.72
458.725	5070.52
459.099	5151.64
459.472	5246.78
459.845	5322.94
460.218	5374.92
460.591	5350.06
460.964	5395.03
461.337	5540.79
461.71	5616.94
462.083	5699.65
462.456	5703.49
462.829	5674.57
463.201	5873.66
463.574	5818.97
463.947	5969.48
464.32	6105.74
464.692	6155.23
465.065	6206.76
465.438	6274.55
465.81	6401.78
466.183	6466.19
466.555	6577.37
466.928	6644.94
467.3	6630.25
467.672	6752.28
468.045	6904.14
468.417	6981.2
468.789	7068.2
469.161	7132.38
469.534	7199.95
469.906	7310.91
470.278	7407.86
470.65	7499.61
471.022	7643.56
471.394	7820.5
471.766	7848.75
472.138	7931.91
472.51	8128.52
472.882	8302.3
473.253	8385.46
473.625	8423.65
473.997	8666.35
474.369	8672.91
474.74	8820.25
475.112	9019.57
475.484	9176.4
475.855	9274.02
476.227	9352.44
476.598	9627.68
476.97	9706.55
477.341	9981.8
477.713	10055.92
478.084	10087.56
478.455	10471.96
478.827	10493.42
479.198	10886.18
479.569	10849.12
479.94	11123.69
480.311	11249.56
480.682	11483
481.053	11789.44
481.424	11930
481.795	12108.3
482.166	12231.46
482.537	12355.97
482.908	12602.97
483.279	12804.55
483.65	12980.59
484.021	13313.69
484.391	13471.65
484.762	13579.22
485.133	13688.37
485.503	13947.12
485.874	14209.26
486.244	14306.21
486.615	14611.51
486.985	14742.8
487.356	15116.58
487.726	15282.23
488.097	15468.89
488.467	15537.36
488.837	15868.88
489.207	16057.12
489.578	16291.46
489.948	16410.33
490.318	16594.06
490.688	16653.94
491.058	17050.77
491.428	17275.17
491.798	17388.61
492.168	17793.35
492.538	17751.09
492.908	17966
493.278	18195.82
493.648	18212.54
494.017	18392.88
494.387	18692.08
494.757	18679.42
495.126	19039.87
495.496	19007.1
495.866	19190.6
496.235	19483.24
496.605	19647.53
496.974	19727.98
497.344	20003.91
497.713	20076.22
498.082	20224.69
498.452	20391.02
498.821	20423.11
499.19	20452.03
499.559	20771.12
499.928	20961.17
500.298	21158
500.667	21306.25
501.036	21266.25
501.405	21476.86
501.774	21539.91
502.143	21775.16
502.512	21882.5
502.88	22072.33
503.249	22141.71
503.618	22418.08
503.987	22456.95
504.356	22513.9
504.724	22649.94
505.093	22825.76
505.462	22989.37
505.83	23147.78
506.199	23317.95
506.567	23613.31
506.936	23616.47
507.304	23860.3
507.672	24006.29
508.041	24106.85
508.409	24340.74
508.777	24467.75
509.145	24632.26
509.514	24701.64
509.882	24881.75
510.25	24897.57
510.618	25075.87
510.986	25212.13
511.354	25438.57
511.722	25582.29
512.09	25954.71
512.458	26008.72
512.826	26157.19
513.193	26280.58
513.561	26419.79
513.929	26715.6
514.297	26915.14
514.664	27015.25
515.032	27265.86
515.4	27427.22
515.767	27507.89
516.135	27671.73
516.502	27699.75
516.869	28163.47
517.237	28242.79
517.604	28319.17
517.972	28688.65
518.339	28789.44
518.706	28910.57
519.073	29113.95
519.44	29387.84
519.808	29732.01
520.175	29744.44
520.542	30003.19
520.909	30160.25
521.276	30255.16
521.643	30709.16
522.009	30710.97
522.376	31003.17
522.743	31273.67
523.11	31508.69
523.477	31743.04
523.843	31956.82
524.21	32157.49
524.577	32433.19
524.943	32605.16
525.31	32738.49
525.676	33050.35
526.043	33231.36
526.409	33312.94
526.776	33726.94
527.142	33887.61
527.508	33983.88
527.874	34359.24
528.241	34332.35
528.607	34489.86
528.973	34863.18
529.339	34879.22
529.705	35229.05
530.071	35495.48
530.437	35662.93
530.803	35924.17
531.169	36188.12
531.535	36067.44
531.901	36412.07
532.267	36565.28
532.632	36851.6
532.998	36894.76
533.364	37249.56
533.73	37380.18
534.095	37627.4
534.461	37743.33
534.826	37810.22
535.192	37944.45
535.557	38266.93
535.923	38262.19
536.288	38589.86
536.653	38717.09
537.019	38585.79
537.384	38773.81
537.749	39065.55
538.114	38999.79
538.479	39219
538.845	39349.16
539.21	39543.73
539.575	39486.56
539.94	39799.55
540.305	39965.42
540.67	39859.88
541.034	39994.12
541.399	40308.23
541.764	40419.64
542.129	40408.57
542.494	40446.31
542.858	40722.46
543.223	40747.77
543.587	41056.91
543.952	40998.39
544.316	41211.71
544.681	41177.82
545.045	41524.47
545.41	41684.92
545.774	41799.27
546.138	41884.69
546.503	42140.05
546.867	42034.06
547.231	42361.29
547.595	42469.53
547.959	42727.83
548.324	42640.83
548.688	42775.51
549.052	42881.5
549.416	43100.7
549.779	43208.27
550.143	43259.57
550.507	43532.33
550.871	43747.24
551.235	43697.75
551.599	44116.04
551.962	44087.34
552.326	44230.16
552.689	44501.8
553.053	44383.61
553.417	44486.2
553.78	44964.38
554.143	44922.8
554.507	45117.6
554.87	45067.2
555.234	45641.2
555.597	45323.24
555.96	45607.08
556.323	45871.25
556.686	45821.31
557.05	46049.1
557.413	46234.63
557.776	46304.23
558.139	46531.57
558.502	46494.29
558.865	46653.6
559.228	47080.26
559.59	47045.01
559.953	47196.41
560.316	47581.26
560.679	47495.62
561.041	47844.98
561.404	47986.9
561.767	48180.8
562.129	48162.49
562.492	48585.98
562.854	48505.76
563.217	48506.21
563.579	48805.64
563.941	48983.49
564.304	49277.94
564.666	49482.23
565.028	49387.32
565.39	49546.41
565.753	49777.14
566.115	49886.51
566.477	50040.63
566.839	50126.73
567.201	50337.8
567.563	50467.74
567.925	50708.86
568.287	50731.69
568.648	50824.57
569.01	51046.03
569.372	51131.23
569.734	51106.14
570.095	51170.55
570.457	51501.84
570.819	51544.1
571.18	51593.13
571.542	51734.83
571.903	51738.89
572.265	51941.6
572.626	52046.23
572.987	52060.02
573.349	52177.3
573.71	52240.35
574.071	52265.21
574.432	52485.31
574.794	52629.49
575.155	52652.99
575.516	52629.72
575.877	52715.14
576.238	52790.84
576.599	52962.59
576.96	52972.76
577.32	53003.95
577.681	53156.26
578.042	53206.65
578.403	53073.55
578.763	53204.62
579.124	53285.52
579.485	53333.65
579.845	53441.9
580.206	53378.17
580.566	53389.47
580.927	53400.09
581.287	53581.78
581.648	53443.48
582.008	53604.61
582.368	53558.28
582.728	53659.3
583.089	53564.38
583.449	53625.17
583.809	53707.43
584.169	53706.3
584.529	53619.75
584.889	53994.65
585.249	53669.01
585.609	53678.5
585.969	53784.72
586.329	53702.68
586.688	53796.69
587.048	53821.78
587.408	53691.61
587.768	53712.63
588.127	53682.8
588.487	53524.38
588.846	53851.61
589.206	53679.86
589.565	53648.22
589.925	53803.25
590.284	53688.22
590.643	53781.1
591.003	53865.84
591.362	54011.83
591.721	53909.01
592.08	53870.36
592.44	53957.59
592.799	53934.77
593.158	53853.41
593.517	53980.64
593.876	53951.04
594.235	53867.43
594.593	53891.38
594.952	53986.07
595.311	53763.02
595.67	53871.72
596.029	54154.88
596.387	54025.39
596.746	54083.46
597.104	53997.14
597.463	53969.34
597.822	54077.82
598.18	54040.98
598.538	54031.71
598.897	54262.44
599.255	53961.21
599.613	54438.03
599.972	54240.97
600.33	54346.73
600.688	54274.87
601.046	54363.68
601.404	54441.65
601.762	54357.13
602.12	54521.65
602.478	54443.68
602.836	54476.22
603.194	54371.14
603.552	54373.63
603.91	54204.59
604.268	54389.9
604.625	54323.46
604.983	54448.88
605.341	54260.86
605.698	54383.12
606.056	54482.78
606.413	54415.89
606.771	54534.98
607.128	54465.38
607.485	54427.18
607.843	54487.97
608.2	54630.12
608.557	54752.15
608.914	54483.45
609.272	54763
609.629	54799.6
609.986	54851.35
610.343	54704.92
610.7	54907.85
611.057	54787.4
611.414	54826.72
611.771	54761.19
612.127	54887.06
612.484	54893.61
612.841	54969.77
613.198	54857.23
613.554	54932.48
613.911	54998.02
614.267	55112.82
614.624	55024.23
614.98	55098.13
615.337	55188.29
615.693	55138.13
616.05	55180.84
616.406	55217.22
616.762	55185.13
617.118	55186.49
617.475	55291.34
617.831	55340.16
618.187	55315.52
618.543	55347.16
618.899	55426.25
619.255	55330.89
619.611	55343.54
619.967	55431.68
620.323	55428.29
620.678	55458.34
621.034	55328.86
621.39	55320.72
621.746	55278.91
622.101	55519.36
622.457	55309.87
622.812	55400.49
623.168	55395.29
623.523	55314.39
623.879	55515.07
624.234	55292.25
624.589	55389.87
624.945	55421.73
625.3	55407.05
625.655	55399.81
626.01	55383.77
626.365	55371.57
626.72	55376.99
627.075	55399.36
627.43	55284.11
627.785	55220.84
628.14	55239.59
628.495	55286.82
628.85	55287.95
629.205	55152.59
629.559	55336.99
629.914	55193.04
630.269	55118.24
630.623	55035.98
630.978	54915.08
631.332	55102.42
631.687	55143.32
632.041	54984.91
632.396	54982.65
632.75	54858.59
633.104	54897.23
633.459	54816.78
633.813	54783.79
634.167	54816.55
634.521	54833.28
634.875	54802.54
635.229	54771.81
635.583	54648.87
635.937	54660.62
636.291	54637.35
636.645	54627.63
636.999	54570.68
637.352	54556.45
637.706	54504.47
638.06	54574.53
638.413	54593.96
638.767	54437.58
639.121	54476.45
639.474	54210.92
639.828	54263.8
640.181	54414.98
640.534	54392.38
640.888	54272.61
641.241	54115.33
641.594	54225.38
641.947	54263.8
642.301	54115.1
642.654	54153.97
643.007	54094.54
643.36	54008.66
643.713	53959.85
644.066	54130.92
644.419	53931.83
644.771	53653.87
645.124	53415.69
645.477	53240.1
645.83	53120.33
646.182	53050.05
646.535	52965.53
646.888	53071.29
647.24	52825.64
647.593	53030.39
647.945	52986.32
648.298	52851.86
648.65	52782.26
649.002	52671.75
649.355	52751.52
649.707	52574.35
650.059	52681.47
650.411	53062.25
650.763	53043.04
651.115	53357.16
651.467	53253.2
651.819	53190.38
652.171	53132.76
652.523	53100.67
652.875	53062.93
653.227	52983.83
653.578	53227.44
653.93	53047.79
654.282	52933.21
654.633	52870.84
654.985	52864.51
655.337	52942.7
655.688	52913.1
656.039	52992.65
656.391	52686.21
656.742	52718.76
657.094	52740.45
657.445	52810.5
657.796	52690.06
658.147	52645.76
658.498	52563.73
658.849	52706.1
659.2	52582.04
659.551	52555.6
659.902	52661.13
660.253	52595.14
660.604	52642.37
660.955	52445.09
661.306	52518.76
661.656	52522.83
662.007	52481.47
662.358	52473.79
662.708	52499.33
663.059	52436.28
663.409	52154.02
663.76	52443.73
664.11	52380.01
664.461	52361.25
664.811	52348.14
665.161	52327.35
665.511	52303.17
665.862	52290.07
666.212	52289.84
666.562	52330.29
666.912	52304.75
667.262	52201.25
667.612	52109.73
667.962	52216.17
668.312	52137.08
668.662	52294.36
669.011	52264.53
669.361	52141.37
669.711	52088.04
670.06	52036.51
670.41	51920.58
670.76	51804.88
671.109	51950.19
671.459	51913.35
671.808	51887.36
672.157	51947.93
672.507	51661.38
672.856	51646.01
673.205	51750.87
673.554	51793.81
673.904	51583.87
674.253	51787.25
674.602	51692.12
674.951	51146.37
675.3	50966.94
675.649	51554.94
675.998	51446.02
676.346	51452.57
676.695	51563.08
677.044	51324.22
677.393	51230.66
677.741	51320.15
678.09	51189.53
678.438	51035.41
678.787	51259.81
679.135	51220.94
679.484	51005.58
679.832	51117.89
680.181	50821.18
680.529	50981.85
680.877	50795.19
681.225	50680.84
681.573	50879.93
681.922	50717.68
682.27	50522.65
682.618	50684.91
682.966	50412.38
683.314	50530.11
683.661	50364.01
684.009	50320.4
684.357	50072.04
684.705	50004.02
685.053	50202.66
685.4	50119.28
685.748	49962.67
686.095	49879.51
686.443	49736.01
686.79	49802.9
687.138	49854.2
687.485	49731.71
687.832	49651.49
688.18	49621.66
688.527	49448.78
688.874	49451.27
689.221	49347.32
689.568	49248.79
689.915	49061.9
690.262	49151.17
690.609	49037.27
690.956	48847.44
691.303	48709.82
691.65	48625.08
691.997	48648.58
692.344	48397.29
692.69	48438.87
693.037	48344.41
693.383	47921.37
693.73	48106.9
694.077	47908.03
694.423	47772.22
694.769	47719.56
695.116	47561.15
695.462	47621.94
695.808	47323.42
696.155	47611.54
696.501	47360.25
696.847	47285.23
697.193	46852.02
697.539	47174.72
697.885	46868.06
698.231	46649.31
698.577	46786.03
698.923	46646.37
699.269	46460.84
699.614	46104.24
699.96	46127.06
700.306	46228.53
700.651	45964.13
700.997	45827.18
701.342	45698.15
701.688	45612.28
702.033	45464.26
702.379	45251.83
702.724	45311.27
703.069	45455.44
703.415	44722.81
703.76	44868.79
704.105	44952.18
704.45	44729.13
704.795	44458.86
705.14	44428.13
705.485	44318.07
705.83	44163.27
706.175	44135.48
706.52	44122.14
706.865	44006.67
707.209	43872.66
707.554	43758.54
707.899	43871.08
708.243	43551.09
708.588	43491.2
708.932	43283.75
709.277	43244.88
709.621	43292.56
709.966	43073.13
710.31	43046.24
710.654	42508.63
710.998	42851.67
711.342	42652.13
711.687	42665.01
712.031	42425.69
712.375	42277.9
712.719	42343.21
713.063	42156.55
713.407	42348.86
713.75	42123.55
714.094	42010.11
714.438	41872.26
714.782	41945.48
715.125	41679.27
715.469	41731.47
715.812	41514.3
716.156	41203.35
716.499	41319.05
716.843	41401.76
717.186	41046.52
717.53	41168.78
717.873	41177.14
718.216	41084.03
718.559	40979.4
718.902	40584.38
719.246	40575.35
719.589	40532.18
719.932	40408.12
720.275	40444.28
720.617	40413.32
720.96	40249.93
721.303	40266.65
721.646	40210.61
721.989	39955.47
722.331	40253.55
722.674	39985.98
723.016	39876.38
723.359	39861.69
723.701	39789.38
724.044	39598.87
724.386	39352.78
724.729	39483.4
725.071	39418.09
725.413	39385.32
725.755	39316.17
726.097	39171.09
726.439	38988.27
726.782	39011.77
727.124	39083.18
727.465	39078.44
727.807	38959.57
728.149	38664.44
728.491	38601.61
728.833	38665.34
729.175	38546.25
729.516	38426.48
729.858	38369.3
730.199	38500.82
730.541	38290.66
730.882	38262.64
731.224	38368.85
731.565	37889.31
731.906	37998.69
732.248	38114.85
732.589	37871.24
732.93	37670.11
733.271	37811.58
733.612	37807.28
733.953	37718.25
734.294	37597.57
734.635	37593.96
734.976	37657.23
735.317	37311.93
735.658	37575.42
735.999	37327.97
736.339	37385.37
736.68	37321.42
737.021	37162.33
737.361	37070.8
737.702	37293.85
738.042	36972.95
738.383	36963.24
738.723	36997.13
739.063	36866.06
739.404	36847.08
739.744	36650.03
740.084	36457.04
740.424	36648.67
740.764	36626.52
741.104	36627.2
741.444	36387.66
741.784	36306.76
742.124	36323.25
742.464	36231.96
742.804	36172.3
743.143	35990.16
743.483	36073.54
743.823	35782.03
744.162	35874
744.502	35819.09
744.841	35636.72
745.181	35661.12
745.52	35460
745.86	35773.21
746.199	35486.44
746.538	35342.26
746.877	35507.46
747.216	35398.53
747.556	35342.49
747.895	35278.76
748.234	35123.29
748.573	34980.24
748.911	34970.75
749.25	34869.05
749.589	34780.02
749.928	34964.87
750.267	34846.46
750.605	34580.47
750.944	34447.37
751.283	34407.15
751.621	34390.65
751.96	34282.63
752.298	34207.38
752.636	34127.15
752.975	34014.84
753.313	33894.39
753.651	34023.88
753.989	33719.71
754.327	33783.66
754.666	33404.23
755.004	33412.37
755.342	33507.51
755.679	33437
756.017	33336.44
756.355	33355.87
756.693	33044.02
757.031	33118.82
757.368	32908.65
757.706	32867.98
758.044	32638.61
758.381	32752.73
758.719	32617.59
759.056	32596.35
759.394	32554.09
759.731	32378.05
760.068	32226.64
760.405	32051.5
760.743	32041.11
761.08	32061.9
761.417	31834.78
761.754	31808.57
762.091	31739.42
762.428	31639.08
762.765	31578.07
763.102	31611.29
763.438	31308.7
763.775	31137.63
764.112	31177.85
764.449	31138.53
764.785	31090.62
765.122	30791.42
765.458	30765.66
765.795	30784.87
766.131	30620.81
766.467	30423.97
766.804	30459.68
767.14	30161.61
767.476	30288.61
767.812	30035.06
768.148	30075.06
768.485	29834.16
768.821	29715.29
769.157	29730.66
769.492	29652.02
769.828	29553.26
770.164	29310.11
770.5	29310.33
770.836	29240.05
771.171	29022.88
771.507	29057.91
771.842	28789.67
772.178	28723
772.513	28713.06
772.849	28641.65
773.184	28395.1
773.519	28437.59
773.855	28318.49
774.19	28181.77
774.525	28128.67
774.86	28114.43
775.195	27868.56
775.53	27746.53
775.865	27681
776.2	27531.39
776.535	27450.27
776.87	27435.8
777.205	27220.89
777.539	27135.47
777.874	27171.86
778.209	26982.03
778.543	26828.59
778.878	26799.21
779.212	26686.22
779.547	26473.8
779.881	26566.67
780.215	26330.97
780.55	26401.03
780.884	26209.4
781.218	26129.62
781.552	26068.16
781.886	25816.19
782.22	25723.08
782.554	25663.65
782.888	25562.18
783.222	25452.58
783.556	25221.17
783.889	25217.33
784.223	24967.85
784.557	24903.44
784.89	25001.74
785.224	24819.38
785.557	24714.29
785.891	24616.44
786.224	24560.63
786.558	24476.56
786.891	24286.51
787.224	24119.06
787.557	24136
787.891	24064.14
788.224	23876.35
788.557	23960.42
788.89	23803.13
789.223	23767.2
789.556	23625.06
789.888	23546.64
790.221	23445.4
790.554	23342.58
790.887	23236.14
791.219	23138.06
791.552	23180.32
791.884	23015.58
792.217	22941.91
792.549	22999.54
792.882	22727.91
793.214	22641.58
793.546	22613.11
793.879	22511.19
794.211	22301.02
794.543	22424.86
794.875	22329.27
795.207	22443.39
795.539	22211.08
795.871	22322.49
796.203	22072.56
796.535	21940.58
796.867	21921.37
797.198	21776.52
797.53	21819.68
797.862	21674.6
798.193	21572
798.525	21547.15
798.856	21609.06
799.188	21358.68
799.519	21252.46
799.85	21120.49
800.182	21127.95
800.513	21115.29
800.844	20957.78
801.175	21147.83
801.506	21045.69
801.837	20896.54
802.168	20773.61
802.499	20720.5
802.83	20614.74
803.161	20492.71
803.491	20581.97
803.822	20544.46
804.153	20411.13
804.483	20324.58
804.814	20176.11
805.145	20045.72
805.475	20177.92
805.805	20036.68
806.136	19963.01
806.466	20002.33
806.796	19963.01
807.126	19867.19
807.457	19803.69
807.787	19798.72
808.117	19703.13
808.447	19536.8
808.777	19696.8
809.107	19676.23
809.436	19473.08
809.766	19431.72
810.096	19375.68
810.426	19336.36
810.755	19353.98
811.085	19202.57
811.414	19113.54
811.744	19090.03
812.073	18989.02
812.403	19047.55
812.732	18879.42
813.061	18815.69
813.39	18786.09
813.719	18793.09
814.049	18901.34
814.378	18670.38
814.707	18751.96
815.036	18644.4
815.365	18520.33
815.693	18511.07
816.022	18390.84
816.351	18186.56
816.68	18230.62
817.008	18172.54
817.337	18144.3
817.665	18154.92
817.994	18136.61
818.322	18135.71
818.651	18035.83
818.979	17893.46
819.307	17996.73
819.636	17920.12
819.964	17860.46
820.292	17749.96
820.62	17862.04
820.948	17779.56
821.276	17788.37
821.604	17625.89
821.932	17739.79
822.259	17739.56
822.587	17636.74
822.915	17471.77
823.243	17661.15
823.57	17591.32
823.898	17625.67
824.225	17572.56
824.553	17480.59
824.88	17622.95
825.207	17618.89
825.535	17590.64
825.862	17637.42
826.189	17516.97
826.516	17569.62
826.843	17615.05
827.17	17577.53
827.497	17582.96
827.824	17530.75
828.151	17608.27
828.478	17436.07
828.805	17622.5
829.131	17516.52
829.458	17521.94
829.785	17388.16
830.111	17520.58
830.438	17561.94
830.764	17562.39
831.09	17411.43
831.417	17416.63
831.743	17517.87
832.069	17478.1
832.395	17362.17
832.722	17382.51
833.048	17394.03
833.374	17401.49
833.7	17242.4
834.026	17228.39
834.351	17408.05
834.677	17248.73
835.003	17346.8
835.329	17316.75
835.654	17111.56
835.98	17181.61
836.306	17127.37
836.631	17137.77
836.956	17220.71
837.282	17140.48
837.607	17043.99
837.932	17082.4
838.258	17003.76
838.583	17023.2
838.908	16935.52
839.233	16993.37
839.558	16953.14
839.883	16807.16
840.208	16735.52
840.533	16715.63
840.858	16746.82
841.182	16660.72
841.507	16742.98
841.832	16585.02
842.156	16593.6
842.481	16543.89
842.805	16521.51
843.13	16459.14
843.454	16463.89
843.778	16282.65
844.103	16255.76
844.427	16177.79
844.751	16308.64
845.075	16126.27
845.399	16065.48
845.723	16094.63
846.047	16218.47
846.371	15963.56
846.695	16009.66
847.019	15780.52
847.343	15728.32
847.666	15693.97
847.99	15613.06
848.313	15614.42
848.637	15493.29
848.96	15540.98
849.284	15463.01
849.607	15410.58
849.931	15278.16
850.254	15196.8
850.577	15141.44
850.9	14982.12
851.223	15008.56
851.546	14868.9
851.869	14875
852.192	14875.91
852.515	14758.85
852.838	14637.72
853.161	14671.39
853.483	14579.42
853.806	14478.86
854.129	14451.74
854.451	14311.86
854.774	14411.74
855.096	14322.25
855.419	14279.09
855.741	14284.51
856.063	14180.33
856.385	14211.29
856.708	14136.72
857.03	14135.14
857.352	14134.46
857.674	14014.01
857.996	13984.41
858.318	13943.05
858.64	13841.59
858.961	13760.23
859.283	13662.38
859.605	13743.28
859.926	13730.4
860.248	13707.58
860.57	13644.08
860.891	13661.02
861.212	13549.62
861.534	13572.21
861.855	13549.39
862.176	13513.23
862.498	13412.9
862.819	13424.2
863.14	13385.1
863.461	13357.08
863.782	13301.49
864.103	13407.25
864.424	13285.22
864.745	13291.77
865.065	13224.88
865.386	13216.29
865.707	13098.33
866.027	13144.65
866.348	13178.55
866.668	13194.14
866.989	13171.77
867.309	13070.98
867.63	12995.28
867.95	13041.83
868.27	12906.69
868.59	12972.91
868.91	12932.68
869.23	12882.29
869.55	12845.68
869.87	12904.66
870.19	12856.07
870.51	12828.96
870.83	12841.61
871.15	12680.03
871.469	12749.64
871.789	12768.85
872.109	12654.05
872.428	12689.75
872.748	12643.88
873.067	12641.39
873.386	12668.96
873.706	12589.19
874.025	12548.51
874.344	12508.74
874.663	12558.91
874.982	12479.14
875.301	12459.7
875.62	12433.94
875.939	12421.74
876.258	12445.92
876.577	12355.3
876.896	12355.07
877.214	12283.21
877.533	12238.92
877.852	12265.36
878.17	12308.74
878.489	12312.81
878.807	12218.13
879.125	12226.94
879.444	12233.27
879.762	12179.03
880.08	12097
880.398	12050.9
880.716	12045.47
881.034	12071.46
881.352	12033.05
881.67	12008.87
881.988	12006.83
882.306	11903.33
882.624	11971.13
882.941	11913.95
883.259	11811.58
883.577	11819.49
883.894	11754.63
884.212	11805.03
884.529	11842.32
884.846	11730.68
885.164	11716.22
885.481	11638.93
885.798	11658.82
886.115	11606.16
886.432	11607.97
886.75	11551.7
887.067	11544.02
887.383	11530.91
887.7	11459.95
888.017	11364.14
888.334	11431.48
888.651	11390.12
888.967	11436.22
889.284	11264.48
889.6	11285.95
889.917	11224.03
890.233	11157.81
890.55	11134.99
890.866	11183.35
891.182	11034.2
891.498	11001.66
891.815	11022.68
892.131	10888.22
892.447	10921.44
892.763	10892.06
893.079	10847.54
893.395	10853.42
893.71	10786.75
894.026	10812.74
894.342	10811.83
894.657	10631.73
894.973	10640.77
895.289	10575.68
895.604	10612.97
895.92	10482.35
896.235	10503.59
896.55	10488.23
896.865	10433.09
897.181	10348.8
897.496	10416.14
897.811	10327.55
898.126	10266.31
898.441	10262.92
898.756	10194
899.071	10194.22
899.386	10155.13
899.7	10103.38
900.015	10014.79
900.33	10034.45
900.644	9963.27
900.959	10017.05
901.273	9918.07
901.588	9862.93
901.902	9791.3
902.216	9803.5
902.531	9804.4
902.845	9788.13
903.159	9680.56
903.473	9629.27
903.787	9603.05
904.101	9542.72
904.415	9581.58
904.729	9538.2
905.042	9482.15
905.356	9388.82
905.67	9475.37
905.984	9421.59
906.297	9405.32
906.611	9329.39
906.924	9270.41
907.237	9213.91
907.551	9255.04
907.864	9168.26
908.177	9179.79
908.491	9081.03
908.804	9070.86
909.117	9037.87
909.43	8985.44
909.743	8904.31
910.056	8877.65
910.368	8897.76
910.681	8907.25
910.994	8843.75
911.307	8780.25
911.619	8735.5
911.932	8739.35
912.244	8611.21
912.557	8679.24
912.869	8572.12
913.181	8601.27
913.494	8569.86
913.806	8491.44
914.118	8492.35
914.43	8431.33
914.742	8425.23
915.054	8325.12
915.366	8342.97
915.678	8295.29
915.99	8182.98
916.302	8145.69
916.613	8180.94
916.925	8161.06
917.236	8135.52
917.548	7978.01
917.859	8048.29
918.171	7997.22
918.482	7938.92
918.794	7857.56
919.105	7904.57
919.416	7806.72
919.727	7805.13
920.038	7779.37
920.349	7717.9
920.66	7711.35
920.971	7721.52
921.282	7663.44
921.593	7636.32
921.903	7513.16
922.214	7511.13
922.525	7462.32
922.835	7460.96
923.146	7390
923.456	7377.12
923.767	7383.22
924.077	7314.98
924.387	7276.33
924.697	7300.06
925.008	7227.97
925.318	7192.49
925.628	7204.92
925.938	7153.85
926.248	7065.94
926.558	7039.96
926.867	7043.57
927.177	7013.52
927.487	6954.76
927.796	6931.03
928.106	6973.29
928.416	6905.72
928.725	6888.55
929.034	6816.69
929.344	6800.41
929.653	6776.23
929.962	6754.77
930.271	6685.84
930.581	6666.63
930.89	6606.97
931.199	6604.71
931.508	6575.34
931.817	6549.8
932.125	6533.98
932.434	6510.93
932.743	6457.82
933.051	6378.28
933.36	6414.89
933.669	6383.25
933.977	6343.48
934.286	6309.35
934.594	6332.18
934.902	6291.95
935.21	6213.99
935.519	6220.99
935.827	6235.23
936.135	6145.97
936.443	6053.09
936.751	6085.86
937.059	6045.41
937.367	6044.95
937.674	5987.33
937.982	6002.02
938.29	5938.06
938.597	5989.81
938.905	5880.89
939.213	5865.07
939.52	5816.71
939.827	5848.8
940.135	5826.2
940.442	5819.65
940.749	5774
941.056	5752.08
941.363	5683.16
941.67	5759.99
941.977	5672.31
942.284	5605.87
942.591	5605.19
942.898	5576.27
943.205	5581.24
943.511	5473.22
943.818	5527
944.125	5440
944.431	5445.87
944.738	5431.41
945.044	5371.98
945.35	5394.12
945.657	5343.28
945.963	5287.01
946.269	5292.66
946.575	5257.4
946.881	5254.69
947.187	5214.24
947.493	5239.1
947.799	5141.7
948.105	5160.68
948.41	5125.43
948.716	5113.91
949.022	5091.98
949.327	5065.54
949.633	5060.57
949.938	4990.97
950.244	4988.03
950.549	4945.1
950.854	4958.88
951.16	4910.97
951.465	4900.13
951.77	4844.08
952.075	4850.41
952.38	4875.95
952.685	4790.07
952.99	4818.77
953.294	4780.13
953.599	4755.5
953.904	4729.28
954.209	4695.84
954.513	4659
954.818	4660.13
955.122	4674.59
955.426	4630.3
955.731	4587.14
956.035	4566.12
956.339	4575.84
956.643	4591.43
956.948	4535.39
957.252	4512.79
957.556	4482.28
957.86	4467.59
958.163	4536.75
958.467	4477.31
958.771	4435.73
959.075	4435.05
959.378	4367.26
959.682	4351.67
959.985	4329.07
960.289	4299.46
960.592	4308.28
960.896	4258.33
961.199	4251.1
961.502	4285.23
961.805	4229.63
962.108	4194.61
962.411	4165.68
962.714	4123.87
963.017	4136.3
963.32	4138.11
963.623	4136.53
963.926	4122.29
964.228	4097.89
964.531	4072.35
964.833	4050.66
965.136	4002.3
965.438	4012.01
965.741	3955.74
966.043	3917.55
966.345	3935.4
966.648	3946.48
966.95	3904.22
967.252	3893.82
967.554	3875.07
967.856	3899.7
968.158	3821.51
968.46	3794.17
968.761	3782.64
969.063	3749.42
969.365	3750.55
969.666	3724.79
969.968	3708.07
970.269	3717.56
970.571	3704.9
970.872	3648.86
971.174	3641.63
971.475	3626.03
971.776	3614.74
972.077	3621.97
972.378	3623.55
972.679	3570.44
972.98	3573.61
973.281	3524.79
973.582	3537.9
973.883	3528.18
974.183	3508.3
974.484	3496.09
974.785	3454.97
975.085	3460.84
975.386	3440.95
975.686	3403.22
975.986	3435.76
976.287	3392.14
976.587	3354.86
976.887	3351.92
977.187	3332.03
977.487	3323.9
977.787	3298.13
978.087	3270.34
978.387	3297.46
978.687	3293.84
978.987	3268.08
979.286	3208.19
979.586	3234.86
979.885	3228.3
980.185	3191.47
980.484	3154.18
980.784	3125.71
981.083	3158.7
981.382	3128.19
981.682	3157.12
981.981	3077.57
982.28	3099.49
982.579	3040.74
982.878	3091.59
983.177	3054.52
983.475	3023.56
983.774	3014.3
984.073	2946.73
984.372	2982.66
984.67	2999.16
984.969	2981.08
985.267	2990.12
985.566	2954.64
985.864	2904.25
986.162	2890.23
986.461	2946.05
986.759	2910.35
987.057	2882.55
987.355	2866.51
987.653	2830.12
987.951	2795.32
988.249	2784.47
988.547	2804.81
988.844	2852.27
989.142	2781.76
989.44	2746.74
989.737	2713.52
990.035	2707.87
990.332	2711.48
990.63	2703.57
990.927	2675.1
991.224	2699.96
991.521	2659.51
991.819	2657.02
992.116	2648.43
992.413	2664.48
992.71	2588.1
993.006	2589.45
993.303	2597.81
993.6	2589.45
993.897	2556.91
994.193	2546.74
994.49	2558.27
994.787	2550.36
995.083	2521.66
995.379	2503.58
995.676	2512.17
995.972	2507.42
996.268	2474.2
996.565	2413.86
996.861	2424.03
997.157	2389.23
997.453	2414.32
997.749	2399.85
998.044	2399.85
998.34	2381.55
998.636	2388.78
998.932	2334.09
999.227	2346.97
999.523	2322.57
999.818	2304.94
1000.114	2278.5
1000.409	2252.74
1000.704	2256.81
1001	2236.92
1001.295	2253.42
1001.59	2258.84
1001.885	2206.64
1002.18	2206.41
1002.475	2184.26
1002.77	2187.2
1003.065	2126.86
1003.359	2161.67
1003.654	2161.89
1003.949	2124.83
1004.243	2114.21
1004.538	2109.69
1004.832	2104.72
1005.127	2086.64
1005.421	2085.28
1005.715	2079.86
1006.009	2083.48
1006.304	2061.33
1006.598	2043.25
1006.892	2025.62
1007.186	2007.09
1007.48	1973.87
1007.773	2003.93
1008.067	1988.11
1008.361	1945.85
1008.655	1941.79
1008.948	1968
1009.242	1930.94
1009.535	1910.15
1009.829	1881.22
1010.122	1900.66
1010.415	1890.94
1010.708	1874.44
1011.001	1899.53
1011.295	1826.31
1011.588	1860.43
1011.881	1867.66
1012.173	1816.14
1012.466	1832.41
1012.759	1790.38
1013.052	1789.92
1013.344	1787.21
1013.637	1806.2
1013.93	1751.73
1014.222	1750.6
1014.514	1750.6
1014.807	1720.32
1015.099	1717.84
1015.391	1702.02
1015.683	1696.82
1015.976	1690.94
1016.268	1686.42
1016.56	1656.59
1016.851	1673.54
1017.143	1649.36
1017.435	1608.01
1017.727	1611.85
1018.018	1609.59
1018.31	1604.39
1018.602	1608.46
1018.893	1588.35
1019.185	1576.14
1019.476	1554
1019.767	1559.42
1020.058	1543.15
1020.35	1546.99
1020.641	1529.59
1020.932	1546.32
1021.223	1504.96
1021.514	1493.21
1021.804	1482.36
1022.095	1463.61
1022.386	1450.27
1022.677	1442.59
1022.967	1451.85
1023.258	1422.25
1023.548	1424.28
1023.839	1409.6
1024.129	1396.04
1024.419	1413.44
1024.709	1359.65
1025	1380.67
1025.29	1335.25
1025.58	1344.96
1025.87	1340.9
1026.16	1325.3
1026.449	1356.04
1026.739	1316.04
1027.029	1325.3
1027.319	1321.24
1027.608	1285.53
1027.898	1269.94
1028.187	1269.03
1028.477	1260.45
1028.766	1250.73
1029.055	1254.35
1029.344	1243.05
1029.634	1225.42
1029.923	1209.37
1030.212	1229.71
1030.501	1206.44
1030.79	1225.87
1031.078	1213.89
1031.367	1170.28
1031.656	1154.46
1031.945	1172.77
1032.233	1198.75
1032.522	1174.8
1032.81	1134.35
1033.099	1114.24
1033.387	1112.43
1033.675	1110.62
1033.963	1121.24
1034.251	1103.16
1034.54	1099.55
1034.828	1092.77
1035.116	1071.53
1035.403	1103.16
1035.691	1029.49
1035.979	1057.29
1036.267	1054.8
1036.554	1046.67
1036.842	1030.17
1037.129	1020.91
1037.417	1029.72
1037.704	1012.54
1037.992	1006.22
1038.279	995.82
1038.566	1004.41
1038.853	1004.41
1039.14	1004.41
