Data from white_wall_FLMS001491_015.txt Node
Date: Tue Feb 07 11:03:42 GMT 2017
User: dcchb
Spectrometer: FLMS00149
Trigger mode: 0
Integration Time (sec): 2.000000E-2
Scans to average: 10
Electric dark correction enabled: true
Nonlinearity correction enabled: false
Boxcar width: 0
XAxis mode: Wavelengths
Number of Pixels in Spectrum: 2048
>>>>>Begin Spectral Data<<<<<
341.393	-5.49
341.776	-5.49
342.16	-5.49
342.543	-55.89
342.927	-67.41
343.31	-56.11
343.693	-87.07
344.077	-60.86
344.46	-54.98
344.843	-34.42
345.226	-44.14
345.61	-31.26
345.993	-38.94
346.376	-12.27
346.759	9.87
347.142	30.66
347.525	40.15
347.908	61.62
348.291	68.85
348.674	85.58
349.057	123.32
349.44	118.12
349.823	127.38
350.206	168.06
350.588	207.83
350.971	233.6
351.354	270.88
351.737	251.45
352.119	265.46
352.502	284.22
352.884	308.62
353.267	316.31
353.65	314.27
354.032	304.55
354.414	332.35
354.797	356.53
355.179	345.46
355.562	323.31
355.944	369.86
356.326	367.38
356.709	342.07
357.091	365.12
357.473	354.27
357.855	369.86
358.238	380.03
358.62	359.02
359.002	393.59
359.384	371.67
359.766	384.55
360.148	361.5
360.53	347.04
360.912	369.64
361.294	385.46
361.676	360.15
362.057	388.17
362.439	355.85
362.821	354.72
363.203	365.57
363.584	358.34
363.966	369.86
364.348	367.38
364.729	361.5
365.111	347.94
365.493	370.54
365.874	349.07
366.256	346.59
366.637	351.78
367.019	343.88
367.4	342.07
367.781	337.55
368.163	352.91
368.544	346.36
368.925	372.35
369.306	363.99
369.688	343.65
370.069	381.16
370.45	344.55
370.831	348.85
371.212	367.15
371.593	353.14
371.974	354.27
372.355	336.64
372.736	354.5
373.117	362.18
373.498	372.8
373.879	345.01
374.26	336.64
374.641	350.43
375.021	352.91
375.402	358.79
375.783	364.89
376.163	389.07
376.544	394.27
376.925	366.02
377.305	368.96
377.686	356.08
378.066	379.35
378.447	389.07
378.827	379.81
379.208	383.65
379.588	374.83
379.968	389.75
380.349	375.74
380.729	382.74
381.109	397.89
381.489	388.62
381.87	396.98
382.25	385.23
382.63	396.76
383.01	411.22
383.39	406.7
383.77	400.6
384.15	413.7
384.53	380.71
384.91	407.6
385.29	412.12
385.67	445.12
386.049	435.17
386.429	436.53
386.809	455.06
387.189	424.78
387.568	430.65
387.948	438.34
388.328	447.6
388.707	452.35
389.087	448.73
389.466	467.49
389.846	464.1
390.225	462.29
390.605	458
390.984	470.65
391.363	479.01
391.743	498
392.122	490.31
392.501	499.35
392.881	515.17
393.26	513.36
393.639	505.68
394.018	540.93
394.397	538.45
394.776	551.55
395.155	564.21
395.534	571.89
395.913	578.67
396.292	587.71
396.671	599.69
397.05	644.66
397.429	614.38
397.808	599.91
398.186	595.85
398.565	629.29
398.944	627.94
399.323	643.53
399.701	632.46
400.08	664.32
400.458	667.93
400.837	685.79
401.215	686.69
401.594	713.81
401.972	691.66
402.351	740.93
402.729	734.83
403.107	742.51
403.486	760.59
403.864	769.85
404.242	792
404.62	811.89
404.999	836.52
405.377	833.13
405.755	847.14
406.133	877.19
406.511	878.78
406.889	927.14
407.267	929.4
407.645	940.47
408.023	966.01
408.401	965.78
408.779	971.43
409.156	983.18
409.534	1026.34
409.912	1026.8
410.29	1056.85
410.667	1055.95
411.045	1094.59
411.422	1117.64
411.8	1134.36
412.178	1152.44
412.555	1161.03
412.933	1175.04
413.31	1195.38
413.687	1229.5
414.065	1206
414.442	1277.86
414.819	1265.66
415.197	1295.04
415.574	1319.22
415.951	1308.82
416.328	1351.98
416.705	1340.91
417.082	1330.97
417.46	1394.02
417.837	1395.82
418.214	1387.46
418.591	1427.01
418.967	1430.4
419.344	1465.43
419.721	1482.38
420.098	1450.74
420.475	1502.49
420.852	1511.08
421.228	1517.4
421.605	1558.08
421.982	1551.53
422.358	1576.39
422.735	1615.25
423.111	1623.16
423.488	1648.02
423.864	1646.89
424.241	1662.26
424.617	1685.08
424.994	1699.55
425.37	1708.59
425.746	1728.92
426.123	1741.35
426.499	1756.95
426.875	1820.67
427.251	1840.78
427.627	1881.01
428.003	1903.16
428.379	1914.23
428.756	1933.66
429.132	1942.03
429.507	2026.54
429.883	1991.97
430.259	2045.98
430.635	2102.47
431.011	2095.24
431.387	2158.97
431.763	2192.87
432.138	2189.02
432.514	2209.59
432.89	2226.09
433.265	2288.68
433.641	2319.87
434.016	2355.35
434.392	2362.35
434.767	2401
435.143	2380.66
435.518	2447.1
435.894	2473.54
436.269	2516.47
436.644	2537.26
437.02	2588.34
437.395	2582.69
437.77	2624.04
438.145	2653.19
438.52	2675.79
438.895	2726.41
439.271	2725.73
439.646	2810.02
440.021	2811.38
440.395	2810.25
440.77	2815.9
441.145	2852.28
441.52	2923.24
441.895	2896.35
442.27	2961.89
442.645	2948.78
443.019	2996.91
443.394	2998.04
443.769	3038.49
444.143	3049.34
444.518	3107.19
444.892	3044.82
445.267	3114.65
445.641	3098.6
446.016	3222.67
446.39	3221.99
446.764	3231.26
447.139	3221.99
447.513	3262.67
447.887	3310.35
448.262	3311.25
448.636	3307.64
449.01	3387.18
449.384	3352.61
449.758	3406.17
450.132	3512.38
450.506	3501.76
450.88	3537.92
451.254	3564.58
451.628	3595.09
452.002	3634.64
452.376	3704.01
452.75	3704.69
453.123	3748.76
453.497	3803.22
453.871	3809.77
454.244	3914.85
454.618	3922.09
454.992	4004.8
455.365	3983.55
455.739	4096.77
456.112	4132.02
456.486	4202.76
456.859	4203.21
457.232	4309.19
457.606	4360.04
457.979	4378.35
458.352	4466.93
458.725	4510.77
459.099	4562.97
459.472	4651.56
459.845	4736.98
460.218	4767.94
460.591	4793.02
460.964	4833.25
461.337	4933.13
461.71	4962.96
462.083	5048.84
462.456	5118.89
462.829	5117.31
463.201	5249.96
463.574	5234.82
463.947	5327.25
464.32	5437.53
464.692	5469.84
465.065	5548.71
465.438	5626.22
465.81	5666
466.183	5744.86
466.555	5866.67
466.928	5910.28
467.3	5942.82
467.672	6077.06
468.045	6198.64
468.417	6215.36
468.789	6298.29
469.161	6332.64
469.534	6481.11
469.906	6602.47
470.278	6692.86
470.65	6774.67
471.022	6890.14
471.394	7008.33
471.766	7073.19
472.138	7170.81
472.51	7345.05
472.882	7430.92
473.253	7494.2
473.625	7614.64
473.997	7811.02
474.369	7873.39
474.74	7990.45
475.112	8189.54
475.484	8335.3
475.855	8410.56
476.227	8520.16
476.598	8770.09
476.97	8832.69
477.341	9047.38
477.713	9243.3
478.084	9250.53
478.455	9509.96
478.827	9553.58
479.198	9924.19
479.569	9876.96
479.94	10210.28
480.311	10260.68
480.682	10485.76
481.053	10730.49
481.424	10938.85
481.795	10996.7
482.166	11228.79
482.537	11337.26
482.908	11560.76
483.279	11756.46
483.65	12006.62
484.021	12165.49
484.391	12352.6
484.762	12397.12
485.133	12571.58
485.503	12785.58
485.874	13178.11
486.244	13251.11
486.615	13571.1
486.985	13664.2
487.356	13832.33
487.726	14064.42
488.097	14370.85
488.467	14387.35
488.837	14696.72
489.207	14920.89
489.578	14981.23
489.948	15221.22
490.318	15456.25
490.688	15503.25
491.058	15689.23
491.428	16027.98
491.798	16235.21
492.168	16506.39
492.538	16563.34
492.908	16778.02
493.278	17085.13
493.648	17147.28
494.017	17276.99
494.387	17521.73
494.757	17685.11
495.126	17919.01
495.496	17889.85
495.866	18188.38
496.235	18259.34
496.605	18523.06
496.974	18616.16
497.344	18872.43
497.713	18937.06
498.082	19032.65
498.452	19311.96
498.821	19349.7
499.19	19492.3
499.559	19793.53
499.928	19878.73
500.298	19996.47
500.667	20268.77
501.036	20173.18
501.405	20349.68
501.774	20510.8
502.143	20660.4
502.512	20788.76
502.88	20965.03
503.249	21072.82
503.618	21310.1
503.987	21374.73
504.356	21529.53
504.724	21750.09
505.093	21737.21
505.462	21880.03
505.83	22164.09
506.199	22289.96
506.567	22638.43
506.936	22727.69
507.304	22809.5
507.672	22979.66
508.041	23116.61
508.409	23354.8
508.777	23436.6
509.145	23766.99
509.514	23749.36
509.882	23962.69
510.25	24016.25
510.618	24291.27
510.986	24309.57
511.354	24697.59
511.722	24865.26
512.09	25118.36
512.458	25144.13
512.826	25393.16
513.193	25559.26
513.561	25587.05
513.929	25743.21
514.297	26108.4
514.664	26287.83
515.032	26430.19
515.4	26600.81
515.767	26744.76
516.135	26988.6
516.502	26781.6
516.869	27269.95
517.237	27420
517.604	27491.86
517.972	27803.27
518.339	28013.2
518.706	28160.32
519.073	28232.86
519.44	28504.04
519.808	28912.84
520.175	28789.23
520.542	29328.65
520.909	29307.41
521.276	29478.02
521.643	29724.57
522.009	30049.31
522.376	30263.77
522.743	30359.36
523.11	30646.58
523.477	30975.39
523.843	31208.37
524.21	31358.2
524.577	31613.34
524.943	31894.01
525.31	32090.39
525.676	32409.92
526.043	32573.31
526.409	32712.74
526.776	33075.44
527.142	33124.48
527.508	33390.01
527.874	33715.43
528.241	33775.09
528.607	33948.87
528.973	34228.41
529.339	34318.35
529.705	34665.01
530.071	34872.68
530.437	35046.69
530.803	35289.4
531.169	35405.55
531.535	35441.71
531.901	35528.94
532.267	35786.11
532.632	36012.99
532.998	36250.95
533.364	36494.11
533.73	36483.94
534.095	36767.55
534.461	36842.12
534.826	37130.7
535.192	37290.7
535.557	37431.26
535.923	37434.65
536.288	37693.85
536.653	37763.91
537.019	37845.94
537.384	38071.02
537.749	38278.24
538.114	38392.14
538.479	38424.23
538.845	38647.05
539.21	38665.81
539.575	38918
539.94	39101.95
540.305	39298.11
540.67	39190.99
541.034	39403.19
541.399	39493.13
541.764	39634.37
542.129	39940.35
542.494	39987.8
542.858	40327.23
543.223	40245.2
543.587	40442.71
543.952	40466.21
544.316	40704.17
544.681	40656.71
545.045	41117.27
545.41	41282.46
545.774	41189.58
546.138	41452.4
546.503	41571.72
546.867	41555.22
547.231	41901.2
547.595	42085.6
547.959	42119.5
548.324	42268.42
548.688	42317.23
549.052	42535.31
549.416	42721.07
549.779	42696.89
550.143	42863.89
550.507	43145.46
550.871	43293.03
551.235	43393.14
551.599	43612.79
551.962	43761.94
552.326	43929.62
552.689	44249.61
553.053	44080.58
553.417	44272.66
553.78	44901.12
554.143	44697.51
554.507	45009.59
554.87	45170.49
555.234	45476.02
555.597	45332.3
555.96	45748.78
556.323	45765.51
556.686	46046.63
557.05	46144.48
557.413	46346.28
557.776	46453.62
558.139	46788.98
558.502	46911.46
558.865	46845.93
559.228	47279.36
559.59	47389.19
559.953	47407.95
560.316	47890.42
560.679	47890.87
561.041	48183.3
561.404	48323.4
561.767	48570.86
562.129	48456.28
562.492	48802.71
562.854	48962.48
563.217	49048.58
563.579	49235.92
563.941	49463.04
564.304	49565.18
564.666	49711.16
565.028	49807.43
565.39	49972.63
565.753	50075
566.115	50262.79
566.477	50490.35
566.839	50519.05
567.201	50856.67
567.563	50773.96
567.925	50950.45
568.287	51035.2
568.648	51071.81
569.01	51400.16
569.372	51564.45
569.734	51466.6
570.095	51751.11
570.457	51829.08
570.819	51975.51
571.18	51927.15
571.542	52058.67
571.903	52125.11
572.265	52304.32
572.626	52348.84
572.987	52288.05
573.349	52587.02
573.71	52642.39
574.071	52635.83
574.432	52883.51
574.794	52985.2
575.155	52986.78
575.516	52860.01
575.877	53096.84
576.238	53226.33
576.599	53265.65
576.96	53248.47
577.32	53336.15
577.681	53490.5
578.042	53605.3
578.403	53543.83
578.763	53502.48
579.124	53598.07
579.485	53660.67
579.845	53756.48
580.206	53721.91
580.566	53660.21
580.927	53815.01
581.287	53943.37
581.648	53735.01
582.008	53951.96
582.368	53865.41
582.728	53992.18
583.089	53909.92
583.449	53918.29
583.809	53888.91
584.169	53981.11
584.529	53889.13
584.889	54206.41
585.249	53972.07
585.609	53853.88
585.969	54047.77
586.329	53982.69
586.688	54040.99
587.048	54021.33
587.408	53946.08
587.768	53963.48
588.127	53996.02
588.487	53935.01
588.846	54188.34
589.206	53984.27
589.565	54037.38
589.925	54204.38
590.284	54075.34
590.643	54050.71
591.003	54217.49
591.362	54282.57
591.721	54280.08
592.08	54269.69
592.44	54245.28
592.799	54251.16
593.158	54239.18
593.517	54132.97
593.876	54218.84
594.235	54185.62
594.593	54276.24
594.952	54254.77
595.311	54205.74
595.67	54309.46
596.029	54456.58
596.387	54408.44
596.746	54440.98
597.104	54290.25
597.463	54334.77
597.822	54340.65
598.18	54321.66
598.538	54315.34
598.897	54474.2
599.255	54287.77
599.613	54665.16
599.972	54492.96
600.33	54585.61
600.688	54499.97
601.046	54601.88
601.404	54690.02
601.762	54622.67
602.12	54728.89
602.478	54734.99
602.836	54760.52
603.194	54657.02
603.552	54659.28
603.91	54626.74
604.268	54706.29
604.625	54692.05
604.983	54769.79
605.341	54619.74
605.698	54849.79
606.056	54964.36
606.413	54871.03
606.771	54864.48
607.128	55001.2
607.485	54812.73
607.843	54856.79
608.2	55048.2
608.557	55111.7
608.914	54995.32
609.272	55164.81
609.629	55249.55
609.986	55283.22
610.343	55281.19
610.7	55405.25
611.057	55312.6
611.414	55311.02
611.771	55298.14
612.127	55443.22
612.484	55405.93
612.841	55522.54
613.198	55507.62
613.554	55441.41
613.911	55622.42
614.267	55551.24
614.624	55578.58
614.98	55563.21
615.337	55710.78
615.693	55733.38
616.05	55641.18
616.406	55850.66
616.762	55697
617.118	55748.29
617.475	55709.43
617.831	55812.47
618.187	55855.64
618.543	55911.23
618.899	55989.64
619.255	55968.4
619.611	55875.3
619.967	56024.44
620.323	55996.88
620.678	55946.03
621.034	55932.92
621.39	55938.8
621.746	55870.32
622.101	56110.09
622.457	55956.42
622.812	56007.27
623.168	56018.12
623.523	55975.41
623.879	56082.07
624.234	55950.55
624.589	56050.88
624.945	56016.76
625.3	56166.14
625.655	56100.6
626.01	56217.66
626.365	56145.8
626.72	56116.65
627.075	56120.49
627.43	56079.81
627.785	55966.59
628.14	56089.08
628.495	56110.09
628.85	56095.18
629.205	55931.57
629.559	56180.6
629.914	56009.53
630.269	56023.09
630.623	55943.54
630.978	55922.53
631.332	56080.94
631.687	56028.29
632.041	55948.74
632.396	55934.5
632.75	55880.04
633.104	55892.47
633.459	55780.38
633.813	55776.54
634.167	55755.98
634.521	55732.7
634.875	55821.96
635.229	55764.56
635.583	55629.88
635.937	55596.66
636.291	55609.99
636.645	55637.79
636.999	55584.46
637.352	55678.24
637.706	55498.58
638.06	55584.46
638.413	55474.18
638.767	55461.52
639.121	55507.85
639.474	55239.61
639.828	55318.93
640.181	55354.18
640.534	55241.64
640.888	55201.64
641.241	55167.52
641.594	55102.44
641.947	55199.16
642.301	55077.8
642.654	55059.27
643.007	55110.57
643.36	55002.78
643.713	54953.06
644.066	55031.93
644.419	54867.64
644.771	54663.12
645.124	54436.24
645.477	54478.27
645.83	54197.15
646.182	54135.91
646.535	54050.26
646.888	54152.63
647.24	53920.09
647.593	54180.65
647.945	54049.81
648.298	53872.86
648.65	53845.29
649.002	53702.7
649.355	53967.55
649.707	53851.17
650.059	53946.53
650.411	54289.12
650.763	54276.24
651.115	54527.54
651.467	54465.62
651.819	54419.97
652.171	54310.14
652.523	54352.85
652.875	54331.38
653.227	54221.78
653.578	54351.27
653.93	54315.34
654.282	54238.73
654.633	54158.05
654.985	54262.91
655.337	54122.35
655.688	54127.32
656.039	54169.8
656.391	53919.19
656.742	54017.72
657.094	54025.18
657.445	54189.01
657.796	53899.08
658.147	53954.22
658.498	53993.99
658.849	54008
659.2	53969.58
659.551	53859.98
659.902	54001.45
660.253	53857.04
660.604	53989.7
660.955	53702.47
661.306	53941.56
661.656	53840.77
662.007	53837.61
662.358	53842.58
662.708	53740.66
663.059	53666.77
663.409	53553.1
663.76	53766.88
664.11	53702.02
664.461	53712.87
664.811	53657.95
665.161	53728.46
665.511	53548.35
665.862	53615.02
666.212	53744.05
666.562	53772.3
666.912	53588.35
667.262	53608.92
667.612	53538.41
667.962	53619.08
668.312	53460.9
668.662	53720.1
669.011	53619.99
669.361	53522.14
669.711	53416.15
670.06	53363.72
670.41	53382.03
670.76	53374.12
671.109	53480.56
671.459	53285.53
671.808	53312.2
672.157	53307.91
672.507	53118.31
672.856	53140.68
673.205	53095.26
673.554	53188.81
673.904	53186.33
674.253	53296.16
674.602	53069.04
674.951	52621.6
675.3	52479
675.649	53070.4
675.998	52935.03
676.346	53000.34
676.695	53007.12
677.044	52808.94
677.393	52972.1
677.741	52868.37
678.09	52817.75
678.438	52711.09
678.787	52741.59
679.135	52789.5
679.484	52471.54
679.832	52616.17
680.181	52415.95
680.529	52553.12
680.877	52512.45
681.225	52460.24
681.573	52591.31
681.922	52394.48
682.27	52358.1
682.618	52348.84
682.966	52335.5
683.314	52309.29
683.661	52121.5
684.009	51965.12
684.357	51902.97
684.705	51802.64
685.053	51836.31
685.4	51799.02
685.748	51743.2
686.095	51587.27
686.443	51524.45
686.79	51440.84
687.138	51559.93
687.485	51409.65
687.832	51476.99
688.18	51446.71
688.527	51155.19
688.874	51173.95
689.221	51116.78
689.568	50956.56
689.915	50831.36
690.262	50826.62
690.609	50818.03
690.956	50695.77
691.303	50634.76
691.65	50482.67
691.997	50449.9
692.344	50276.12
692.69	50342.33
693.037	50312.05
693.383	49971.95
693.73	49944.6
694.077	49764.95
694.423	49780.99
694.769	49755.46
695.116	49545.52
695.462	49522.47
695.808	49409.7
696.155	49466.88
696.501	49189.6
696.847	49145.53
697.193	48980.34
697.539	49045.19
697.885	48765.88
698.231	48767.46
698.577	48682.27
698.923	48694.24
699.269	48492.89
699.614	48458.09
699.96	48216.97
700.306	48270.3
700.651	48088.83
700.997	47852.91
701.342	47865.56
701.688	47832.34
702.033	47741.95
702.379	47723.87
702.724	47583.76
703.069	47746.7
703.415	47197.56
703.76	47214.73
704.105	47261.06
704.45	47013.38
704.795	46857.91
705.14	46723.67
705.485	46787.17
705.83	46624.92
706.175	46623.11
706.52	46509.44
706.865	46294.76
707.209	46300.41
707.554	46208.66
707.899	46245.04
708.243	46026.97
708.588	45949.46
708.932	45723.92
709.277	45609.13
709.621	45682.8
709.966	45458.62
710.31	45543.82
710.654	45212.75
710.998	45280.55
711.342	45280.55
711.687	45075.35
712.031	45049.59
712.375	44847.56
712.719	44838.3
713.063	44813.67
713.407	44871.07
713.75	44712.88
714.094	44686.66
714.438	44418.2
714.782	44476.27
715.125	44249.16
715.469	44259.33
715.812	44206
716.156	43930.98
716.499	43922.16
716.843	44047.58
717.186	43751.77
717.53	43962.39
717.873	43850.08
718.216	43774.82
718.559	43580.93
718.902	43343.42
719.246	43431.33
719.589	43329.64
719.932	43164.67
720.275	43008.97
720.617	42977.56
720.96	42975.75
721.303	42978.23
721.646	43000.61
721.989	42736.66
722.331	42813.72
722.674	42649.88
723.016	42604.01
723.359	42473.61
723.701	42557.68
724.044	42415.31
724.386	42114.53
724.729	42349.55
725.071	42159.5
725.413	42305.03
725.755	42027.07
726.097	41916.79
726.439	41825.95
726.782	41859.39
727.124	42060.07
727.465	41698.27
727.807	41805.38
728.149	41708.89
728.491	41576.01
728.833	41674.09
729.175	41378.5
729.516	41261.9
729.858	41320.65
730.199	41307.54
730.541	41390.48
730.882	41140.09
731.224	41276.81
731.565	40844.05
731.906	41036.14
732.248	40933.54
732.589	40764.73
732.93	40649.26
733.271	40728.8
733.612	40734
733.953	40774.68
734.294	40591.18
734.635	40520.22
734.976	40520.45
735.317	40376.72
735.658	40289.27
735.999	40304.86
736.339	40163.39
736.68	40343.5
737.021	40175.82
737.361	39874.81
737.702	40094.47
738.042	39912.55
738.383	39936.96
738.723	39903.29
739.063	39837.3
739.404	39783.97
739.744	39654.48
740.084	39432.56
740.424	39593.69
740.764	39458.1
741.104	39542.62
741.444	39310.08
741.784	39212.46
742.124	39257.88
742.464	39239.58
742.804	39080.48
743.143	39036.87
743.483	39054.5
743.823	38803.2
744.162	38898.12
744.502	38983.31
744.841	38630.78
745.181	38851.11
745.52	38781.28
745.86	38620.38
746.199	38612.02
746.538	38577.45
746.877	38524.57
747.216	38572.47
747.556	38393.5
747.895	38389.65
748.234	38256.1
748.573	38017.91
748.911	38177
749.25	38081.19
749.589	37960.29
749.928	37901.08
750.267	37981.53
750.605	37743.34
750.944	37630.58
751.283	37660.86
751.621	37559.39
751.96	37423.13
752.298	37436.23
752.636	37379.51
752.975	37171.61
753.313	37123.7
753.651	37197.82
753.989	37070.82
754.327	36866.98
754.666	36730.72
755.004	36797.38
755.342	36784.05
755.679	36759.87
756.017	36434
756.355	36492.08
756.693	36369.82
757.031	36375.47
757.368	36230.84
757.706	36097.51
758.044	36047.12
758.381	36038.3
758.719	35959.21
759.056	35920.11
759.394	35805.77
759.731	35541.37
760.068	35405.78
760.405	35513.12
760.743	35351.77
761.08	35431.54
761.417	35223.64
761.754	35057.31
762.091	35068.39
762.428	34911.78
762.765	34587.49
763.102	34775.51
763.438	34547.95
763.775	34417.33
764.112	34407.39
764.449	34318.12
764.785	34225.7
765.122	34014.4
765.458	34033.84
765.795	33944.12
766.131	33826.16
766.467	33712.72
766.804	33519.95
767.14	33369.45
767.476	33399.96
767.812	33234.76
768.148	33079.29
768.485	33006.29
768.821	32890.36
769.157	32738.96
769.492	32672.97
769.828	32686.3
770.164	32268.91
770.5	32188.69
770.836	32331.51
771.171	32053.78
771.507	32025.75
771.842	31729.26
772.178	31766.55
772.513	31781.24
772.849	31452.44
773.184	31325.89
773.519	31399.33
773.855	31249.28
774.19	30998.44
774.525	31132.22
774.86	31042.95
775.195	30845.45
775.53	30813.81
775.865	30637.99
776.2	30327.04
776.535	30232.58
776.87	30239.13
777.205	30102.64
777.539	30023.77
777.874	30029.87
778.209	29655.87
778.543	29658.58
778.878	29564.8
779.212	29491.13
779.547	29307.63
779.881	29456.1
780.215	29120.52
780.55	29360.29
780.884	28999.62
781.218	28990.35
781.552	28903.12
781.886	28703.58
782.22	28732.73
782.554	28582.68
782.888	28238.28
783.222	28264.72
783.556	28054.11
783.889	28156.25
784.223	27897.95
784.557	27751.06
784.89	27853.43
785.224	27658.64
785.557	27434.24
785.891	27422.26
786.224	27418.64
786.558	27204.19
786.891	27005.32
787.224	26935.72
787.557	26894.36
787.891	26904.08
788.224	26733.46
788.557	26774.14
788.89	26652.79
789.223	26632.22
789.556	26404.43
789.888	26328.95
790.221	26269.07
790.554	26020.94
790.887	26067.49
791.219	25873.15
791.552	25832.92
791.884	25741.17
792.217	25669.08
792.549	25640.39
792.882	25410.56
793.214	25352.26
793.546	25416.44
793.879	25172.37
794.211	25099.83
794.543	25148.65
794.875	24971.02
795.207	25011.48
795.539	24937.58
795.871	24836.11
796.203	24646.29
796.535	24554.99
796.867	24487.2
797.198	24448.55
797.53	24431.83
797.862	24315.22
798.193	24391.6
798.525	24203.36
798.856	24175.79
799.188	24008.11
799.519	23926.53
799.85	23676.82
800.182	23689.25
800.513	23776.71
800.844	23430.73
801.175	23529.03
801.506	23479.54
801.837	23442.02
802.168	23359.77
802.499	23308.7
802.83	23151.64
803.161	22971.53
803.491	23027.35
803.822	23031.19
804.153	22956.84
804.483	22689.95
804.814	22749.61
805.145	22661.03
805.475	22581.71
805.805	22523.63
806.136	22506
806.466	22566.57
806.796	22379.45
807.126	22206.13
807.457	22202.28
807.787	22176.97
808.117	22123.19
808.447	21977.2
808.777	22076.19
809.107	21846.36
809.436	21880.48
809.766	21911.9
810.096	21765.23
810.426	21665.57
810.755	21672.13
811.085	21592.13
811.414	21548.74
811.744	21235.08
812.073	21332.02
812.403	21298.35
812.732	21277.56
813.061	21201.41
813.39	21050.9
813.719	20967.06
814.049	21172.48
814.378	20978.36
814.707	20931.13
815.036	20919.38
815.365	20850.91
815.693	20635.54
816.022	20621.99
816.351	20502.89
816.68	20490.46
817.008	20539.05
817.337	20369.56
817.665	20365.04
817.994	20354.2
818.322	20321.43
818.651	20194.65
818.979	20123.47
819.307	20287.31
819.636	20234.65
819.964	20028.56
820.292	20055.22
820.62	20114.2
820.948	20018.61
821.276	20031.72
821.604	20039.18
821.932	20159.85
822.259	19976.58
822.587	19981.55
822.915	19926.41
823.243	20051.61
823.57	19937.71
823.898	19881.21
824.225	19870.14
824.553	19912.4
824.88	19915.34
825.207	20005.05
825.535	19887.77
825.862	19926.41
826.189	19949.69
826.516	19949.69
826.843	19885.96
827.17	19913.76
827.497	20016.58
827.824	19971.38
828.151	20032.17
828.478	20043.02
828.805	19943.13
829.131	19834.44
829.458	19807.09
829.785	19790.14
830.111	19842.57
830.438	19827.43
830.764	19932.74
831.09	19959.86
831.417	19746.75
831.743	19837.83
832.069	19739.07
832.395	19711.05
832.722	19656.81
833.048	19723.25
833.374	19663.59
833.7	19640.32
834.026	19720.09
834.351	19648.68
834.677	19552.64
835.003	19687.32
835.329	19662.01
835.654	19537.95
835.98	19510.83
836.306	19529.36
836.631	19364.17
836.956	19396.03
837.282	19483.94
837.607	19239.88
837.932	19227.9
838.258	19266.77
838.583	19292.08
838.908	19134.12
839.233	19229.25
839.558	19128.24
839.883	19140.22
840.208	19014.34
840.533	19147.22
840.858	19020.9
841.182	19001.24
841.507	18962.37
841.832	18851.64
842.156	18792.66
842.481	18888.02
842.805	18758.76
843.13	18750.62
843.454	18711.75
843.778	18682.83
844.103	18572.32
844.427	18504.75
844.751	18600.34
845.075	18542.94
845.399	18392.21
845.723	18291.88
846.047	18323.97
846.371	18203.07
846.695	18176.63
847.019	17989.96
847.343	17979.12
847.666	17845.56
847.99	17813.47
848.313	17767.37
848.637	17563.99
848.96	17651.89
849.284	17583.65
849.607	17428.17
849.931	17428.17
850.254	17365.57
850.577	17299.14
850.9	17155.86
851.223	17171.91
851.546	17055.98
851.869	16884.46
852.192	16949.77
852.515	16766.27
852.838	16777.79
853.161	16691.92
853.483	16624.58
853.806	16628.42
854.129	16586.84
854.451	16507.97
854.774	16471.81
855.096	16345.71
855.419	16255.32
855.741	16300.74
856.063	16109.34
856.385	16148.66
856.708	16121.54
857.03	16015.1
857.352	16026.17
857.674	16024.82
857.996	15933.07
858.318	15853.52
858.64	15818.5
858.961	15786.63
859.283	15730.14
859.605	15665.28
859.926	15667.54
860.248	15519.07
860.57	15526.75
860.891	15575.11
861.212	15395.23
861.534	15421.67
861.855	15441.78
862.176	15319.75
862.498	15403.59
862.819	15392.97
863.14	15286.99
863.461	15247.21
863.782	15181.9
864.103	15205.41
864.424	15216.03
864.745	15206.99
865.065	14978.97
865.386	15045.64
865.707	14950.5
866.027	15007.67
866.348	14964.28
866.668	15006.77
866.989	14968.12
867.309	14858.52
867.63	14888.58
867.95	14818.07
868.27	14762.25
868.59	14687.9
868.91	14827.34
869.23	14743.72
869.55	14710.73
869.87	14805.19
870.19	14632.31
870.51	14671.86
870.83	14671.41
871.15	14546.44
871.469	14466.67
871.789	14608.81
872.109	14565.65
872.428	14326.11
872.748	14479.1
873.067	14391.42
873.386	14471.19
873.706	14382.38
874.025	14371.98
874.344	14325.65
874.663	14367.01
874.982	14337.41
875.301	14287.69
875.62	14265.99
875.939	14188.03
876.258	14258.76
876.577	14090.41
876.896	14169.73
877.214	14083.63
877.533	14123.63
877.852	14143.51
878.17	14063.97
878.489	14066.68
878.807	14108.48
879.125	13979.67
879.444	13949.62
879.762	13903.97
880.08	13885.67
880.398	13871.43
880.716	13823.07
881.034	13772.9
881.352	13784.65
881.67	13737.65
881.988	13864.88
882.306	13705.56
882.624	13702.62
882.941	13639.34
883.259	13544.66
883.577	13595.5
883.894	13538.56
884.212	13483.87
884.529	13531.78
884.846	13417.66
885.164	13450.42
885.481	13414.49
885.798	13454.04
886.115	13282.74
886.432	13350.31
886.75	13309.86
887.067	13250.88
887.383	13190.77
887.7	13210.2
888.017	13163.88
888.334	13156.42
888.651	13123.43
888.967	13049.53
889.284	13040.72
889.6	12961.4
889.917	12888.4
890.233	12781.29
890.55	12798.01
890.866	12833.72
891.182	12803.21
891.498	12743.78
891.815	12744.45
892.131	12640.27
892.447	12621.97
892.763	12522.99
893.079	12474.4
893.395	12507.4
893.71	12525.02
894.026	12407.74
894.342	12458.58
894.657	12301.53
894.973	12372.94
895.289	12223.11
895.604	12284.58
895.92	12205.48
896.235	12155.32
896.55	12110.8
896.865	12087.75
897.181	12063.12
897.496	11932.27
897.811	11956
898.126	11981.99
898.441	11870.58
898.756	11808.43
899.071	11739.73
899.386	11866.74
899.7	11664.48
900.015	11568.66
900.33	11524.6
900.644	11628.1
900.959	11517.37
901.273	11555.11
901.588	11380.42
901.902	11395.11
902.216	11338.16
902.531	11302.23
902.845	11210.03
903.159	11188.11
903.473	11170.71
903.787	11109.24
904.101	11052.97
904.415	11134.78
904.729	11021.11
905.042	11016.14
905.356	10970.94
905.67	10921.22
905.984	10871.73
906.297	10855.69
906.611	10808.23
906.924	10796.03
907.237	10647.11
907.551	10675.81
907.864	10612.98
908.177	10582.7
908.491	10576.6
908.804	10485.98
909.117	10444.17
909.43	10403.95
909.743	10356.72
910.056	10417.51
910.368	10345.65
910.681	10229.49
910.994	10193.79
911.307	10150.17
911.619	10054.58
911.932	10122.15
912.244	9994.69
912.557	9980.91
912.869	9903.4
913.181	9968.25
913.494	9848.48
913.806	9874.92
914.118	9846.45
914.43	9825.89
914.742	9705.21
915.054	9676.96
915.366	9598.77
915.678	9580.02
915.99	9538.21
916.302	9481.49
916.613	9414.6
916.925	9465.22
917.236	9327.37
917.548	9342.06
917.859	9357.2
918.171	9273.81
918.482	9206.69
918.794	9162.63
919.105	9173.7
919.416	9079.24
919.727	9092.35
920.038	9102.97
920.349	8958.56
920.66	8933.71
920.971	8952.01
921.282	8935.97
921.593	8761.73
921.903	8809.87
922.214	8823.2
922.525	8694.62
922.835	8664.33
923.146	8678.57
923.456	8600.61
923.767	8604.9
924.077	8556.77
924.387	8519.48
924.697	8472.7
925.008	8451.68
925.318	8333.27
925.628	8403.32
925.938	8352.25
926.248	8228.19
926.558	8216.21
926.867	8226.61
927.177	8220.96
927.487	8148.64
927.796	8064.58
928.106	8067.74
928.416	8034.52
928.725	8076.55
929.034	7943.22
929.344	7948.65
929.653	7955.2
929.962	7820.06
930.271	7889.67
930.581	7839.27
930.89	7811.7
931.199	7667.52
931.508	7742.1
931.817	7647.19
932.125	7689.9
932.434	7573.06
932.743	7533.06
933.051	7501.65
933.36	7499.17
933.669	7408.77
933.977	7443.12
934.286	7437.02
934.594	7376.91
934.902	7333.3
935.21	7260.76
935.519	7300.08
935.827	7258.95
936.135	7167.42
936.443	7148.22
936.751	7084.04
937.059	7085.39
937.367	7086.3
937.674	7049.69
937.982	6993.64
938.29	6962.23
938.597	6981.67
938.905	6905.51
939.213	6842.91
939.52	6849.47
939.827	6811.5
940.135	6838.17
940.442	6691.5
940.749	6751.39
941.056	6681.79
941.363	6652.41
941.67	6598.85
941.977	6564.95
942.284	6544.16
942.591	6494.67
942.898	6473.43
943.205	6521.57
943.511	6432.98
943.818	6471.62
944.125	6342.59
944.431	6360.67
944.738	6337.16
945.044	6317.5
945.35	6275.02
945.657	6242.7
945.963	6242.7
946.269	6182.37
946.575	6184.4
946.881	6103.27
947.187	6082.48
947.493	6065.98
947.799	6057.85
948.105	6040.45
948.41	5977.63
948.716	6042.71
949.022	5908.47
949.327	5914.8
949.633	5830.74
949.938	5830.96
950.244	5807.23
950.549	5766.33
950.854	5741.93
951.16	5775.37
951.465	5684.3
951.77	5673
952.075	5647.24
952.38	5627.58
952.685	5639.56
952.99	5598.65
953.294	5590.97
953.599	5551.42
953.904	5554.81
954.209	5470.29
954.513	5529.73
954.818	5494.25
955.122	5447.02
955.426	5386
955.731	5394.36
956.035	5400.69
956.339	5307.13
956.643	5337.19
956.948	5287.7
957.252	5322.28
957.556	5285.44
957.86	5206.57
958.163	5251.77
958.467	5181.26
958.771	5170.87
959.075	5132.45
959.378	5097.87
959.682	5092.68
959.985	5057.65
960.289	5058.1
960.592	5022.85
960.896	4987.14
961.199	4988.95
961.502	4990.31
961.805	4975.17
962.108	4823.98
962.411	4885.9
962.714	4853.14
963.017	4817.88
963.32	4858.56
963.623	4812.68
963.926	4828.73
964.228	4756.41
964.531	4749.64
964.833	4710.54
965.136	4695.85
965.438	4689.75
965.741	4661.28
966.043	4674.16
966.345	4640.94
966.648	4647.94
966.95	4576.76
967.252	4554.39
967.554	4534.27
967.856	4530.66
968.158	4480.94
968.46	4446.82
968.761	4447.95
969.063	4452.47
969.365	4421.73
969.666	4412.02
969.968	4374.05
970.269	4347.39
970.571	4332.7
970.872	4321.85
971.174	4309.42
971.475	4285.01
971.776	4244.11
972.077	4192.36
972.378	4210.67
972.679	4200.27
972.98	4179.03
973.281	4160.27
973.582	4190.1
973.883	4107.39
974.183	4087.05
974.484	4041.63
974.785	4068.07
975.085	4099.26
975.386	4065.59
975.686	4043.44
975.986	4007.51
976.287	4002.54
976.587	3960.5
976.887	3949.66
977.187	3935.65
977.487	3936.55
977.787	3895.65
978.087	3894.06
978.387	3821.52
978.687	3917.79
978.987	3785.14
979.286	3759.15
979.586	3806.38
979.885	3719.15
980.185	3761.64
980.484	3738.14
980.784	3732.03
981.083	3683.45
981.382	3652.94
981.682	3684.13
981.981	3670.12
982.28	3640.51
982.579	3653.84
982.878	3612.49
983.177	3592.6
983.475	3613.17
983.774	3581.98
984.073	3548.99
984.372	3506.73
984.67	3512.83
984.969	3521.64
985.267	3476.22
985.566	3450.91
985.864	3438.26
986.162	3427.64
986.461	3407.07
986.759	3361.2
987.057	3344.25
987.355	3367.98
987.653	3373.63
987.951	3379.28
988.249	3330.69
988.547	3294.31
988.844	3285.27
989.142	3262.89
989.44	3261.76
989.737	3257.92
990.035	3220.41
990.332	3237.81
990.63	3207.08
990.927	3173.63
991.224	3179.28
991.521	3158.72
991.819	3125.72
992.116	3104.25
992.413	3125.72
992.71	3078.27
993.006	3059.96
993.303	3051.15
993.6	3034.43
993.897	3013.64
994.193	2996.46
994.49	2989.23
994.787	2991.94
995.083	2971.6
995.379	2915.33
995.676	2946.07
995.972	2892.73
996.268	2919.63
996.565	2854.77
996.861	2872.4
997.157	2871.27
997.453	2815.67
997.749	2836.92
998.044	2810.48
998.34	2771.16
998.636	2784.26
998.932	2768.44
999.227	2730.48
999.523	2757.6
999.818	2749.46
1000.114	2669.01
1000.409	2709.01
1000.704	2680.31
1001	2675.79
1001.295	2683.02
1001.59	2645.06
1001.885	2621.33
1002.18	2613.65
1002.475	2631.72
1002.77	2568.9
1003.065	2588.11
1003.359	2549.69
1003.654	2537.94
1003.949	2506.08
1004.243	2535.91
1004.538	2491.16
1004.832	2513.31
1005.127	2489.81
1005.421	2474.67
1005.715	2449.81
1006.009	2410.94
1006.304	2405.97
1006.598	2378.85
1006.892	2401.22
1007.186	2382.01
1007.48	2349.92
1007.773	2352.86
1008.067	2339.98
1008.361	2306.76
1008.655	2304.95
1008.948	2288.68
1009.242	2269.02
1009.535	2279.64
1009.829	2237.61
1010.122	2231.28
1010.415	2213.2
1010.708	2215.92
1011.001	2176.14
1011.295	2154.67
1011.588	2157.39
1011.881	2195.58
1012.173	2156.26
1012.466	2132.75
1012.759	2119.42
1013.052	2111.29
1013.344	2103.83
1013.637	2076.94
1013.93	2065.64
1014.222	2022.7
1014.514	2041.68
1014.807	2043.72
1015.099	2015.47
1015.391	2010.27
1015.683	1997.17
1015.976	1957.17
1016.268	1950.84
1016.56	1956.04
1016.851	1936.83
1017.143	1951.74
1017.435	1958.07
1017.727	1917.62
1018.018	1884.63
1018.31	1892.99
1018.602	1855.25
1018.893	1863.38
1019.185	1844.85
1019.476	1857.06
1019.767	1804.85
1020.058	1831.07
1020.35	1781.8
1020.641	1778.87
1020.932	1783.61
1021.223	1742.71
1021.514	1740.67
1021.804	1747.68
1022.095	1709.49
1022.386	1725.76
1022.677	1692.09
1022.967	1700
1023.258	1703.16
1023.548	1621.36
1023.839	1679.43
1024.129	1665.42
1024.419	1622.49
1024.709	1607.34
1025	1572.54
1025.29	1596.5
1025.58	1586.33
1025.87	1567.12
1026.16	1541.58
1026.449	1551.98
1026.739	1553.79
1027.029	1508.14
1027.319	1504.3
1027.608	1520.79
1027.898	1491.42
1028.187	1486.44
1028.477	1458.87
1028.766	1469.95
1029.055	1457.29
1029.344	1438.31
1029.634	1447.35
1029.923	1420.91
1030.212	1423.17
1030.501	1452.09
1030.79	1388.82
1031.078	1401.93
1031.367	1373
1031.656	1357.18
1031.945	1342.27
1032.233	1330.74
1032.522	1326.9
1032.81	1304.53
1033.099	1326.9
1033.387	1318.54
1033.675	1332.32
1033.963	1291.87
1034.251	1282.38
1034.54	1283.96
1034.828	1302.27
1035.116	1251.87
1035.403	1260.01
1035.691	1240.57
1035.979	1224.98
1036.267	1221.59
1036.554	1220.24
1036.842	1194.93
1037.129	1178.88
1037.417	1186.11
1037.704	1171.65
1037.992	1197.41
1038.279	1166.68
1038.566	1150.63
1038.853	1150.63
1039.14	1150.63
