Data from White_reflection_standard_FLMS001491_002.txt Node
Date: Tue Feb 07 10:31:55 GMT 2017
User: dcchb
Spectrometer: FLMS00149
Trigger mode: 0
Integration Time (sec): 2.000000E-2
Scans to average: 10
Electric dark correction enabled: true
Nonlinearity correction enabled: false
Boxcar width: 0
XAxis mode: Wavelengths
Number of Pixels in Spectrum: 2048
>>>>>Begin Spectral Data<<<<<
341.393	-5.31
341.776	-5.31
342.16	-5.31
342.543	-58.19
342.927	-35.59
343.31	-54.57
343.693	-55.48
344.077	-88.02
344.46	-59.09
344.843	-56.61
345.226	-44.18
345.61	-28.81
345.993	-32.2
346.376	0.11
346.759	30.62
347.142	20
347.525	53.22
347.908	39.89
348.291	77.17
348.674	104.07
349.057	93.9
349.44	129.15
349.823	141.58
350.206	168.7
350.588	246.66
350.971	266.77
351.354	281.91
351.737	280.78
352.119	284.85
352.502	321.01
352.884	321.46
353.267	329.82
353.65	319.65
354.032	361.69
354.414	358.07
354.797	369.82
355.179	396.71
355.562	375.92
355.944	397.62
356.326	380.44
356.709	387.67
357.091	390.39
357.473	398.52
357.855	420.89
358.238	395.58
358.62	433.32
359.002	403.27
359.384	402.81
359.766	409.37
360.148	410.27
360.53	414.57
360.912	395.36
361.294	418.18
361.676	418.86
362.057	406.43
362.439	420.44
362.821	420.21
363.203	410.05
363.584	431.51
363.966	395.36
364.348	401.68
364.729	412.31
365.111	411.4
365.493	418.18
365.874	424.96
366.256	404.4
366.637	388.13
367.019	401.91
367.4	429.48
367.781	411.4
368.163	437.62
368.544	432.42
368.925	431.74
369.306	414.11
369.688	429.71
370.069	423.83
370.45	426.99
370.831	440.33
371.212	434.9
371.593	428.58
371.974	446.43
372.355	438.07
372.736	454.56
373.117	458.18
373.498	474.45
373.879	457.73
374.26	449.82
374.641	455.02
375.021	428.35
375.402	478.29
375.783	484.85
376.163	520.55
376.544	520.78
376.925	512.42
377.305	490.95
377.686	511.74
378.066	511.74
378.447	506.54
378.827	524.17
379.208	527.33
379.588	522.81
379.968	544.96
380.349	539.99
380.729	515.81
381.109	552.64
381.489	567.78
381.87	561.23
382.25	554.67
382.63	566.65
383.01	562.81
383.39	560.1
383.77	589.93
384.15	550.16
384.53	598.06
384.91	600.78
385.29	579.53
385.67	609.14
386.049	621.11
386.429	621.79
386.809	624.96
387.189	626.76
387.568	658.4
387.948	629.7
388.328	656.37
388.707	644.16
389.087	635.35
389.466	675.35
389.846	665.18
390.225	697.72
390.605	705.86
390.984	709.02
391.363	699.98
391.743	721.45
392.122	751.05
392.501	741.79
392.881	754.9
393.26	778.4
393.639	758.51
394.018	764.16
394.397	775.23
394.776	795.35
395.155	796.48
395.534	789.47
395.913	798.28
396.292	806.19
396.671	830.6
397.05	853.65
397.429	853.65
397.808	854.78
398.186	843.25
398.565	845.29
398.944	842.35
399.323	857.49
399.701	891.39
400.08	910.15
400.458	920.77
400.837	908.34
401.215	956.92
401.594	936.36
401.972	943.37
402.351	930.94
402.729	964.61
403.107	1001.44
403.486	982.46
403.864	983.82
404.242	1021.78
404.62	1019.97
404.999	1058.16
405.377	1058.39
405.755	1036.92
406.133	1068.33
406.511	1069.01
406.889	1101.78
407.267	1101.78
407.645	1132.51
408.023	1128.67
408.401	1165.28
408.779	1189.23
409.156	1194.43
409.534	1204.83
409.912	1218.84
410.29	1255
410.667	1251.38
411.045	1283.92
411.422	1295.67
411.8	1294.09
412.178	1330.47
412.555	1368.66
412.933	1334.32
413.31	1390.13
413.687	1385.84
414.065	1428.1
414.442	1407.31
414.819	1460.19
415.197	1467.87
415.574	1511.49
415.951	1523.46
416.328	1508.1
416.705	1526.63
417.082	1541.99
417.46	1566.85
417.837	1582.22
418.214	1598.04
418.591	1596
418.967	1607.75
419.344	1634.42
419.721	1683.68
420.098	1664.02
420.475	1718.49
420.852	1698.83
421.228	1724.36
421.605	1743.34
421.982	1753.29
422.358	1790.57
422.735	1776.34
423.111	1828.09
423.488	1844.58
423.864	1863.34
424.241	1910.12
424.617	1922.77
424.994	1931.59
425.37	1951.7
425.746	1953.06
426.123	2005.94
426.499	1993.28
426.875	2057.23
427.251	2086.16
427.627	2113.73
428.003	2143.33
428.379	2173.39
428.756	2197.57
429.132	2209.55
429.507	2265.14
429.883	2270.34
430.259	2302.2
430.635	2325.25
431.011	2356.66
431.387	2376.77
431.763	2428.3
432.138	2465.36
432.514	2482.99
432.89	2551.01
433.265	2589.88
433.641	2620.16
434.016	2630.1
434.392	2658.8
434.767	2724.11
435.143	2708.97
435.518	2753.71
435.894	2809.76
436.269	2853.15
436.644	2899.02
437.02	2883.88
437.395	2889.3
437.77	2936.98
438.145	3004.33
438.52	3025.12
438.895	3062.63
439.271	3077.09
439.646	3174.27
440.021	3136.3
440.395	3188.96
440.77	3150.31
441.145	3188.96
441.52	3259.91
441.895	3275.73
442.27	3316.64
442.645	3300.14
443.019	3392.57
443.394	3356.63
443.769	3391.66
444.143	3428.5
444.518	3460.81
444.892	3472.79
445.267	3496.52
445.641	3518.21
446.016	3563.86
446.39	3604.76
446.764	3628.27
447.139	3598.66
447.513	3662.39
447.887	3643.41
448.262	3732.9
448.636	3750.3
449.01	3780.8
449.384	3845.66
449.758	3861.25
450.132	3902.16
450.506	3929.73
450.88	3961.59
451.254	3933.34
451.628	4027.35
452.002	4069.84
452.376	4100.57
452.75	4118.65
453.123	4173.79
453.497	4234.8
453.871	4281.13
454.244	4389.83
454.618	4405.19
454.992	4490.16
455.365	4465.98
455.739	4592.31
456.112	4626.66
456.486	4671.63
456.859	4717.96
457.232	4803.6
457.606	4804.28
457.979	4850.83
458.352	5009.47
458.725	5039.98
459.099	5067.55
459.472	5166.08
459.845	5197.26
460.218	5277.04
460.591	5346.41
460.964	5372.63
461.337	5465.73
461.71	5571.04
462.083	5635.9
462.456	5665.5
462.829	5707.08
463.201	5805.38
463.574	5857.36
463.947	5907.75
464.32	6036.56
464.692	6060.07
465.065	6085.38
465.438	6221.19
465.81	6341.42
466.183	6401.3
466.555	6517.23
466.928	6538.02
467.3	6580.5
467.672	6726.04
468.045	6843.77
468.417	6920.38
468.789	6941.4
469.161	7050.32
469.534	7124.67
469.906	7350.43
470.278	7398.56
470.65	7489.63
471.022	7580.03
471.394	7740.93
471.766	7834.71
472.138	7929.4
472.51	8123.06
472.882	8183.63
473.253	8332.55
473.625	8449.83
473.997	8591.75
474.369	8683.27
474.74	8787.23
475.112	8980.22
475.484	9094.34
475.855	9284.84
476.227	9332.07
476.598	9584.95
476.97	9706.3
477.341	9904.03
477.713	10093.41
478.084	10138.6
478.455	10406.85
478.827	10560.51
479.198	10770.9
479.569	10840.28
479.94	11117.33
480.311	11178.58
480.682	11496.08
481.053	11709.64
481.424	11937.43
481.795	12078.89
482.166	12195.5
482.537	12438.66
482.908	12677.97
483.279	12832.54
483.65	13035.02
484.021	13261.23
484.391	13475.69
484.762	13626.65
485.133	13707.1
485.503	13880.2
485.874	14171.94
486.244	14428.43
486.615	14622.78
486.985	14820.74
487.356	15066.38
487.726	15135.53
488.097	15599.7
488.467	15596.99
488.837	15947.26
489.207	16055.06
489.578	16286.69
489.948	16419.34
490.318	16813.23
490.688	16864.3
491.058	17020.91
491.428	17247.34
491.798	17440.33
492.168	17810.04
492.538	17805.29
492.908	18020.88
493.278	18237.15
493.648	18373.87
494.017	18600.53
494.387	18751.26
494.757	18898.6
495.126	19168.2
495.496	19227.4
495.866	19426.72
496.235	19552.37
496.605	19715.75
496.974	19938.57
497.344	20141.28
497.713	20170.88
498.082	20332.01
498.452	20650.19
498.821	20657.2
499.19	20791.88
499.559	20974.7
499.928	21141.03
500.298	21300.8
500.667	21502.6
501.036	21479.1
501.405	21680.9
501.774	21673.67
502.143	21943.26
502.512	22112.3
502.88	22343.93
503.249	22385.97
503.618	22503.25
503.987	22617.15
504.356	22866.86
504.724	22853.98
505.093	23093.52
505.462	23187.3
505.83	23376.22
506.199	23683.78
506.567	23862.08
506.936	23881.52
507.304	24183.66
507.672	24227.72
508.041	24437.21
508.409	24517.89
508.777	24864.09
509.145	25089.62
509.514	24996.97
509.882	25244.87
510.25	25358.99
510.618	25586.56
510.986	25684.86
511.354	25847.34
511.722	26117.84
512.09	26438.51
512.458	26352.41
512.826	26565.74
513.193	26784.04
513.561	26916.02
513.929	27132.28
514.297	27389.68
514.664	27570.46
515.032	27812.26
515.4	28013.39
515.767	28107.4
516.135	28268.07
516.502	28208.41
516.869	28636.2
517.237	28769.75
517.604	28760.03
517.972	29234.82
518.339	29404.99
518.706	29491.54
519.073	29559.34
519.44	29881.14
519.808	30255.36
520.175	30292.42
520.542	30663.04
520.909	30853.99
521.276	30936.47
521.643	31212.85
522.009	31380.3
522.376	31677.02
522.743	31926.51
523.11	32341.64
523.477	32445.36
523.843	32760.38
524.21	33190.43
524.577	33257.77
524.943	33463.64
525.31	33577.99
525.676	34024.76
526.043	34069.95
526.409	34345.65
526.776	34671.97
527.142	34920.32
527.508	35093.2
527.874	35305.85
528.241	35585.17
528.607	35728.89
528.973	35934.31
529.339	35964.37
529.705	36402.55
530.071	36653.39
530.437	36727.96
530.803	37064.9
531.169	37265.57
531.535	37256.53
531.901	37430.09
532.267	37527.26
532.632	37796.41
532.998	38019.9
533.364	38229.39
533.73	38258.09
534.095	38625.76
534.461	38733.78
534.826	38940.56
535.192	39092.19
535.557	39334.67
535.923	39342.13
536.288	39462.13
536.653	39678.39
537.019	39688.33
537.384	39790.71
537.749	40218.94
538.114	40272.05
538.479	40330.58
538.845	40540.74
539.21	40573.74
539.575	40916.33
539.94	40921.97
540.305	41099.15
540.67	41080.39
541.034	41277.22
541.399	41539.59
541.764	41504.78
542.129	41669.75
542.494	41745.91
542.858	42076.29
543.223	42103.86
543.587	42260.47
543.952	42384.76
544.316	42510.41
544.681	42546.56
545.045	42662.49
545.41	43036.27
545.774	43033.56
546.138	43070.84
546.503	43248.92
546.867	43389.71
547.231	43685.97
547.595	43719.19
547.959	43992.4
548.324	43908.34
548.688	44150.82
549.052	44120.99
549.416	44235.56
549.779	44450.92
550.143	44619.73
550.507	44815.88
550.871	44911.25
551.235	44954.19
551.599	45390.78
551.962	45321.18
552.326	45501.52
552.689	45745.8
553.053	45631.23
553.417	45680.04
553.78	46310.08
554.143	46056.08
554.507	46372.45
554.87	46524.54
555.234	46812.44
555.597	46720.92
555.96	46930.18
556.323	47187.57
556.686	47299.66
557.05	47492.88
557.413	47555.47
557.776	47656.26
558.139	47942.13
558.502	48016.03
558.865	48037.04
559.228	48462.57
559.59	48577.37
559.953	48594.54
560.316	48999.5
560.679	48973.06
561.041	49274.75
561.404	49442.88
561.767	49686.26
562.129	49523.78
562.492	49956.31
562.854	49871.12
563.217	50007.16
563.579	50193.6
563.941	50394.49
564.304	50555.17
564.666	50775.95
565.028	50843.97
565.39	50929.4
565.753	51063.63
566.115	51213.68
566.477	51509.27
566.839	51490.06
567.201	51663.16
567.563	51812.54
567.925	51955.58
568.287	52006.43
568.648	51983.15
569.01	52232.41
569.372	52396.02
569.734	52354.44
570.095	52642.8
570.457	52733.64
570.819	52814.54
571.18	52818.84
571.542	52879.63
571.903	52980.41
572.265	53143.35
572.626	53215.21
572.987	53315.1
573.349	53436
573.71	53508.08
574.071	53509.67
574.432	53683.22
574.794	53797.79
575.155	53779.26
575.516	53760.96
575.877	53926.38
576.238	53941.07
576.599	54051.8
576.96	54097
577.32	54210.21
577.681	54262.42
578.042	54343.99
578.403	54245.92
578.763	54278.46
579.124	54436.42
579.485	54480.94
579.845	54581.28
580.206	54547.38
580.566	54570.2
580.927	54602.29
581.287	54725.23
581.648	54595.29
582.008	54677.32
582.368	54645.46
582.728	54735.85
583.089	54698.56
583.449	54678.45
583.809	54757.77
584.169	54765.68
584.529	54722.06
584.889	54867.14
585.249	54787.6
585.609	54635.06
585.969	54854.94
586.329	54739.46
586.688	54808.84
587.048	54812.91
587.408	54722.74
587.768	54805
588.127	54743.31
588.487	54752.35
588.846	54924.54
589.206	54743.76
589.565	54784.44
589.925	54917.09
590.284	54841.83
590.643	54911.66
591.003	54942.85
591.362	54969.97
591.721	54865.79
592.08	54923.64
592.44	54963.41
592.799	55044.54
593.158	54899.69
593.517	54957.54
593.876	55041.83
594.235	55009.97
594.593	55029.85
594.952	55060.36
595.311	54956.86
595.67	55042.51
596.029	55167.93
596.387	55171.32
596.746	55197.98
597.104	55066.24
597.463	55014.26
597.822	55192.56
598.18	55104.2
598.538	55140.58
598.897	55269.62
599.255	55047.48
599.613	55437.07
599.972	55163.18
600.33	55404.53
600.688	55258.1
601.046	55393.46
601.404	55463.51
601.762	55330.64
602.12	55463.97
602.478	55494.7
602.836	55484.3
603.194	55316.4
603.552	55469.39
603.91	55393.01
604.268	55549.61
604.625	55433.68
604.983	55623.06
605.341	55353.46
605.698	55644.3
606.056	55623.51
606.413	55585.77
606.771	55697.41
607.128	55754.81
607.485	55614.47
607.843	55696.05
608.2	55744.64
608.557	55863.5
608.914	55792.77
609.272	55842.03
609.629	55936.5
609.986	56034.35
610.343	55847.68
610.7	56105.3
611.057	56093.78
611.414	56071.86
611.771	56093.1
612.127	56102.59
612.484	56139.2
612.841	56269.82
613.198	56072.76
613.554	56191.63
613.911	56246.77
614.267	56259.42
614.624	56240.67
614.98	56268.69
615.337	56372.19
615.693	56319.08
616.05	56363.15
616.406	56519.3
616.762	56311.4
617.118	56420.1
617.475	56378.97
617.831	56442.24
618.187	56499.64
618.543	56437.27
618.899	56574.22
619.255	56602.47
619.611	56533.77
619.967	56606.76
620.323	56654.44
620.678	56596.59
621.034	56517.05
621.39	56542.36
621.746	56462.81
622.101	56781.9
622.457	56545.74
622.812	56621.22
623.168	56652.41
623.523	56624.39
623.879	56764.72
624.234	56449.93
624.589	56628.68
624.945	56660.32
625.3	56700.77
625.655	56618.51
626.01	56639.53
626.365	56681.56
626.72	56637.27
627.075	56581.9
627.43	56549.36
627.785	56539.64
628.14	56633.65
628.495	56597.49
628.85	56568.8
629.205	56451.96
629.559	56547.33
629.914	56507.1
630.269	56436.82
630.623	56431.4
630.978	56408.8
631.332	56412.64
631.687	56464.39
632.041	56333.1
632.396	56364.05
632.75	56260.33
633.104	56332.64
633.459	56164.29
633.813	56226.43
634.167	56182.82
634.521	56147.56
634.875	56128.13
635.229	56148.47
635.583	55975.59
635.937	55951.41
636.291	55983.05
636.645	55966.78
636.999	55858.98
637.352	55923.61
637.706	55835.71
638.06	55897.17
638.413	55879.55
638.767	55753
639.121	55738.08
639.474	55605.88
639.828	55626
640.181	55673.9
640.534	55665.77
640.888	55507.35
641.241	55433.23
641.594	55447.69
641.947	55597.52
642.301	55487.47
642.654	55456.96
643.007	55435.04
643.36	55355.72
643.713	55317.98
644.066	55402.95
644.419	55163.18
644.771	55036.18
645.124	54719.8
645.477	54635.51
645.83	54544.89
646.182	54446.37
646.535	54377.44
646.888	54404.56
647.24	54205.47
647.593	54272.13
647.945	54367.95
648.298	54145.36
648.65	54088.41
649.002	54020.61
649.355	54034.62
649.707	53983.1
650.059	54202.53
650.411	54472.58
650.763	54561.62
651.115	54782.63
651.467	54624.44
651.819	54613.82
652.171	54561.84
652.523	54459.92
652.875	54476.65
653.227	54360.04
653.578	54505.8
653.93	54424.44
654.282	54327.72
654.633	54245.69
654.985	54346.71
655.337	54361.17
655.688	54262.64
656.039	54414.95
656.391	54103.78
656.742	54214.51
657.094	54120.27
657.445	54261.74
657.796	54094.28
658.147	54062.42
658.498	54119.37
658.849	54105.58
659.2	53992.37
659.551	53971.35
659.902	54125.92
660.253	54023.1
660.604	54023.78
660.955	53896.32
661.306	54053.16
661.656	53901.29
662.007	53925.25
662.358	53854.29
662.708	53888.41
663.059	53874.4
663.409	53674.41
663.76	53868.53
664.11	53864.69
664.461	53843.44
664.811	53797.12
665.161	53716.89
665.511	53672.37
665.862	53669.66
666.212	53779.04
666.562	53751.47
666.912	53720.73
667.262	53659.49
667.612	53614.97
667.962	53626.27
668.312	53566.16
668.662	53692.71
669.011	53588.99
669.361	53582.43
669.711	53481.64
670.06	53481.64
670.41	53391.03
670.76	53329.56
671.109	53470.8
671.459	53388.54
671.808	53363.46
672.157	53418.37
672.507	53149.9
672.856	53273.74
673.205	53337.69
673.554	53323
673.904	53136.57
674.253	53439.16
674.602	53221.76
674.951	52825.16
675.3	52578.17
675.649	53043.69
675.998	53070.13
676.346	53086.63
676.695	53208.88
677.044	52898.61
677.393	52998.95
677.741	53018.61
678.09	52932.28
678.438	52817.03
678.787	52928.44
679.135	52966.18
679.484	52682.57
679.832	52744.49
680.181	52610.26
680.529	52684.15
680.877	52601.89
681.225	52527.55
681.573	52706.75
681.922	52457.72
682.27	52404.16
682.618	52347.66
682.966	52312.86
683.314	52334.1
683.661	52220.21
684.009	52077.39
684.357	52038.29
684.705	51994.9
685.053	52018.18
685.4	51973.44
685.748	51838.98
686.095	51763.95
686.443	51550.62
686.79	51569.38
687.138	51655.93
687.485	51598.3
687.832	51366.22
688.18	51434.01
688.527	51309.72
688.874	51370.97
689.221	51113.35
689.568	51063.63
689.915	50921.71
690.262	50981.15
690.609	50833.8
690.956	50676.75
691.303	50638.33
691.65	50549.74
691.997	50476.75
692.344	50321.28
692.69	50328.28
693.037	50155.86
693.383	50067.05
693.73	50121.51
694.077	49892.36
694.423	49857.56
694.769	49808.97
695.116	49602.2
695.462	49625.7
695.808	49399.94
696.155	49495.08
696.501	49166.5
696.847	49209.89
697.193	48906.62
697.539	49101.65
697.885	48748.89
698.231	48750.7
698.577	48730.13
698.923	48620.08
699.269	48470.02
699.614	48219.64
699.96	48262.57
700.306	48212.18
700.651	48096.93
700.997	47922.69
701.342	47924.5
701.688	47689.25
702.033	47796.14
702.379	47708.92
702.724	47439.32
703.069	47494.91
703.415	47128.82
703.76	47249.04
704.105	47186.22
704.45	46946.45
704.795	46816.51
705.14	46712.78
705.485	46684.54
705.83	46411.55
706.175	46392.11
706.52	46315.73
706.865	46237.09
707.209	46260.82
707.554	45995.29
707.899	46030.32
708.243	45899.7
708.588	45749.87
708.932	45554.85
709.277	45480.5
709.621	45522.08
709.966	45319.15
710.31	45262.2
710.654	44893.62
710.998	45067.63
711.342	45000.96
711.687	44983.79
712.031	44751.7
712.375	44630.35
712.719	44717.81
713.063	44566.85
713.407	44701.31
713.75	44291.6
714.094	44266.07
714.438	44221.32
714.782	44304.71
715.125	44011.16
715.469	44032.63
715.812	43823.59
716.156	43628.34
716.499	43707.89
716.843	43749.25
717.186	43439.42
717.53	43507.44
717.873	43677.61
718.216	43371.85
718.559	43356.04
718.902	43051.18
719.246	43114.69
719.589	42992.88
719.932	42712.66
720.275	42735.03
720.617	42756.05
720.96	42727.13
721.303	42726.67
721.646	42604.87
721.989	42328.49
722.331	42522.84
722.674	42417.08
723.016	42344.54
723.359	42246.91
723.701	42277.87
724.044	41984.32
724.386	41820.71
724.729	42077.2
725.071	41823.42
725.413	41859.13
725.755	41745.23
726.097	41462.98
726.439	41448.06
726.782	41363.09
727.124	41657.55
727.465	41217.56
727.807	41237.45
728.149	41101.41
728.491	41141.18
728.833	41140.95
729.175	41075.87
729.516	40750.23
729.858	40820.28
730.199	40787.52
730.541	40632.49
730.882	40712.94
731.224	40602.44
731.565	40441.54
731.906	40543.23
732.248	40552.27
732.589	40249.9
732.93	40166.29
733.271	40247.42
733.612	40190.02
733.953	40281.77
734.294	40023.69
734.635	39930.14
734.976	40033.41
735.317	39772.63
735.658	39813.98
735.999	39691.27
736.339	39621.9
736.68	39668.9
737.021	39500.54
737.361	39353.88
737.702	39554.78
738.042	39390.49
738.383	39344.39
738.723	39250.83
739.063	39018.07
739.404	39051.06
739.744	39107.79
740.084	38931.07
740.424	38965.87
740.764	38760.9
741.104	38895.14
741.444	38843.61
741.784	38599.78
742.124	38762.03
742.464	38636.16
742.804	38571.53
743.143	38620.57
743.483	38369.27
743.823	38248.37
744.162	38231.88
744.502	38303.29
744.841	38033.46
745.181	38135.83
745.52	38109.62
745.86	38018.1
746.199	37896.29
746.538	37796.63
746.877	37817.88
747.216	37824.88
747.556	37778.78
747.895	37600.71
748.234	37511.67
748.573	37485.91
748.911	37537.43
749.25	37390.99
749.589	37166.82
749.928	37231.22
750.267	37390.54
750.605	37250.21
750.944	37075.07
751.283	36824.91
751.621	36969.99
751.96	36712.37
752.298	36780.84
752.636	36630.79
752.975	36523.22
753.313	36464.24
753.651	36579.04
753.989	36243.45
754.327	36242.78
754.666	36017.7
755.004	36087.07
755.342	36003.01
755.679	35921.88
756.017	35741.55
756.355	35869
756.693	35515.11
757.031	35674.2
757.368	35390.59
757.706	35258.85
758.044	35279.86
758.381	35289.35
758.719	34926.88
759.056	35044.16
759.394	34937.27
759.731	34728.01
760.068	34669.71
760.405	34562.14
760.743	34396.27
761.08	34520.11
761.417	34225.65
761.754	34184.98
762.091	34125.77
762.428	33967.13
762.765	33826.34
763.102	33963.97
763.438	33709.28
763.775	33560.59
764.112	33578.44
764.449	33597.42
764.785	33293.02
765.122	33205.57
765.458	33062.07
765.795	33008.06
766.131	32943.2
766.467	32837.44
766.804	32618.92
767.14	32573.72
767.476	32454.17
767.812	32423.67
768.148	32305.25
768.485	32166.95
768.821	31980.52
769.157	31911.36
769.492	31875.21
769.828	31916.11
770.164	31544.82
770.5	31359.29
770.836	31389.34
771.171	31182.57
771.507	31165.4
771.842	30950.49
772.178	31009.02
772.513	30921.79
772.849	30809.92
773.184	30621.91
773.519	30628.23
773.855	30435.92
774.19	30273.67
774.525	30202.48
774.86	30129.04
775.195	30044.07
775.53	29942.83
775.865	29779.44
776.2	29632.55
776.535	29537.64
776.87	29405.22
777.205	29404.76
777.539	29227.37
777.874	29259.68
778.209	28992.57
778.543	28978.56
778.878	28641.62
779.212	28666.03
779.547	28585.58
779.881	28581.51
780.215	28459.48
780.55	28477.78
780.884	28140.62
781.218	28234.17
781.552	28213.83
781.886	27933.39
782.22	27905.37
782.554	27791.92
782.888	27535.43
783.222	27412.5
783.556	27274.65
783.889	27217.7
784.223	27074.66
784.557	27044.83
784.89	26935.22
785.224	26929.57
785.557	26802.57
785.891	26730.48
786.224	26517.61
786.558	26537.04
786.891	26345.86
787.224	26310.83
787.557	26180.22
787.891	26241.46
788.224	26031.74
788.557	26014.57
788.89	25934.35
789.223	25803.05
789.556	25577.52
789.888	25491.65
790.221	25562.6
790.554	25263.4
790.887	25269.28
791.219	25213.01
791.552	25275.15
791.884	25016.18
792.217	24962.62
792.549	24821.16
792.882	24700.03
793.214	24569.41
793.546	24675.85
793.879	24328.29
794.211	24370.55
794.543	24411.45
794.875	24292.13
795.207	24281.51
795.539	24068.86
795.871	24058.46
796.203	23945.47
796.535	23759.49
796.867	23819.6
797.198	23809.88
797.53	23738.7
797.862	23404.7
798.193	23511.36
798.525	23419.38
798.856	23363.11
799.188	23119.05
799.519	23193.63
799.85	23000.41
800.182	23036.12
800.513	23007.87
800.844	22770.36
801.175	22967.87
801.506	22884.93
801.837	22700.99
802.168	22691.95
802.499	22568.11
802.83	22383.71
803.161	22420.31
803.491	22345.97
803.822	22341.45
804.153	22303.03
804.483	22160.89
804.814	22069.14
805.145	21898.29
805.475	21926.99
805.805	21879.54
806.136	21821.46
806.466	21774.91
806.796	21754.34
807.126	21574.46
807.457	21517.06
807.787	21518.64
808.117	21421.47
808.447	21397.52
808.777	21441.36
809.107	21287.46
809.436	21109.39
809.766	21265.09
810.096	21092.89
810.426	21033.68
810.755	21067.36
811.085	20912.78
811.414	20771.77
811.744	20736.97
812.073	20715.27
812.403	20733.81
812.732	20630.76
813.061	20649.74
813.39	20493.59
813.719	20374.49
814.049	20397.32
814.378	20349.63
814.707	20270.09
815.036	20247.94
815.365	20125.01
815.693	20051.79
816.022	20082.3
816.351	19959.14
816.68	19771.57
817.008	19915.52
817.337	19748.97
817.665	19714.17
817.994	19777.9
818.322	19753.04
818.651	19661.29
818.979	19534.51
819.307	19664.23
819.636	19610.9
819.964	19388.98
820.292	19515.08
820.62	19400.96
820.948	19374.97
821.276	19446.61
821.604	19296.55
821.932	19451.8
822.259	19386.95
822.587	19398.02
822.915	19337.46
823.243	19373.39
823.57	19326.16
823.898	19307.63
824.225	19182.43
824.553	19219.95
824.88	19243
825.207	19395.99
825.535	19310.34
825.862	19348.76
826.189	19275.31
826.516	19377
826.843	19346.27
827.17	19345.14
827.497	19318.93
827.824	19272.6
828.151	19395.31
828.478	19227.86
828.805	19304.01
829.131	19239.83
829.458	19199.61
829.785	19069.22
830.111	19164.35
830.438	19256.1
830.764	19216.33
831.09	19296.78
831.417	19007.75
831.743	19150.8
832.069	19107.41
832.395	19051.14
832.722	19116.9
833.048	19007.07
833.374	19081.19
833.7	19001.42
834.026	19064.24
834.351	19070.57
834.677	18962.55
835.003	18990.8
835.329	18970.91
835.654	18928.65
835.98	18734.31
836.306	18882.33
836.631	18854.98
836.956	18898.37
837.282	18777.02
837.607	18732.28
837.932	18677.36
838.258	18612.05
838.583	18668.32
838.908	18648.21
839.233	18507.65
839.558	18566.86
839.883	18492.73
840.208	18457.48
840.533	18426.07
840.858	18318.95
841.182	18409.8
841.507	18307.2
841.832	18234.66
842.156	18165.74
842.481	18209.58
842.805	18184.04
843.13	18070.37
843.454	18084.61
843.778	17980.21
844.103	17938.17
844.427	17952.64
844.751	17924.39
845.075	17878.96
845.399	17820.21
845.723	17770.27
846.047	17759.87
846.371	17608.69
846.695	17639.65
847.019	17401.69
847.343	17339.77
847.666	17340.9
847.99	17189.04
848.313	17201.24
848.637	17110.62
848.96	17110.4
849.284	17051.42
849.607	16943.4
849.931	16813.68
850.254	16763.06
850.577	16636.29
850.9	16491.43
851.223	16495.27
851.546	16399.23
851.869	16276.97
852.192	16416.86
852.515	16213.47
852.838	16246.01
853.161	16111.1
853.483	16022.74
853.806	15982.52
854.129	15913.59
854.451	15947.72
854.774	15885.35
855.096	15862.97
855.419	15779.36
855.741	15695.75
856.063	15606.93
856.385	15599.93
856.708	15550.44
857.03	15527.16
857.352	15508.86
857.674	15498.24
857.996	15375.53
858.318	15329.2
858.64	15371.23
858.961	15259.15
859.283	15194.52
859.605	15143.22
859.926	15195.87
860.248	15091.92
860.57	15121.52
860.891	15021.19
861.212	14964.24
861.534	14916.33
861.855	14880.17
862.176	14841.3
862.498	14926.5
862.819	14901.64
863.14	14815.32
863.461	14757.69
863.782	14779.16
864.103	14725.83
864.424	14583.46
864.745	14698.71
865.065	14594.31
865.386	14597.92
865.707	14463.46
866.027	14589.33
866.348	14477.02
866.668	14469.56
866.989	14415.1
867.309	14311.15
867.63	14388.89
867.95	14356.12
868.27	14277.48
868.59	14322.45
868.91	14296.69
869.23	14282.22
869.55	14164.49
869.87	14222.79
870.19	14212.39
870.51	14082.23
870.83	14165.62
871.15	14079.29
871.469	14008.56
871.789	14134.43
872.109	14032.74
872.428	13969.46
872.748	14090.36
873.067	14031.38
873.386	13971.5
873.706	13950.71
874.025	13967.43
874.344	13849.24
874.663	13813.76
874.982	13822.35
875.301	13809.24
875.62	13738.96
875.939	13684.05
876.258	13761.33
876.577	13738.28
876.896	13602.24
877.214	13583.71
877.533	13624.16
877.852	13562.92
878.17	13654.22
878.489	13616.03
878.807	13649.47
879.125	13571.28
879.444	13571.51
879.762	13452.19
880.08	13451.51
880.398	13346.88
880.716	13464.17
881.034	13343.26
881.352	13386.2
881.67	13343.04
881.988	13275.7
882.306	13322.47
882.624	13247
882.941	13200.67
883.259	13116.6
883.577	13049.04
883.894	13106.66
884.212	13094.46
884.529	13091.52
884.846	13002.26
885.164	13039.77
885.481	12907.8
885.798	12926.55
886.115	12911.64
886.432	12815.37
886.75	12837.97
887.067	12851.75
887.383	12731.08
887.7	12712.77
888.017	12575.83
888.334	12646.11
888.651	12584.64
888.967	12622.83
889.284	12545.77
889.6	12502.61
889.917	12407.02
890.233	12391.88
890.55	12308.04
890.866	12450.86
891.182	12322.95
891.498	12254.25
891.815	12276.4
892.131	12206.35
892.447	12219.23
892.763	12133.35
893.079	12056.07
893.395	12014.03
893.71	12065.33
894.026	12044.77
894.342	11974.71
894.657	11916.18
894.973	12003.64
895.289	11925.68
895.604	11868.05
895.92	11813.59
896.235	11764.32
896.55	11756.87
896.865	11642.52
897.181	11635.74
897.496	11612.24
897.811	11564.1
898.126	11459.47
898.441	11480.49
898.756	11414.5
899.071	11381.51
899.386	11416.08
899.7	11284.56
900.015	11257.9
900.33	11153.27
900.644	11243.89
900.959	11185.81
901.273	11108.97
901.588	11107.62
901.902	10980.62
902.216	10954.63
902.531	10939.26
902.845	10850.68
903.159	10849.55
903.473	10813.39
903.787	10713.28
904.101	10675.31
904.415	10685.93
904.729	10572.72
905.042	10598.25
905.356	10607.52
905.67	10473.96
905.984	10539.27
906.297	10443.91
906.611	10362.1
906.924	10369.33
907.237	10378.37
907.551	10320.75
907.864	10218.83
908.177	10256.11
908.491	10152.39
908.804	10132.73
909.117	10094.54
909.43	9975.22
909.743	9986.07
910.056	9972.05
910.368	9868.1
910.681	9864.26
910.994	9885.28
911.307	9742.23
911.619	9687.09
911.932	9815.67
912.244	9595.57
912.557	9624.49
912.869	9533.65
913.181	9584.49
913.494	9530.48
913.806	9506.3
914.118	9461.11
914.43	9353.31
914.742	9426.31
915.054	9311.28
915.366	9274.22
915.678	9206.88
915.99	9218.63
916.302	9151.06
916.613	9088.91
916.925	9089.14
917.236	9034.45
917.548	9020.21
917.859	9019.99
918.171	8937.51
918.482	8809.37
918.794	8776.83
919.105	8841.24
919.416	8751.3
919.727	8758.3
920.038	8743.61
920.349	8668.36
920.66	8649.6
920.971	8591.07
921.282	8587.46
921.593	8515.14
921.903	8478.76
922.214	8459.55
922.525	8433.56
922.835	8321.25
923.146	8369.84
923.456	8302.72
923.767	8258.2
924.077	8255.72
924.387	8271.99
924.697	8135.04
925.008	8131.65
925.318	8123.97
925.628	8064.99
925.938	8036.51
926.248	7920.58
926.558	7904.54
926.867	7937.98
927.177	7912
927.487	7790.42
927.796	7721.72
928.106	7768.5
928.416	7712.23
928.725	7701.38
929.034	7676.3
929.344	7648.95
929.653	7611.44
929.962	7545.9
930.271	7526.47
930.581	7474.04
930.89	7461.84
931.199	7404.66
931.508	7382.74
931.817	7379.13
932.125	7330.77
932.434	7270.43
932.743	7320.82
933.051	7202.18
933.36	7211.22
933.669	7164.22
933.977	7129.42
934.286	7107.04
934.594	7091.23
934.902	7058.68
935.21	7012.81
935.519	6978.46
935.827	6975.75
936.135	6911.12
936.443	6860.05
936.751	6796.54
937.059	6821.63
937.367	6787.73
937.674	6812.59
937.982	6756.77
938.29	6737.56
938.597	6686.94
938.905	6584.12
939.213	6617.57
939.52	6575.76
939.827	6566.49
940.135	6524.69
940.442	6538.92
940.749	6493.05
941.056	6493.73
941.363	6392.04
941.67	6416.89
941.977	6335.09
942.284	6340.96
942.591	6326.5
942.898	6208.31
943.205	6240.85
943.511	6182.78
943.818	6213.73
944.125	6141.42
944.431	6133.06
944.738	6147.52
945.044	6137.35
945.35	6025.72
945.657	6017.58
945.963	5929.67
946.269	5959.73
946.575	5949.34
946.881	5919.28
947.187	5861.88
947.493	5846.51
947.799	5830.24
948.105	5777.14
948.41	5762.45
948.716	5757.25
949.022	5722.45
949.327	5710.25
949.633	5688.78
949.938	5644.94
950.244	5637.03
950.549	5584.6
950.854	5597.71
951.16	5550.7
951.465	5548.22
951.77	5495.56
952.075	5470.03
952.38	5442.46
952.685	5403.59
952.99	5364.49
953.294	5381.21
953.599	5358.16
953.904	5347.09
954.209	5306.41
954.513	5310.71
954.818	5286.53
955.122	5280.88
955.426	5223.7
955.731	5158.85
956.035	5192.07
956.339	5132.86
956.643	5150.03
956.948	5101.9
957.252	5098.96
957.556	5007.21
957.86	5047.66
958.163	5028.46
958.467	5005.63
958.771	4988.68
959.075	4983.94
959.378	4940.77
959.682	4901.45
959.985	4872.53
960.289	4881.11
960.592	4869.36
960.896	4832.75
961.199	4814.45
961.502	4766.09
961.805	4744.62
962.108	4666.43
962.411	4657.39
962.714	4649.26
963.017	4652.65
963.32	4660.1
963.623	4642.48
963.926	4631.86
964.228	4630.5
964.531	4586.21
964.833	4497.17
965.136	4576.49
965.438	4514.57
965.741	4449.94
966.043	4453.1
966.345	4435.7
966.648	4405.19
966.95	4411.75
967.252	4367.46
967.554	4418.08
967.856	4319.32
968.158	4293.11
968.46	4324.97
968.761	4309.38
969.063	4289.94
969.365	4247.23
969.666	4239.32
969.968	4232.77
970.269	4202.04
970.571	4163.62
970.872	4149.38
971.174	4093.79
971.475	4056.5
971.776	4083.85
972.077	4065.32
972.378	4051.31
972.679	4018.09
972.98	4034.58
973.281	3986
973.582	3978.09
973.883	3990.97
974.183	3926.11
974.484	3922.5
974.785	3903.51
975.085	3924.53
975.386	3880.24
975.686	3892.44
975.986	3793.91
976.287	3871.2
976.587	3783.29
976.887	3780.8
977.187	3773.35
977.487	3759.34
977.787	3727.7
978.087	3756.85
978.387	3681.37
978.687	3694.48
978.987	3639.11
979.286	3640.02
979.586	3654.71
979.885	3577.19
980.185	3583.97
980.484	3551.88
980.784	3564.09
981.083	3589.62
981.382	3567.25
981.682	3553.69
981.981	3513.47
982.28	3510.3
982.579	3487.93
982.878	3438.21
983.177	3434.82
983.475	3463.07
983.774	3408.61
984.073	3395.28
984.372	3353.92
984.67	3363.41
984.969	3360.7
985.267	3343.98
985.566	3314.15
985.864	3295.62
986.162	3288.16
986.461	3290.42
986.759	3213.14
987.057	3259.46
987.355	3246.13
987.653	3246.81
987.951	3201.38
988.249	3190.09
988.547	3167.26
988.844	3155.74
989.142	3120.71
989.44	3090.88
989.737	3113.25
990.035	3110.09
990.332	3099.47
990.63	3019.02
990.927	3075.06
991.224	3014.72
991.521	3005.01
991.819	3025.57
992.116	2978.11
992.413	2964.55
992.71	2950.77
993.006	2993.25
993.303	2945.8
993.6	2925.01
993.897	2922.97
994.193	2894.27
994.49	2906.03
994.787	2858.34
995.083	2846.59
995.379	2808.17
995.676	2809.3
995.972	2816.76
996.268	2776.54
996.565	2777.22
996.861	2743.54
997.157	2741.96
997.453	2714.39
997.749	2686.82
998.044	2710.1
998.34	2661.96
998.636	2695.18
998.932	2686.37
999.227	2667.39
999.523	2653.38
999.818	2634.39
1000.114	2597.56
1000.409	2569.76
1000.704	2567.28
1001	2558.69
1001.295	2544.68
1001.59	2563.89
1001.885	2527.28
1002.18	2510.56
1002.475	2478.69
1002.77	2488.18
1003.065	2478.69
1003.359	2434.85
1003.654	2464.91
1003.949	2411.35
1004.243	2397.11
1004.538	2375.42
1004.832	2387.39
1005.127	2385.81
1005.421	2338.81
1005.715	2344.91
1006.009	2313.5
1006.304	2323.22
1006.598	2273.27
1006.892	2270.79
1007.186	2262.43
1007.48	2267.62
1007.773	2242.54
1008.067	2207.29
1008.361	2189.66
1008.655	2166.61
1008.948	2192.37
1009.242	2172.49
1009.535	2122.77
1009.829	2134.29
1010.122	2154.86
1010.415	2132.49
1010.708	2106.5
1011.001	2109.44
1011.295	2069.66
1011.588	2052.49
1011.881	2055.65
1012.173	2079.61
1012.466	2055.2
1012.759	2042.32
1013.052	2016.11
1013.344	1979.04
1013.637	2004.81
1013.93	1978.14
1014.222	1962.32
1014.514	1936.33
1014.807	1927.52
1015.099	1972.94
1015.391	1901.98
1015.683	1890.68
1015.976	1890.23
1016.268	1895.88
1016.56	1854.98
1016.851	1835.77
1017.143	1847.07
1017.435	1846.17
1017.727	1844.13
1018.018	1804.59
1018.31	1797.58
1018.602	1784.92
1018.893	1792.61
1019.185	1777.47
1019.476	1750.35
1019.767	1749.9
1020.058	1722.55
1020.35	1709.9
1020.641	1695.44
1020.932	1684.81
1021.223	1678.71
1021.514	1677.58
1021.804	1656.11
1022.095	1631.93
1022.386	1633.52
1022.677	1602.1
1022.967	1624.93
1023.258	1608.88
1023.548	1578.38
1023.839	1588.55
1024.129	1578.6
1024.419	1532.28
1024.709	1559.62
1025	1550.81
1025.29	1524.82
1025.58	1523.46
1025.87	1537.93
1026.16	1506.74
1026.449	1508.55
1026.739	1478.72
1027.029	1459.28
1027.319	1465.61
1027.608	1444.14
1027.898	1446.63
1028.187	1430.81
1028.477	1414.54
1028.766	1403.69
1029.055	1381.55
1029.344	1398.27
1029.634	1367.99
1029.923	1410.92
1030.212	1393.75
1030.501	1333.86
1030.79	1335.67
1031.078	1318.95
1031.367	1328.67
1031.656	1313.3
1031.945	1312.62
1032.233	1294.32
1032.522	1287.76
1032.81	1277.37
1033.099	1269.23
1033.387	1247.09
1033.675	1241.66
1033.963	1238.72
1034.251	1238.05
1034.54	1216.35
1034.828	1236.92
1035.116	1202.79
1035.403	1201.89
1035.691	1181.1
1035.979	1186.07
1036.267	1156.69
1036.554	1156.69
1036.842	1146.98
1037.129	1152.85
1037.417	1126.64
1037.704	1132.51
1037.992	1139.29
1038.279	1142.23
1038.566	1132.74
1038.853	1132.74
1039.14	1132.74
