Data from whiteboard_FLMS001491_00094.txt Node
Date: Wed Feb 08 11:28:44 GMT 2017
User: dcchb
Spectrometer: FLMS00149
Trigger mode: 0
Integration Time (sec): 2.000000E-2
Scans to average: 10
Electric dark correction enabled: true
Nonlinearity correction enabled: false
Boxcar width: 0
XAxis mode: Wavelengths
Number of Pixels in Spectrum: 2048
>>>>>Begin Spectral Data<<<<<
341.393	-12.95
341.776	-12.95
342.16	-12.95
342.543	-50.24
342.927	-61.09
343.31	-70.8
343.693	-54.31
344.077	-81.42
344.46	-47.53
344.843	-45.04
345.226	-45.27
345.61	-36.91
345.993	-15.66
346.376	-6.85
346.759	-2.56
347.142	29.99
347.525	28.4
347.908	57.1
348.291	81.74
348.674	88.51
349.057	120.6
349.44	131
349.823	144.78
350.206	159.7
350.588	216.42
350.971	228.4
351.354	254.61
351.737	262.75
352.119	286.48
352.502	300.03
352.884	298.45
353.267	318.79
353.65	309.53
354.032	351.78
354.414	347.04
354.797	338
355.179	333.93
355.562	351.11
355.944	379.13
356.326	373.7
356.709	368.96
357.091	367.83
357.473	375.29
357.855	372.8
358.238	363.54
358.62	380.26
359.002	375.96
359.384	390.43
359.766	369.19
360.148	378.45
360.53	383.42
360.912	373.03
361.294	385.46
361.676	350.43
362.057	375.06
362.439	384.1
362.821	381.61
363.203	356.08
363.584	360.82
363.966	354.72
364.348	342.97
364.729	371.45
365.111	360.82
365.493	351.11
365.874	353.14
366.256	346.81
366.637	365.8
367.019	361.95
367.4	377.32
367.781	351.78
368.163	361.28
368.544	343.65
368.925	360.82
369.306	380.71
369.688	358.11
370.069	352.91
370.45	381.16
370.831	368.28
371.212	352.91
371.593	381.39
371.974	373.48
372.355	367.6
372.736	386.81
373.117	367.6
373.498	371.67
373.879	368.28
374.26	365.34
374.641	359.69
375.021	376.19
375.402	393.37
375.783	387.04
376.163	395.85
376.544	391.56
376.925	374.38
377.305	395.85
377.686	407.15
378.066	408.96
378.447	396.53
378.827	427.94
379.208	418.68
379.588	401.73
379.968	422.29
380.349	401.05
380.729	415.96
381.109	412.12
381.489	415.74
381.87	400.37
382.25	436.98
382.63	425.68
383.01	443.08
383.39	440.82
383.77	442.86
384.15	460.71
384.53	462.97
384.91	440.6
385.29	444.21
385.67	456.87
386.049	462.52
386.429	461.16
386.809	457.09
387.189	485.79
387.568	467.49
387.948	467.04
388.328	484.21
388.707	480.37
389.087	480.59
389.466	505.45
389.846	500.48
390.225	514.49
390.605	507.03
390.984	502.06
391.363	525.79
391.743	524.89
392.122	547.71
392.501	540.48
392.881	535.51
393.26	545.9
393.639	580.03
394.018	556.52
394.397	568.28
394.776	586.35
395.155	584.55
395.534	581.38
395.913	610.08
396.292	619.57
396.671	644.66
397.05	638.78
397.429	624.55
397.808	661.61
398.186	654.15
398.565	688.72
398.944	663.19
399.323	697.99
399.701	697.76
400.08	701.61
400.458	722.17
400.837	746.8
401.215	756.29
401.594	751.1
401.972	793.35
402.351	787.03
402.729	792.45
403.107	782.28
403.486	812.56
403.864	798.55
404.242	835.39
404.62	865.67
404.999	855.5
405.377	875.16
405.755	916.97
406.133	920.36
406.511	934.59
406.889	953.12
407.267	960.58
407.645	991.54
408.023	1026.8
408.401	1021.82
408.779	1055.95
409.156	1078.55
409.534	1067.92
409.912	1093.69
410.29	1150.18
410.667	1138.88
411.045	1157.64
411.422	1187.47
411.8	1185.21
412.178	1224.98
412.555	1285.55
412.933	1293.23
413.31	1306.56
413.687	1333.23
414.065	1356.96
414.442	1335.26
414.819	1398.08
415.197	1385.66
415.574	1437.18
415.951	1455.26
416.328	1484.64
416.705	1502.94
417.082	1501.58
417.46	1535.48
417.837	1556.5
418.214	1553.11
418.591	1608.25
418.967	1594.01
419.344	1640.79
419.721	1668.36
420.098	1661.13
420.475	1679.89
420.852	1720.56
421.228	1704.74
421.605	1752.88
421.982	1779.09
422.358	1779.32
422.735	1842.82
423.111	1849.6
423.488	1887.56
423.864	1854.12
424.241	1909.71
424.617	1910.84
424.994	1964.85
425.37	1960.78
425.746	1992.87
426.123	2020.44
426.499	2001.23
426.875	2056.82
427.251	2078.52
427.627	2138.18
428.003	2138.63
428.379	2160.55
428.756	2205.3
429.132	2248.23
429.507	2269.93
429.883	2299.76
430.259	2398.74
430.635	2353.77
431.011	2400.32
431.387	2494.33
431.763	2487.77
432.138	2548.56
432.514	2534.55
432.89	2595.34
433.265	2639.86
433.641	2699.97
434.016	2684.83
434.392	2757.37
434.767	2780.65
435.143	2796.01
435.518	2821.78
435.894	2877.14
436.269	2887.99
436.644	2970.92
437.02	2967.31
437.395	2960.98
437.77	3029
438.145	3116.68
438.52	3061.09
438.895	3119.17
439.271	3171.6
439.646	3219.05
440.021	3252.5
440.395	3261.76
440.77	3249.11
441.145	3277.58
441.52	3337.69
441.895	3324.14
442.27	3414.08
442.645	3401.87
443.019	3450.91
443.394	3475.54
443.769	3526.39
444.143	3537.69
444.518	3564.81
444.892	3550.57
445.267	3576.56
445.641	3648.42
446.016	3661.53
446.39	3720.74
446.764	3666.95
447.139	3662.43
447.513	3779.04
447.887	3761.86
448.262	3800.51
448.636	3800.73
449.01	3860.84
449.384	3911.46
449.758	3892.71
450.132	3939.71
450.506	3981.75
450.88	3994.85
451.254	4031.69
451.628	4117.79
452.002	4129.76
452.376	4202.3
452.75	4210.67
453.123	4191.23
453.497	4324.79
453.871	4372.24
454.244	4459.7
454.618	4512.81
454.992	4552.58
455.365	4579.24
455.739	4728.84
456.112	4772.69
456.486	4744.89
456.859	4828.28
457.232	4934.04
457.606	4942.85
457.979	4993.47
458.352	5055.39
458.725	5112.79
459.099	5176.29
459.472	5302.16
459.845	5357.08
460.218	5374.03
460.591	5424.19
460.964	5450.41
461.337	5645.88
461.71	5748.48
462.083	5760.91
462.456	5776.95
462.829	5803.62
463.201	5938.3
463.574	5919.55
463.947	6059.88
464.32	6165.19
464.692	6219.2
465.065	6266.88
465.438	6354.11
465.81	6488.35
466.183	6536.48
466.555	6658.96
466.928	6721.56
467.3	6774.21
467.672	6817.38
468.045	7027.32
468.417	7002.91
468.789	7070.93
469.161	7192.73
469.534	7295.33
469.906	7531.26
470.278	7564.02
470.65	7628.2
471.022	7745.71
471.394	7928.53
471.766	8013.5
472.138	8142.99
472.51	8292.14
472.882	8443.1
473.253	8401.52
473.625	8621.17
473.997	8805.8
474.369	8830.21
474.74	8912.01
475.112	9126.47
475.484	9248.95
475.855	9396.97
476.227	9480.13
476.598	9813.46
476.97	9830.63
477.341	10142.49
477.713	10169.61
478.084	10248.47
478.455	10605.98
478.827	10668.35
479.198	10972.52
479.569	10980.21
479.94	11245.96
480.311	11391.27
480.682	11691.15
481.053	11918.49
481.424	12075.09
481.795	12248.19
482.166	12484.8
482.537	12620.84
482.908	12869.42
483.279	13018.57
483.65	13229.19
484.021	13515.05
484.391	13726.35
484.762	13760.02
485.133	13955.49
485.503	14181.48
485.874	14489.04
486.244	14627.12
486.615	14914.11
486.985	15061.91
487.356	15351.39
487.726	15476.58
488.097	15832.73
488.467	15770.14
488.837	16211.03
489.207	16348.88
489.578	16550.45
489.948	16741.86
490.318	16901.18
490.688	16974.62
491.058	17254.39
491.428	17449.87
491.798	17661.39
492.168	17943.19
492.538	18053.24
492.908	18246.91
493.278	18537.97
493.648	18516.5
494.017	18765.09
494.387	18896.61
494.757	19159.65
495.126	19283.72
495.496	19365.52
495.866	19572.07
496.235	19802.57
496.605	19982.45
496.974	20139.51
497.344	20423.8
497.713	20440.3
498.082	20729.55
498.452	20854.52
498.821	20975.42
499.19	20989.66
499.559	21244.57
499.928	21507.39
500.298	21602.53
500.667	21758
501.036	21742.41
501.405	21982.63
501.774	22033.25
502.143	22290.19
502.512	22311.89
502.88	22692.67
503.249	22600.69
503.618	22727.69
503.987	22972.21
504.356	22952.09
504.724	23123.39
505.093	23267.79
505.462	23337.39
505.83	23581.23
506.199	23700.32
506.567	23957.27
506.936	23870.94
507.304	24155.9
507.672	24295.34
508.041	24466.18
508.409	24603.12
508.777	24722.44
509.145	24882.89
509.514	24884.25
509.882	25209.66
510.25	25385.93
510.618	25494.63
510.986	25626.83
511.354	25902.53
511.722	26108.17
512.09	26406.24
512.458	26495.28
512.826	26698.66
513.193	26825.44
513.561	26998.77
513.929	27386.33
514.297	27444.18
514.664	27735.92
515.032	27861.34
515.4	28091.85
515.767	28227.44
516.135	28405.51
516.502	28324.38
516.869	28785.16
517.237	28964.59
517.604	29082.55
517.972	29341.08
518.339	29657.91
518.706	29529.77
519.073	29796.21
519.44	29812.03
519.808	30231.22
520.175	30182.41
520.542	30530.88
520.909	30763.19
521.276	30719.35
521.643	31140.35
522.009	31314.59
522.376	31461.7
522.743	31634.8
523.11	32034.34
523.477	32115.7
523.843	32199.08
524.21	32666.19
524.577	32834.09
524.943	33063.01
525.31	33186.4
525.676	33554.98
526.043	33646.95
526.409	33911.81
526.776	34161.07
527.142	34283.77
527.508	34522.86
527.874	34891.22
528.241	35070.87
528.607	35158.1
528.973	35440.81
529.339	35507.7
529.705	35942.71
530.071	36190.16
530.437	36489.14
530.803	36621.79
531.169	36962.8
531.535	36832.41
531.901	37269.23
532.267	37346.74
532.632	37654.76
532.998	37688.66
533.364	38142.66
533.73	38203.22
534.095	38420.61
534.461	38588.75
534.826	38693.6
535.192	38895.63
535.557	39145.57
535.923	39180.59
536.288	39297.65
536.653	39573.8
537.019	39535.61
537.384	39603.63
537.749	39847.92
538.114	40008.82
538.479	39996.84
538.845	40156.39
539.21	40095.82
539.575	40368.81
539.94	40372.43
540.305	40617.39
540.67	40542.82
541.034	40803.83
541.399	40900.55
541.764	40789.59
542.129	41132.18
542.494	41084.5
542.858	41354.32
543.223	41355.23
543.587	41588.89
543.952	41715.22
544.316	41559.74
544.681	41714.31
545.045	41906.4
545.41	42168.31
545.774	42272.94
546.138	42455.76
546.503	42549.32
546.867	42628.64
547.231	42861.4
547.595	42992.25
547.959	43338
548.324	43275.18
548.688	43453.7
549.052	43673.13
549.416	43864.76
549.779	43828.83
550.143	43996.74
550.507	44551.07
550.871	44571.64
551.235	44557.18
551.599	44929.82
551.962	45042.13
552.326	45097.73
552.689	45446.19
553.053	45355.12
553.417	45509.47
553.78	45988.32
554.143	45812.74
554.507	45993.75
554.87	46113.07
555.234	46500.63
555.597	46269.45
555.96	46596.9
556.323	46698.59
556.686	46651.36
557.05	46995.98
557.413	47038.47
557.776	47161.63
558.139	47416.99
558.502	47320.04
558.865	47461.05
559.228	47666.92
559.59	47726.13
559.953	47786.7
560.316	48108.04
560.679	48101.04
561.041	48363.18
561.404	48546
561.767	48670.51
562.129	48529.05
562.492	49000.9
562.854	49002.48
563.217	48949.6
563.579	49130.84
563.941	49363.83
564.304	49515.92
564.666	49614.44
565.028	49621.68
565.39	49841.78
565.753	50025.73
566.115	50078.84
566.477	50310.47
566.839	50353.18
567.201	50643.57
567.563	50815.54
567.925	51051.02
568.287	51109.55
568.648	51218.24
569.01	51395.41
569.372	51707.04
569.734	51623.88
570.095	51895.06
570.457	52099.12
570.819	52130.76
571.18	52119.91
571.542	52369.4
571.903	52473.35
572.265	52579.79
572.626	52723.51
572.987	52830.4
573.349	52982.49
573.71	53027.24
574.071	53138.65
574.432	53256.38
574.794	53444.63
575.155	53380.9
575.516	53432.87
575.877	53584.96
576.238	53670.38
576.599	53707.44
576.96	53777.95
577.32	53791.96
577.681	53802.58
578.042	53790.38
578.403	53824.73
578.763	53809.81
579.124	53832.41
579.485	53914.9
579.845	53933.43
580.206	53831.51
580.566	53878.06
580.927	53833.99
581.287	53905.4
581.648	53809.59
582.008	53980.88
582.368	53822.69
582.728	53913.77
583.089	53876.03
583.449	53866.31
583.809	53888.46
584.169	53881.22
584.529	53855.01
584.889	54092.07
585.249	53924.39
585.609	53764.62
585.969	53914.67
586.329	53872.64
586.688	53955.12
587.048	53919.42
587.408	53887.55
587.768	53975.69
588.127	53984.5
588.487	53976.59
588.846	54179.75
589.206	54005.52
589.565	54111.73
589.925	54207.77
590.284	54196.02
590.643	54288.45
591.003	54427.88
591.362	54539.74
591.721	54476.24
592.08	54559.17
592.44	54654.76
592.799	54686.63
593.158	54648.21
593.517	54678.72
593.876	54806.4
594.235	54664.93
594.593	54725.95
594.952	54801.43
595.311	54684.59
595.67	54857.02
596.029	54951.7
596.387	54909.22
596.746	54932.04
597.104	54857.02
597.463	54845.49
597.822	54931.37
598.18	54809.56
598.538	54897.02
598.897	55070.12
599.255	54695.67
599.613	55168.87
599.972	54911.25
600.33	54957.35
600.688	54843.46
601.046	54906.51
601.404	54963.46
601.762	54866.28
602.12	54944.93
602.478	54917.13
602.836	54841.43
603.194	54677.59
603.552	54763.24
603.91	54607.53
604.268	54752.39
604.625	54591.49
604.983	54626.06
605.341	54520.53
605.698	54618.83
606.056	54722.11
606.413	54560.75
606.771	54646.63
607.128	54766.85
607.485	54581.32
607.843	54685.27
608.2	54775.89
608.557	54834.65
608.914	54749.45
609.272	54862.89
609.629	54931.59
609.986	55066.96
610.343	54938.82
610.7	55167.29
611.057	55032.38
611.414	55130.91
611.771	55159.83
612.127	55225.82
612.484	55301.07
612.841	55326.38
613.198	55334.52
613.554	55389.89
613.911	55493.84
614.267	55525.7
614.624	55581.07
614.98	55672.59
615.337	55852.25
615.693	55885.24
616.05	55832.13
616.406	55968.4
616.762	55915.3
617.118	56007.27
617.475	56086.36
617.831	56129.3
618.187	56142.18
618.543	56201.62
618.899	56365.68
619.255	56298.11
619.611	56191.22
619.967	56279.58
620.323	56404.1
620.678	56206.14
621.034	56184.89
621.39	56232.8
621.746	56169.07
622.101	56414.72
622.457	56103.31
622.812	56171.79
623.168	56158.68
623.523	56130.43
623.879	56196.42
624.234	55965.92
624.589	56038.46
624.945	56067.38
625.3	56048.63
625.655	56026.7
626.01	55981.06
626.365	55942.87
626.72	55898.12
627.075	55818.12
627.43	55738.58
627.785	55621.74
628.14	55666.04
628.495	55726.83
628.85	55562.54
629.205	55465.14
629.559	55580.39
629.914	55450.9
630.269	55442.31
630.623	55320.06
630.978	55371.35
631.332	55425.36
631.687	55468.98
632.041	55292.71
632.396	55271.47
632.75	55136.78
633.104	55226.5
633.459	55117.12
633.813	55147.41
634.167	55182.66
634.521	55200.96
634.875	55264.24
635.229	55138.37
635.583	55051.36
635.937	55140.85
636.291	55086.84
636.645	55070.57
636.999	55028.76
637.352	55189.44
637.706	54956.22
638.06	55130.01
638.413	55062.89
638.767	54968.88
639.121	55118.71
639.474	54943.34
639.828	55037.58
640.181	55139.95
640.534	55113.51
640.888	55027.86
641.241	54914.87
641.594	54998.48
641.947	55018.14
642.301	55072.15
642.654	55029.67
643.007	55060.63
643.36	55053.4
643.713	55034.87
644.066	55170
644.419	54973.63
644.771	54731.6
645.124	54455.9
645.477	54412.96
645.83	54253.42
646.182	54127.77
646.535	54049.58
646.888	54133.2
647.24	53911.96
647.593	54224.04
647.945	54092.97
648.298	53865.41
648.65	53704.96
649.002	53580.44
649.355	53712.64
649.707	53624.51
650.059	53676.71
650.411	53999.41
650.763	53985.4
651.115	54244.15
651.467	54044.84
651.819	53976.36
652.171	53882.58
652.523	53817.72
652.875	53824.5
653.227	53615.47
653.578	53809.59
653.93	53731.85
654.282	53543.83
654.633	53439.43
654.985	53462.7
655.337	53467.45
655.688	53378.41
656.039	53421.35
656.391	53107.91
656.742	53184.07
657.094	53086.9
657.445	53227.46
657.796	53123.5
658.147	53012.55
658.498	53027.91
658.849	53122.83
659.2	52936.62
659.551	52944.07
659.902	53000.12
660.253	52894.13
660.604	52901.59
660.955	52758.32
661.306	52954.47
661.656	52901.59
662.007	52886.45
662.358	52920.12
662.708	53033.79
663.059	52831.53
663.409	52627.7
663.76	52950.18
664.11	52974.13
664.461	53071.08
664.811	53016.39
665.161	53000.8
665.511	52940.01
665.862	52977.75
666.212	53035.6
666.562	53015.71
666.912	53003.73
667.262	53029.72
667.612	52962.38
667.962	53017.29
668.312	52990.63
668.662	53138.87
669.011	53088.93
669.361	53117.63
669.711	53039.21
670.06	52959.89
670.41	52888.71
670.76	52973.68
671.109	53040.34
671.459	53007.8
671.808	52914.47
672.157	52929.61
672.507	52829.5
672.856	52736.62
673.205	52802.61
673.554	52875.6
673.904	52792.67
674.253	52914.47
674.602	52775.72
674.951	52286.46
675.3	52320.36
675.649	52724.42
675.998	52705.66
676.346	52660.92
676.695	52809.61
677.044	52479.91
677.393	52571.43
677.741	52517.19
678.09	52341.38
678.438	52322.62
678.787	52254.37
679.135	52191.78
679.484	52026.13
679.832	52097.99
680.181	51797.21
680.529	52063.42
680.877	51867.94
681.225	51677.21
681.573	51875.63
681.922	51587.5
682.27	51470.67
682.618	51464.79
682.966	51291.46
683.314	51367.39
683.661	51164.01
684.009	51099.83
684.357	50972.37
684.705	50878.37
685.053	50825.71
685.4	50722.66
685.748	50485.61
686.095	50477.02
686.443	50376.23
686.79	50250.36
687.138	50345.27
687.485	50333.07
687.832	50108.89
688.18	50165.16
688.527	49990.48
688.874	49959.52
689.221	49956.36
689.568	49790.03
689.915	49660.54
690.262	49570.15
690.609	49399.76
690.956	49399.53
691.303	49410.38
691.65	49088.81
691.997	49240.22
692.344	48931.07
692.69	48980.56
693.037	48996.83
693.383	48605.66
693.73	48835.48
694.077	48677.29
694.423	48536.28
694.769	48418.77
695.116	48508.26
695.462	48484.08
695.808	48229.85
696.155	48393.69
696.501	48136.29
696.847	48211.09
697.193	47939.23
697.539	48129.96
697.885	47908.05
698.231	47641.84
698.577	47815.4
698.923	47767.03
699.269	47501.05
699.614	47363.88
699.96	47325.46
700.306	47376.08
700.651	47196.2
700.997	47135.87
701.342	47053.16
701.688	46896.32
702.033	46948.53
702.379	46930.67
702.724	46777.91
703.069	46752.82
703.415	46325.04
703.76	46435.09
704.105	46398.03
704.45	46428.31
704.795	46147.64
705.14	45989.23
705.485	45936.57
705.83	45869.01
706.175	45897.93
706.52	45784.94
706.865	45679.86
707.209	45511.05
707.554	45260.21
707.899	45429.02
708.243	45259.3
708.588	45051.63
708.932	44706.32
709.277	44732.54
709.621	44665.2
709.966	44432.66
710.31	44478.31
710.654	43999.22
710.998	44048.49
711.342	44064.08
711.687	43930.98
712.031	43611.21
712.375	43492.57
712.719	43632
713.063	43432.46
713.407	43466.58
713.75	43108.85
714.094	43145.24
714.438	42895.3
714.782	42981.4
715.125	42702.54
715.469	42561.52
715.812	42456.67
716.156	42165.37
716.499	42277.24
716.843	42121.08
717.186	42050.8
717.53	42005.83
717.873	42105.26
718.216	41936.23
718.559	41723.13
718.902	41410.14
719.246	41537.82
719.589	41363.59
719.932	41058.51
720.275	41105.52
720.617	41025.52
720.96	40848.35
721.303	40858.74
721.646	40822.58
721.989	40628.92
722.331	40642.93
722.674	40488.58
723.016	40571.29
723.359	40484.74
723.701	40458.75
724.044	40210.85
724.386	40076.84
724.729	40224.63
725.071	40087.69
725.413	40101.02
725.755	39981.93
726.097	39690.86
726.439	39620.58
726.782	39786.68
727.124	39953.46
727.465	39621.49
727.807	39497.87
728.149	39494.94
728.491	39462.39
728.833	39527.03
729.175	39446.12
729.516	39244.77
729.858	39208.16
730.199	39307.82
730.541	39081.61
730.882	39135.62
731.224	39216.07
731.565	38979.92
731.906	38963.65
732.248	39043.42
732.589	38930.21
732.93	38880.94
733.271	38822.86
733.612	39042.97
733.953	39028.06
734.294	39024.89
734.635	38873.03
734.976	38832.35
735.317	38700.83
735.658	38750.77
735.999	38637.11
736.339	38645.92
736.68	38668.29
737.021	38525.7
737.361	38329.54
737.702	38612.7
738.042	38552.14
738.383	38369.77
738.723	38414.29
739.063	38200.51
739.404	38222.43
739.744	38000.74
740.084	37992.6
740.424	38036.44
740.764	37991.25
741.104	38019.04
741.444	37717.13
741.784	37725.04
742.124	37808.65
742.464	37713.29
742.804	37456.57
743.143	37561.2
743.483	37406.86
743.823	37262.9
744.162	37173.87
744.502	37339.29
744.841	37085.06
745.181	37128.44
745.52	37141.33
745.86	37053.42
746.199	36925.06
746.538	36718.06
746.877	36811.16
747.216	36755.12
747.556	36603.26
747.895	36502.7
748.234	36345.64
748.573	36343.15
748.911	36366.2
749.25	36264.29
749.589	35999.66
749.928	35949.04
750.267	36025.65
750.605	35794.47
750.944	35633.79
751.283	35502.05
751.621	35651.42
751.96	35281.49
752.298	35329.4
752.636	35148.61
752.975	34944.55
753.313	34673.37
753.651	34920.59
753.989	34667.72
754.327	34580.26
754.666	34337.56
755.004	34376.43
755.342	34222.53
755.679	34269.31
756.017	33993.84
756.355	34068.19
756.693	33811.47
757.031	33879.26
757.368	33600.4
757.706	33482.44
758.044	33308.88
758.381	33390.46
758.719	33218.72
759.056	33234.08
759.394	33023.92
759.731	32764.72
760.068	32848.11
760.405	32603.14
760.743	32614.44
761.08	32645.17
761.417	32480.21
761.754	32326.31
762.091	32310.49
762.428	32106.43
762.765	32036.38
763.102	32133.32
763.438	31881.8
763.775	31814.01
764.112	31801.58
764.449	31787.79
764.785	31628.93
765.122	31587.35
765.458	31306.68
765.795	31309.61
766.131	31246.79
766.467	31094.03
766.804	31110.98
767.14	30977.87
767.476	30947.82
767.812	30722.74
768.148	30844.09
768.485	30658.11
768.821	30586.24
769.157	30532.23
769.492	30443.65
769.828	30304.67
770.164	30267.38
770.5	30168.63
770.836	30159.14
771.171	29939.03
771.507	29934.06
771.842	29657.45
772.178	29726.38
772.513	29522.77
772.849	29554.63
773.184	29419.04
773.519	29598.02
773.855	29366.16
774.19	29110.35
774.525	29105.6
774.86	29100.86
775.195	28979.96
775.53	28889.11
775.865	28845.27
776.2	28588.1
776.535	28455.23
776.87	28362.35
777.205	28311.05
777.539	28332.29
777.874	28342.91
778.209	28214.33
778.543	28135.01
778.878	27971.62
779.212	27948.12
779.547	27719.65
779.881	27831.51
780.215	27543.84
780.55	27660.22
780.884	27421.36
781.218	27355.59
781.552	27316.73
781.886	27250.96
782.22	27014.81
782.554	26934.14
782.888	26667.7
783.222	26677.87
783.556	26499.57
783.889	26471.1
784.223	26280.59
784.557	26213.03
784.89	26084.67
785.224	26064.33
785.557	25914.73
785.891	25843.54
786.224	25664.11
786.558	25604.23
786.891	25371.01
787.224	25364.23
787.557	25199.94
787.891	25159.27
788.224	25103.22
788.557	24955.88
788.89	24827.75
789.223	24893.74
789.556	24712.95
789.888	24498.49
790.221	24544.14
790.554	24273.42
790.887	24187.99
791.219	24089.24
791.552	24006.53
791.884	23852.86
792.217	23876.82
792.549	23744.16
792.882	23535.58
793.214	23412.87
793.546	23517.28
793.879	23258.07
794.211	23181.47
794.543	23161.13
794.875	23060.34
795.207	23005.65
795.539	22859.22
795.871	22776.28
796.203	22600.24
796.535	22550.52
796.867	22417.19
797.198	22370.19
797.53	22344.88
797.862	22009.07
798.193	22162.06
798.525	22010.88
798.856	22081.38
799.188	21724.78
799.519	21688.4
799.85	21576.54
800.182	21548.74
800.513	21551.23
800.844	21404.56
801.175	21551
801.506	21275.3
801.837	21253.61
802.168	21098.36
802.499	21040.28
802.83	20988.76
803.161	21005.25
803.491	20919.15
803.822	20823.79
804.153	20708.76
804.483	20562.55
804.814	20544.02
805.145	20456.79
805.475	20529.33
805.805	20393.52
806.136	20357.81
806.466	20320.53
806.796	20330.02
807.126	20204.14
807.457	20115.78
807.787	20181.77
808.117	20123.47
808.447	20118.72
808.777	20106.75
809.107	20029.23
809.436	19940.42
809.766	19904.49
810.096	19895.9
810.426	19770.71
810.755	19878.73
811.085	19804.15
811.414	19688.9
811.744	19650.94
812.073	19474.22
812.403	19640.32
812.732	19598.28
813.061	19549.25
813.39	19405.97
813.719	19391.96
814.049	19530.49
814.378	19452.07
814.707	19280.78
815.036	19349.03
815.365	19229.48
815.693	19076.26
816.022	19129.37
816.351	19066.32
816.68	18923.95
817.008	19132.31
817.337	18902.03
817.665	18928.02
817.994	19020.45
818.322	18915.59
818.651	18878.98
818.979	18760.11
819.307	18928.7
819.636	18740.45
819.964	18672.66
820.292	18765.99
820.62	18717.86
820.948	18704.3
821.276	18749.04
821.604	18648.03
821.932	18735.71
822.259	18748.14
822.587	18696.16
822.915	18652.32
823.243	18695.03
823.57	18527.8
823.898	18685.09
824.225	18568.71
824.553	18520.35
824.88	18647.57
825.207	18616.62
825.535	18665.2
825.862	18651.87
826.189	18570.74
826.516	18689.61
826.843	18705.2
827.17	18582.27
827.497	18631.3
827.824	18575.26
828.151	18613.23
828.478	18551.98
828.805	18597.18
829.131	18501.82
829.458	18464.53
829.785	18360.35
830.111	18397.86
830.438	18435.83
830.764	18536.62
831.09	18438.54
831.417	18289.84
831.743	18277.64
832.069	18367.81
832.395	18224.99
832.722	18188.6
833.048	18194.48
833.374	18180.02
833.7	18085.78
834.026	18191.09
834.351	18090.98
834.677	18085.78
835.003	18119.45
835.329	17905.22
835.654	18044.43
835.98	17846.01
836.306	17846.47
836.631	17854.6
836.956	17894.15
837.282	17851.66
837.607	17789.97
837.932	17652.8
838.258	17525.8
838.583	17618.45
838.908	17423.65
839.233	17506.59
839.558	17374.16
839.883	17292.58
840.208	17280.6
840.533	17230.89
840.858	17182.08
841.182	17267.5
841.507	17218.91
841.832	17067.5
842.156	17021.18
842.481	16939.6
842.805	16919.94
843.13	16880.39
843.454	16835.64
843.778	16716.78
844.103	16713.39
844.427	16708.87
844.751	16698.25
845.075	16553.62
845.399	16537.8
845.723	16397.92
846.047	16420.29
846.371	16238.82
846.695	16182.78
847.019	16042.45
847.343	16062.33
847.666	15914.99
847.99	15835.67
848.313	15929.91
848.637	15772.85
848.96	15752.96
849.284	15726.52
849.607	15599.97
849.931	15544.15
850.254	15419.86
850.577	15378.51
850.9	15134.67
851.223	15245.4
851.546	15170.83
851.869	15151.17
852.192	15268.45
852.515	15125.18
852.838	14988.69
853.161	15040.89
853.483	14904.62
853.806	14854.68
854.129	14787.34
854.451	14777.17
854.774	14745.08
855.096	14598.19
855.419	14618.75
855.741	14633.44
856.063	14558.19
856.385	14570.39
856.708	14609.04
857.03	14453.33
857.352	14456.27
857.674	14442.49
857.996	14379.21
858.318	14370.62
858.64	14381.7
858.961	14337.41
859.283	14363.39
859.605	14246.33
859.926	14238.43
860.248	14220.8
860.57	14077.3
860.891	14250.18
861.212	14105.32
861.534	14098.54
861.855	14018.32
862.176	14087.47
862.498	14068.49
862.819	14098.09
863.14	14007.92
863.461	13993.69
863.782	13950.75
864.103	14023.97
864.424	13945.1
864.745	13986.68
865.065	13907.81
865.386	13856.06
865.707	13851.09
866.027	13916.63
866.348	13830.53
866.668	13805.44
866.989	13769.06
867.309	13728.61
867.63	13794.37
867.95	13701.72
868.27	13626.46
868.59	13736.97
868.91	13773.58
869.23	13704.65
869.55	13612.9
869.87	13681.6
870.19	13617.65
870.51	13681.6
870.83	13644.32
871.15	13539.69
871.469	13551.89
871.789	13492.68
872.109	13559.8
872.428	13497.88
872.748	13497.88
873.067	13520.7
873.386	13457.88
873.706	13467.15
874.025	13441.61
874.344	13338.11
874.663	13329.52
874.982	13371.33
875.301	13360.03
875.62	13265.12
875.939	13298.56
876.258	13253.82
876.577	13180.83
876.896	13167.72
877.214	13113.03
877.533	13077.1
877.852	13161.84
878.17	13075.97
878.489	13049.08
878.807	13023.54
879.125	12936.31
879.444	12915.97
879.762	12931.79
880.08	12881.17
880.398	12804.34
880.716	12855.64
881.034	12805.02
881.352	12765.24
881.67	12648.41
881.988	12631.24
882.306	12666.04
882.624	12533.61
882.941	12541.52
883.259	12493.61
883.577	12410.22
883.894	12369.1
884.212	12385.37
884.529	12317.12
884.846	12242.77
885.164	12230.12
885.481	12156.9
885.798	12193.96
886.115	12056.11
886.432	12003.46
886.75	12027.64
887.067	12059.73
887.383	11877.13
887.7	11945.6
888.017	11805.49
888.334	11883.68
888.651	11810.92
888.967	11805.95
889.284	11702.9
889.6	11644.82
889.917	11477.82
890.233	11532.06
890.55	11427.88
890.866	11447.09
891.182	11396.92
891.498	11277.82
891.815	11250.93
892.131	11204.38
892.447	11135.68
892.763	11084.38
893.079	11133.65
893.395	11056.14
893.71	11056.81
894.026	11020.2
894.342	10971.62
894.657	10886.2
894.973	10857.72
895.289	10787.67
895.604	10777.5
895.92	10694.34
896.235	10649.59
896.55	10671.51
896.865	10682.59
897.181	10575.47
897.496	10562.82
897.811	10569.14
898.126	10426.32
898.441	10440.78
898.756	10424.97
899.071	10387.45
899.386	10328.02
899.7	10255.25
900.015	10231.75
900.33	10166.89
900.644	10154.24
900.959	10120.79
901.273	10144.75
901.588	10027.46
901.902	10023.39
902.216	9921.02
902.531	9933.91
902.845	9963.28
903.159	9855.72
903.473	9857.98
903.787	9795.83
904.101	9744.76
904.415	9747.7
904.729	9746.11
905.042	9718.54
905.356	9686.91
905.67	9669.73
905.984	9640.81
906.297	9568.72
906.611	9526.68
906.924	9538.89
907.237	9521.71
907.551	9492.34
907.864	9415.05
908.177	9491.21
908.491	9394.71
908.804	9351.77
909.117	9351.1
909.43	9303.64
909.743	9251.21
910.056	9216.64
910.368	9135.06
910.681	9208.5
910.994	9108.16
911.307	9117.88
911.619	9081.72
911.932	9060.48
912.244	8992.01
912.557	8977.77
912.869	8966.02
913.181	8979.81
913.494	8868.62
913.806	8815.29
914.118	8840.83
914.43	8820.94
914.742	8802.41
915.054	8729.42
915.366	8784.33
915.678	8708.4
915.99	8695.29
916.302	8650.78
916.613	8615.07
916.925	8640.38
917.236	8627.5
917.548	8560.83
917.859	8526.71
918.171	8479.71
918.482	8466.37
918.794	8385.02
919.105	8361.52
919.416	8370.78
919.727	8311.58
920.038	8335.98
920.349	8267.51
920.66	8231.35
920.971	8242.65
921.282	8258.02
921.593	8170.79
921.903	8104.8
922.214	8164.23
922.525	8048.08
922.835	7981.41
923.146	8046.05
923.456	7979.61
923.767	7957.46
924.077	7928.08
924.387	7949.55
924.697	7867.52
925.008	7818.48
925.318	7767.86
925.628	7792.49
925.938	7778.48
926.248	7681.31
926.558	7657.36
926.867	7612.61
927.177	7611.25
927.487	7507.75
927.796	7500.52
928.106	7498.49
928.416	7491.26
928.725	7524.25
929.034	7399.28
929.344	7406.06
929.653	7366.52
929.962	7263.24
930.271	7299.85
930.581	7233.64
930.89	7174.88
931.199	7154.77
931.508	7161.32
931.817	7089.69
932.125	7117.03
932.434	6996.36
932.743	7006.98
933.051	6940.09
933.36	6882.91
933.669	6843.59
933.977	6858.05
934.286	6763.14
934.594	6808.34
934.902	6711.84
935.21	6695.57
935.519	6633.2
935.827	6631.39
936.135	6622.81
936.443	6549.81
936.751	6513.2
937.059	6463.04
937.367	6412.87
937.674	6434.34
937.982	6345.53
938.29	6385.3
938.597	6362.02
938.905	6313.66
939.213	6221.69
939.52	6190.95
939.827	6120.22
940.135	6132.2
940.442	6049.71
940.749	6129.71
941.056	6101.92
941.363	6035.93
941.67	6032.09
941.977	5952.54
942.284	5922.26
942.591	5883.62
942.898	5871.87
943.205	5865.31
943.511	5741.02
943.818	5743.28
944.125	5733.11
944.431	5743.73
944.738	5668.48
945.044	5588.03
945.35	5582.16
945.657	5508.71
945.963	5501.71
946.269	5488.37
946.575	5461.03
946.881	5378.32
947.187	5457.64
947.493	5385.1
947.799	5342.16
948.105	5295.84
948.41	5259
948.716	5245.67
949.022	5256.97
949.327	5159.79
949.633	5181.04
949.938	5128.38
950.244	5122.28
950.549	5054.49
950.854	5045.45
951.16	5052.9
951.465	5063.07
951.77	4986.01
952.075	4939.23
952.38	4909.86
952.685	4920.48
952.99	4875.51
953.294	4883.64
953.599	4808.84
953.904	4793.93
954.209	4774.49
954.513	4792.12
954.818	4716.64
955.122	4729.3
955.426	4700.14
955.731	4694.95
956.035	4612.01
956.339	4616.31
956.643	4616.53
956.948	4625.34
957.252	4549.87
957.556	4512.58
957.86	4527.49
958.163	4504.22
958.467	4515.74
958.771	4457.89
959.075	4401.62
959.378	4434.62
959.682	4411.56
959.985	4429.19
960.289	4381.74
960.592	4362.53
960.896	4314.17
961.199	4304.45
961.502	4241.17
961.805	4237.56
962.108	4292.02
962.411	4258.8
962.714	4233.72
963.017	4206.6
963.32	4190.33
963.623	4197.11
963.926	4133.15
964.228	4134.51
964.531	4101.29
964.833	4083.89
965.136	4101.97
965.438	4118.24
965.741	4070.78
966.043	4092.25
966.345	4063.78
966.648	4031.01
966.95	4037.79
967.252	3977.9
967.554	3956.21
967.856	3950.11
968.158	3970.67
968.46	3946.27
968.761	3925.02
969.063	3889.09
969.365	3902.43
969.666	3888.64
969.968	3875.31
970.269	3864.23
970.571	3849.55
970.872	3815.65
971.174	3783.78
971.475	3800.51
971.776	3813.61
972.077	3772.26
972.378	3794.18
972.679	3762.32
972.98	3788.53
973.281	3767.97
973.582	3747.85
973.883	3720.51
974.183	3657.01
974.484	3710.57
974.785	3650.91
975.085	3669.89
975.386	3674.64
975.686	3674.64
975.986	3611.13
976.287	3640.74
976.587	3614.07
976.887	3590.57
977.187	3608.65
977.487	3595.77
977.787	3573.62
978.087	3575.2
978.387	3522.77
978.687	3586.5
978.987	3540.18
979.286	3528.2
979.586	3496.79
979.885	3471.48
980.185	3440.29
980.484	3414.75
980.784	3417.01
981.083	3422.44
981.382	3389.22
981.682	3362.33
981.981	3365.94
982.28	3371.82
982.579	3340.86
982.878	3353.06
983.177	3310.12
983.475	3330.24
983.774	3273.97
984.073	3276
984.372	3255.21
984.67	3239.17
984.969	3236.68
985.267	3236.68
985.566	3223.12
985.864	3181.77
986.162	3194.2
986.461	3164.14
986.759	3187.42
987.057	3105.16
987.355	3119.17
987.653	3092.96
987.951	3069.91
988.249	3064.71
988.547	3101.32
988.844	3073.07
989.142	3046.4
989.44	3017.48
989.737	2965.95
990.035	2970.02
990.332	2973.41
990.63	2968.66
990.927	2954.88
991.224	2932.28
991.521	2902
991.819	2930.93
992.116	2885.5
992.413	2870.14
992.71	2849.57
993.006	2838.95
993.303	2835.79
993.6	2837.37
993.897	2819.06
994.193	2828.33
994.49	2756.92
994.787	2812.74
995.083	2775.68
995.379	2739.74
995.676	2745.39
995.972	2680.76
996.268	2663.81
996.565	2699.07
996.861	2653.19
997.157	2659.29
997.453	2588.11
997.749	2628.56
998.044	2614.32
998.34	2579.75
998.636	2582.23
998.932	2536.13
999.227	2507.43
999.523	2535
999.818	2523.7
1000.114	2480.77
1000.409	2474.89
1000.704	2449.81
1001	2412.52
1001.295	2397.15
1001.59	2399.64
1001.885	2394.44
1002.18	2361.9
1002.475	2328.91
1002.77	2331.62
1003.065	2312.41
1003.359	2317.16
1003.654	2294.11
1003.949	2292.52
1004.243	2249.59
1004.538	2248.68
1004.832	2253.2
1005.127	2208.46
1005.421	2196.93
1005.715	2179.31
1006.009	2183.15
1006.304	2188.57
1006.598	2125.98
1006.892	2125.07
1007.186	2106.77
1007.48	2114.68
1007.773	2070.38
1008.067	2050.95
1008.361	2055.47
1008.655	2008.92
1008.948	2034.9
1009.242	2009.37
1009.535	1986.54
1009.829	1991.74
1010.122	1960.56
1010.415	1977.73
1010.708	1966.21
1011.001	1892.53
1011.295	1911.29
1011.588	1916.72
1011.881	1881.24
1012.173	1898.86
1012.466	1865.19
1012.759	1836.04
1013.052	1850.28
1013.344	1815.7
1013.637	1818.19
1013.93	1788.36
1014.222	1762.14
1014.514	1777.28
1014.807	1749.49
1015.099	1717.85
1015.391	1723.95
1015.683	1749.49
1015.976	1728.92
1016.268	1691.41
1016.56	1688.92
1016.851	1681.92
1017.143	1677.4
1017.435	1648.47
1017.727	1657.74
1018.018	1638.53
1018.31	1613.45
1018.602	1611.41
1018.893	1603.5
1019.185	1573.22
1019.476	1569.38
1019.767	1535.03
1020.058	1535.03
1020.35	1532.54
1020.641	1525.09
1020.932	1527.35
1021.223	1527.57
1021.514	1500.91
1021.804	1488.25
1022.095	1470.63
1022.386	1467.24
1022.677	1471.53
1022.967	1448.93
1023.258	1455.26
1023.548	1443.51
1023.839	1425.65
1024.129	1404.41
1024.419	1418.65
1024.709	1372.77
1025	1385.43
1025.29	1384.53
1025.58	1357.63
1025.87	1341.82
1026.16	1343.4
1026.449	1356.5
1026.739	1337.52
1027.029	1313.34
1027.319	1354.02
1027.608	1283.51
1027.898	1282.83
1028.187	1305.43
1028.477	1282.16
1028.766	1271.99
1029.055	1271.31
1029.344	1264.53
1029.634	1246.68
1029.923	1247.81
1030.212	1238.54
1030.501	1243.51
1030.79	1223.85
1031.078	1211.2
1031.367	1216.17
1031.656	1184.76
1031.945	1184.31
1032.233	1188.37
1032.522	1160.58
1032.81	1137.75
1033.099	1194.7
1033.387	1151.76
1033.675	1174.81
1033.963	1165.77
1034.251	1139.56
1034.54	1120.58
1034.828	1112.67
1035.116	1139.33
1035.403	1114.25
1035.691	1133.91
1035.979	1077.42
1036.267	1068.83
1036.554	1089.84
1036.842	1063.86
1037.129	1092.33
1037.417	1060.47
1037.704	1071.77
1037.992	1059.56
1038.279	1057.3
1038.566	1055.04
1038.853	1055.04
1039.14	1055.04
