Data from white_steel_sheet_FLMS001491_026.txt Node
Date: Tue Feb 07 10:57:37 GMT 2017
User: dcchb
Spectrometer: FLMS00149
Trigger mode: 0
Integration Time (sec): 2.000000E-2
Scans to average: 10
Electric dark correction enabled: true
Nonlinearity correction enabled: false
Boxcar width: 0
XAxis mode: Wavelengths
Number of Pixels in Spectrum: 2048
>>>>>Begin Spectral Data<<<<<
341.393	-2.47
341.776	-2.47
342.16	-2.47
342.543	-68.68
342.927	-51.74
343.31	-72.53
343.693	-49.48
344.077	-65.29
344.46	-54
344.843	-37.5
345.226	-28.46
345.61	-27.56
345.993	-31.4
346.376	-7.44
346.759	8.83
347.142	34.36
347.525	36.17
347.908	51.76
348.291	66
348.674	63.06
349.057	113.46
349.44	111.88
349.823	130.86
350.206	166.34
350.588	197.98
350.971	215.6
351.354	233
351.737	237.75
352.119	243.17
352.502	264.64
352.884	282.27
353.267	296.5
353.65	281.59
354.032	312.32
354.414	327.69
354.797	311.42
355.179	321.81
355.562	351.64
355.944	325.88
356.326	322.49
356.709	312.1
357.091	341.7
357.473	345.32
357.855	338.99
358.238	369.95
358.62	340.12
359.002	340.8
359.384	345.77
359.766	364.75
360.148	359.1
360.53	319.33
360.912	314.81
361.294	325.43
361.676	348.71
362.057	338.08
362.439	348.03
362.821	318.42
363.203	314.36
363.584	333.34
363.966	328.82
364.348	339.67
364.729	345.32
365.111	329.5
365.493	348.71
365.874	345.77
366.256	334.47
366.637	317.29
367.019	332.66
367.4	328.82
367.781	307.8
368.163	322.72
368.544	338.99
368.925	335.82
369.306	339.44
369.688	338.54
370.069	339.21
370.45	313.23
370.831	352.77
371.212	327.46
371.593	324.07
371.974	333.56
372.355	330.63
372.736	334.24
373.117	340.34
373.498	327.24
373.879	336.95
374.26	334.24
374.641	342.83
375.021	341.25
375.402	327.46
375.783	316.84
376.163	349.61
376.544	360
376.925	351.19
377.305	332.43
377.686	347.8
378.066	337.86
378.447	338.54
378.827	343.73
379.208	361.13
379.588	376.28
379.968	351.87
380.349	363.39
380.729	362.26
381.109	363.85
381.489	357.74
381.87	358.42
382.25	383.96
382.63	366.56
383.01	369.27
383.39	378.76
383.77	364.98
384.15	376.95
384.53	375.6
384.91	385.77
385.29	392.55
385.67	371.76
386.049	377.63
386.429	385.99
386.809	391.42
387.189	401.13
387.568	409.49
387.948	401.81
388.328	388.03
388.707	392.09
389.087	420.57
389.466	419.89
389.846	425.31
390.225	424.41
390.605	410.85
390.984	421.25
391.363	445.88
391.743	431.64
392.122	430.29
392.501	435.03
392.881	426.44
393.26	450.4
393.639	423.05
394.018	466.44
394.397	475.26
394.776	475.48
395.155	477.29
395.534	482.04
395.913	487.01
396.292	490.17
396.671	499.66
397.05	494.01
397.429	494.01
397.808	518.87
398.186	533.33
398.565	531.07
398.944	501.02
399.323	529.04
399.701	520.68
400.08	530.85
400.458	558.87
400.837	542.6
401.215	575.82
401.594	550.06
401.972	578.98
402.351	568.59
402.729	614.46
403.107	605.87
403.486	623.95
403.864	604.97
404.242	649.94
404.62	629.6
404.999	650.17
405.377	656.27
405.755	667.12
406.133	674.35
406.511	697.62
406.889	690.39
407.267	712.76
407.645	708.7
408.023	726.55
408.401	755.93
408.779	761.8
409.156	747.57
409.534	765.19
409.912	751.18
410.29	774.23
410.667	813.33
411.045	815.36
411.422	801.35
411.8	829.37
412.178	823.27
412.555	878.18
412.933	898.52
413.31	873.89
413.687	892.87
414.065	890.61
414.442	933.32
414.819	926.09
415.197	953.21
415.574	966.54
415.951	964.51
416.328	1008.12
416.705	987.11
417.082	999.31
417.46	997.95
417.837	1005.64
418.214	1033.21
418.591	1007.22
418.967	1036.37
419.344	1053.77
419.721	1046.54
420.098	1090.61
420.475	1086.09
420.852	1069.14
421.228	1114.34
421.605	1126.09
421.982	1120.44
422.358	1140.78
422.735	1138.97
423.111	1160.21
423.488	1151.62
423.864	1152.98
424.241	1223.26
424.617	1204.05
424.994	1233.43
425.37	1225.97
425.746	1198.63
426.123	1263.48
426.499	1256.25
426.875	1267.33
427.251	1302.35
427.627	1347.32
428.003	1329.47
428.379	1343.03
428.756	1396.14
429.132	1397.72
429.507	1396.59
429.883	1440.43
430.259	1477.49
430.635	1462.57
431.011	1496.92
431.387	1517.94
431.763	1523.36
432.138	1532.86
432.514	1558.84
432.89	1559.52
433.265	1601.1
433.641	1591.61
434.016	1650.82
434.392	1660.99
434.767	1664.83
435.143	1686.98
435.518	1730.82
435.894	1722
436.269	1772.17
436.644	1787.76
437.02	1802.68
437.395	1798.16
437.77	1840.42
438.145	1844.71
438.52	1883.81
438.895	1913.41
439.271	1898.04
439.646	1918.61
440.021	1958.83
440.395	1966.52
440.77	1971.49
441.145	1979.4
441.52	2027.76
441.895	2029.34
442.27	2038.6
442.645	2022.56
443.019	2070.24
443.394	2081.09
443.769	2096.23
444.143	2078.15
444.518	2175.78
444.892	2150.69
445.267	2152.27
445.641	2143.23
446.016	2190.69
446.39	2218.94
446.764	2228.2
447.139	2208.32
447.513	2274.08
447.887	2261.88
448.262	2289.67
448.636	2315.43
449.01	2350.46
449.384	2387.3
449.758	2390.01
450.132	2424.58
450.506	2466.16
450.88	2421.65
451.254	2439.27
451.628	2473.4
452.002	2503.23
452.376	2531.47
452.75	2519.27
453.123	2572.6
453.497	2596.78
453.871	2638.81
454.244	2696.44
454.618	2728.08
454.992	2737.8
455.365	2770.34
455.739	2802.88
456.112	2858.24
456.486	2853.95
456.859	2912.48
457.232	2939.82
457.606	2917.68
457.979	2948.86
458.352	3046.49
458.725	3081.97
459.099	3079.93
459.472	3134.39
459.845	3188.4
460.218	3216.2
460.591	3238.12
460.964	3237.9
461.337	3309.31
461.71	3380.26
462.083	3434.5
462.456	3429.75
462.829	3445.35
463.201	3499.81
463.574	3495.52
463.947	3569.19
464.32	3623.87
464.692	3693.25
465.065	3684.89
465.438	3782.51
465.81	3778.22
466.183	3853.02
466.555	3932.34
466.928	3941.61
467.3	3936.86
467.672	4002.62
468.045	4104.31
468.417	4125.1
468.789	4193.35
469.161	4255.72
469.534	4287.13
469.906	4352.44
470.278	4369.39
470.65	4466.34
471.022	4545.21
471.394	4591.53
471.766	4628.59
472.138	4724.18
472.51	4806.22
472.882	4851.41
473.253	4917.17
473.625	5022.93
473.997	5100.67
474.369	5122.82
474.74	5182.7
475.112	5266.32
475.484	5336.37
475.855	5459.76
476.227	5514.22
476.598	5642.8
476.97	5698.17
477.341	5868.56
477.713	5926.19
478.084	5929.12
478.455	6099.29
478.827	6139.06
479.198	6373.18
479.569	6327.98
479.94	6478.71
480.311	6640.52
480.682	6686.62
481.053	6872.83
481.424	6986.72
481.795	7047.51
482.166	7166.38
482.537	7257.45
482.908	7416.77
483.279	7457.45
483.65	7664.9
484.021	7841.84
484.391	7895.4
484.762	7905.12
485.133	8033.25
485.503	8137.88
485.874	8320.93
486.244	8361.15
486.615	8475.27
486.985	8655.38
487.356	8808.37
487.726	8913.45
488.097	9080.45
488.467	9118.87
488.837	9339.88
489.207	9388.02
489.578	9541.68
489.948	9630.5
490.318	9777.84
490.688	9783.03
491.058	10011.28
491.428	10067.77
491.798	10177.37
492.168	10491.49
492.538	10450.59
492.908	10529.91
493.278	10667.3
493.648	10710.69
494.017	10932.83
494.387	11014.87
494.757	11063.68
495.126	11209.89
495.496	11173.05
495.866	11430.22
496.235	11493.05
496.605	11558.35
496.974	11657.56
497.344	11722.19
497.713	11848.74
498.082	11858.46
498.452	12092.35
498.821	12181.16
499.19	12182.29
499.559	12299.8
499.928	12470.19
500.298	12549.29
500.667	12677.42
501.036	12581.15
501.405	12739.79
501.774	12796.06
502.143	12900.92
502.512	13022.72
502.88	13169.61
503.249	13140.69
503.618	13270.85
503.987	13343.17
504.356	13412.54
504.724	13594.23
505.093	13603.95
505.462	13644.63
505.83	13888.46
506.199	13905.19
506.567	14070.83
506.936	14047.1
507.304	14317.38
507.672	14285.06
508.041	14366.64
508.409	14475.79
508.777	14627.88
509.145	14780.64
509.514	14679.85
509.882	14873.75
510.25	14965.5
510.618	15053.4
510.986	15158.49
511.354	15349.22
511.722	15338.59
512.09	15608.42
512.458	15588.76
512.826	15752.37
513.193	15789.2
513.561	15921.86
513.929	16055.41
514.297	16194.39
514.664	16368.17
515.032	16449.53
515.4	16554.38
515.767	16699.01
516.135	16739.24
516.502	16695.62
516.869	17018.32
517.237	17167.25
517.604	17059.45
517.972	17347.58
518.339	17461.02
518.706	17488.37
519.073	17629.61
519.44	17738.08
519.808	17888.13
520.175	17929.94
520.542	18224.39
520.909	18311.85
521.276	18309.82
521.643	18623.03
522.009	18778.73
522.376	18893.98
522.743	19040.42
523.11	19299.62
523.477	19385.72
523.843	19542.33
524.21	19662.1
524.577	19836.78
524.943	19890.56
525.31	20035.42
525.676	20267.28
526.043	20368.29
526.409	20547.04
526.776	20798.79
527.142	20837.21
527.508	20933.93
527.874	21161.04
528.241	21266.8
528.607	21297.76
528.973	21564.19
529.339	21602.16
529.705	21693.23
530.071	21936.39
530.437	22033.33
530.803	22141.8
531.169	22392.19
531.535	22374.34
531.901	22446.88
532.267	22635.13
532.632	22812.3
532.998	22856.36
533.364	23040.99
533.73	23073.76
534.095	23286.86
534.461	23342
534.826	23420.64
535.192	23494.54
535.557	23719.39
535.923	23797.35
536.288	23864.7
536.653	23966.16
537.019	23869.89
537.384	24056.1
537.749	24206.61
538.114	24144.46
538.479	24406.83
538.845	24431.01
539.21	24519.6
539.575	24582.42
539.94	24779.7
540.305	24860.83
540.67	24858.8
541.034	24965.01
541.399	25230.76
541.764	25250.88
542.129	25232.35
542.494	25289.07
542.858	25425.33
543.223	25479.12
543.587	25745.55
543.952	25684.31
544.316	25803.86
544.681	25924.08
545.045	25928.82
545.41	26093.79
545.774	26050.18
546.138	26201.36
546.503	26208.36
546.867	26259.21
547.231	26607.45
547.595	26675.47
547.959	26576.49
548.324	26702.36
548.688	26806.99
549.052	26960.44
549.416	26976.03
549.779	26942.13
550.143	27144.61
550.507	27196.36
550.871	27384.38
551.235	27405.17
551.599	27674.99
551.962	27689
552.326	27691.49
552.689	27900.52
553.053	27728.78
553.417	27933.29
553.78	28274.75
554.143	28259.84
554.507	28396.1
554.87	28324.24
555.234	28791.12
555.597	28618.92
555.96	28768.75
556.323	28880.38
556.686	28969.42
557.05	29088.06
557.413	29281.05
557.776	29196.31
558.139	29536.41
558.502	29621.83
558.865	29728.95
559.228	29802.17
559.59	29992.22
559.953	29984.99
560.316	30316.96
560.679	30349.27
561.041	30506.1
561.404	30626.78
561.767	30727.12
562.129	30749.26
562.492	31096.82
562.854	31039.65
563.217	31021.57
563.579	31271.73
563.941	31515.57
564.304	31626.3
564.666	31786.3
565.028	31812.06
565.39	31898.38
565.753	32091.6
566.115	32145.84
566.477	32263.35
566.839	32496.79
567.201	32568.42
567.563	32600.74
567.925	32860.17
568.287	32967.96
568.648	32900.62
569.01	33104.91
569.372	33450.89
569.734	33231.91
570.095	33550.54
570.457	33631.9
570.819	33679.13
571.18	33783.53
571.542	34067.59
571.903	33925.22
572.265	34079.34
572.626	34189.85
572.987	34258.77
573.349	34325.21
573.71	34484.53
574.071	34535.15
574.432	34662.61
574.794	34852.43
575.155	34857.63
575.516	34730.85
575.877	34985.08
576.238	35008.13
576.599	35010.62
576.96	34969.04
577.32	35198.64
577.681	35313.66
578.042	35272.98
578.403	35341.91
578.763	35405.18
579.124	35436.82
579.485	35553.66
579.845	35759.07
580.206	35568.8
580.566	35600.43
580.927	35705.52
581.287	35819.86
581.648	35708.23
582.008	35834.1
582.368	35765.85
582.728	35953.19
583.089	35712.97
583.449	35832.07
583.809	35842.24
584.169	35893.53
584.529	35854.66
584.889	36065.05
585.249	35911.84
585.609	35807.89
585.969	35842.24
586.329	35828
586.688	35958.39
587.048	35817.38
587.408	35833.65
587.768	35936.47
588.127	35802.24
588.487	35765.4
588.846	36024.83
589.206	35867.09
589.565	35865.29
589.925	36051.04
590.284	35981.44
590.643	36064.38
591.003	36025.06
591.362	36041.1
591.721	35970.14
592.08	36054.21
592.44	36103.7
592.799	35980.76
593.158	35995.9
593.517	36028.9
593.876	36008.78
594.235	35992.74
594.593	36001.55
594.952	36115.9
595.311	35893.31
595.67	36005.4
596.029	36275.22
596.387	36232.96
596.746	36183.47
597.104	36009.91
597.463	36152.96
597.822	36190.02
598.18	36044.94
598.538	36079.07
598.897	36393.63
599.255	35911.16
599.613	36569.9
599.972	36248.1
600.33	36325.84
600.688	36122
601.046	36287.65
601.404	36447.87
601.762	36439.51
602.12	36520.41
602.478	36363.8
602.836	36398.83
603.194	36312.51
603.552	36336.69
603.91	36216.91
604.268	36468.21
604.625	36350.47
604.983	36437.25
605.341	36155.22
605.698	36435.67
606.056	36511.6
606.413	36550.47
606.771	36708.2
607.128	36778.03
607.485	36575.1
607.843	36497.36
608.2	36696
608.557	36872.04
608.914	36656.68
609.272	36838.14
609.629	36864.58
609.986	37066.84
610.343	36790.23
610.7	37013.96
611.057	37016.22
611.414	37005.37
611.771	37041.75
612.127	37040.85
612.484	37102.77
612.841	37133.95
613.198	37099.6
613.554	37171.92
613.911	37372.14
614.267	37350.9
614.624	37364.68
614.98	37485.13
615.337	37753.15
615.693	37473.83
616.05	37507.28
616.406	37736.65
616.762	37532.59
617.118	37517.22
617.475	37502.3
617.831	37675.86
618.187	37771.9
618.543	37867.94
618.899	37848.74
619.255	37901.62
619.611	37807.38
619.967	37894.16
620.323	38071.33
620.678	37896.64
621.034	37713.6
621.39	37733.94
621.746	37738
622.101	38167.37
622.457	37998.56
622.812	37920.15
623.168	38056.64
623.523	38003.08
623.879	38108.16
624.234	37969.64
624.589	38122.63
624.945	38116.75
625.3	38060.48
625.655	38073.36
626.01	38105.23
626.365	38059.35
626.72	38070.43
627.075	37978.45
627.43	37963.08
627.785	37978.22
628.14	38074.04
628.495	37991.78
628.85	37892.8
629.205	37785.24
629.559	38100.03
629.914	37910.2
630.269	37910.88
630.623	37756.99
630.978	37644.45
631.332	37887.61
631.687	37874.5
632.041	37640.61
632.396	37798.34
632.75	37669.76
633.104	37653.49
633.459	37463.21
633.813	37446.71
634.167	37464.34
634.521	37309.77
634.875	37454.4
635.229	37332.59
635.583	37137.34
635.937	37236.55
636.291	37225.25
636.645	37143.22
636.999	37098.02
637.352	37319.71
637.706	36917.01
638.06	37045.59
638.413	37018.02
638.767	36880.63
639.121	36828.42
639.474	36711.14
639.828	36798.14
640.181	36799.95
640.534	36735.55
640.888	36667.07
641.241	36338.95
641.594	36467.3
641.947	36684.25
642.301	36410.81
642.654	36388.89
643.007	36536
643.36	36368.78
643.713	36329.23
644.066	36465.5
644.419	36205.39
644.771	36058.73
645.124	35663.48
645.477	35538.51
645.83	35375.58
646.182	35168.81
646.535	35085.65
646.888	35153.44
647.24	35049.71
647.593	35200.44
647.945	35013.56
648.298	34882.03
648.65	34783.96
649.002	34842.71
649.355	35027.34
649.707	34820.57
650.059	34896.95
650.411	35403.83
650.763	35428.46
651.115	35769.7
651.467	35676.59
651.819	35692.86
652.171	35592.75
652.523	35343.27
652.875	35525.41
653.227	35304.85
653.578	35473.88
653.93	35480.21
654.282	35281.12
654.633	35266.43
654.985	35175.59
655.337	35275.7
655.688	35283.61
656.039	35269.82
656.391	34893.11
656.742	35014.46
657.094	35256.49
657.445	35130.16
657.796	35107.11
658.147	35058.3
658.498	35042.48
658.849	35015.36
659.2	35025.08
659.551	34661.93
659.902	34882.71
660.253	34742.6
660.604	34780.57
660.955	34643.4
661.306	34757.29
661.656	34764.52
662.007	34588.03
662.358	34435.49
662.708	34517.75
663.059	34468.94
663.409	34276.4
663.76	34520.24
664.11	34446.11
664.461	34416.74
664.811	34403.63
665.161	34315.95
665.511	34122.28
665.862	34132.45
666.212	34126.8
666.562	34081.6
666.912	33905.11
667.262	33864.66
667.612	33752.35
667.962	33814.04
668.312	33515.97
668.662	33748.73
669.011	33562.07
669.361	33375.86
669.711	33397.55
670.06	33171.8
670.41	33174.51
670.76	33200.05
671.109	33167.28
671.459	33158.92
671.808	32939.26
672.157	33182.42
672.507	32745.59
672.856	32859.04
673.205	32791.92
673.554	32822.43
673.904	32640.96
674.253	32770
674.602	32531.81
674.951	32112.39
675.3	31946.29
675.649	32465.15
675.998	32469.22
676.346	32332.95
676.695	32577.69
677.044	32124.14
677.393	32240.75
677.741	32256.34
678.09	32089.57
678.438	32073.52
678.787	32161.65
679.135	32229.68
679.484	31929.8
679.832	32070.13
680.181	32011.38
680.529	31985.16
680.877	31965.95
681.225	31846.63
681.573	32080.98
681.922	31963.02
682.27	31896.8
682.618	31965.28
682.966	31917.37
683.314	31982.45
683.661	31869.01
684.009	31791.27
684.357	31847.09
684.705	31849.12
685.053	31990.36
685.4	31845.28
685.748	31809.8
686.095	31773.42
686.443	31517.83
686.79	31709.24
687.138	31699.29
687.485	31872.62
687.832	31634.21
688.18	31817.48
688.527	31621.78
688.874	31836.01
689.221	31706.07
689.568	31693.19
689.915	31559.18
690.262	31567.77
690.609	31558.28
690.956	31434.67
691.303	31409.13
691.65	31411.39
691.997	31463.14
692.344	31363.94
692.69	31334.33
693.037	31251.4
693.383	31161
693.73	31290.72
694.077	31059.99
694.423	31009.82
694.769	31002.81
695.116	31001.46
695.462	30949.03
695.808	30804.18
696.155	31011.85
696.501	30796.04
696.847	30735.03
697.193	30511.08
697.539	30631.07
697.885	30472.21
698.231	30368.48
698.577	30502.71
698.923	30327.13
699.269	30247.58
699.614	30082.16
699.96	29965.55
700.306	30036.74
700.651	29937.76
700.997	29827.25
701.342	29894.82
701.688	29778.67
702.033	29594.26
702.379	29679.91
702.724	29579.8
703.069	29636.75
703.415	29372.35
703.76	29297.55
704.105	29325.8
704.45	29348.62
704.795	29104.11
705.14	28979.82
705.485	28971.91
705.83	29002.19
706.175	28904.34
706.52	28821.18
706.865	28635.19
707.209	28658.7
707.554	28647.62
707.899	28574.18
708.243	28412.83
708.588	28489.89
708.932	28203.34
709.277	28298.71
709.621	28291.25
709.966	28064.36
710.31	28273.4
710.654	27924.93
710.998	28000.63
711.342	27983.46
711.687	27905.95
712.031	27801.77
712.375	27554.77
712.719	27684.71
713.063	27550.02
713.407	27666.18
713.75	27620.76
714.094	27541.89
714.438	27470.7
714.782	27456.47
715.125	27323.82
715.469	27334.66
715.812	27129.02
716.156	27027.33
716.499	27145.97
716.843	27069.58
717.186	26932.19
717.53	27098.06
717.873	27035.46
718.216	26942.58
718.559	26795.02
718.902	26558.86
719.246	26770.61
719.589	26666.66
719.932	26526.32
720.275	26489.26
720.617	26597.51
720.96	26524.51
721.303	26471.18
721.646	26431.64
721.989	26165.65
722.331	26303.96
722.674	26265.54
723.016	26190.74
723.359	26178.31
723.701	26192.55
724.044	25949.61
724.386	25825.32
724.729	25926.56
725.071	25960.69
725.413	25897.64
725.755	25850.86
726.097	25808.15
726.439	25648.61
726.782	25792.78
727.124	25869.39
727.465	25697.64
727.807	25621.49
728.149	25561.15
728.491	25448.16
728.833	25592.79
729.175	25399.35
729.516	25359.12
729.858	25369.97
730.199	25331.78
730.541	25318.22
730.882	25181.05
731.224	25312.79
731.565	25058.79
731.906	25036.87
732.248	25169.07
732.589	24983.31
732.93	24904.44
733.271	24924.56
733.612	24906.93
733.953	24959.13
734.294	24778.12
734.635	24766.82
734.976	24840.94
735.317	24645.47
735.658	24617.45
735.999	24627.39
736.339	24649.31
736.68	24530.22
737.021	24465.13
737.361	24408.19
737.702	24575.19
738.042	24476.66
738.383	24306.04
738.723	24414.97
739.063	24303.33
739.404	24282.99
739.744	24293.84
740.084	24105.37
740.424	24258.59
740.764	24155.99
741.104	24316.44
741.444	24033.96
741.784	24013.17
742.124	24103.56
742.464	23927.52
742.804	23986.28
743.143	23953.73
743.483	23825.83
743.823	23831.7
744.162	23718.49
744.502	23750.12
744.841	23662.22
745.181	23805.04
745.52	23584.03
745.86	23675.55
746.199	23617.47
746.538	23515.78
746.877	23543.12
747.216	23536.8
747.556	23471.71
747.895	23475.33
748.234	23360.53
748.573	23371.83
748.911	23300.87
749.25	23238.05
749.589	23165.73
749.928	23118.05
750.267	23204.38
750.605	23124.38
750.944	23165.28
751.283	22948.79
751.621	23034.44
751.96	22807.55
752.298	22826.76
752.636	22787.66
752.975	22719.87
753.313	22670.6
753.651	22714.67
753.989	22589.48
754.327	22554.68
754.666	22317.17
755.004	22408.46
755.342	22377.96
755.679	22309.26
756.017	22216.61
756.355	22363.49
756.693	22027.23
757.031	22151.07
757.368	21976.84
757.706	21936.61
758.044	21884.18
758.381	21986.33
758.719	21806.45
759.056	21765.54
759.394	21717.86
759.731	21562.61
760.068	21647.58
760.405	21436.06
760.743	21391.54
761.08	21460.24
761.417	21354.48
761.754	21238.78
762.091	21208.95
762.428	21104.09
762.765	21094.83
763.102	21065.22
763.438	20957.66
763.775	20860.26
764.112	20823.65
764.449	20780.71
764.785	20740.71
765.122	20591.56
765.458	20477.22
765.795	20493.26
766.131	20496.42
766.467	20345.24
766.804	20270.89
767.14	20159.03
767.476	20165.13
767.812	20056.89
768.148	20081.29
768.485	19938.47
768.821	19919.04
769.157	19898.02
769.492	19781.87
769.828	19781.87
770.164	19546.17
770.5	19606.05
770.836	19468.65
771.171	19428.88
771.507	19339.62
771.842	19381.65
772.178	19250.58
772.513	19202.22
772.849	19100.08
773.184	19042.68
773.519	18997.48
773.855	18890.14
774.19	18856.69
774.525	18774.21
774.86	18773.31
775.195	18638.17
775.53	18609.02
775.865	18524.27
776.2	18344.16
776.535	18277.05
776.87	18263.04
777.205	18112.08
777.539	18139.65
777.874	18152.53
778.209	17987.56
778.543	17968.81
778.878	17769.94
779.212	17899.2
779.547	17703.5
779.881	17595.71
780.215	17586.22
780.55	17566.33
780.884	17523.4
781.218	17503.73
781.552	17473.9
781.886	17342.61
782.22	17218.54
782.554	17151.2
782.888	16980.81
783.222	17025.78
783.556	16919.8
783.889	16899
784.223	16801.15
784.557	16726.35
784.89	16825.56
785.224	16730.42
785.557	16555.96
785.891	16529.97
786.224	16556.41
786.558	16432.12
786.891	16369.08
787.224	16252.69
787.557	16207.05
787.891	16228.29
788.224	16185.58
788.557	16169.98
788.89	16121.17
789.223	16121.85
789.556	15936.54
789.888	15910.33
790.221	15831.01
790.554	15795.76
790.887	15645.93
791.219	15597.12
791.552	15594.41
791.884	15550.11
792.217	15410.68
792.549	15321.65
792.882	15300.63
793.214	15262.21
793.546	15245.49
793.879	15167.3
794.211	15065.15
794.543	15159.62
794.875	15022.67
795.207	15089.79
795.539	15017.02
795.871	15055.21
796.203	14860.87
796.535	14789.91
796.867	14800.98
797.198	14676.24
797.53	14680.76
797.862	14598.95
798.193	14620.87
798.525	14530.25
798.856	14550.59
799.188	14396.25
799.519	14326.42
799.85	14241.9
800.182	14299.53
800.513	14273.99
800.844	14127.1
801.175	14203.26
801.506	14082.58
801.837	14044.16
802.168	14024.28
802.499	14042.58
802.83	13908.35
803.161	13885.98
803.491	13888.46
803.822	13879.88
804.153	13812.08
804.483	13664.29
804.814	13603.27
805.145	13623.84
805.475	13612.76
805.805	13547.45
806.136	13597.62
806.466	13565.53
806.796	13527.12
807.126	13401.92
807.457	13353.11
807.787	13366.67
808.117	13248.25
808.447	13184.07
808.777	13297.29
809.107	13184.75
809.436	13109.05
809.766	13207.8
810.096	13084.42
810.426	13029.95
810.755	12975.27
811.085	13060.24
811.414	12966.9
811.744	12889.39
812.073	12833.35
812.403	12821.82
812.732	12675.61
813.061	12701.15
813.39	12707.25
813.719	12693.47
814.049	12680.13
814.378	12633.58
814.707	12631.77
815.036	12616.41
815.365	12532.79
815.693	12331.22
816.022	12424.09
816.351	12384.77
816.68	12323.53
817.008	12373.7
817.337	12178.45
817.665	12253.93
817.994	12237.88
818.322	12309.29
818.651	12189.98
818.979	12092.58
819.307	12169.86
819.636	12155.85
819.964	12032.92
820.292	12083.76
820.62	12015.07
820.948	11958.12
821.276	12049.87
821.604	11969.64
821.932	12081.05
822.259	12009.87
822.587	11995.86
822.915	11981.85
823.243	11998.34
823.57	11968.06
823.898	11970.09
824.225	11966.71
824.553	11926.48
824.88	11962.41
825.207	12001.96
825.535	11935.07
825.862	11960.83
826.189	11944.11
826.516	11994.73
826.843	12015.07
827.17	11932.58
827.497	11952.69
827.824	11928.74
828.151	11998.79
828.478	12018
828.805	11987.5
829.131	11912.7
829.458	11926.93
829.785	11802.42
830.111	11942.3
830.438	11961.28
830.764	11890.77
831.09	11821.85
831.417	11819.14
831.743	11908.63
832.069	11785.24
832.395	11779.82
832.722	11872.47
833.048	11735.3
833.374	11862.08
833.7	11779.82
834.026	11815.07
834.351	11792.25
834.677	11790.21
835.003	11759.48
835.329	11733.04
835.654	11697.79
835.98	11645.58
836.306	11711.8
836.631	11637.67
836.956	11674.28
837.282	11637.22
837.607	11649.2
837.932	11572.14
838.258	11637.67
838.583	11615.98
838.908	11479.94
839.233	11499.15
839.558	11525.81
839.883	11417.34
840.208	11449.2
840.533	11420.5
840.858	11372.14
841.182	11426.15
841.507	11371.92
841.832	11305.71
842.156	11244.24
842.481	11300.73
842.805	11232.71
843.13	11302.54
843.454	11212.15
843.778	11200.4
844.103	11148.65
844.427	11166.05
844.751	11106.16
845.075	11076.56
845.399	11055.32
845.723	10944.36
846.047	10997.92
846.371	10898.71
846.695	10881.54
847.019	10798.37
847.343	10834.53
847.666	10701.88
847.99	10741.2
848.313	10678.83
848.637	10589.11
848.96	10561.32
849.284	10576.46
849.607	10457.14
849.931	10444.94
850.254	10374.66
850.577	10277.03
850.9	10262.8
851.223	10258.28
851.546	10210.14
851.869	10201.33
852.192	10168.79
852.515	10096.25
852.838	10098.96
853.161	10072.74
853.483	9995.23
853.806	9974.67
854.129	9936.02
854.451	9943.03
854.774	9920.21
855.096	9806.76
855.419	9806.76
855.741	9815.35
856.063	9745.52
856.385	9644.05
856.708	9711.62
857.03	9595.69
857.352	9682.47
857.674	9678.86
857.996	9573.77
858.318	9569.48
858.64	9544.4
858.961	9496.49
859.283	9451.74
859.605	9444.51
859.926	9393.67
860.248	9308.7
860.57	9359.77
860.891	9360.9
861.212	9311.86
861.534	9324.97
861.855	9289.71
862.176	9301.69
862.498	9274.8
862.819	9228.92
863.14	9217.85
863.461	9167.46
863.782	9144.18
864.103	9180.79
864.424	9096.95
864.745	9094.01
865.065	9113.45
865.386	9102.37
865.707	9047.46
866.027	9060.34
866.348	9042.04
866.668	9058.98
866.989	9009.95
867.309	8930.4
867.63	8978.31
867.95	8953
868.27	8807.69
868.59	8934.69
868.91	8918.2
869.23	8934.92
869.55	8906.67
869.87	8893.34
870.19	8805.66
870.51	8841.36
870.83	8867.58
871.15	8816.73
871.469	8777.86
871.789	8747.58
872.109	8778.77
872.428	8726.79
872.748	8717.75
873.067	8755.94
873.386	8713.46
873.706	8637.98
874.025	8638.43
874.344	8635.49
874.663	8674.14
874.982	8618.77
875.301	8671.42
875.62	8580.58
875.939	8546.91
876.258	8586.91
876.577	8528.83
876.896	8465.1
877.214	8459.23
877.533	8424.65
877.852	8470.98
878.17	8461.26
878.489	8501.49
878.807	8440.47
879.125	8390.08
879.444	8465.55
879.762	8414.48
880.08	8407.93
880.398	8385.78
880.716	8379.91
881.034	8373.35
881.352	8294.94
881.67	8319.57
881.988	8331.55
882.306	8260.14
882.624	8211.1
882.941	8175.39
883.259	8149.63
883.577	8190.99
883.894	8171.32
884.212	8185.56
884.529	8141.72
884.846	8079.12
885.164	8135.39
885.481	8073.25
885.798	8125.9
886.115	8030.09
886.432	8031.89
886.75	8040.03
887.067	8035.06
887.383	7935.62
887.7	7974.04
888.017	7927.04
888.334	7880.71
888.651	7883.65
888.967	7924.78
889.284	7819.24
889.6	7877.55
889.917	7767.95
890.233	7818.11
890.55	7757.55
890.866	7776.31
891.182	7721.84
891.498	7671.45
891.815	7678.23
892.131	7617.67
892.447	7638.68
892.763	7593.49
893.079	7533.15
893.395	7483.66
893.71	7515.97
894.026	7511
894.342	7473.49
894.657	7436.43
894.973	7404.34
895.289	7359.37
895.604	7440.04
895.92	7310.78
896.235	7322.53
896.55	7336.77
896.865	7270.11
897.181	7207.51
897.496	7269.43
897.811	7239.6
898.126	7158.02
898.441	7117.57
898.756	7157.57
899.071	7063.78
899.386	7080.96
899.7	7047.06
900.015	7040.96
900.33	6984.92
900.644	6996.44
900.959	6994.41
901.273	6913.73
901.588	6899.95
901.902	6837.12
902.216	6821.08
902.531	6858.36
902.845	6801.87
903.159	6795.32
903.473	6738.82
903.787	6730.91
904.101	6697.24
904.415	6664.02
904.729	6645.72
905.042	6572.95
905.356	6573.63
905.67	6552.61
905.984	6577.02
906.297	6590.35
906.611	6454.53
906.924	6463.12
907.237	6483.46
907.551	6400.52
907.864	6453.86
908.177	6397.13
908.491	6356.01
908.804	6309.23
909.117	6312.39
909.43	6252.28
909.743	6265.39
910.056	6258.61
910.368	6207.76
910.681	6186.29
910.994	6252.73
911.307	6130.93
911.619	6083.92
911.932	6117.59
912.244	6019.06
912.557	6049.35
912.869	5987.43
913.181	5990.59
913.494	6007.31
913.806	5969.8
914.118	5978.61
914.43	5930.71
914.742	5914.43
915.054	5829.69
915.366	5839.86
915.678	5748.34
915.99	5789.24
916.302	5758.05
916.613	5753.31
916.925	5755.57
917.236	5656.36
917.548	5665.18
917.859	5686.87
918.171	5568.91
918.482	5590.38
918.794	5591.96
919.105	5586.31
919.416	5504.95
919.727	5519.19
920.038	5497.04
920.349	5498.85
920.66	5440.55
920.971	5447.1
921.282	5345.41
921.593	5416.82
921.903	5293.43
922.214	5268.35
922.525	5284.85
922.835	5274
923.146	5228.58
923.456	5257.05
923.767	5189.48
924.077	5161.23
924.387	5185.19
924.697	5136.38
925.008	5142.93
925.318	5101.8
925.628	5101.57
925.938	5109.94
926.248	5052.76
926.558	4964.63
926.867	4965.31
927.177	4969.83
927.487	4947.45
927.796	4857.29
928.106	4910.62
928.416	4900.22
928.725	4900
929.034	4879.43
929.344	4840.79
929.653	4804.18
929.962	4785.65
930.271	4741.58
930.581	4709.72
930.89	4740.91
931.199	4730.96
931.508	4716.27
931.817	4678.31
932.125	4639.89
932.434	4649.16
932.743	4575.04
933.051	4582.04
933.36	4549.27
933.669	4543.85
933.977	4522.83
934.286	4525.32
934.594	4561.93
934.902	4453.46
935.21	4481.25
935.519	4460.46
935.827	4441.25
936.135	4401.71
936.443	4373.46
936.751	4346.11
937.059	4361.03
937.367	4317.87
937.674	4316.06
937.982	4328.04
938.29	4312.67
938.597	4240.35
938.905	4279.68
939.213	4221.82
939.52	4206.46
939.827	4210.75
940.135	4184.99
940.442	4169.17
940.749	4157.87
941.056	4178.21
941.363	4130.3
941.67	4100.25
941.977	4044.2
942.284	4049.17
942.591	4038.1
942.898	4014.15
943.205	3953.36
943.511	3961.94
943.818	3942.28
944.125	3933.7
944.431	3943.87
944.738	3928.27
945.044	3927.59
945.35	3906.8
945.657	3846.47
945.963	3845.56
946.269	3861.83
946.575	3799.24
946.881	3807.82
947.187	3800.14
947.493	3773.25
947.799	3742.97
948.105	3681.05
948.41	3689.86
948.716	3715.62
949.022	3683.53
949.327	3664.1
949.633	3641.5
949.938	3633.59
950.244	3610.77
950.549	3624.1
950.854	3572.8
951.16	3606.02
951.465	3550.88
951.77	3549.75
952.075	3517.44
952.38	3505.23
952.685	3529.41
952.99	3475.18
953.294	3460.26
953.599	3446.7
953.904	3417.78
954.209	3425.01
954.513	3437.66
954.818	3371.22
955.122	3384.33
955.426	3366.71
955.731	3338.23
956.035	3355.63
956.339	3321.28
956.643	3274.96
956.948	3291.9
957.252	3263.21
957.556	3266.82
957.86	3240.61
958.163	3241.28
958.467	3200.16
958.771	3172.13
959.075	3201.96
959.378	3138.24
959.682	3175.98
959.985	3132.14
960.289	3128.29
960.592	3112.02
960.896	3109.31
961.199	3067.28
961.502	3081.74
961.805	3079.03
962.108	3027.96
962.411	3045.13
962.714	3000.61
963.017	3031.35
963.32	3041.97
963.623	3008.07
963.926	3012.82
964.228	2980.5
964.531	2978.01
964.833	2951.35
965.136	2928.3
965.438	2898.47
965.741	2905.47
966.043	2865.7
966.345	2893.05
966.648	2897.11
966.95	2898.24
967.252	2821.63
967.554	2834.74
967.856	2820.05
968.158	2794.29
968.46	2787.96
968.761	2744.12
969.063	2741.86
969.365	2757.46
969.666	2741.18
969.968	2742.77
970.269	2705.03
970.571	2712.94
970.872	2673.16
971.174	2674.75
971.475	2697.57
971.776	2687.85
972.077	2675.42
972.378	2634.07
972.679	2616.44
972.98	2621.64
973.281	2579.83
973.582	2579.16
973.883	2584.58
974.183	2568.31
974.484	2551.59
974.785	2536.9
975.085	2569.44
975.386	2510.91
975.686	2513.17
975.986	2495.77
976.287	2474.98
976.587	2496.9
976.887	2459.84
977.187	2513.85
977.487	2465.71
977.787	2435.43
978.087	2438.59
978.387	2396.34
978.687	2427.07
978.987	2413.51
979.286	2401.08
979.586	2389.78
979.885	2360.4
980.185	2357.92
980.484	2361.31
980.784	2340.29
981.083	2357.24
981.382	2306.85
981.682	2306.39
981.981	2300.29
982.28	2295.55
982.579	2256.9
982.878	2283.8
983.177	2259.16
983.475	2229.56
983.774	2222.55
984.073	2202.67
984.372	2194.98
984.67	2210.13
984.969	2204.7
985.267	2171.71
985.566	2199.73
985.864	2187.08
986.162	2143.69
986.461	2178.49
986.759	2162.22
987.057	2128.09
987.355	2121.54
987.653	2107.08
987.951	2112.95
988.249	2116.34
988.547	2087.87
988.844	2077.02
989.142	2031.15
989.44	2056.01
989.737	2041.99
990.035	2009.45
990.332	2044.25
990.63	2022.79
990.927	2008.55
991.224	1990.92
991.521	1981.88
991.819	1985.05
992.116	1979.4
992.413	1953.18
992.71	1967.65
993.006	1954.99
993.303	1917.93
993.6	1945.73
993.897	1902.56
994.193	1922.9
994.49	1940.3
994.787	1897.82
995.083	1893.75
995.379	1853.07
995.676	1869.8
995.972	1864.37
996.268	1856.24
996.565	1838.84
996.861	1832.96
997.157	1828.67
997.453	1796.8
997.749	1823.92
998.044	1811.49
998.34	1780.98
998.636	1750.02
998.932	1770.82
999.227	1782.11
999.523	1747.09
999.818	1746.18
1000.114	1751.83
1000.409	1719.06
1000.704	1692.85
1001	1697.82
1001.295	1702.12
1001.59	1708.9
1001.885	1698.27
1002.18	1664.38
1002.475	1669.35
1002.77	1671.16
1003.065	1646.07
1003.359	1657.82
1003.654	1631.84
1003.949	1646.75
1004.243	1600.2
1004.538	1613.31
1004.832	1610.14
1005.127	1593.64
1005.421	1589.35
1005.715	1581.44
1006.009	1559.3
1006.304	1565.62
1006.598	1550.93
1006.892	1547.77
1007.186	1533.31
1007.48	1509.13
1007.773	1510.48
1008.067	1515.45
1008.361	1506.19
1008.655	1493.31
1008.948	1489.24
1009.242	1456.92
1009.535	1462.12
1009.829	1456.7
1010.122	1455.12
1010.415	1428.23
1010.708	1440.43
1011.001	1447.43
1011.295	1432.97
1011.588	1411.05
1011.881	1390.03
1012.173	1407.43
1012.466	1400.88
1012.759	1399.75
1013.052	1355.01
1013.344	1375.35
1013.637	1337.83
1013.93	1337.83
1014.222	1331.5
1014.514	1355.91
1014.807	1309.81
1015.099	1324.95
1015.391	1329.02
1015.683	1308.23
1015.976	1271.62
1016.268	1296.48
1016.56	1275.69
1016.851	1269.36
1017.143	1265.74
1017.435	1261.68
1017.727	1247.44
1018.018	1244.05
1018.31	1220.1
1018.602	1224.84
1018.893	1238.4
1019.185	1212.64
1019.476	1216.03
1019.767	1206.76
1020.058	1198.85
1020.35	1213.32
1020.641	1167.67
1020.932	1175.35
1021.223	1145.07
1021.514	1146.2
1021.804	1139.87
1022.095	1159.31
1022.386	1145.52
1022.677	1121.57
1022.967	1122.02
1023.258	1138.74
1023.548	1094.45
1023.839	1087.67
1024.129	1105.52
1024.419	1081.79
1024.709	1103.49
1025	1070.95
1025.29	1072.53
1025.58	1054
1025.87	1052.64
1026.16	1031.63
1026.449	1077.5
1026.739	1040.21
1027.029	1030.5
1027.319	1029.82
1027.608	1015.35
1027.898	1020.55
1028.187	1019.2
1028.477	989.37
1028.766	992.08
1029.055	1001.12
1029.344	964.06
1029.634	953.44
1029.923	950.72
1030.212	972.42
1030.501	973.1
1030.79	947.11
1031.078	947.56
1031.367	924.28
1031.656	944.62
1031.945	936.49
1032.233	886.32
1032.522	905.3
1032.81	914.11
1033.099	904.4
1033.387	904.85
1033.675	912.53
1033.963	887.45
1034.251	868.92
1034.54	880.44
1034.828	882.7
1035.116	862.59
1035.403	867.11
1035.691	858.07
1035.979	864.17
1036.267	851.07
1036.554	839.77
1036.842	820.78
1037.129	811.97
1037.417	809.71
1037.704	832.76
1037.992	808.58
1038.279	799.99
1038.566	802.93
1038.853	802.93
1039.14	802.93
