Data from white_steel_sheet_FLMS001491_060.txt Node
Date: Tue Feb 07 10:58:06 GMT 2017
User: dcchb
Spectrometer: FLMS00149
Trigger mode: 0
Integration Time (sec): 2.000000E-2
Scans to average: 10
Electric dark correction enabled: true
Nonlinearity correction enabled: false
Boxcar width: 0
XAxis mode: Wavelengths
Number of Pixels in Spectrum: 2048
>>>>>Begin Spectral Data<<<<<
341.393	-13.52
341.776	-13.52
342.16	-13.52
342.543	-61.88
342.927	-58.26
343.31	-64.14
343.693	-68.88
344.077	-71.82
344.46	-70.92
344.843	-49.9
345.226	-38.37
345.61	-14.42
345.993	-13.06
346.376	4.79
346.759	8.86
347.142	42.53
347.525	40.95
347.908	51.34
348.291	67.61
348.674	82.3
349.057	93.15
349.44	122.98
349.823	112.58
350.206	175.18
350.588	183.99
350.971	219.7
351.354	231.67
351.737	258.34
352.119	248.85
352.502	253.6
352.884	269.41
353.267	279.36
353.65	289.75
354.032	294.27
354.414	330.66
354.797	342.86
355.179	336.98
355.562	324.55
355.944	325.46
356.326	340.37
356.709	331.56
357.091	341.95
357.473	355.97
357.855	355.97
358.238	361.61
358.62	345.12
359.002	353.03
359.384	367.49
359.766	347.6
360.148	359.13
360.53	346.93
360.912	348.73
361.294	339.69
361.676	350.99
362.057	338.56
362.439	326.36
362.821	332.01
363.203	327.04
363.584	355.06
363.966	332.46
364.348	339.24
364.729	346.93
365.111	332.91
365.493	321.62
365.874	325.23
366.256	333.59
366.637	314.84
367.019	330.43
367.4	341.5
367.781	319.58
368.163	315.29
368.544	331.11
368.925	310.32
369.306	310.32
369.688	334.5
370.069	316.87
370.45	327.94
370.831	321.16
371.212	322.75
371.593	315.29
371.974	312.58
372.355	331.79
372.736	335.4
373.117	321.84
373.498	360.26
373.879	340.82
374.26	325.46
374.641	325.68
375.021	344.89
375.402	325.68
375.783	352.35
376.163	358.23
376.544	336.08
376.925	344.89
377.305	357.77
377.686	335.4
378.066	359.13
378.447	346.93
378.827	351.67
379.208	348.28
379.588	367.49
379.968	360.71
380.349	353.48
380.729	365.68
381.109	362.74
381.489	372.24
381.87	376.53
382.25	372.91
382.63	367.49
383.01	384.44
383.39	376.08
383.77	369.07
384.15	361.16
384.53	408.85
384.91	396.42
385.29	370.88
385.67	384.21
386.049	390.31
386.429	402.07
386.809	402.29
387.189	396.42
387.568	415.4
387.948	377.66
388.328	421.73
388.707	416.53
389.087	416.3
389.466	421.5
389.846	437.32
390.225	430.77
390.605	418.79
390.984	451.78
391.363	428.73
391.743	446.58
392.122	447.26
392.501	456.75
392.881	440.03
393.26	457.21
393.639	471.67
394.018	464.89
394.397	468.5
394.776	498.11
395.155	489.52
395.534	499.69
395.913	515.96
396.292	503.31
396.671	534.27
397.05	512.35
397.429	520.93
397.808	508.28
398.186	535.17
398.565	529.75
398.944	527.03
399.323	556.86
399.701	565.23
400.08	562.97
400.458	569.07
400.837	590.76
401.215	605
401.594	592.57
401.972	602.96
402.351	616.07
402.729	622.4
403.107	622.62
403.486	627.14
403.864	633.25
404.242	659.69
404.62	673.7
404.999	664.21
405.377	681.15
405.755	663.08
406.133	693.58
406.511	708.05
406.889	713.02
407.267	739.23
407.645	758.44
408.023	757.31
408.401	773.13
408.779	812.68
409.156	790.76
409.534	799.57
409.912	802.73
410.29	834.37
410.667	840.02
411.045	859.68
411.422	881.6
411.8	873.92
412.178	878.66
412.555	936.06
412.933	933.35
413.31	905.1
413.687	956.18
414.065	931.77
414.442	971.32
414.819	975.61
415.197	976.97
415.574	1018.77
415.951	1005.44
416.328	1037.76
416.705	1049.05
417.082	1038.66
417.46	1066.68
417.837	1073.69
418.214	1095.15
418.591	1116.62
418.967	1081.82
419.344	1100.58
419.721	1114.82
420.098	1155.72
420.475	1160.69
420.852	1164.53
421.228	1184.42
421.605	1185.32
421.982	1191.65
422.358	1233.23
422.735	1214.7
423.111	1215.38
423.488	1250.18
423.864	1278.2
424.241	1298.54
424.617	1306
424.994	1332.89
425.37	1312.78
425.746	1340.57
426.123	1335.83
426.499	1367.69
426.875	1366.56
427.251	1404.75
427.627	1422.38
428.003	1423.28
428.379	1489.95
428.756	1462.15
429.132	1499.21
429.507	1510.29
429.883	1525.65
430.259	1545.76
430.635	1571.07
431.011	1580.57
431.387	1605.2
431.763	1621.02
432.138	1661.24
432.514	1697.62
432.89	1673.9
433.265	1710.28
433.641	1751.18
434.016	1768.36
434.392	1780.11
434.767	1822.59
435.143	1820.79
435.518	1844.74
435.894	1894.68
436.269	1897.62
436.644	1928.35
437.02	1903.72
437.395	1950.73
437.77	1962.48
438.145	2003.38
438.52	2019.88
438.895	2039.08
439.271	2008.35
439.646	2131.74
440.021	2129.03
440.395	2097.39
440.77	2100.55
441.145	2135.58
441.52	2146.65
441.895	2199.08
442.27	2244.5
442.645	2214.45
443.019	2223.26
443.394	2237.27
443.769	2310.04
444.143	2305.29
444.518	2320.89
444.892	2312.3
445.267	2329.92
445.641	2342.81
446.016	2372.18
446.39	2379.87
446.764	2410.37
447.139	2402.01
447.513	2429.81
447.887	2436.81
448.262	2471.84
448.636	2492.63
449.01	2544.16
449.384	2547.09
449.758	2512.52
450.132	2575.79
450.506	2652.63
450.88	2596.13
451.254	2625.28
451.628	2651.27
452.002	2725.62
452.376	2718.39
452.75	2758.39
453.123	2747.54
453.497	2837.26
453.871	2874.32
454.244	2883.81
454.618	2914.09
454.992	2964.26
455.365	2993.41
455.739	3091.71
456.112	3049.23
456.486	3076.8
456.859	3146.63
457.232	3212.39
457.606	3180.3
457.979	3218.49
458.352	3302.1
458.725	3333.06
459.099	3365.38
459.472	3425.26
459.845	3410.12
460.218	3468.65
460.591	3546.62
460.964	3538.93
461.337	3613.73
461.71	3640.17
462.083	3703.22
462.456	3700.96
462.829	3720.17
463.201	3765.82
463.574	3830.68
463.947	3931.69
464.32	3973.27
464.692	3991.12
465.065	4015.53
465.438	4065.02
465.81	4157.22
466.183	4216.43
466.555	4305.24
466.928	4288.74
467.3	4293.71
467.672	4337.78
468.045	4458.91
468.417	4482.41
468.789	4556.53
469.161	4600.15
469.534	4672.01
469.906	4727.6
470.278	4782.52
470.65	4824.32
471.022	4911.1
471.394	5050.08
471.766	5113.13
472.138	5096.41
472.51	5205.78
472.882	5316.06
473.253	5370.52
473.625	5418.2
473.997	5525.09
474.369	5680.12
474.74	5660.68
475.112	5774.35
475.484	5819.1
475.855	5920.34
476.227	6092.31
476.598	6139.32
476.97	6197.85
477.341	6367.56
477.713	6457.05
478.084	6455.69
478.455	6623.37
478.827	6727.55
479.198	6921.44
479.569	6923.25
479.94	7151.94
480.311	7215.22
480.682	7348.78
481.053	7524.82
481.424	7667.41
481.795	7680.74
482.166	7846.84
482.537	7953.28
482.908	8145.14
483.279	8193.5
483.65	8290.22
484.021	8504.45
484.391	8569.53
484.762	8719.14
485.133	8791.68
485.503	8926.81
485.874	9123.87
486.244	9184.66
486.615	9396.41
486.985	9446.8
487.356	9661.94
487.726	9679.56
488.097	9932.44
488.467	9970.85
488.837	10206.55
489.207	10249.72
489.578	10442.93
489.948	10567.22
490.318	10632.76
490.688	10663.49
491.058	10922.92
491.428	10975.57
491.798	11166.98
492.168	11374.21
492.538	11404.04
492.908	11626.4
493.278	11727.42
493.648	11666.85
494.017	11989.11
494.387	12033.4
494.757	12080.18
495.126	12254.86
495.496	12310.68
495.866	12425.7
496.235	12540.96
496.605	12717.22
496.974	12771.23
497.344	12955.63
497.713	12982.98
498.082	13089.87
498.452	13187.27
498.821	13272.91
499.19	13341.61
499.559	13492.79
499.928	13600.59
500.298	13712.9
500.667	13856.85
501.036	13820.02
501.405	13984.08
501.774	14017.07
502.143	14143.17
502.512	14205.32
502.88	14346.56
503.249	14452.09
503.618	14548.59
503.987	14614.12
504.356	14714.23
504.724	14885.3
505.093	14902.48
505.462	14984.28
505.83	15088.01
506.199	15240.77
506.567	15390.15
506.936	15388.34
507.304	15563.93
507.672	15659.29
508.041	15715.34
508.409	15939.74
508.777	16110.58
509.145	16247.07
509.514	16191.26
509.882	16382.66
510.25	16381.53
510.618	16597.8
510.986	16680.73
511.354	16773.61
511.722	17026.71
512.09	17186.94
512.458	17106.49
512.826	17233.04
513.193	17428.28
513.561	17415.4
513.929	17665.79
514.297	17856.07
514.664	17949.4
515.032	18020.59
515.4	18207.93
515.767	18349.62
516.135	18526.79
516.502	18373.57
516.869	18682.26
517.237	18788.47
517.604	18689.95
517.972	18957.74
518.339	19112.99
518.706	19164.06
519.073	19343.94
519.44	19468.68
519.808	19727.89
520.175	19718.39
520.542	20101.89
520.909	20155.22
521.276	20117.93
521.643	20472.5
522.009	20640.63
522.376	20580.52
522.743	20829.55
523.11	21091.92
523.477	21274.74
523.843	21319.93
524.21	21608.97
524.577	21790.43
524.943	21859.35
525.31	22140.03
525.676	22264.77
526.043	22363.07
526.409	22514.7
526.776	22865.88
527.142	22903.62
527.508	22991.98
527.874	23196.49
528.241	23298.19
528.607	23456.6
528.973	23682.36
529.339	23635.58
529.705	23812.75
530.071	24050.48
530.437	24181.78
530.803	24250.7
531.169	24535.22
531.535	24545.39
531.901	24654.76
532.267	24855.43
532.632	25011.36
532.998	25057.69
533.364	25145.6
533.73	25239.83
534.095	25531.8
534.461	25650.44
534.826	25820.83
535.192	25818.12
535.557	26060.83
535.923	26096.76
536.288	26162.52
536.653	26388.05
537.019	26248.39
537.384	26438.9
537.749	26644.31
538.114	26713.69
538.479	26675.27
538.845	26855.83
539.21	26777.42
539.575	27048.14
539.94	27134.24
540.305	27283.17
540.67	27249.5
541.034	27336.95
541.399	27544.18
541.764	27566.55
542.129	27785.98
542.494	27936.03
542.858	27884.28
543.223	27988.23
543.587	28168.34
543.952	28102.13
544.316	28246.53
544.681	28382.57
545.045	28466.41
545.41	28578.05
545.774	28674.99
546.138	28723.13
546.503	28786.63
546.867	28880.19
547.231	29089.45
547.595	29121.54
547.959	29189.78
548.324	29378.7
548.688	29316.56
549.052	29463.45
549.416	29558.81
549.779	29518.59
550.143	29687.17
550.507	29936.88
550.871	29966.71
551.235	29959.71
551.599	30349.98
551.962	30287.61
552.326	30387.72
552.689	30511.78
553.053	30425.46
553.417	30624.55
553.78	30990.87
554.143	30891.89
554.507	31026.35
554.87	31122.84
555.234	31467.92
555.597	31322.61
555.96	31500.23
556.323	31615.93
556.686	31639.21
557.05	31920.78
557.413	31967.79
557.776	32004.62
558.139	32301.11
558.502	32417.5
558.865	32536.36
559.228	32691.61
559.59	32863.36
559.953	32780.2
560.316	33223.58
560.679	33194.65
561.041	33465.38
561.404	33591.02
561.767	33789.89
562.129	33625.82
562.492	34168.64
562.854	33972.48
563.217	34069.88
563.579	34246.15
563.941	34414.96
564.304	34553.03
564.666	34800.71
565.028	34877.54
565.39	34875.74
565.753	35104.43
566.115	35247.7
566.477	35341.49
566.839	35482.27
567.201	35661.48
567.563	35822.15
567.925	35915.71
568.287	36024.41
568.648	36072.31
569.01	36269.82
569.372	36387.33
569.734	36472.3
570.095	36744.39
570.457	36788.23
570.819	36898.51
571.18	36943.03
571.542	37261.21
571.903	37184.15
572.265	37354.99
572.626	37313.41
572.987	37484.93
573.349	37493.29
573.71	37664.59
574.071	37688.54
574.432	37871.81
574.794	38178.93
575.155	38066.61
575.516	38025.94
575.877	38171.69
576.238	38305.02
576.599	38475.64
576.96	38361.29
577.32	38475.87
577.681	38691.91
578.042	38627.73
578.403	38622.3
578.763	38840.6
579.124	38741.85
579.485	38866.14
579.845	39006.47
580.206	38988.17
580.566	38837.67
580.927	38866.14
581.287	39052.57
581.648	38972.58
582.008	39208.28
582.368	39115.17
582.728	39248.73
583.089	39088.96
583.449	39091.9
583.809	39037.66
584.169	39222.74
584.529	39125.34
584.889	39409.85
585.249	39087.38
585.609	39011.22
585.969	39354.26
586.329	39216.64
586.688	39357.2
587.048	39305.9
587.408	39264.32
587.768	39230.65
588.127	39186.36
588.487	39117.66
588.846	39451.89
589.206	38997.21
589.565	39149.97
589.925	39283.53
590.284	39303.64
590.643	39144.78
591.003	39322.4
591.362	39531.88
591.721	39376.18
592.08	39293.47
592.44	39387.93
592.799	39416.18
593.158	39434.26
593.517	39432
593.876	39529.85
594.235	39330.08
594.593	39423.41
594.952	39458.89
595.311	39310.87
595.67	39429.97
596.029	39597.42
596.387	39589.74
596.746	39623.63
597.104	39445.11
597.463	39563.52
597.822	39614.59
598.18	39474.71
598.538	39375.96
598.897	39595.39
599.255	39249.18
599.613	39777.08
599.972	39640.13
600.33	39687.36
600.688	39573.47
601.046	39728.49
601.404	39719.45
601.762	39631.77
602.12	39817.98
602.478	39765.78
602.836	39797.87
603.194	39572.11
603.552	39814.81
603.91	39618.66
604.268	39862.05
604.625	39689.62
604.983	39711.09
605.341	39782.5
605.698	39863.4
606.056	39976.17
606.413	39882.38
606.771	39955.83
607.128	40043.28
607.485	39850.07
607.843	39978.65
608.2	40214.8
608.557	40130.29
608.914	40168.7
609.272	40347.46
609.629	40310.39
609.986	40447.79
610.343	40259.1
610.7	40469.71
611.057	40502.03
611.414	40477.85
611.771	40471.52
612.127	40622.93
612.484	40714.45
612.841	40765.3
613.198	40535.47
613.554	40536.15
613.911	40982.69
614.267	40863.6
614.624	40723.72
614.98	40904.05
615.337	41090.26
615.693	41002.13
616.05	40994.44
616.406	41249.13
616.762	41057.72
617.118	41249.35
617.475	41118.74
617.831	41251.16
618.187	41160.32
618.543	41226.3
618.899	41532.96
619.255	41496.8
619.611	41382.46
619.967	41578.84
620.323	41530.48
620.678	41400.54
621.034	41424.26
621.39	41321.67
621.746	41283.48
622.101	41726.4
622.457	41497.26
622.812	41675.33
623.168	41604.15
623.523	41621.09
623.879	41626.97
624.234	41465.39
624.589	41630.59
624.945	41454.77
625.3	41717.59
625.655	41750.81
626.01	41606.63
626.365	41611.6
626.72	41643.92
627.075	41596.01
627.43	41408.45
627.785	41632.17
628.14	41581.1
628.495	41568.67
628.85	41615.22
629.205	41368.45
629.559	41671.72
629.914	41430.59
630.269	41470.36
630.623	41326.41
630.978	41210.03
631.332	41361.21
631.687	41453.42
632.041	41194.89
632.396	41327.77
632.75	41123.48
633.104	41165.06
633.459	41057.49
633.813	40976.59
634.167	41066.76
634.521	40951.06
634.875	41029.25
635.229	40853.88
635.583	40758.74
635.937	40864.5
636.291	40713.77
636.645	40666.77
636.999	40661.8
637.352	40742.93
637.706	40403.73
638.06	40633.78
638.413	40519.2
638.767	40322.6
639.121	40439.88
639.474	40154.92
639.828	40193.56
640.181	40344.29
640.534	40251.19
640.888	40108.37
641.241	40020.23
641.594	40028.37
641.947	40063.4
642.301	39980.69
642.654	39885.77
643.007	39923.06
643.36	39826.57
643.713	39870.86
644.066	39914.93
644.419	39593.8
644.771	39441.94
645.124	38918.57
645.477	38831.56
645.83	38604.68
646.182	38471.35
646.535	38412.37
646.888	38568.52
647.24	38291.46
647.593	38528.52
647.945	38430.9
648.298	38211.02
648.65	38328.3
649.002	38197.91
649.355	38279.71
649.707	38140.73
650.059	38270.45
650.411	38665.01
650.763	38766.71
651.115	39273.59
651.467	39056.19
651.819	38928.74
652.171	38943.65
652.523	38788.18
652.875	38919.47
653.227	38620.72
653.578	38716.99
653.93	38803.32
654.282	38651.46
654.633	38425.7
654.985	38615.98
655.337	38578.01
655.688	38519.48
656.039	38651.68
656.391	38328.07
656.742	38390.22
657.094	38481.29
657.445	38460.5
657.796	38360.84
658.147	38411.01
658.498	38396.77
658.849	38412.82
659.2	38294.85
659.551	38190.9
659.902	38348.41
660.253	38122.88
660.604	38097.8
660.955	37990.23
661.306	38018.7
661.656	37883.34
662.007	37879.27
662.358	37816.68
662.708	37930.57
663.059	37808.99
663.409	37404.48
663.76	37886.05
664.11	37605.38
664.461	37653.29
664.811	37626.62
665.161	37483.8
665.511	37491.03
665.862	37328.55
666.212	37415.1
666.562	37396.12
666.912	37265.96
667.262	37169.01
667.612	37004.04
667.962	37111.61
668.312	36941.44
668.662	37087.65
669.011	36698.51
669.361	36772.63
669.711	36638.4
670.06	36491.29
670.41	36519.99
670.76	36330.16
671.109	36413.1
671.459	36217.62
671.808	36327.45
672.157	36255.59
672.507	36022.6
672.856	35960.23
673.205	35840.91
673.554	35832.09
673.904	35783.96
674.253	35964.29
674.602	35814.47
674.951	35283.41
675.3	34956.19
675.649	35446.57
675.998	35494.48
676.346	35477.08
676.695	35676.84
677.044	35346.23
677.393	35456.74
677.741	35514.81
678.09	35380.81
678.438	35268.27
678.787	35349.62
679.135	35180.13
679.484	35021.49
679.832	35275.27
680.181	35093.58
680.529	35213.81
680.877	34954.83
681.225	35216.07
681.573	35440.01
681.922	34995.73
682.27	35034.6
682.618	34972
682.966	35025.79
683.314	35000.25
683.661	34910.31
684.009	34885.68
684.357	34835.51
684.705	35014.71
685.053	35025.11
685.4	34843.65
685.748	34920.48
686.095	34912.12
686.443	34797.09
686.79	34872.8
687.138	34877.77
687.485	34904.66
687.832	34796.64
688.18	34885.68
688.527	34778.34
688.874	34771.11
689.221	34741.95
689.568	34629.41
689.915	34636.65
690.262	34660.15
690.609	34478.91
690.956	34464.67
691.303	34530.89
691.65	34347.16
691.997	34565.24
692.344	34338.12
692.69	34370.44
693.037	34325.92
693.383	34076.21
693.73	34240.05
694.077	34174.51
694.423	34214.51
694.769	34122.08
695.116	33933.16
695.462	33979.49
695.808	33860.62
696.155	34008.41
696.501	33748.99
696.847	33812.49
697.193	33570.91
697.539	33748.08
697.885	33511.93
698.231	33405.27
698.577	33395.1
698.923	33410.24
699.269	33141.54
699.614	32985.16
699.96	32924.15
700.306	33105.84
700.651	32944.03
700.997	32625.4
701.342	32559.41
701.688	32681.67
702.033	32569.13
702.379	32651.39
702.724	32507.66
703.069	32549.69
703.415	32262.02
703.76	32264.28
704.105	32246.88
704.45	32077.17
704.795	31937.28
705.14	31788.13
705.485	31865.42
705.83	31704.75
706.175	31700
706.52	31681.92
706.865	31513.56
707.209	31564.86
707.554	31431.31
707.899	31493
708.243	31343.85
708.588	31263.85
708.932	30980.92
709.277	31092.33
709.621	31043.97
709.966	30954.93
710.31	30963.3
710.654	30628.84
710.998	30889.85
711.342	30722.62
711.687	30641.04
712.031	30485.57
712.375	30436.08
712.719	30454.83
713.063	30308.62
713.407	30545
713.75	30187.27
714.094	30208.51
714.438	30244.67
714.782	30196.76
715.125	29959.71
715.469	30023.43
715.812	29895.3
716.156	29633.39
716.499	29750.67
716.843	29700.73
717.186	29581.86
717.53	29744.12
717.873	29676.78
718.216	29648.75
718.559	29474.97
718.902	29202.66
719.246	29399.5
719.589	29217.13
719.932	29158.6
720.275	29148.2
720.617	29098.26
720.96	29062.33
721.303	29089
721.646	29045.38
721.989	28849.68
722.331	28884.25
722.674	28759.74
723.016	28792.73
723.359	28758.61
723.701	28804.71
724.044	28576.24
724.386	28349.81
724.729	28666.41
725.071	28367.88
725.413	28552.96
725.755	28398.39
726.097	28371.05
726.439	28188.68
726.782	28198.85
727.124	28338.51
727.465	28104.39
727.807	28070.72
728.149	28210.37
728.491	28051.73
728.833	28059.87
729.175	27808.58
729.516	27968.35
729.858	27862.36
730.199	27858.29
730.541	27828.01
730.882	27707.79
731.224	27727
731.565	27635.93
731.906	27627.56
732.248	27535.59
732.589	27504.4
732.93	27321.13
733.271	27429.83
733.612	27409.04
733.953	27365.65
734.294	27316.61
734.635	27193.9
734.976	27244.75
735.317	27113.23
735.658	27050.86
735.999	27040.01
736.339	27047.92
736.68	27169.05
737.021	27006.56
737.361	26900.13
737.702	26963.85
738.042	26922.95
738.383	26807.93
738.723	26790.98
739.063	26739.23
739.404	26788.72
739.744	26681.15
740.084	26441.38
740.424	26558.89
740.764	26529.51
741.104	26707.59
741.444	26404.55
741.784	26251.33
742.124	26349.18
742.464	26336.75
742.804	26332.01
743.143	26158.68
743.483	26250.2
743.823	26162.29
744.162	26155.96
744.502	26153.48
744.841	26012.92
745.181	26060.83
745.52	26030.54
745.86	26001.62
746.199	25819.7
746.538	25844.56
746.877	25814.28
747.216	25860.61
747.556	25743.55
747.895	25670.55
748.234	25575.19
748.573	25574.51
748.911	25451.8
749.25	25429.66
749.589	25369.77
749.928	25396.44
750.267	25452.71
750.605	25463.55
750.944	25148.08
751.283	24995.32
751.621	25358.47
751.96	25084.13
752.298	25110.12
752.636	25047.29
752.975	24913.74
753.313	24749.67
753.651	24884.59
753.989	24773.85
754.327	24662.67
754.666	24659.96
755.004	24687.98
755.342	24572.96
755.679	24612.05
756.017	24478.04
756.355	24577.02
756.693	24367.31
757.031	24342.45
757.368	24280.76
757.706	24168.45
758.044	24109.46
758.381	24040.31
758.719	23833.09
759.056	24064.27
759.394	23841.9
759.731	23671.28
760.068	23743.82
760.405	23638.74
760.743	23434.23
761.08	23490.5
761.417	23347.45
761.754	23440.1
762.091	23327.34
762.428	23122.6
762.765	23093.9
763.102	23143.84
763.438	23041.02
763.775	22948.14
764.112	23062.71
764.449	22979.33
764.785	22802.83
765.122	22727.13
765.458	22528.04
765.795	22470.86
766.131	22441.94
766.467	22498.43
766.804	22309.51
767.14	22117.88
767.476	22184.32
767.812	22025.45
768.148	22157.43
768.485	21999.24
768.821	21869.98
769.157	21870.2
769.492	21766.25
769.828	21775.97
770.164	21618.46
770.5	21564.67
770.836	21438.35
771.171	21318.13
771.507	21357.9
771.842	21159.94
772.178	21057.34
772.513	21019.38
772.849	21047.85
773.184	20861.64
773.519	20864.58
773.855	20766.28
774.19	20700.06
774.525	20655.77
774.86	20543.68
775.195	20599.95
775.53	20410.13
775.865	20335.1
776.2	20239.51
776.535	20139.85
776.87	20178.72
777.205	20067.76
777.539	19910.03
777.874	19997.26
778.209	19825.51
778.543	19773.76
778.878	19582.13
779.212	19618.06
779.547	19512.3
779.881	19467.55
780.215	19306.2
780.55	19386.65
780.884	19292.42
781.218	19230.72
781.552	19225.07
781.886	19065.3
782.22	19006.32
782.554	18813.33
782.888	18676.84
783.222	18745.99
783.556	18624.41
783.889	18614.24
784.223	18473.23
784.557	18477.3
784.89	18404.76
785.224	18400.24
785.557	18264.87
785.891	18207.7
786.224	18200.47
786.558	18185.78
786.891	17899.91
787.224	18010.19
787.557	17873.47
787.891	17981.49
788.224	17741.72
788.557	17826.01
788.89	17694.27
789.223	17756.64
789.556	17598.45
789.888	17525.01
790.221	17453.82
790.554	17284.56
790.887	17242.07
791.219	17247.72
791.552	17170.89
791.884	17146.03
792.217	17041.18
792.549	16958.01
792.882	16822.2
793.214	16806.83
793.546	16767.51
793.879	16607.06
794.211	16621.53
794.543	16676.67
794.875	16639.6
795.207	16609.1
795.539	16465.6
795.871	16476.9
796.203	16330.69
796.535	16202.55
796.867	16226.28
797.198	16136.34
797.53	16180.86
797.862	15957.36
798.193	16042.56
798.525	15919.62
798.856	15968.21
799.188	15723.7
799.519	15780.42
799.85	15677.82
800.182	15655
800.513	15660.42
800.844	15491.84
801.175	15601.44
801.506	15652.06
801.837	15449.13
802.168	15521.44
802.499	15453.42
802.83	15237.61
803.161	15278.28
803.491	15159.42
803.822	15167.55
804.153	15161.45
804.483	15020.21
804.814	15083.49
805.145	14950.61
805.475	14968.01
805.805	15016.14
806.136	14902.7
806.466	14810.73
806.796	14749.03
807.126	14612.77
807.457	14727.79
807.787	14586.55
808.117	14567.57
808.447	14520.11
808.777	14496.61
809.107	14521.92
809.436	14423.62
809.766	14434.69
810.096	14371.64
810.426	14290.74
810.755	14272.44
811.085	14281.7
811.414	14287.8
811.744	14088.26
812.073	14142.04
812.403	14167.13
812.732	14027.02
813.061	14010.07
813.39	13971.65
813.719	13900.69
814.049	14030.86
814.378	13932.11
814.707	13858.89
815.036	13819.11
815.365	13804.88
815.693	13611.66
816.022	13631.32
816.351	13499.8
816.68	13545.67
817.008	13606.92
817.337	13456.19
817.665	13385.91
817.994	13430.65
818.322	13386.36
818.651	13397.88
818.979	13284.44
819.307	13466.35
819.636	13361.05
819.964	13173.26
820.292	13314.49
820.62	13316.53
820.948	13164.67
821.276	13322.63
821.604	13202.63
821.932	13249.19
822.259	13248.73
822.587	13271.33
822.915	13156.76
823.243	13161.05
823.57	13140.04
823.898	13151.33
824.225	13096.65
824.553	13117.21
824.88	13143.88
825.207	13188.85
825.535	13117.66
825.862	13161.05
826.189	13104.56
826.516	13115.18
826.843	13229.75
827.17	13176.19
827.497	13151.79
827.824	13127.61
828.151	13122.41
828.478	13080.38
828.805	13143.65
829.131	13072.24
829.458	13119.02
829.785	13086.7
830.111	13136.19
830.438	13117.44
830.764	13054.39
831.09	13065.46
831.417	12950.44
831.743	13040.83
832.069	13055.29
832.395	13018.46
832.722	13055.97
833.048	12938.01
833.374	12917.44
833.7	12915.63
834.026	12969.19
834.351	12919.25
834.677	12923.54
835.003	12865.69
835.329	12878.8
835.654	12897.33
835.98	12905.69
836.306	12790.67
836.631	12716.32
836.956	12787.95
837.282	12802.19
837.607	12761.06
837.932	12719.48
838.258	12685.58
838.583	12719.93
838.908	12657.79
839.233	12671.57
839.558	12638.13
839.883	12601.97
840.208	12501.63
840.533	12634.51
840.858	12625.93
841.182	12571.01
841.507	12589.09
841.832	12508.41
842.156	12432.71
842.481	12492.14
842.805	12394.74
843.13	12379.15
843.454	12350.9
843.778	12218.25
844.103	12338.02
844.427	12291.92
844.751	12234.3
845.075	12216.9
845.399	12135.77
845.723	12039.5
846.047	12145.49
846.371	12074.75
846.695	11963.12
847.019	11939.39
847.343	11913.4
847.666	11821.65
847.99	11814.42
848.313	11754.08
848.637	11665.95
848.96	11720.86
849.284	11658.04
849.607	11541.66
849.931	11558.38
850.254	11459.85
850.577	11399.29
850.9	11309.35
851.223	11303.25
851.546	11210.82
851.869	11213.53
852.192	11196.13
852.515	11093.31
852.838	11095.8
853.161	11098.51
853.483	11030.26
853.806	10960.66
854.129	10918.63
854.451	10968.79
854.774	10863.49
855.096	10803.6
855.419	10726.31
855.741	10785.07
856.063	10718.4
856.385	10668.91
856.708	10679.99
857.03	10574
857.352	10682.47
857.674	10549.37
857.996	10576.49
858.318	10460.56
858.64	10442.25
858.961	10432.76
859.283	10449.03
859.605	10349.15
859.926	10368.36
860.248	10366.78
860.57	10296.49
860.891	10266.44
861.212	10260.56
861.534	10248.81
861.855	10125.43
862.176	10252.2
862.498	10273.9
862.819	10128.82
863.14	10179.44
863.461	10141.7
863.782	10073.68
864.103	10111.19
864.424	10035.03
864.745	9965.88
865.065	9981.47
865.386	10039.55
865.707	9942.83
866.027	9996.62
866.348	9999.1
866.668	9884.53
866.989	9920.91
867.309	9802.72
867.63	9827.81
867.95	9807.92
868.27	9783.74
868.59	9801.14
868.91	9702.84
869.23	9801.14
869.55	9687.25
869.87	9801.14
870.19	9708.71
870.51	9702.61
870.83	9745.77
871.15	9625.1
871.469	9640.01
871.789	9665.55
872.109	9618.77
872.428	9621.48
872.748	9570.86
873.067	9595.04
873.386	9546.23
873.706	9549.62
874.025	9508.72
874.344	9498.32
874.663	9531.77
874.982	9422.62
875.301	9375.62
875.62	9425.78
875.939	9425.11
876.258	9332.9
876.577	9277.54
876.896	9347.37
877.214	9367.25
877.533	9328.61
877.852	9317.09
878.17	9318.67
878.489	9349.18
878.807	9283.64
879.125	9284.32
879.444	9305.11
879.762	9190.08
880.08	9303.98
880.398	9212.68
880.716	9153.25
881.034	9175.39
881.352	9144.21
881.67	9106.47
881.988	9133.14
882.306	9115.06
882.624	9049.52
882.941	8994.83
883.259	8999.35
883.577	8953.48
883.894	8952.58
884.212	8951.67
884.529	8951.67
884.846	8868.06
885.164	8929.75
885.481	8835.74
885.798	8887.94
886.115	8830.09
886.432	8788.29
886.75	8759.13
887.067	8781.96
887.383	8684.33
887.7	8729.08
888.017	8715.07
888.334	8689.31
888.651	8652.24
888.967	8622.87
889.284	8544.22
889.6	8614.96
889.917	8520.95
890.233	8537.67
890.55	8486.37
890.866	8536.09
891.182	8459.71
891.498	8368.18
891.815	8393.04
892.131	8369.31
892.447	8353.04
892.763	8349.65
893.079	8298.81
893.395	8307.62
893.71	8281.86
894.026	8212.93
894.342	8241.18
894.657	8110.34
894.973	8155.76
895.289	8104.24
895.604	8098.81
895.92	8025.14
896.235	7965.03
896.55	8064.69
896.865	8046.61
897.181	7930.91
897.496	7970.68
897.811	7948.08
898.126	7905.6
898.441	7896.56
898.756	7857.24
899.071	7790.12
899.386	7825.15
899.7	7786.05
900.015	7696.11
900.33	7658.37
900.644	7685.72
900.959	7692.04
901.273	7625.15
901.588	7586.51
901.902	7551.26
902.216	7558.26
902.531	7528.66
902.845	7515.32
903.159	7439.85
903.473	7433.29
903.787	7399.85
904.101	7358.72
904.415	7339.96
904.729	7209.34
905.042	7254.09
905.356	7240.08
905.67	7180.87
905.984	7218.16
906.297	7151.94
906.611	7129.12
906.924	7086.86
907.237	7109.01
907.551	7064.72
907.864	7007.32
908.177	7036.92
908.491	7031.5
908.804	6964.61
909.117	6935.45
909.43	6873.08
909.743	6814.55
910.056	6840.09
910.368	6828.79
910.681	6750.37
910.994	6703.82
911.307	6729.13
911.619	6744.95
911.932	6712.86
912.244	6637.16
912.557	6610.94
912.869	6599.87
913.181	6601.9
913.494	6559.19
913.806	6477.84
914.118	6497.5
914.43	6454.34
914.742	6470.38
915.054	6416.82
915.366	6354
915.678	6344.96
915.99	6307.9
916.302	6208.47
916.613	6256.6
916.925	6274.68
917.236	6281.91
917.548	6210.05
917.859	6192.2
918.171	6131.18
918.482	6132.76
918.794	6074.01
919.105	6077.4
919.416	6061.58
919.727	6012.99
920.038	6039.21
920.349	5993.78
920.66	5971.41
920.971	5919.89
921.282	5873.33
921.593	5892.54
921.903	5868.59
922.214	5790.62
922.525	5780.91
922.835	5792.43
923.146	5771.64
923.456	5697.75
923.767	5756.95
924.077	5697.29
924.387	5648.26
924.697	5657.52
925.008	5625.43
925.318	5585.43
925.628	5560.8
925.938	5568.71
926.248	5527.35
926.558	5540.69
926.867	5474.47
927.177	5444.87
927.487	5432.22
927.796	5378.43
928.106	5405.32
928.416	5397.64
928.725	5312.22
929.034	5297.08
929.344	5277.64
929.653	5258.89
929.962	5193.58
930.271	5236.97
930.581	5209.17
930.89	5170.75
931.199	5156.74
931.508	5166.01
931.817	5112.22
932.125	5118.1
932.434	5065.22
932.743	5062.28
933.051	4989.06
933.36	5036.97
933.669	4946.58
933.977	4980.48
934.286	4928.27
934.594	4918.11
934.902	4868.84
935.21	4939.8
935.519	4841.72
935.827	4856.64
936.135	4800.14
936.443	4805.34
936.751	4785.45
937.059	4729.86
937.367	4741.16
937.674	4691.67
937.982	4686.25
938.29	4691.67
938.597	4669.52
938.905	4619.81
939.213	4609.64
939.52	4603.99
939.827	4566.48
940.135	4533.48
940.442	4516.53
940.749	4491.68
941.056	4511.79
941.363	4464.56
941.67	4481.28
941.977	4431.79
942.284	4415.75
942.591	4432.02
942.898	4393.6
943.205	4361.74
943.511	4337.78
943.818	4319.7
944.125	4281.51
944.431	4321.06
944.738	4243.77
945.044	4205.81
945.35	4206.03
945.657	4208.29
945.963	4218.01
946.269	4157.22
946.575	4166.26
946.881	4148.41
947.187	4133.04
947.493	4107.28
947.799	4065.47
948.105	4038.81
948.41	4046.04
948.716	4032.93
949.022	4023.89
949.327	4005.81
949.633	3968.98
949.938	3975.31
950.244	3949.54
950.549	3939.15
950.854	3926.04
951.16	3908.64
951.465	3858.92
951.77	3853.27
952.075	3863.22
952.38	3794.97
952.685	3802.88
952.99	3802.88
953.294	3747.74
953.599	3785.71
953.904	3708.65
954.209	3706.39
954.513	3704.13
954.818	3674.75
955.122	3709.55
955.426	3612.6
955.731	3688.08
956.035	3587.29
956.339	3642.66
956.643	3573.06
956.948	3592.49
957.252	3587.29
957.556	3533.06
957.86	3536.45
958.163	3478.59
958.467	3464.81
958.771	3472.72
959.075	3491.25
959.378	3467.3
959.682	3446.05
959.985	3416.68
960.289	3403.79
960.592	3368.77
960.896	3399.5
961.199	3369.67
961.502	3366.73
961.805	3345.94
962.108	3294.19
962.411	3354.76
962.714	3265.27
963.017	3302.78
963.32	3262.56
963.623	3249.9
963.926	3241.31
964.228	3218.71
964.531	3230.24
964.833	3210.58
965.136	3210.81
965.438	3163.35
965.741	3166.06
966.043	3127.42
966.345	3144.82
966.648	3157.93
966.95	3109.34
967.252	3117.25
967.554	3104.14
967.856	3082.67
968.158	3025.73
968.46	3052.84
968.761	3000.64
969.063	3004.48
969.365	2980.53
969.666	2962.68
969.968	2951.38
970.269	2955.44
970.571	2958.61
970.872	2925.62
971.174	2901.44
971.475	2925.62
971.776	2887.42
972.077	2880.87
972.378	2877.03
972.679	2871.61
972.98	2839.74
973.281	2838.84
973.582	2809.91
973.883	2796.8
974.183	2793.64
974.484	2802.23
974.785	2746.86
975.085	2733.3
975.386	2741.44
975.686	2720.87
975.986	2702.8
976.287	2720.87
976.587	2720.65
976.887	2677.71
977.187	2661.67
977.487	2682.91
977.787	2649.69
978.087	2650.82
978.387	2642.01
978.687	2642.01
978.987	2603.59
979.286	2601.56
979.586	2597.94
979.885	2570.6
980.185	2557.04
980.484	2536.92
980.784	2536.47
981.083	2498.96
981.382	2555.23
981.682	2460.32
981.981	2496.93
982.28	2482.46
982.579	2469.36
982.878	2463.93
983.177	2459.86
983.475	2410.15
983.774	2414.44
984.073	2434.1
984.372	2395.46
984.67	2389.13
984.969	2374.9
985.267	2390.04
985.566	2397.95
985.864	2319.76
986.162	2341.45
986.461	2300.55
986.759	2319.3
987.057	2315.01
987.355	2296.25
987.653	2253.32
987.951	2274.11
988.249	2248.8
988.547	2276.37
988.844	2290.6
989.142	2239.53
989.44	2221.45
989.737	2231.85
990.035	2170.38
990.332	2228.01
990.63	2142.81
990.927	2169.7
991.224	2174
991.521	2133.32
991.819	2114.34
992.116	2139.87
992.413	2124.73
992.71	2123.15
993.006	2105.07
993.303	2099.87
993.6	2099.2
993.897	2091.96
994.193	2076.82
994.49	2065.75
994.787	2047.45
995.083	2055.13
995.379	2046.77
995.676	2033.21
995.972	2009.26
996.268	2017.62
996.565	1990.5
996.861	1952.31
997.157	1997.73
997.453	1962.25
997.749	1945.98
998.044	1940.78
998.34	1925.19
998.636	1925.19
998.932	1913.21
999.227	1905.75
999.523	1905.53
999.818	1902.82
1000.114	1891.07
1000.409	1879.31
1000.704	1838.64
1001	1831.86
1001.295	1846.1
1001.59	1824.18
1001.885	1821.92
1002.18	1809.49
1002.475	1828.47
1002.77	1799.54
1003.065	1787.34
1003.359	1759.54
1003.654	1788.92
1003.949	1729.04
1004.243	1746.44
1004.538	1728.36
1004.832	1736.95
1005.127	1735.14
1005.421	1688.59
1005.715	1670.96
1006.009	1696.49
1006.304	1678.64
1006.598	1677.06
1006.892	1649.26
1007.186	1670.51
1007.48	1638.87
1007.773	1625.08
1008.067	1612.2
1008.361	1604.97
1008.655	1607.23
1008.948	1564.97
1009.242	1571.75
1009.535	1569.27
1009.829	1566.78
1010.122	1554.58
1010.415	1533.11
1010.708	1563.39
1011.001	1528.14
1011.295	1522.04
1011.588	1542.6
1011.881	1526.78
1012.173	1482.49
1012.466	1499.44
1012.759	1460.79
1013.052	1483.62
1013.344	1456.95
1013.637	1483.85
1013.93	1471.87
1014.222	1448.82
1014.514	1430.97
1014.807	1421.47
1015.099	1404.98
1015.391	1420.8
1015.683	1400.01
1015.976	1391.19
1016.268	1392.1
1016.56	1391.19
1016.851	1354.13
1017.143	1361.14
1017.435	1356.62
1017.727	1353.91
1018.018	1352.32
1018.31	1339.22
1018.602	1317.3
1018.893	1316.84
1019.185	1291.76
1019.476	1314.58
1019.767	1290.86
1020.058	1283.62
1020.35	1277.75
1020.641	1276.84
1020.932	1265.09
1021.223	1254.92
1021.514	1229.39
1021.804	1228.71
1022.095	1242.72
1022.386	1216.96
1022.677	1204.3
1022.967	1189.84
1023.258	1196.85
1023.548	1196.62
1023.839	1175.83
1024.129	1164.08
1024.419	1177.19
1024.709	1169.05
1025	1132.22
1025.29	1110.75
1025.58	1130.41
1025.87	1117.75
1026.16	1103.97
1026.449	1114.14
1026.739	1108.49
1027.029	1110.52
1027.319	1099.22
1027.608	1059.68
1027.898	1075.27
1028.187	1072.33
1028.477	1042.73
1028.766	1042.95
1029.055	1034.59
1029.344	1034.14
1029.634	1040.69
1029.923	1030.98
1030.212	1002.95
1030.501	1011.77
1030.79	1009.73
1031.078	1015.16
1031.367	975.61
1031.656	978.55
1031.945	989.62
1032.233	958.21
1032.522	972.22
1032.81	974.48
1033.099	987.36
1033.387	953.46
1033.675	927.02
1033.963	967.7
1034.251	924.31
1034.54	953.46
1034.828	932.67
1035.116	924.54
1035.403	893.35
1035.691	913.92
1035.979	911.2
1036.267	901.71
1036.554	907.59
1036.842	897.65
1037.129	868.72
1037.417	860.13
1037.704	884.09
1037.992	834.82
1038.279	865.33
1038.566	860.81
1038.853	860.81
1039.14	860.81
