Data from White_paper_FLMS001491_056.txt Node
Date: Tue Feb 07 10:35:16 GMT 2017
User: dcchb
Spectrometer: FLMS00149
Trigger mode: 0
Integration Time (sec): 2.000000E-2
Scans to average: 10
Electric dark correction enabled: true
Nonlinearity correction enabled: false
Boxcar width: 0
XAxis mode: Wavelengths
Number of Pixels in Spectrum: 2048
>>>>>Begin Spectral Data<<<<<
341.393	-1.71
341.776	-1.71
342.16	-1.71
342.543	-52.78
342.927	-79.9
343.31	-70.86
343.693	-71.99
344.077	-55.72
344.46	-65.44
344.843	-63.18
345.226	-35.83
345.61	-29.5
345.993	-18.88
346.376	-9.84
346.759	18.63
347.142	19.31
347.525	50.04
347.908	47.1
348.291	69.7
348.674	102.7
349.057	113.77
349.44	108.34
349.823	156.48
350.206	167.78
350.588	235.57
350.971	237.15
351.354	247.55
351.737	257.27
352.119	280.32
352.502	284.84
352.884	284.16
353.267	316.93
353.65	297.72
354.032	333.65
354.414	335.68
354.797	339.52
355.179	355.34
355.562	352.18
355.944	358.51
356.326	367.77
356.709	375.68
357.091	384.72
357.473	365.29
357.855	362.58
358.238	389.02
358.62	377.04
359.002	368
359.384	371.61
359.766	377.04
360.148	366.87
360.53	369.81
360.912	357.6
361.294	344.5
361.676	378.62
362.057	382.46
362.439	368.45
362.821	374.33
363.203	364.84
363.584	364.61
363.966	362.58
364.348	362.35
364.729	370.71
365.111	351.5
365.493	361.45
365.874	387.43
366.256	364.16
366.637	372.97
367.019	368.68
367.4	350.15
367.781	363.48
368.163	368.68
368.544	372.07
368.925	368.68
369.306	360.09
369.688	365.74
370.069	345.85
370.45	348.34
370.831	358.73
371.212	364.84
371.593	361.9
371.974	377.04
372.355	365.06
372.736	370.26
373.117	386.08
373.498	371.61
373.879	378.17
374.26	372.74
374.641	377.72
375.021	368.45
375.402	359.86
375.783	383.59
376.163	388.56
376.544	402.57
376.925	394.66
377.305	381.11
377.686	389.02
378.066	411.16
378.447	398.28
378.827	390.37
379.208	409.13
379.588	396.25
379.968	422.46
380.349	404.16
380.729	396.47
381.109	399.18
381.489	425.17
381.87	419.52
382.25	414.1
382.63	434.44
383.01	424.49
383.39	440.77
383.77	437.15
384.15	426.98
384.53	446.64
384.91	446.19
385.29	458.84
385.67	469.24
386.049	465.4
386.429	466.08
386.809	455.91
387.189	450.03
387.568	466.08
387.948	461.56
388.328	482.12
388.707	478.5
389.087	480.54
389.466	487.32
389.846	487.77
390.225	481.67
390.605	508.33
390.984	499.97
391.363	505.62
391.743	507.88
392.122	535.45
392.501	499.07
392.881	539.52
393.26	525.06
393.639	528.45
394.018	545.85
394.397	556.92
394.776	565.73
395.155	550.14
395.534	563.47
395.913	596.47
396.292	570.48
396.671	586.98
397.05	598.5
397.429	587.43
397.808	585.85
398.186	614.32
398.565	624.26
398.944	587.2
399.323	616.35
399.701	631.27
400.08	647.99
400.458	651.83
400.837	656.35
401.215	646.64
401.594	671.95
401.972	706.29
402.351	679.18
402.729	685.28
403.107	709.23
403.486	715.11
403.864	707.88
404.242	730.7
404.62	765.5
404.999	760.08
405.377	782.45
405.755	805.95
406.133	832.17
406.511	818.38
406.889	847.53
407.267	871.71
407.645	900.41
408.023	905.84
408.401	917.59
408.779	949.23
409.156	947.42
409.534	998.26
409.912	1008.43
410.29	1060.86
410.667	1037.59
411.045	1074.42
411.422	1101.54
411.8	1130.92
412.178	1145.15
412.555	1181.99
412.933	1208.65
413.31	1265.15
413.687	1278.26
414.065	1299.5
414.442	1338.82
414.819	1360.97
415.197	1391.93
415.574	1392.6
415.951	1448.2
416.328	1471.92
416.705	1487.07
417.082	1512.6
417.46	1538.36
417.837	1597.8
418.214	1599.83
418.591	1634.63
418.967	1644.12
419.344	1653.16
419.721	1730
420.098	1741.52
420.475	1784.91
420.852	1797.79
421.228	1797.79
421.605	1842.76
421.982	1854.29
422.358	1901.29
422.735	1901.29
423.111	1924.79
423.488	1982.87
423.864	1985.81
424.241	2036.88
424.617	2068.97
424.994	2070.78
425.37	2122.08
425.746	2122.3
426.123	2168.4
426.499	2137.22
426.875	2202.3
427.251	2262.64
427.627	2276.42
428.003	2304.9
428.379	2366.59
428.756	2366.14
429.132	2416.98
429.507	2475.51
429.883	2449.98
430.259	2521.39
430.635	2540.82
431.011	2569.97
431.387	2637.09
431.763	2721.38
432.138	2699.46
432.514	2762.29
432.89	2803.19
433.265	2884.32
433.641	2880.93
434.016	2926.8
434.392	2957.54
434.767	2999.34
435.143	3017.19
435.518	3121.37
435.894	3117.98
436.269	3175.83
436.644	3176.29
437.02	3236.62
437.395	3239.11
437.77	3309.62
438.145	3394.36
438.52	3369.73
438.895	3442.72
439.271	3439.56
439.646	3518.42
440.021	3524.98
440.395	3558.42
440.77	3561.36
441.145	3576.28
441.52	3637.74
441.895	3661.02
442.27	3687.69
442.645	3686.56
443.019	3712.32
443.394	3751.19
443.769	3790.28
444.143	3777.17
444.518	3858.75
444.892	3849.49
445.267	3860.34
445.641	3921.58
446.016	3922.93
446.39	3969.49
446.764	3995.25
447.139	4013.55
447.513	4040.44
447.887	4033.67
448.262	4045.42
448.636	4126.32
449.01	4099.2
449.384	4173.1
449.758	4193.43
450.132	4260.33
450.506	4267.11
450.88	4327.89
451.254	4324.5
451.628	4385.52
452.002	4428.91
452.376	4451.96
452.75	4486.99
453.123	4549.81
453.497	4604.05
453.871	4680.88
454.244	4768.34
454.618	4746.19
454.992	4776.24
455.365	4817.15
455.739	4891.5
456.112	5009.46
456.486	4962.68
456.859	5087.2
457.232	5192.96
457.606	5180.08
457.979	5257.81
458.352	5378.94
458.725	5394.08
459.099	5426.85
459.472	5568.99
459.845	5582.1
460.218	5612.61
460.591	5677.46
460.964	5725.6
461.337	5854.41
461.71	5920.85
462.083	6021.41
462.456	6043.78
462.829	6106.6
463.201	6206.26
463.574	6231.12
463.947	6360.61
464.32	6420.5
464.692	6489.65
465.065	6455.3
465.438	6648.74
465.81	6729.64
466.183	6747.04
466.555	6924.66
466.928	7030.42
467.3	6998.11
467.672	7133.02
468.045	7280.59
468.417	7333.01
468.789	7405.78
469.161	7504.08
469.534	7573.01
469.906	7868.82
470.278	7838.08
470.65	7900.68
471.022	8103.61
471.394	8217.06
471.766	8278.75
472.138	8415.92
472.51	8599.42
472.882	8691.17
473.253	8845.97
473.625	8932.07
473.997	9127.32
474.369	9178.16
474.74	9281.21
475.112	9450.7
475.484	9574.99
475.855	9721.65
476.227	9835.32
476.598	10132.04
476.97	10227.17
477.341	10412.48
477.713	10543.32
478.084	10661.06
478.455	10964.1
478.827	11043.2
479.198	11361.61
479.569	11344.89
479.94	11738.55
480.311	11786.23
480.682	12046.56
481.053	12319.77
481.424	12470.73
481.795	12582.14
482.166	12802.7
482.537	12939.19
482.908	13232.75
483.279	13365.62
483.65	13629.8
484.021	13759.74
484.391	14011.71
484.762	14178.26
485.133	14298.03
485.503	14379.16
485.874	14847.84
486.244	14860.5
486.615	15180.72
486.985	15333.26
487.356	15622.51
487.726	15723.98
488.097	16119.45
488.467	16105.89
488.837	16528.48
489.207	16587.91
489.578	16781.13
489.948	16871.75
490.318	17180.21
490.688	17279.64
491.058	17602.35
491.428	17841.44
491.798	17923.92
492.168	18371.37
492.538	18438.94
492.908	18564.58
493.278	18958.92
493.648	18851.35
494.017	19157.11
494.387	19274.17
494.757	19462.19
495.126	19604.78
495.496	19654.5
495.866	19848.39
496.235	20061.94
496.605	20188.04
496.974	20360.92
497.344	20479.11
497.713	20590.07
498.082	20815.82
498.452	21042.26
498.821	21105.31
499.19	21187.34
499.559	21360.67
499.928	21516.37
500.298	21645.63
500.667	21792.75
501.036	21776.7
501.405	22124.04
501.774	22095.34
502.143	22270.47
502.512	22477.7
502.88	22695.55
503.249	22706.39
503.618	22774.64
503.987	22907.07
504.356	23142.54
504.724	23154.29
505.093	23381.86
505.462	23477.22
505.83	23760.38
506.199	23854.84
506.567	24167.82
506.936	24081.05
507.304	24430.42
507.672	24569.4
508.041	24597.42
508.409	24725.1
508.777	24960.57
509.145	24978.65
509.514	25223.39
509.882	25395.14
510.25	25452.54
510.618	25678.97
510.986	25642.14
511.354	25956.03
511.722	26181.33
512.09	26484.15
512.458	26370.7
512.826	26621.09
513.193	26708.1
513.561	26839.62
513.929	27067.64
514.297	27483.22
514.664	27569.77
515.032	27686.6
515.4	27955.97
515.767	28012.47
516.135	28156.65
516.502	28028.06
516.869	28594.15
517.237	28658.33
517.604	28618.1
517.972	28986
518.339	29097.19
518.706	29187.81
519.073	29413.56
519.44	29688.13
519.808	29795.47
520.175	29942.59
520.542	30297.16
520.909	30492.18
521.276	30457.6
521.643	30757.26
522.009	30976.69
522.376	31263.68
522.743	31431.14
523.11	31741.19
523.477	31901.86
523.843	32156.09
524.21	32299.59
524.577	32633.82
524.943	32758.33
525.31	32993.81
525.676	33335.27
526.043	33454.36
526.409	33565.54
526.776	33900.68
527.142	33948.81
527.508	34270.84
527.874	34404.17
528.241	34667.66
528.607	34806.87
528.973	35098.39
529.339	34956.92
529.705	35513.97
530.071	35715.54
530.437	35918.7
530.803	36076.21
531.169	36268.98
531.535	36261.07
531.901	36506.48
532.267	36774.27
532.632	36960.48
532.998	36963.19
533.364	37143.3
533.73	37362.51
534.095	37621.93
534.461	37682.05
534.826	37939.21
535.192	37898.54
535.557	38324.06
535.923	38326.55
536.288	38433.44
536.653	38702.13
537.019	38576.03
537.384	38748.23
537.749	39066.64
538.114	39200.42
538.479	39247.65
538.845	39490.36
539.21	39400.64
539.575	39614.42
539.94	39717.25
540.305	39932.83
540.67	39872.95
541.034	39957.47
541.399	40299.15
541.764	40460.5
542.129	40695.53
542.494	40712.47
542.858	40856.65
543.223	40818.23
543.587	41195.85
543.952	41191.11
544.316	41417.31
544.681	41264.55
545.045	41453.25
545.41	41817.3
545.774	41996.73
546.138	41919.45
546.503	42096.39
546.867	42191.53
547.231	42448.47
547.595	42591.97
547.959	42733.66
548.324	42686.43
548.688	42800.56
549.052	43066.54
549.416	43051.62
549.779	43173.43
550.143	43315.8
550.507	43641.89
550.871	43705.16
551.235	43599.4
551.599	44147.64
551.962	44068.32
552.326	44218.6
552.689	44398.25
553.053	44311.02
553.417	44454.75
553.78	45039.14
554.143	44783.1
554.507	44920.95
554.87	45161.17
555.234	45448.4
555.597	45230.55
555.96	45432.58
556.323	45752.12
556.686	45706.47
557.05	46061.71
557.413	46161.82
557.776	46208.83
558.139	46416.96
558.502	46580.79
558.865	46665.09
559.228	46959.32
559.59	47125.87
559.953	47154.11
560.316	47512.75
560.679	47497.61
561.041	47776.7
561.404	47865.06
561.767	48129.23
562.129	48184.14
562.492	48378.94
562.854	48359.28
563.217	48556.34
563.579	48701.87
563.941	48996.78
564.304	49025.48
564.666	49170.11
565.028	49276.32
565.39	49384.11
565.753	49683.76
566.115	49798.34
566.477	49970.08
566.839	50009.18
567.201	50219.12
567.563	50232.68
567.925	50597.86
568.287	50507.7
568.648	50598.99
569.01	50805.54
569.372	50950.17
569.734	50920.79
570.095	51132.77
570.457	51389.26
570.819	51407.79
571.18	51375.02
571.542	51608.69
571.903	51609.59
572.265	51855.68
572.626	51910.82
572.987	51945.4
573.349	52092.29
573.71	52198.95
574.071	52315.79
574.432	52474.2
574.794	52645.27
575.155	52614.53
575.516	52582.45
575.877	52677.58
576.238	52772.04
576.599	52894.53
576.96	52929.78
577.32	52946.73
577.681	53139.72
578.042	53185.82
578.403	53192.37
578.763	53229.43
579.124	53388.75
579.485	53369.54
579.845	53601.85
580.206	53505.13
580.566	53590.1
580.927	53609.76
581.287	53754.17
581.648	53558.01
582.008	53749.19
582.368	53727.73
582.728	53826.93
583.089	53867.84
583.449	53785.8
583.809	53790.32
584.169	53991.9
584.529	53973.82
584.889	54157.54
585.249	53914.61
585.609	53906.03
585.969	54049.75
586.329	53951.67
586.688	54066.93
587.048	54087.49
587.408	54160.26
587.768	54178.79
588.127	54129.3
588.487	54101.5
588.846	54301.95
589.206	54130.43
589.565	54099.69
589.925	54291.1
590.284	54187.6
590.643	54267.82
591.003	54373.36
591.362	54405.9
591.721	54301.72
592.08	54414.49
592.44	54465.79
592.799	54423.07
593.158	54411.55
593.517	54395.28
593.876	54407.71
594.235	54414.26
594.593	54502.39
594.952	54592.56
595.311	54454.26
595.67	54515.28
596.029	54736.74
596.387	54738.77
596.746	54735.83
597.104	54673.46
597.463	54653.8
597.822	54784.87
598.18	54731.77
598.538	54640.24
598.897	54811.09
599.255	54673.69
599.613	55035.26
599.972	54857.19
600.33	54962.27
600.688	54819.9
601.046	54951.42
601.404	54993.68
601.762	54952.1
602.12	55080.46
602.478	55122.49
602.836	55100.34
603.194	54981.7
603.552	55053.11
603.91	54987.81
604.268	55188.7
604.625	55079.1
604.983	55122.94
605.341	55067.35
605.698	55208.59
606.056	55298.31
606.413	55155.48
606.771	55268.93
607.128	55402.94
607.485	55294.24
607.843	55260.79
608.2	55394.8
608.557	55485.65
608.914	55394.35
609.272	55485.19
609.629	55505.98
609.986	55590.5
610.343	55512.54
610.7	55666.66
611.057	55600.9
611.414	55623.04
611.771	55615.13
612.127	55726.77
612.484	55789.37
612.841	55795.02
613.198	55729.26
613.554	55771.74
613.911	55814.9
614.267	55877.27
614.624	55902.81
614.98	55902.81
615.337	56017.38
615.693	55856.48
616.05	55886.76
616.406	56115.23
616.762	55934.45
617.118	55952.75
617.475	55978.51
617.831	56028.68
618.187	56064.16
618.543	56096.7
618.899	56231.61
619.255	56120.21
619.611	56137.61
619.967	56307.32
620.323	56283.59
620.678	56180.99
621.034	56140.09
621.39	56139.41
621.746	56120.43
622.101	56378.28
622.457	56137.15
622.812	56209.24
623.168	56329.24
623.523	56346.19
623.879	56353.42
624.234	56196.14
624.589	56272.97
624.945	56378.96
625.3	56296.02
625.655	56292.86
626.01	56337.15
626.365	56373.31
626.72	56329.69
627.075	56234.33
627.43	56269.35
627.785	56269.81
628.14	56267.09
628.495	56312.97
628.85	56364.49
629.205	56199.07
629.559	56384.38
629.914	56230.71
630.269	56280.43
630.623	56220.54
630.978	56155.91
631.332	56307.32
631.687	56295.79
632.041	56202.46
632.396	56253.31
632.75	56192.07
633.104	56218.51
633.459	56147.1
633.813	56117.49
634.167	56059.87
634.521	56106.19
634.875	56169.92
635.229	56098.28
635.583	55940.77
635.937	56019.42
636.291	55965.63
636.645	55985.07
636.999	55904.17
637.352	56036.82
637.706	55823.49
638.06	55939.64
638.413	55941.23
638.767	55830.95
639.121	55917.27
639.474	55777.16
639.828	55794.11
640.181	55783.49
640.534	55863.49
640.888	55765.41
641.241	55677.5
641.594	55747.11
641.947	55709.14
642.301	55676.83
642.654	55781.91
643.007	55771.51
643.36	55677.05
643.713	55590.28
644.066	55723.38
644.419	55531.97
644.771	55376.04
645.124	55163.39
645.477	55034.58
645.83	54891.31
646.182	54826.23
646.535	54736.74
646.888	54852.44
647.24	54705.33
647.593	54767.02
647.945	54780.35
648.298	54723.86
648.65	54710.07
649.002	54609.74
649.355	54701.03
649.707	54661.26
650.059	54710.98
650.411	55106.67
650.763	55193
651.115	55466.66
651.467	55322.26
651.819	55338.76
652.171	55238.19
652.523	55170.4
652.875	55186.67
653.227	55032.78
653.578	55276.84
653.93	55134.69
654.282	55150.51
654.633	55033
654.985	55196.84
655.337	55037.07
655.688	55121.81
656.039	55259.89
656.391	54874.81
656.742	55049.5
657.094	55049.05
657.445	55089.5
657.796	55042.95
658.147	54962.27
658.498	55009.73
658.849	55106.22
659.2	54967.92
659.551	54896.28
659.902	54986.68
660.253	54910.97
660.604	54909.39
660.955	54854.25
661.306	54969.95
661.656	54956.62
662.007	54877.75
662.358	54890.41
662.708	54918.88
663.059	54852.22
663.409	54638.21
663.76	54911.2
664.11	54875.27
664.461	54877.07
664.811	54834.36
665.161	54820.13
665.511	54704.2
665.862	54760.01
666.212	54809.96
666.562	54811.99
666.912	54799.56
667.262	54703.07
667.612	54659
667.962	54723.86
668.312	54678.21
668.662	54831.88
669.011	54697.87
669.361	54667.59
669.711	54581.94
670.06	54614.93
670.41	54422.17
670.76	54476.41
671.109	54607.7
671.459	54493.36
671.808	54494.71
672.157	54527.93
672.507	54237.99
672.856	54290.87
673.205	54401.38
673.554	54367.93
673.904	54261.27
674.253	54478.67
674.602	54387.82
674.951	53846.82
675.3	53685.01
675.649	54248.62
675.998	54163.87
676.346	54117.55
676.695	54273.93
677.044	54067.83
677.393	54176.08
677.741	54155.06
678.09	54013.82
678.438	53966.59
678.787	54041.39
679.135	54000.49
679.484	53785.8
679.832	53868.96
680.181	53696.09
680.529	53777.89
680.877	53700.61
681.225	53736.54
681.573	53815.63
681.922	53556.88
682.27	53557.33
682.618	53565.92
682.966	53466.49
683.314	53442.54
683.661	53347.85
684.009	53272.14
684.357	53216.1
684.705	53121.41
685.053	53106.5
685.4	53017.24
685.748	52894.08
686.095	52912.15
686.443	52766.62
686.79	52748.99
687.138	52708.09
687.485	52673.06
687.832	52546.51
688.18	52632.39
688.527	52500.87
688.874	52436.69
689.221	52312.85
689.568	52238.95
689.915	52215.68
690.262	52207.09
690.609	52026.98
690.956	51964.16
691.303	51980.2
691.65	51761.68
691.997	51789.7
692.344	51531.63
692.69	51503.38
693.037	51644.16
693.383	51242.82
693.73	51436.71
694.077	51212.76
694.423	51103.61
694.769	51019.32
695.116	50977.52
695.462	50867.24
695.808	50784.3
696.155	50824.75
696.501	50518.32
696.847	50561.26
697.193	50333.24
697.539	50526
697.885	50128.27
698.231	50127.37
698.577	50127.14
698.923	49956.07
699.269	49801.95
699.614	49638.79
699.96	49648.06
700.306	49614.16
700.651	49552.47
700.997	49277.67
701.342	49169.43
701.688	49308.18
702.033	49053.95
702.379	49091.69
702.724	49038.81
703.069	49011.92
703.415	48684.69
703.76	48639.95
704.105	48539.61
704.45	48511.37
704.795	48232.95
705.14	48264.82
705.485	48239.51
705.83	48043.58
706.175	48072.96
706.52	47924.04
706.865	47912.74
707.209	47753.87
707.554	47707.77
707.899	47637.72
708.243	47501
708.588	47472.75
708.932	47179.65
709.277	47262.58
709.621	47270.49
709.966	46963.61
710.31	47087
710.654	46710.96
710.998	46811.07
711.342	46808.36
711.687	46651.75
712.031	46452.66
712.375	46330.18
712.719	46444.3
713.063	46405.21
713.407	46460.57
713.75	46173.8
714.094	46273.01
714.438	46052.67
714.782	45913.24
715.125	45867.37
715.469	45955.05
715.812	45600.26
716.156	45511.44
716.499	45652.68
716.843	45598
717.186	45318.23
717.53	45572.46
717.873	45466.02
718.216	45238.01
718.559	45198.01
718.902	44958.01
719.246	45077.56
719.589	44890.9
719.932	44725.02
720.275	44714.63
720.617	44654.07
720.96	44694.06
721.303	44512.83
721.646	44509.66
721.989	44275.54
722.331	44442.77
722.674	44337.46
723.016	44209.33
723.359	44179.28
723.701	44151.71
724.044	43799.4
724.386	43750.59
724.729	43866.52
725.071	43895.44
725.413	43864.48
725.755	43778.38
726.097	43604.38
726.439	43438.28
726.782	43412.97
727.124	43700.64
727.465	43348.56
727.807	43378.62
728.149	43193.77
728.491	43181.79
728.833	43226.98
729.175	43150.15
729.516	42840.78
729.858	42870.16
730.199	42857.5
730.541	42784.51
730.882	42740.9
731.224	42806.88
731.565	42634.23
731.906	42614.12
732.248	42781.57
732.589	42412.09
732.93	42401.47
733.271	42336.39
733.612	42421.36
733.953	42379.78
734.294	42214.58
734.635	42152.89
734.976	42205.09
735.317	41914.25
735.658	41974.14
735.999	41866.79
736.339	41841.71
736.68	41977.3
737.021	41827.7
737.361	41641.94
737.702	41862.5
738.042	41738.66
738.383	41634.48
738.723	41528.27
739.063	41435.39
739.404	41495.05
739.744	41488.5
740.084	41332.35
740.424	41337.32
740.764	41200.15
741.104	41218
741.444	41005.8
741.784	41001.51
742.124	41136.42
742.464	41025.91
742.804	40957.21
743.143	40961.73
743.483	40904.79
743.823	40672.02
744.162	40636.09
744.502	40677
744.841	40513.16
745.181	40600.84
745.52	40449.88
745.86	40383.67
746.199	40380.96
746.538	40468.87
746.877	40391.35
747.216	40302.09
747.556	40183.68
747.895	40245.59
748.234	40099.16
748.573	39924.25
748.911	39893.74
749.25	39871.59
749.589	39769.9
749.928	39720.18
750.267	39745.27
750.605	39778.94
750.944	39581.66
751.283	39401.77
751.621	39403.81
751.96	39296.01
752.298	39148
752.636	39202.91
752.975	38986.64
753.313	38885.86
753.651	39106.87
753.989	38859.42
754.327	38744.62
754.666	38624.17
755.004	38771.73
755.342	38691.51
755.679	38721.57
756.017	38321.13
756.355	38434.34
756.693	38265.76
757.031	38414.46
757.368	38113.67
757.706	38046.1
758.044	37816.28
758.381	37814.25
758.719	37666.23
759.056	37806.34
759.394	37651.76
759.731	37430.53
760.068	37293.13
760.405	37285.45
760.743	37056.07
761.08	37129.52
761.417	36948.28
761.754	36855.18
762.091	36878
762.428	36666.48
762.765	36494.96
763.102	36602.07
763.438	36380.84
763.775	36243.44
764.112	36249.99
764.449	36257.68
764.785	36093.16
765.122	35774.3
765.458	35734.3
765.795	35577.47
766.131	35722.55
766.467	35636.45
766.804	35390.35
767.14	35113.3
767.476	35055
767.812	35001.21
768.148	34964.15
768.485	34842.35
768.821	34657.49
769.157	34586.31
769.492	34600.77
769.828	34489.59
770.164	34148.13
770.5	34131.18
770.836	34067.68
771.171	33782.71
771.507	33852.09
771.842	33639.44
772.178	33540.46
772.513	33396.73
772.849	33356.74
773.184	33327.36
773.519	33157.65
773.855	33073.13
774.19	32893.92
774.525	32788.62
774.86	32904.54
775.195	32750.2
775.53	32477.66
775.865	32323.77
776.2	32066.6
776.535	31943.44
776.87	31991.57
777.205	31836.55
777.539	31698.7
777.874	31627.52
778.209	31566.27
778.543	31432.04
778.878	31268.88
779.212	31259.84
779.547	31111.82
779.881	31032.5
780.215	30777.14
780.55	31064.14
780.884	30783.24
781.218	30667.77
781.552	30697.82
781.886	30345.52
782.22	30231.39
782.554	30156.82
782.888	30070.04
783.222	29806.09
783.556	29638.19
783.889	29686.32
784.223	29502.37
784.557	29485.65
784.89	29467.8
785.224	29343.06
785.557	29085.66
785.891	29058.54
786.224	28976.96
786.558	28960.92
786.891	28664.66
787.224	28729.06
787.557	28588.5
787.891	28496.07
788.224	28491.1
788.557	28373.82
788.89	28173.82
789.223	28146.7
789.556	27956.88
789.888	27992.81
790.221	27776.54
790.554	27632.14
790.887	27707.39
791.219	27559.37
791.552	27502.88
791.884	27407.29
792.217	27135.2
792.549	27124.36
792.882	26912.16
793.214	26798.04
793.546	26946.96
793.879	26835.33
794.211	26651.15
794.543	26641.21
794.875	26496.35
795.207	26539.29
795.539	26368.67
795.871	26435.79
796.203	26105.85
796.535	26048.45
796.867	26039.64
797.198	26000.77
797.53	25889.81
797.862	25796.93
798.193	25833.09
798.525	25603.95
798.856	25633.55
799.188	25336.16
799.519	25270.39
799.85	25040.34
800.182	25156.05
800.513	25197.4
800.844	24961.25
801.175	24994.47
801.506	24950.63
801.837	24839.22
802.168	24794.25
802.499	24664.76
802.83	24557.42
803.161	24562.84
803.491	24506.35
803.822	24447.37
804.153	24332.11
804.483	24117.43
804.814	24021.84
805.145	24046.25
805.475	24018.22
805.805	23892.8
806.136	23881.96
806.466	23871.11
806.796	23827.04
807.126	23710.66
807.457	23687.61
807.787	23650.55
808.117	23465.02
808.447	23411.46
808.777	23538.69
809.107	23305.02
809.436	23223.67
809.766	23247.4
810.096	23072.03
810.426	22939.38
810.755	23032.26
811.085	22857.35
811.414	22964.47
811.744	22694.19
812.073	22709.11
812.403	22602.44
812.732	22507.08
813.061	22488.1
813.39	22423.01
813.719	22398.15
814.049	22500.3
814.378	22330.13
814.707	22237.93
815.036	22211.49
815.365	22055.11
815.693	21931.95
816.022	21884.72
816.351	21813.08
816.68	21797.94
817.008	21865.29
817.337	21660.55
817.665	21592.07
817.994	21744.39
818.322	21711.39
818.651	21536.26
818.979	21465.07
819.307	21583.94
819.636	21464.62
819.964	21405.86
820.292	21395.02
820.62	21429.37
820.948	21292.87
821.276	21417.16
821.604	21311.63
821.932	21331.52
822.259	21257.62
822.587	21228.47
822.915	21205.19
823.243	21238.64
823.57	21154.8
823.898	21163.84
824.225	21168.13
824.553	21177.85
824.88	21168.36
825.207	21179.65
825.535	21195.93
825.862	21192.31
826.189	21130.16
826.516	21185.3
826.843	21130.39
827.17	21157.73
827.497	21197.96
827.824	21191.63
828.151	21193.44
828.478	21113.89
828.805	21200.9
829.131	21127.23
829.458	21097.62
829.785	21077.28
830.111	21091.97
830.438	21149.15
830.764	21051.97
831.09	21209.94
831.417	20969.72
831.743	21101.24
832.069	21022.14
832.395	20924.75
832.722	20960.23
833.048	20929.49
833.374	20897.18
833.7	20883.17
834.026	20806.11
834.351	20852.21
834.677	20820.12
835.003	20889.49
835.329	20942.6
835.654	20805.65
835.98	20762.49
836.306	20774.69
836.631	20669.16
836.956	20639.56
837.282	20702.61
837.607	20622.61
837.932	20557.98
838.258	20549.39
838.583	20465.32
838.908	20348.72
839.233	20381.94
839.558	20455.15
839.883	20311.66
840.208	20337.42
840.533	20292.67
840.858	20231.43
841.182	20352.33
841.507	20152.34
841.832	20064.2
842.156	20155.5
842.481	20024.66
842.805	19963.19
843.13	20055.39
843.454	19981.49
843.778	19853.81
844.103	19852.91
844.427	19692.24
844.751	19785.12
845.075	19675.51
845.399	19637.77
845.723	19518
846.047	19533.37
846.371	19322.98
846.695	19302.64
847.019	19323.21
847.343	19092.03
847.666	18998.47
847.99	18933.39
848.313	18934.97
848.637	18847.06
848.96	18754.18
849.284	18739.95
849.607	18650.91
849.931	18569.1
850.254	18421.31
850.577	18368.88
850.9	18255.21
851.223	18220.86
851.546	18088.44
851.869	18083.47
852.192	18147.87
852.515	18017.25
852.838	17783.36
853.161	17787.2
853.483	17752.85
853.806	17726.64
854.129	17639.18
854.451	17573.65
854.774	17569.13
855.096	17449.58
855.419	17376.82
855.741	17448.91
856.063	17280.55
856.385	17198.74
856.708	17118.52
857.03	17111.51
857.352	17082.81
857.674	17018.18
857.996	17028.8
858.318	16829.03
858.64	16953.78
858.961	16789.49
859.283	16729.6
859.605	16594.46
859.926	16721.69
860.248	16575.71
860.57	16567.12
860.891	16570.96
861.212	16513.56
861.534	16383.4
861.855	16394.7
862.176	16500.91
862.498	16435.37
862.819	16398.99
863.14	16344.75
863.461	16257.07
863.782	16240.35
864.103	16274.7
864.424	16090.98
864.745	16155.38
865.065	16004.88
865.386	16060.24
865.707	16007.81
866.027	16005.55
866.348	16017.98
866.668	15983.18
866.989	15907.7
867.309	15774.15
867.63	15810.3
867.95	15789.97
868.27	15703.19
868.59	15753.36
868.91	15691.21
869.23	15759.01
869.55	15653.25
869.87	15739.8
870.19	15701.38
870.51	15685.56
870.83	15668.16
871.15	15544.77
871.469	15536.41
871.789	15604.43
872.109	15537.54
872.428	15417.77
872.748	15490.31
873.067	15415.74
873.386	15387.26
873.706	15397.66
874.025	15305.91
874.344	15259.81
874.663	15294.61
874.982	15251.22
875.301	15235.63
875.62	15211.68
875.939	15101.17
876.258	15142.75
876.577	15112.92
876.896	15149.53
877.214	14980.95
877.533	15078.57
877.852	14980.04
878.17	15038.35
878.489	15006.03
878.807	14939.14
879.125	14885.36
879.444	14861.18
879.762	14857.56
880.08	14835.42
880.398	14749.09
880.716	14702.31
881.034	14617.34
881.352	14657.11
881.67	14601.52
881.988	14698.7
882.306	14597.68
882.624	14596.33
882.941	14478.59
883.259	14479.27
883.577	14468.42
883.894	14485.82
884.212	14381.87
884.529	14378.7
884.846	14322.66
885.164	14286.05
885.481	14214.41
885.798	14356.78
886.115	14161.99
886.432	14188.2
886.75	14170.12
887.067	14111.37
887.383	14051.48
887.7	14097.36
888.017	13979.39
888.334	13946.4
888.651	13898.72
888.967	13912.28
889.284	13743.01
889.6	13840.19
889.917	13730.13
890.233	13758.16
890.55	13726.52
890.866	13744.14
891.182	13588.44
891.498	13554.54
891.815	13490.14
892.131	13524.04
892.447	13425.28
892.763	13314.1
893.079	13376.02
893.395	13292.63
893.71	13315.23
894.026	13272.29
894.342	13250.37
894.657	13091.05
894.973	13127.21
895.289	13085.4
895.604	13021.23
895.92	12961.57
896.235	12955.92
896.55	12916.82
896.865	12922.47
897.181	12810.61
897.496	12799.76
897.811	12717.28
898.126	12713.44
898.441	12641.12
898.756	12575.81
899.071	12547.11
899.386	12566.77
899.7	12465.76
900.015	12333.33
900.33	12251.53
900.644	12322.49
900.959	12366.78
901.273	12257.4
901.588	12176.28
901.902	12168.59
902.216	12086.79
902.531	12103.28
902.845	12023.29
903.159	11922.05
903.473	11880.69
903.787	11862.39
904.101	11784.2
904.415	11750.52
904.729	11812.44
905.042	11630.3
905.356	11644.76
905.67	11567.93
905.984	11503.75
906.297	11528.84
906.611	11451.1
906.924	11488.84
907.237	11418.56
907.551	11302.17
907.864	11228.5
908.177	11270.99
908.491	11245
908.804	11170.43
909.117	11079.58
909.43	10993.71
909.743	10996.87
910.056	11022.63
910.368	10938.57
910.681	10843.88
910.994	10795.07
911.307	10754.39
911.619	10645.69
911.932	10722.98
912.244	10681.17
912.557	10580.84
912.869	10551.46
913.181	10536.77
913.494	10555.3
913.806	10405.02
914.118	10409.54
914.43	10340.17
914.742	10267.17
915.054	10234.41
915.366	10215.88
915.678	10159.83
915.99	10089.78
916.302	10074.18
916.613	9991.02
916.925	10017.24
917.236	9951.25
917.548	9816.79
917.859	9906.28
918.171	9852.95
918.482	9821.76
918.794	9737.7
919.105	9735.66
919.416	9622.44
919.727	9632.84
920.038	9566.4
920.349	9572.28
920.66	9481.66
920.971	9530.24
921.282	9393.52
921.593	9309.01
921.903	9269.91
922.214	9302.23
922.525	9267.65
922.835	9197.82
923.146	9130.71
923.456	9085.51
923.767	9099.52
924.077	9061.78
924.387	9017.71
924.697	8909.7
925.008	8983.37
925.318	8888.23
925.628	8938.85
925.938	8843.26
926.248	8742.69
926.558	8732.3
926.867	8693.66
927.177	8650.49
927.487	8588.35
927.796	8562.81
928.106	8467.67
928.416	8420.89
928.725	8462.93
929.034	8520.33
929.344	8423.38
929.653	8408.47
929.962	8285.08
930.271	8249.15
930.581	8267
930.89	8191.52
931.199	8151.07
931.508	8112.65
931.817	8127.79
932.125	8062.71
932.434	8064.97
932.743	7949.95
933.051	7968.93
933.36	7955.37
933.669	7858.65
933.977	7829.72
934.286	7831.76
934.594	7805.09
934.902	7820.01
935.21	7688.48
935.519	7683.29
935.827	7650.52
936.135	7592.67
936.443	7547.02
936.751	7552.44
937.059	7506.79
937.367	7407.14
937.674	7425.67
937.982	7408.49
938.29	7402.84
938.597	7344.76
938.905	7257.31
939.213	7253.69
939.52	7220.7
939.827	7222.51
940.135	7167.82
940.442	7140.02
940.749	7085.79
941.056	7067.48
941.363	6999.69
941.67	6959.01
941.977	6940.26
942.284	6884.44
942.591	6876.98
942.898	6823.2
943.205	6903.87
943.511	6831.78
943.818	6768.51
944.125	6770.99
944.431	6705.91
944.738	6723.09
945.044	6625.46
945.35	6652.81
945.657	6596.54
945.963	6573.26
946.269	6575.75
946.575	6538.46
946.881	6461.62
947.187	6438.8
947.493	6403.09
947.799	6423.66
948.105	6344.79
948.41	6324
948.716	6310.44
949.022	6270.44
949.327	6239.03
949.633	6226.15
949.938	6223.89
950.244	6171.46
950.549	6144.8
950.854	6124.91
951.16	6096.66
951.465	6054.63
951.77	6030
952.075	5989.09
952.38	6016.89
952.685	6023.9
952.99	5914.07
953.294	5929.43
953.599	5857.8
953.904	5841.08
954.209	5803.34
954.513	5836.1
954.818	5794.97
955.122	5741.19
955.426	5726.05
955.731	5652.38
956.035	5653.96
956.339	5686.28
956.643	5617.35
956.948	5588.2
957.252	5521.08
957.556	5535.55
957.86	5547.07
958.163	5491.93
958.467	5469.56
958.771	5470.46
959.075	5436.34
959.378	5384.36
959.682	5350.69
959.985	5350.01
960.289	5346.4
960.592	5287.64
960.896	5286.51
961.199	5207.42
961.502	5184.82
961.805	5207.65
962.108	5118.16
962.411	5187.31
962.714	5058.27
963.017	5076.35
963.32	5067.54
963.623	5036.35
963.926	5064.37
964.228	4982.34
964.531	5004.94
964.833	4996.13
965.136	4907.77
965.438	4916.13
965.741	4899.63
966.043	4881.78
966.345	4871.61
966.648	4846.3
966.95	4788.9
967.252	4774.21
967.554	4733.99
967.856	4774.21
968.158	4704.16
968.46	4671.16
968.761	4686.08
969.063	4666.64
969.365	4646.3
969.666	4613.31
969.968	4572.41
970.269	4594.33
970.571	4517.95
970.872	4496.25
971.174	4513.43
971.475	4468.46
971.776	4481.11
972.077	4399.98
972.378	4399.53
972.679	4391.4
972.98	4392.75
973.281	4406.08
973.582	4350.72
973.883	4347.1
974.183	4286.99
974.484	4288.35
974.785	4239.76
975.085	4308.46
975.386	4252.87
975.686	4211.74
975.986	4206.77
976.287	4175.13
976.587	4127.45
976.887	4090.16
977.187	4184.62
977.487	4104.85
977.787	4089.71
978.087	4049.71
978.387	4025.3
978.687	4024.17
978.987	4027.56
979.286	3990.05
979.586	3934.68
979.885	3916.38
980.185	3911.63
980.484	3906.66
980.784	3930.39
981.083	3880
981.382	3843.61
981.682	3821.02
981.981	3814.24
982.28	3802.71
982.579	3773.33
982.878	3795.93
983.177	3756.38
983.475	3774.24
983.774	3730.85
984.073	3714.13
984.372	3681.58
984.67	3647.01
984.969	3656.27
985.267	3630.96
985.566	3597.52
985.864	3611.08
986.162	3584.86
986.461	3584.86
986.759	3562.49
987.057	3501.7
987.355	3524.3
987.653	3475.94
987.951	3490.63
988.249	3480.46
988.547	3428.26
988.844	3440.01
989.142	3415.15
989.44	3428.26
989.737	3345.1
990.035	3401.37
990.332	3360.69
990.63	3378.09
990.927	3274.36
991.224	3293.12
991.521	3271.2
991.819	3273.91
992.116	3243.86
992.413	3219.68
992.71	3191.65
993.006	3216.96
993.303	3204.08
993.6	3152.33
993.897	3111.66
994.193	3138.55
994.49	3130.86
994.787	3094.48
995.083	3077.08
995.379	3080.02
995.676	3070.3
995.972	3041.15
996.268	3028.04
996.565	3043.18
996.861	2988.04
997.157	2941.26
997.453	2945.33
997.749	2973.58
998.044	2925.67
998.34	2954.82
998.636	2892.9
998.932	2875.73
999.227	2849.06
999.523	2845.67
999.818	2793.7
1000.114	2786.24
1000.409	2817.88
1000.704	2786.24
1001	2786.47
1001.295	2722.06
1001.59	2734.26
1001.885	2725.9
1002.18	2729.97
1002.475	2688.39
1002.77	2662.4
1003.065	2681.84
1003.359	2660.37
1003.654	2627.15
1003.949	2615.17
1004.243	2585.12
1004.538	2598.9
1004.832	2599.13
1005.127	2531.56
1005.421	2516.64
1005.715	2519.13
1006.009	2495.85
1006.304	2520.71
1006.598	2472.12
1006.892	2427.61
1007.186	2445.23
1007.48	2432.13
1007.773	2409.3
1008.067	2430.54
1008.361	2420.6
1008.655	2370.21
1008.948	2403.2
1009.242	2329.08
1009.535	2349.87
1009.829	2325.69
1010.122	2305.8
1010.415	2289.3
1010.708	2261.73
1011.001	2259.93
1011.295	2273.49
1011.588	2271.68
1011.881	2233.49
1012.173	2213.15
1012.466	2205.01
1012.759	2187.84
1013.052	2188.74
1013.344	2144.9
1013.637	2162.98
1013.93	2146.48
1014.222	2141.96
1014.514	2099.03
1014.807	2084.11
1015.099	2062.87
1015.391	2070.1
1015.683	2076.43
1015.976	2022.87
1016.268	2019.48
1016.56	2001.4
1016.851	2019.25
1017.143	2027.16
1017.435	1984.68
1017.727	1970.44
1018.018	1971.8
1018.31	1943.1
1018.602	1927.28
1018.893	1892.93
1019.185	1904.91
1019.476	1894.96
1019.767	1904.91
1020.058	1867.85
1020.35	1849.54
1020.641	1835.53
1020.932	1853.16
1021.223	1821.75
1021.514	1783.33
1021.804	1767.96
1022.095	1752.14
1022.386	1740.62
1022.677	1743.56
1022.967	1758.02
1023.258	1724.57
1023.548	1728.19
1023.839	1695.2
1024.129	1666.72
1024.419	1664.24
1024.709	1675.31
1025	1639.83
1025.29	1647.97
1025.58	1608.19
1025.87	1586.95
1026.16	1605.03
1026.449	1613.39
1026.739	1575.2
1027.029	1598.7
1027.319	1602.32
1027.608	1558.93
1027.898	1544.47
1028.187	1522.77
1028.477	1511.25
1028.766	1495.2
1029.055	1499.95
1029.344	1473.73
1029.634	1489.33
1029.923	1461.08
1030.212	1457.01
1030.501	1482.32
1030.79	1431.47
1031.078	1389.67
1031.367	1402.1
1031.656	1401.42
1031.945	1409.78
1032.233	1372.49
1032.522	1361.64
1032.81	1365.49
1033.099	1348.09
1033.387	1330.46
1033.675	1336.56
1033.963	1348.09
1034.251	1333.62
1034.54	1329.1
1034.828	1289.1
1035.116	1267.18
1035.403	1305.38
1035.691	1250.01
1035.979	1262.21
1036.267	1264.47
1036.554	1254.53
1036.842	1256.56
1037.129	1269.67
1037.417	1243.23
1037.704	1191.48
1037.992	1190.12
1038.279	1217.24
1038.566	1186.06
1038.853	1186.06
1039.14	1186.06
