Data from white_steel_sheet_FLMS001491_087.txt Node
Date: Tue Feb 07 10:58:37 GMT 2017
User: dcchb
Spectrometer: FLMS00149
Trigger mode: 0
Integration Time (sec): 2.000000E-2
Scans to average: 10
Electric dark correction enabled: true
Nonlinearity correction enabled: false
Boxcar width: 0
XAxis mode: Wavelengths
Number of Pixels in Spectrum: 2048
>>>>>Begin Spectral Data<<<<<
341.393	-5.28
341.776	-5.28
342.16	-5.28
342.543	-54.09
342.927	-50.93
343.31	-78.95
343.693	-76.92
344.077	-64.04
344.46	-61.33
344.843	-63.13
345.226	-16.36
345.61	-28.56
345.993	-44.38
346.376	-1.89
346.759	2.4
347.142	43.76
347.525	40.14
347.908	71.55
348.291	65.22
348.674	99.12
349.057	113.36
349.44	141.83
349.823	136.63
350.206	149.29
350.588	241.26
350.971	222.28
351.354	242.85
351.737	254.6
352.119	252.79
352.502	276.07
352.884	270.64
353.267	289.85
353.65	306.57
354.032	308.83
354.414	316.07
354.797	316.29
355.179	328.27
355.562	330.3
355.944	340.7
356.326	342.96
356.709	330.08
357.091	337.31
357.473	332.34
357.855	335.05
358.238	338.44
358.62	353.13
359.002	358.32
359.384	368.49
359.766	346.57
360.148	312
360.53	347.7
360.912	323.75
361.294	365.33
361.676	350.64
362.057	356.74
362.439	343.64
362.821	351.54
363.203	340.92
363.584	346.57
363.966	343.18
364.348	314.03
364.729	322.39
365.111	347.25
365.493	316.52
365.874	334.6
366.256	328.95
366.637	323.3
367.019	328.95
367.4	334.14
367.781	323.3
368.163	310.19
368.544	339.57
368.925	316.74
369.306	326.01
369.688	308.16
370.069	335.5
370.45	328.04
370.831	346.57
371.212	331.66
371.593	317.65
371.974	326.91
372.355	338.21
372.736	347.7
373.117	321.49
373.498	351.09
373.879	330.98
374.26	336.63
374.641	337.31
375.021	323.52
375.402	344.09
375.783	345.44
376.163	364.65
376.544	365.33
376.925	344.31
377.305	367.59
377.686	364.65
378.066	347.7
378.447	355.39
378.827	345.44
379.208	366.91
379.588	359
379.968	351.54
380.349	359.45
380.729	353.13
381.109	358.55
381.489	372.33
381.87	363.07
382.25	397.19
382.63	369.85
383.01	373.01
383.39	390.64
383.77	401.94
384.15	385.89
384.53	364.65
384.91	401.71
385.29	401.49
385.67	401.03
386.049	387.93
386.429	412.33
386.809	397.19
387.189	425.44
387.568	420.02
387.948	424.76
388.328	406.01
388.707	404.65
389.087	416.18
389.466	415.05
389.846	431.32
390.225	433.8
390.605	437.19
390.984	443.07
391.363	428.38
391.743	450.3
392.122	446.91
392.501	439
392.881	450.75
393.26	473.8
393.639	471.99
394.018	472.45
394.397	468.38
394.776	473.58
395.155	505.44
395.534	496.63
395.913	511.54
396.292	500.24
396.671	488.94
397.05	512.9
397.429	518.77
397.808	509.73
398.186	516.06
398.565	517.42
398.944	543.63
399.323	563.52
399.701	563.97
400.08	566.23
400.458	567.81
400.837	558.32
401.215	604.19
401.594	576.4
401.972	600.58
402.351	621.82
402.729	603.29
403.107	607.58
403.486	641.71
403.864	645.55
404.242	639.45
404.62	655.94
404.999	665.66
405.377	687.35
405.755	681.03
406.133	718.54
406.511	686.45
406.889	706.79
407.267	728.03
407.645	739.78
408.023	760.57
408.401	757.86
408.779	783.85
409.156	782.04
409.534	804.41
409.912	815.71
410.29	812.78
410.667	832.44
411.045	856.16
411.422	836.73
411.8	884.41
412.178	880.12
412.555	890.97
412.933	926.22
413.31	937.52
413.687	938.2
414.065	947.01
414.442	958.08
414.819	978.42
415.197	999.21
415.574	1016.39
415.951	1030.4
416.328	1023.17
416.705	1031.3
417.082	1046.44
417.46	1065.42
417.837	1076.05
418.214	1089.38
418.591	1070.17
418.967	1121.69
419.344	1104.29
419.721	1139.77
420.098	1104.52
420.475	1166.89
420.852	1154.69
421.228	1179.77
421.605	1179.09
421.982	1194.69
422.358	1212.54
422.735	1255.7
423.111	1215.7
423.488	1251.63
423.864	1256.83
424.241	1290.73
424.617	1281.24
424.994	1274.46
425.37	1271.07
425.746	1309.94
426.123	1325.53
426.499	1311.52
426.875	1354.68
427.251	1377.05
427.627	1389.26
428.003	1427.67
428.379	1435.36
428.756	1445.07
429.132	1459.76
429.507	1473.1
429.883	1512.64
430.259	1596.94
430.635	1558.07
431.011	1573.89
431.387	1598.29
431.763	1609.59
432.138	1624.05
432.514	1689.81
432.89	1672.41
433.265	1678.06
433.641	1703.15
434.016	1767.78
434.392	1789.25
434.767	1803.48
435.143	1819.98
435.518	1843.48
435.894	1842.13
436.269	1846.87
436.644	1902.24
437.02	1933.65
437.395	1899.98
437.77	1942.24
438.145	1955.8
438.52	1982.91
438.895	2012.97
439.271	2026.3
439.646	2040.09
440.021	2056.81
440.395	2116.47
440.77	2069.24
441.145	2106.07
441.52	2151.5
441.895	2161.89
442.27	2186.52
442.645	2199.18
443.019	2242.57
443.394	2232.4
443.769	2294.54
444.143	2260.87
444.518	2290.25
444.892	2264.26
445.267	2308.33
445.641	2302.45
446.016	2339.51
446.39	2384.49
446.764	2414.09
447.139	2376.58
447.513	2413.86
447.887	2401.89
448.262	2447.31
448.636	2456.12
449.01	2519.85
449.384	2534.54
449.758	2518.04
450.132	2564.37
450.506	2565.72
450.88	2605.27
451.254	2585.84
451.628	2652.73
452.002	2647.53
452.376	2696.57
452.75	2739.73
453.123	2759.16
453.497	2780.86
453.871	2858.6
454.244	2868.77
454.618	2888.65
454.992	2953.96
455.365	2935.88
455.739	2978.82
456.112	3040.29
456.486	3073.51
456.859	3053.62
457.232	3160.51
457.606	3160.51
457.979	3224.69
458.352	3212.26
458.725	3271.24
459.099	3288.42
459.472	3364.12
459.845	3377.68
460.218	3434.18
460.591	3465.13
460.964	3478.02
461.337	3583.55
461.71	3624.9
462.083	3689.31
462.456	3675.52
462.829	3680.04
463.201	3770.21
463.574	3769.53
463.947	3853.6
464.32	3907.61
464.692	3914.16
465.065	3986.93
465.438	3986.7
465.81	4035.74
466.183	4126.59
466.555	4179.47
466.928	4227.6
467.3	4243.87
467.672	4300.37
468.045	4440.7
468.417	4417.2
468.789	4484.09
469.161	4514.15
469.534	4597.99
469.906	4616.07
470.278	4700.58
470.65	4752.11
471.022	4882.95
471.394	4925.44
471.766	4983.29
472.138	5065.54
472.51	5174.92
472.882	5215.6
473.253	5264.86
473.625	5405.87
473.997	5491.3
474.369	5478.64
474.74	5585.98
475.112	5657.39
475.484	5789.82
475.855	5894.22
476.227	5925.41
476.598	6102.13
476.97	6157.27
477.341	6279.75
477.713	6333.76
478.084	6400.65
478.455	6593.41
478.827	6608.56
479.198	6813.97
479.569	6807.19
479.94	7001.99
480.311	7093.51
480.682	7248.99
481.053	7403.11
481.424	7493.5
481.795	7587.06
482.166	7729.88
482.537	7824.34
482.908	8014.85
483.279	8038.35
483.65	8208.29
484.021	8396.98
484.391	8450.31
484.762	8552.01
485.133	8627.03
485.503	8768.5
485.874	9007.81
486.244	9053.01
486.615	9252.1
486.985	9337.07
487.356	9517.63
487.726	9580.68
488.097	9828.58
488.467	9814.12
488.837	10004.4
489.207	10101.12
489.578	10274.45
489.948	10363.03
490.318	10531.62
490.688	10610.26
491.058	10745.17
491.428	10878.05
491.798	10994.2
492.168	11211.6
492.538	11260.41
492.908	11392.84
493.278	11577.92
493.648	11565.26
494.017	11671.7
494.387	11881.41
494.757	11976.55
495.126	12145.36
495.496	12201.63
495.866	12258.12
496.235	12397.56
496.605	12510.77
496.974	12580.15
497.344	12630.54
497.713	12812.01
498.082	12904.21
498.452	12989.63
498.821	13042.74
499.19	13097.2
499.559	13310.07
499.928	13420.81
500.298	13511.42
500.667	13621.7
501.036	13619.44
501.405	13728.59
501.774	13787.35
502.143	13895.6
502.512	14033.22
502.88	14171.29
503.249	14215.13
503.618	14333.32
503.987	14405.86
504.356	14490.83
504.724	14659.87
505.093	14665.97
505.462	14756.82
505.83	14915
506.199	14995.23
506.567	15181.21
506.936	15235.9
507.304	15378.49
507.672	15472.05
508.041	15570.81
508.409	15644.02
508.777	15874.98
509.145	15880.85
509.514	15934.64
509.882	16150.23
510.25	16186.61
510.618	16324.01
510.986	16384.8
511.354	16618.69
511.722	16692.81
512.09	16960.37
512.458	16851.45
512.826	17034.27
513.193	17163.98
513.561	17253.92
513.929	17361.04
514.297	17494.37
514.664	17725.1
515.032	17755.83
515.4	17945.66
515.767	17999.22
516.135	18193.79
516.502	18132.09
516.869	18443.5
517.237	18414.35
517.604	18457.28
517.972	18693.21
518.339	18824.51
518.706	18973.65
519.073	19090.49
519.44	19232.86
519.808	19401.44
520.175	19421.55
520.542	19729.57
520.909	19883.46
521.276	19798.49
521.643	20041.2
522.009	20280.51
522.376	20379.94
522.743	20618.81
523.11	20765.24
523.477	20971.34
523.843	21067.61
524.21	21231
524.577	21449.07
524.943	21521.61
525.31	21611.1
525.676	21925.44
526.043	22005.44
526.409	22150.97
526.776	22391.87
527.142	22520.91
527.508	22630.05
527.874	22929.71
528.241	23033.21
528.607	23057.84
528.973	23266.87
529.339	23243.6
529.705	23574.66
530.071	23610.82
530.437	23800.65
530.803	23923.35
531.169	24078.15
531.535	24085.84
531.901	24290.35
532.267	24308.65
532.632	24577.35
532.998	24670.23
533.364	24760.85
533.73	24942.54
534.095	25132.14
534.461	25121.29
534.826	25371.45
535.192	25455.29
535.557	25664.78
535.923	25602.41
536.288	25639.69
536.653	25901.38
537.019	25847.82
537.384	25970.98
537.749	26144.09
538.114	26359.9
538.479	26272.44
538.845	26437.41
539.21	26434.02
539.575	26641.93
539.94	26671.76
540.305	26881.02
540.67	26737.97
541.034	26866.78
541.399	27049.37
541.764	27093.89
542.129	27317.16
542.494	27305.64
542.858	27443.71
543.223	27452.3
543.587	27629.25
543.952	27652.07
544.316	27760.09
544.681	27855.23
545.045	27985.62
545.41	28193.98
545.774	28237.36
546.138	28172.28
546.503	28446.62
546.867	28440.75
547.231	28595.77
547.595	28576.11
547.959	28751.93
548.324	28817.24
548.688	28836.9
549.052	29062.88
549.416	29020.85
549.779	29159.6
550.143	29244.12
550.507	29505.58
550.871	29539.93
551.235	29624.9
551.599	29811.56
551.962	29815.63
552.326	29873.93
552.689	30101.72
553.053	30015.4
553.417	30104.43
553.78	30530.86
554.143	30432.11
554.507	30618.32
554.87	30690.18
555.234	30955.94
555.597	30783.51
555.96	30985.09
556.323	31240.22
556.686	31261.47
557.05	31278.64
557.413	31559.99
557.776	31609.48
558.139	31940.77
558.502	31863.26
558.865	31923.82
559.228	32197.26
559.59	32319.07
559.953	32304.15
560.316	32797.7
560.679	32722.22
561.041	32874.08
561.404	33025.94
561.767	33170.79
562.129	33164.24
562.492	33507.73
562.854	33678.35
563.217	33465.25
563.579	33710.89
563.941	33836.09
564.304	34102.97
564.666	34247.38
565.028	34347.71
565.39	34399.69
565.753	34576.18
566.115	34665.67
566.477	34951.31
566.839	34925.32
567.201	35167.13
567.563	35249.84
567.925	35345.65
568.287	35490.73
568.648	35514.01
569.01	35748.13
569.372	35986.77
569.734	35878.52
570.095	36201.45
570.457	36269.7
570.819	36301.79
571.18	36347.43
571.542	36562.8
571.903	36618.61
572.265	36754.66
572.626	36829.68
572.987	36978.83
573.349	37087.98
573.71	37109.22
574.071	37275.09
574.432	37257.47
574.794	37680.96
575.155	37615.88
575.516	37401.64
575.877	37625.14
576.238	37704.23
576.599	37785.81
576.96	37784.46
577.32	37827.4
577.681	37979.26
578.042	37989.42
578.403	38144.45
578.763	38000.95
579.124	38046.37
579.485	38319.13
579.845	38380.38
580.206	38235.75
580.566	38357.1
580.927	38359.58
581.287	38555.06
581.648	38261.28
582.008	38438
582.368	38543.99
582.728	38517.32
583.089	38505.12
583.449	38547.15
583.809	38509.41
584.169	38552.35
584.529	38534.04
584.889	38803.64
585.249	38505.8
585.609	38487.04
585.969	38682.06
586.329	38642.74
586.688	38628.05
587.048	38577.88
587.408	38646.36
587.768	38615.17
588.127	38662.85
588.487	38480.71
588.846	38705.79
589.206	38610.65
589.565	38513.7
589.925	38754.83
590.284	38652.68
590.643	38675.73
591.003	38742.17
591.362	38705.79
591.721	38655.4
592.08	38654.94
592.44	38704.89
592.799	38701.27
593.158	38614.95
593.517	38693.59
593.876	38765.45
594.235	38629.86
594.593	38645.68
594.952	38845.67
595.311	38694.94
595.67	38792.34
596.029	39080.47
596.387	38916.18
596.746	38965.44
597.104	38914.82
597.463	38828.27
597.822	39009.29
598.18	38769.07
598.538	38750.76
598.897	39115.72
599.255	38819.91
599.613	39150.07
599.972	39034.37
600.33	39002.73
600.688	38922.51
601.046	39003.41
601.404	39199.79
601.762	39124.76
602.12	39149.17
602.478	39202.5
602.836	39228.94
603.194	38998.66
603.552	39146.68
603.91	38947.37
604.268	39120.47
604.625	38998.21
604.983	39206.79
605.341	39061.71
605.698	39268.94
606.056	39271.88
606.413	39246.11
606.771	39405.66
607.128	39561.59
607.485	39350.07
607.843	39313.68
608.2	39410.63
608.557	39681.36
608.914	39444.98
609.272	39638.65
609.629	39687.69
609.986	39743.73
610.343	39744.86
610.7	40038.41
611.057	39908.47
611.414	39847.23
611.771	39970.84
612.127	39996.83
612.484	39984.17
612.841	40037.28
613.198	39848.36
613.554	39945.53
613.911	40331.96
614.267	40171.51
614.624	40270.27
614.98	40123.15
615.337	40435.01
615.693	40383.71
616.05	40312.98
616.406	40590.03
616.762	40393.2
617.118	40383.26
617.475	40419.64
617.831	40518.62
618.187	40550.71
618.543	40524.05
618.899	40771.95
619.255	40705.06
619.611	40668.45
619.967	40878.61
620.323	40915.9
620.678	40777.15
621.034	40624.61
621.39	40794.1
621.746	40621.22
622.101	41205.61
622.457	40739.86
622.812	41042.45
623.168	40974.66
623.523	40943.02
623.879	41111.15
624.234	40844.94
624.589	41054.2
624.945	40865.51
625.3	41046.07
625.655	40999.29
626.01	40894.43
626.365	40971.95
626.72	40905.73
627.075	41016.01
627.43	40943.7
627.785	40816.02
628.14	40804.94
628.495	40928.33
628.85	40866.19
629.205	40594.33
629.559	40940.31
629.914	40752.97
630.269	40848.11
630.623	40692.18
630.978	40588.68
631.332	40748
631.687	40778.5
632.041	40701.67
632.396	40576.48
632.75	40469.13
633.104	40561.56
633.459	40240.89
633.813	40326.54
634.167	40331.51
634.521	40327.44
634.875	40242.02
635.229	40196.6
635.583	40047.9
635.937	40128.13
636.291	40045.87
636.645	40087.9
636.999	39958.64
637.352	40076.83
637.706	39810.17
638.06	39901.01
638.413	39834.35
638.767	39634.35
639.121	39772.2
639.474	39593.9
639.828	39576.73
640.181	39523.17
640.534	39568.37
640.888	39382.83
641.241	39254.7
641.594	39396.62
641.947	39393.68
642.301	39403.4
642.654	39317.75
643.007	39345.55
643.36	39227.58
643.713	39058.78
644.066	39292.22
644.419	39009.74
644.771	38920.02
645.124	38445.23
645.477	38267.61
645.83	38093.6
646.182	37947.62
646.535	37754.4
646.888	37933.83
647.24	37698.36
647.593	37910.56
647.945	37771.58
648.298	37706.72
648.65	37697.91
649.002	37514.41
649.355	37662.2
649.707	37574.07
650.059	37694.29
650.411	38123.88
650.763	37994.17
651.115	38444.1
651.467	38331.11
651.819	38304.44
652.171	38307.16
652.523	38105.58
652.875	38156.65
653.227	37979.03
653.578	38223.77
653.93	38296.31
654.282	38020.84
654.633	37867.17
654.985	37934.06
655.337	37883.89
655.688	37885.02
656.039	37901.07
656.391	37615.88
656.742	37721.86
657.094	37727.96
657.445	37863.78
657.796	37789.66
658.147	37620.85
658.498	37800.28
658.849	37598.02
659.2	37751.46
659.551	37447.29
659.902	37633.28
660.253	37358.93
660.604	37501.3
660.955	37305.15
661.306	37304.02
661.656	37240.07
662.007	37219.05
662.358	37242.33
662.708	37084.82
663.059	37072.39
663.409	36852.05
663.76	37154.19
664.11	37003.24
664.461	36918.27
664.811	36885.73
665.161	36885.05
665.511	36624.49
665.862	36657.93
666.212	36765.73
666.562	36618.16
666.912	36511.95
667.262	36439.18
667.612	36382.69
667.962	36351.28
668.312	36200.77
668.662	36368.22
669.011	36097.27
669.361	36083.03
669.711	35955.35
670.06	35802.59
670.41	35774.57
670.76	35615.48
671.109	35643.5
671.459	35651.63
671.808	35522.15
672.157	35511.07
672.507	35246.45
672.856	35150.86
673.205	35406.44
673.554	35409.61
673.904	35110.4
674.253	35409.61
674.602	35077.41
674.951	34517.2
675.3	34354.72
675.649	34951.09
675.998	34827.7
676.346	34912.44
676.695	35011.88
677.044	34659.57
677.393	34787.02
677.741	34769.17
678.09	34738.66
678.438	34577.09
678.787	34733.01
679.135	34690.53
679.484	34537.09
679.832	34588.38
680.181	34409.63
680.529	34542.06
680.877	34413.7
681.225	34436.98
681.573	34753.13
681.922	34428.39
682.27	34335.28
682.618	34417.32
682.966	34310.43
683.314	34581.38
683.661	34383.19
684.009	34342.06
684.357	34348.62
684.705	34258.9
685.053	34271.78
685.4	34366.02
685.748	34154.95
686.095	34326.92
686.443	34198.34
686.79	34174.61
687.138	34276.75
687.485	34321.72
687.832	34179.13
688.18	34354.27
688.527	34092.35
688.874	34190.88
689.221	34144.55
689.568	34180.03
689.915	34166.25
690.262	33970.55
690.609	34111.11
690.956	33960.83
691.303	33926.93
691.65	33801.51
691.997	33812.36
692.344	33514.51
692.69	33652.59
693.037	33724.45
693.383	33491.92
693.73	33755.86
694.077	33401.52
694.423	33537.79
694.769	33418.25
695.116	33301.64
695.462	33289.44
695.808	33239.49
696.155	33293.73
696.501	33064.81
696.847	33218.48
697.193	32940.97
697.539	33183.45
697.885	32841.54
698.231	32651.03
698.577	32688.1
698.923	32627.53
699.269	32504.82
699.614	32463.92
699.96	32327.88
700.306	32572.84
700.651	32237.03
700.997	32232.29
701.342	32195.45
701.688	32038.62
702.033	32030.49
702.379	31988.68
702.724	31927.21
703.069	31877.27
703.415	31456.04
703.76	31688.35
704.105	31651.96
704.45	31432.54
704.795	31255.36
705.14	31269.83
705.485	31232.54
705.83	31175.82
706.175	31211.75
706.52	31186.21
706.865	30901.48
707.209	30926.11
707.554	30876.39
707.899	30814.25
708.243	30695.15
708.588	30697.19
708.932	30519.34
709.277	30395.5
709.621	30567.93
709.966	30255.16
710.31	30426.01
710.654	30059.69
710.998	30291.77
711.342	30164.32
711.687	30093.81
712.031	30014.04
712.375	29868.51
712.719	29884.1
713.063	29781.51
713.407	29993.7
713.75	29783.76
714.094	29649.98
714.438	29570.66
714.782	29726.59
715.125	29499.03
715.469	29540.38
715.812	29420.61
716.156	29280.73
716.499	29208.86
716.843	29207.28
717.186	29012.03
717.53	29197.57
717.873	29203.44
718.216	29057
718.559	28845.71
718.902	28690.69
719.246	28708.09
719.589	28647.52
719.932	28680.97
720.275	28689.78
720.617	28575.66
720.96	28542.89
721.303	28524.36
721.646	28442.11
721.989	28250.47
722.331	28464.93
722.674	28317.81
723.016	28339.96
723.359	28197.59
723.701	28131.15
724.044	28113.75
724.386	27922.8
724.729	28085.28
725.071	27995.56
725.413	27923.02
725.755	27897.26
726.097	27744.5
726.439	27794.21
726.782	27757.38
727.124	27878.73
727.465	27603.48
727.807	27655.01
728.149	27578.4
728.491	27644.61
728.833	27543.15
729.175	27405.97
729.516	27413.88
729.858	27233.32
730.199	27306.77
730.541	27331.63
730.882	27295.24
731.224	27253.44
731.565	27057.51
731.906	26976.83
732.248	27221.57
732.589	26989.71
732.93	26911.52
733.271	26895.03
733.612	26923.28
733.953	26854.8
734.294	26698.2
734.635	26691.64
734.976	26799.66
735.317	26629.05
735.658	26643.96
735.999	26663.17
736.339	26570.74
736.68	26526
737.021	26526.45
737.361	26394.93
737.702	26521.03
738.042	26396.96
738.383	26362.61
738.723	26401.03
739.063	26283.29
739.404	26342.05
739.744	26124.2
740.084	26160.58
740.424	26094.82
740.764	26041.94
741.104	26148.38
741.444	25966.92
741.784	25923.53
742.124	25946.13
742.464	25857.77
742.804	25816.64
743.143	25785.23
743.483	25870.42
743.823	25578.45
744.162	25617.32
744.502	25693.48
744.841	25555.4
745.181	25628.17
745.52	25475.63
745.86	25483.31
746.199	25482.41
746.538	25413.26
746.877	25538.45
747.216	25417.78
747.556	25230.21
747.895	25260.72
748.234	25183.89
748.573	25042.42
748.911	25117.9
749.25	25110.67
749.589	24940.95
749.928	24931.46
750.267	24978.47
750.605	24735.54
750.944	24816.44
751.283	24731.47
751.621	24725.37
751.96	24601.98
752.298	24618.48
752.636	24623.9
752.975	24537.12
753.313	24316.34
753.651	24487.18
753.989	24354.08
754.327	24250.58
754.666	24111.82
755.004	24212.16
755.342	24202.44
755.679	24181.65
756.017	23919.96
756.355	24049
756.693	23846.07
757.031	23820.98
757.368	23676.81
757.706	23718.39
758.044	23615.79
758.381	23623.47
758.719	23617.15
759.056	23522.69
759.394	23548.9
759.731	23374.67
760.068	23303.03
760.405	23136.26
760.743	23121.79
761.08	23181
761.417	22994.56
761.754	22932.87
762.091	22820.33
762.428	22773.55
762.765	22621.47
763.102	22768.81
763.438	22593.9
763.775	22521.58
764.112	22581.69
764.449	22579.66
764.785	22360.68
765.122	22229.61
765.458	22136.73
765.795	22039.56
766.131	22124.98
766.467	22019.22
766.804	21845.67
767.14	21704.43
767.476	21807.7
767.812	21718.67
768.148	21788.04
768.485	21599.35
768.821	21476.19
769.157	21428.5
769.492	21387.83
769.828	21387.38
770.164	21116.2
770.5	21134.73
770.836	21156.2
771.171	20932.7
771.507	20919.59
771.842	20805.02
772.178	20786.71
772.513	20769.54
772.849	20695.87
773.184	20498.13
773.519	20537.45
773.855	20366.84
774.19	20263.34
774.525	20159.61
774.86	20187.86
775.195	20120.97
775.53	20022.89
775.865	19979.5
776.2	19838.72
776.535	19700.41
776.87	19754.88
777.205	19561.21
777.539	19569.12
777.874	19599.85
778.209	19426.07
778.543	19419.52
778.878	19216.59
779.212	19198.96
779.547	19111.28
779.881	19250.48
780.215	19022.92
780.55	19012.52
780.884	18839.87
781.218	18887.55
781.552	18807.78
781.886	18699.08
782.22	18614.12
782.554	18521.46
782.888	18457.96
783.222	18283.73
783.556	18248.7
783.889	18336.38
784.223	18120.12
784.557	18107.01
784.89	18099.55
785.224	18032.89
785.557	17909.95
785.891	17855.26
786.224	17828.15
786.558	17671.54
786.891	17689.85
787.224	17591.32
787.557	17570.75
787.891	17513.81
788.224	17469.06
788.557	17488.49
788.89	17379.35
789.223	17397.2
789.556	17226.58
789.888	17192.91
790.221	17122.4
790.554	16970.32
790.887	16994.04
791.219	16885.8
791.552	16882.18
791.884	16698.46
792.217	16645.81
792.549	16647.61
792.882	16503.89
793.214	16491.01
793.546	16501.63
793.879	16363.55
794.211	16324.01
794.543	16317.23
794.875	16267.06
795.207	16299.83
795.539	16109.1
795.871	16158.13
796.203	16013.28
796.535	15972.83
796.867	15906.16
797.198	15831.59
797.53	15869.78
797.862	15833.62
798.193	15756.79
798.525	15622.33
798.856	15615.32
799.188	15410.13
799.519	15443.58
799.85	15306.18
800.182	15337.59
800.513	15357.03
800.844	15168.78
801.175	15302.34
801.506	15248.1
801.837	15174.21
802.168	15140.53
802.499	15110.25
802.83	14973.31
803.161	14910.26
803.491	14865.51
803.822	15021.67
804.153	14757.72
804.483	14680.66
804.814	14705.52
805.145	14654.67
805.475	14622.13
805.805	14620.32
806.136	14597.05
806.466	14580.32
806.796	14524.96
807.126	14370.61
807.457	14384.4
807.787	14397.5
808.117	14404.96
808.447	14248.58
808.777	14321.8
809.107	14237.73
809.436	14215.59
809.766	14136.04
810.096	14027.79
810.426	14096.49
810.755	14008.36
811.085	14032.54
811.414	13994.35
811.744	13909.61
812.073	13915.71
812.403	13955.25
812.732	13777.41
813.061	13753
813.39	13675.26
813.719	13669.39
814.049	13723.85
814.378	13655.15
814.707	13583.96
815.036	13551.2
815.365	13488.37
815.693	13324.08
816.022	13384.2
816.351	13332.9
816.68	13339.68
817.008	13326.12
817.337	13216.52
817.665	13194.82
817.994	13201.6
818.322	13260.36
818.651	13112.79
818.979	13057.43
819.307	13164.09
819.636	13103.98
819.964	12967.48
820.292	13025.11
820.62	12976.98
820.948	12933.36
821.276	12948.5
821.604	13010.42
821.932	12995.73
822.259	12984.43
822.587	12903.98
822.915	12858.33
823.243	12928.16
823.57	12871.89
823.898	12934.94
824.225	12865.34
824.553	12925.9
824.88	12860.37
825.207	12971.55
825.535	12892.23
825.862	12896.53
826.189	12857.43
826.516	12942.4
826.843	12930.42
827.17	12912.12
827.497	12942.17
827.824	12903.53
828.151	12956.64
828.478	12814.72
828.805	12927.03
829.131	12874.6
829.458	12826.02
829.785	12829.18
830.111	12811.78
830.438	12902.4
830.764	12830.31
831.09	12838.22
831.417	12810.88
831.743	12798
832.069	12741.73
832.395	12670.32
832.722	12789.41
833.048	12736.3
833.374	12826.92
833.7	12645.01
834.026	12749.41
834.351	12738.11
834.677	12723.42
835.003	12655.63
835.329	12664.22
835.654	12696.98
835.98	12600.71
836.306	12672.8
836.631	12593.93
836.956	12601.39
837.282	12621.05
837.607	12479.14
837.932	12505.12
838.258	12428.29
838.583	12416.09
838.908	12375.41
839.233	12468.97
839.558	12334.05
839.883	12347.61
840.208	12290.21
840.533	12290.89
840.858	12307.16
841.182	12361.62
841.507	12274.62
841.832	12259.71
842.156	12248.86
842.481	12209.54
842.805	12173.83
843.13	12068.98
843.454	12152.82
843.778	12032.59
844.103	11965.48
844.427	12094.74
844.751	11998.7
845.075	12009.54
845.399	11922.99
845.723	11802.32
846.047	11862.65
846.371	11779.94
846.695	11689.33
847.019	11647.74
847.343	11597.58
847.666	11615.66
847.99	11560.97
848.313	11400.75
848.637	11452.72
848.96	11457.24
849.284	11356.68
849.607	11313.97
849.931	11223.12
850.254	11163.46
850.577	11193.97
850.9	11060.64
851.223	11124.14
851.546	10973.41
851.869	10987.65
852.192	11029.46
852.515	10884.6
852.838	10835.11
853.161	10837.14
853.483	10742.01
853.806	10689.8
854.129	10723.48
854.451	10639.86
854.774	10588.11
855.096	10570.48
855.419	10514.22
855.741	10513.31
856.063	10436.48
856.385	10460.88
856.708	10393.77
857.03	10382.02
857.352	10372.75
857.674	10344.28
857.996	10328.91
858.318	10222.92
858.64	10250.95
858.961	10242.13
859.283	10151.29
859.605	10069.93
859.926	10062.7
860.248	10088.92
860.57	10032.42
860.891	10112.42
861.212	10039.65
861.534	9988.81
861.855	10025.87
862.176	9984.06
862.498	10066.09
862.819	9977.73
863.14	9857.06
863.461	9877.17
863.782	9843.05
864.103	9869.71
864.424	9828.81
864.745	9831.75
865.065	9829.49
865.386	9801.01
865.707	9777.06
866.027	9760.56
866.348	9739.09
866.668	9686.21
866.989	9710.85
867.309	9618.19
867.63	9632.2
867.95	9591.08
868.27	9552.66
868.59	9595.82
868.91	9516.28
869.23	9513.34
869.55	9474.02
869.87	9559.66
870.19	9503.85
870.51	9489.84
870.83	9482.15
871.15	9459.1
871.469	9437.86
871.789	9480.8
872.109	9424.75
872.428	9351.31
872.748	9423.4
873.067	9343.62
873.386	9400.8
873.706	9359.22
874.025	9267.02
874.344	9315.15
874.663	9248.71
874.982	9237.64
875.301	9258.43
875.62	9216.62
875.939	9176.4
876.258	9173.46
876.577	9148.38
876.896	9130.97
877.214	9115.61
877.533	9130.07
877.852	9133.46
878.17	9125.1
878.489	9174.36
878.807	9099.79
879.125	9012.56
879.444	9089.17
879.762	9041.94
880.08	9047.13
880.398	9007.81
880.716	8960.58
881.034	8987.02
881.352	8956.74
881.67	8963.07
881.988	8930.75
882.306	8907.48
882.624	8832.68
882.941	8848.72
883.259	8813.69
883.577	8806.92
883.894	8778.22
884.212	8775.73
884.529	8786.8
884.846	8707.71
885.164	8708.84
885.481	8670.42
885.798	8669.29
886.115	8594.94
886.432	8596.07
886.75	8570.54
887.067	8577.09
887.383	8511.78
887.7	8543.87
888.017	8462.97
888.334	8523.08
888.651	8454.16
888.967	8466.81
889.284	8432.24
889.6	8386.36
889.917	8351.11
890.233	8357.89
890.55	8247.38
890.866	8322.41
891.182	8245.12
891.498	8221.85
891.815	8191.34
892.131	8186.37
892.447	8189.76
892.763	8141.17
893.079	8133.03
893.395	8117.44
893.71	8060.49
894.026	8063.66
894.342	8049.65
894.657	8005.58
894.973	7948.41
895.289	8008.74
895.604	7999.03
895.92	7897.79
896.235	7839.71
896.55	7864.12
896.865	7887.17
897.181	7862.08
897.496	7871.12
897.811	7792.03
898.126	7749.54
898.441	7687.62
898.756	7667.51
899.071	7660.73
899.386	7706.83
899.7	7565.37
900.015	7573.05
900.33	7520.62
900.644	7514.97
900.959	7518.14
901.273	7407.18
901.588	7464.35
901.902	7407.18
902.216	7340.06
902.531	7382.55
902.845	7356.56
903.159	7332.15
903.473	7307.07
903.787	7239.72
904.101	7223.91
904.415	7202.66
904.729	7114.98
905.042	7084.02
905.356	7115.21
905.67	7065.27
905.984	7064.36
906.297	6990.24
906.611	6943.01
906.924	6978.26
907.237	6940.75
907.551	6930.13
907.864	6905.27
908.177	6890.13
908.491	6830.02
908.804	6786.4
909.117	6752.51
909.43	6771.71
909.743	6632.06
910.056	6694.65
910.368	6660.08
910.681	6681.1
910.994	6600.19
911.307	6585.96
911.619	6537.14
911.932	6546.86
912.244	6485.39
912.557	6449.92
912.869	6431.16
913.181	6420.76
913.494	6409.46
913.806	6376.47
914.118	6377.83
914.43	6312.74
914.742	6313.65
915.054	6290.82
915.366	6276.59
915.678	6226.19
915.99	6196.59
916.302	6157.49
916.613	6152.3
916.925	6134.44
917.236	6107.78
917.548	6094.9
917.859	6042.24
918.171	6006.99
918.482	6010.83
918.794	5981.23
919.105	5952.53
919.416	5868.69
919.727	5922.47
920.038	5853.32
920.349	5830.5
920.66	5797.73
920.971	5783.27
921.282	5776.03
921.593	5720.44
921.903	5704.4
922.214	5715.02
922.525	5663.27
922.835	5611.29
923.146	5645.19
923.456	5625.76
923.767	5637.96
924.077	5588.92
924.387	5501.24
924.697	5504.4
925.008	5503.5
925.318	5498.08
925.628	5479.55
925.938	5455.82
926.248	5387.12
926.558	5390.96
926.867	5425.08
927.177	5290.4
927.487	5305.99
927.796	5253.11
928.106	5224.86
928.416	5268.48
928.725	5219.44
929.034	5205.2
929.344	5244.75
929.653	5155.49
929.962	5089.72
930.271	5104.41
930.581	5111.65
930.89	5058.99
931.199	5041.82
931.508	5056.28
931.817	5066
932.125	4983.29
932.434	4942.61
932.743	4933.8
933.051	4943.74
933.36	4873.91
933.669	4868.04
933.977	4871.2
934.286	4824.65
934.594	4826.68
934.902	4774.48
935.21	4796.63
935.519	4743.07
935.827	4715.95
936.135	4681.6
936.443	4640.47
936.751	4658.1
937.059	4649.06
937.367	4616.74
937.674	4644.31
937.982	4602.96
938.29	4541.49
938.597	4536.52
938.905	4484.54
939.213	4509.4
939.52	4479.57
939.827	4479.57
940.135	4402.96
940.442	4425.34
940.749	4430.76
941.056	4405.22
941.363	4355.73
941.67	4362.29
941.977	4320.25
942.284	4297.66
942.591	4306.47
942.898	4288.39
943.205	4244.32
943.511	4228.05
943.818	4217.21
944.125	4196.64
944.431	4222.4
944.738	4150.31
945.044	4173.59
945.35	4173.59
945.657	4113.25
945.963	4106.47
946.269	4093.82
946.575	4078.45
946.881	4051.56
947.187	4024.22
947.493	4009.75
947.799	4015.63
948.105	3978.12
948.41	3996.87
948.716	3935.63
949.022	3878.01
949.327	3894.28
949.633	3922.3
949.938	3910.32
950.244	3869.42
950.549	3791.68
950.854	3839.59
951.16	3773.15
951.465	3785.58
951.77	3771.12
952.075	3801.4
952.38	3738.57
952.685	3704
952.99	3721.17
953.294	3713.26
953.599	3714.39
953.904	3669.88
954.209	3662.64
954.513	3648.86
954.818	3576.77
955.122	3600.05
955.426	3562.31
955.731	3578.35
956.035	3530.67
956.339	3594.62
956.643	3536.32
956.948	3488.19
957.252	3457.45
957.556	3464.91
957.86	3471.01
958.163	3467.62
958.467	3429.2
958.771	3418.36
959.075	3400.05
959.378	3407.51
959.682	3401.18
959.985	3380.62
960.289	3381.07
960.592	3325.25
960.896	3315.53
961.199	3271.69
961.502	3301.52
961.805	3280.51
962.108	3249.77
962.411	3271.92
962.714	3226.27
963.017	3231.69
963.32	3233.28
963.623	3201.64
963.926	3194.18
964.228	3149.66
964.531	3160.51
964.833	3134.52
965.136	3078.7
965.438	3089.33
965.741	3097.01
966.043	3079.16
966.345	3033.51
966.648	3049.33
966.95	3070.34
967.252	3029.89
967.554	3005.03
967.856	3013.17
968.158	2993.96
968.46	2991.7
968.761	2965.04
969.063	2950.57
969.365	2955.32
969.666	2948.09
969.968	2934.75
970.269	2939.27
970.571	2902.89
970.872	2868.09
971.174	2875.77
971.475	2870.35
971.776	2806.17
972.077	2847.98
972.378	2830.12
972.679	2849.11
972.98	2823.12
973.281	2765.27
973.582	2782.44
973.883	2735.66
974.183	2765.49
974.484	2732.72
974.785	2703.35
975.085	2721.88
975.386	2726.4
975.686	2670.13
975.986	2678.49
976.287	2661.31
976.587	2644.82
976.887	2626.96
977.187	2629
977.487	2592.62
977.787	2611.15
978.087	2572.05
978.387	2575.21
978.687	2559.62
978.987	2571.15
979.286	2531.37
979.586	2552.62
979.885	2537.93
980.185	2504.48
980.484	2506.29
980.784	2473.3
981.083	2509.23
981.382	2485.05
981.682	2456.12
981.981	2430.13
982.28	2409.12
982.579	2440.53
982.878	2412.06
983.177	2417.03
983.475	2412.51
983.774	2360.31
984.073	2349.01
984.372	2299.06
984.67	2355.56
984.969	2320.53
985.267	2329.35
985.566	2322.11
985.864	2324.83
986.162	2274.43
986.461	2271.27
986.759	2261.32
987.057	2225.17
987.355	2251.16
987.653	2245.96
987.951	2221.33
988.249	2233.08
988.547	2200.54
988.844	2230.82
989.142	2229.69
989.44	2200.99
989.737	2155.56
990.035	2157.6
990.332	2151.95
990.63	2138.39
990.927	2159.86
991.224	2137.94
991.521	2083.93
991.819	2097.04
992.116	2086.64
992.413	2099.97
992.71	2076.92
993.006	2061.56
993.303	2044.83
993.6	2048.22
993.897	2052.97
994.193	2025.62
994.49	2044.38
994.787	2021.56
995.083	2001.44
995.379	1992.63
995.676	1998.73
995.972	2012.52
996.268	1970.71
996.565	1963.03
996.861	1938.17
997.157	1941.56
997.453	1907.21
997.749	1905.4
998.044	1886.65
998.34	1905.85
998.636	1911.96
998.932	1848.23
999.227	1881.22
999.523	1863.14
999.818	1848
1000.114	1871.28
1000.409	1824.95
1000.704	1840.09
1001	1809.81
1001.295	1773.65
1001.59	1815.23
1001.885	1802.58
1002.18	1779.53
1002.475	1753.77
1002.77	1734.78
1003.065	1757.61
1003.359	1742.02
1003.654	1723.94
1003.949	1721.23
1004.243	1695.46
1004.538	1696.37
1004.832	1706.99
1005.127	1668.35
1005.421	1692.53
1005.715	1685.07
1006.009	1688.91
1006.304	1662.92
1006.598	1636.93
1006.892	1637.61
1007.186	1614.11
1007.48	1616.6
1007.773	1592.42
1008.067	1584.05
1008.361	1584.51
1008.655	1572.3
1008.948	1578.18
1009.242	1569.14
1009.535	1537.73
1009.829	1536.6
1010.122	1504.51
1010.415	1498.86
1010.708	1509.03
1011.001	1514
1011.295	1492.98
1011.588	1500.89
1011.881	1469.03
1012.173	1469.93
1012.466	1438.3
1012.759	1462.7
1013.052	1440.1
1013.344	1469.93
1013.637	1424.06
1013.93	1428.13
1014.222	1432.65
1014.514	1442.82
1014.807	1372.99
1015.099	1394.91
1015.391	1376.6
1015.683	1403.72
1015.976	1377.73
1016.268	1367.56
1016.56	1358.07
1016.851	1331.41
1017.143	1347.22
1017.435	1337.28
1017.727	1312.42
1018.018	1332.31
1018.31	1309.94
1018.602	1288.47
1018.893	1295.47
1019.185	1280.33
1019.476	1278.53
1019.767	1271.29
1020.058	1250.28
1020.35	1247.11
1020.641	1266.55
1020.932	1238.98
1021.223	1215.7
1021.514	1234.46
1021.804	1216.38
1022.095	1225.65
1022.386	1206.66
1022.677	1210.73
1022.967	1205.31
1023.258	1159.88
1023.548	1160.56
1023.839	1156.04
1024.129	1172.77
1024.419	1165.99
1024.709	1121.47
1025	1146.55
1025.29	1111.98
1025.58	1116.5
1025.87	1134.35
1026.16	1091.19
1026.449	1114.24
1026.739	1091.19
1027.029	1080.79
1027.319	1083.28
1027.608	1074.46
1027.898	1038.53
1028.187	1033.56
1028.477	1016.84
1028.766	1041.47
1029.055	1023.84
1029.344	1015.03
1029.634	1008.93
1029.923	994.69
1030.212	1010.06
1030.501	1034.69
1030.79	1015.48
1031.078	997.18
1031.367	967.12
1031.656	993.56
1031.945	986.56
1032.233	963.51
1032.522	941.81
1032.81	949.49
1033.099	960.57
1033.387	962.6
1033.675	947.46
1033.963	928.25
1034.251	944.3
1034.54	928.7
1034.828	903.17
1035.116	890.06
1035.403	899.55
1035.691	893.45
1035.979	870.85
1036.267	894.58
1036.554	885.77
1036.842	862.72
1037.129	872.66
1037.417	845.32
1037.704	852.1
1037.992	830.85
1038.279	844.86
1038.566	840.12
1038.853	840.12
1039.14	840.12
