Data from White_reflection_standard_FLMS001491_038.txt Node
Date: Tue Feb 07 10:32:02 GMT 2017
User: dcchb
Spectrometer: FLMS00149
Trigger mode: 0
Integration Time (sec): 2.000000E-2
Scans to average: 10
Electric dark correction enabled: true
Nonlinearity correction enabled: false
Boxcar width: 0
XAxis mode: Wavelengths
Number of Pixels in Spectrum: 2048
>>>>>Begin Spectral Data<<<<<
341.393	-9.99
341.776	-9.99
342.16	-9.99
342.543	-56.31
342.927	-70.77
343.31	-85.01
343.693	-76.65
344.077	-65.13
344.46	-57.22
344.843	-54.5
345.226	-43.21
345.61	-40.04
345.993	-17.44
346.376	8.77
346.759	7.19
347.142	32.95
347.525	28.66
347.908	85.61
348.291	96.23
348.674	86.06
349.057	93.74
349.44	114.98
349.823	152.95
350.206	166.73
350.588	241.76
350.971	256.45
351.354	286.28
351.737	282.21
352.119	271.14
352.502	302.55
352.884	305.71
353.267	337.58
353.65	332.83
354.032	347.52
354.414	341.19
354.797	357.91
355.179	374.41
355.562	368.54
355.944	375.99
356.326	369.89
356.709	416.22
357.091	386.39
357.473	407.18
357.855	397.91
358.238	365.6
358.62	388.87
359.002	424.13
359.384	399.04
359.766	423.68
360.148	402.88
360.53	403.34
360.912	444.24
361.294	405.37
361.676	390.91
362.057	405.37
362.439	398.37
362.821	410.34
363.203	398.37
363.584	402.43
363.966	411.02
364.348	411.7
364.729	407.18
365.111	402.43
365.493	391.81
365.874	402.88
366.256	412.38
366.637	412.15
367.019	414.64
367.4	421.19
367.781	425.71
368.163	418.03
368.544	413.51
368.925	419.61
369.306	407.4
369.688	422.77
370.069	421.87
370.45	434.3
370.831	430.45
371.212	437.46
371.593	421.42
371.974	436.1
372.355	432.26
372.736	439.49
373.117	439.04
373.498	444.24
373.879	447.4
374.26	447.18
374.641	420.29
375.021	434.75
375.402	455.09
375.783	471.58
376.163	498.93
376.544	492.37
376.925	497.57
377.305	495.54
377.686	489.21
378.066	477.91
378.447	498.02
378.827	504.58
379.208	513.84
379.588	495.09
379.968	516.33
380.349	516.33
380.729	517.68
381.109	525.59
381.489	523.11
381.87	536.67
382.25	559.26
382.63	552.26
383.01	560.39
383.39	582.54
383.77	582.32
384.15	577.8
384.53	582.54
384.91	565.14
385.29	583.67
385.67	571.47
386.049	615.99
386.429	616.21
386.809	615.31
387.189	620.05
387.568	638.36
387.948	635.2
388.328	652.6
388.707	652.82
389.087	647.17
389.466	666.38
389.846	669.77
390.225	673.39
390.605	679.49
390.984	716.1
391.363	686.72
391.743	739.6
392.122	733.27
392.501	731.92
392.881	732.14
393.26	756.55
393.639	761.07
394.018	787.06
394.397	777.11
394.776	794.06
395.155	777.79
395.534	778.69
395.913	787.73
396.292	807.62
396.671	808.52
397.05	824.79
397.429	841.29
397.808	827.73
398.186	848.07
398.565	861.86
398.944	847.39
399.323	883.32
399.701	903.66
400.08	873.16
400.458	890.33
400.837	909.76
401.215	914.96
401.594	925.81
401.972	935.75
402.351	970.55
402.729	953.38
403.107	972.14
403.486	985.47
403.864	991.34
404.242	990.67
404.62	1003.77
404.999	1021.85
405.377	1009.2
405.755	1055.52
406.133	1072.25
406.511	1071.79
406.889	1103.88
407.267	1097.1
407.645	1116.31
408.023	1132.81
408.401	1162.86
408.779	1182.07
409.156	1194.28
409.534	1216.87
409.912	1214.61
410.29	1206.03
410.667	1243.31
411.045	1255.97
411.422	1284.22
411.8	1286.25
412.178	1319.7
412.555	1333.26
412.933	1334.84
413.31	1389.07
413.687	1387.04
414.065	1403.08
414.442	1444.21
414.819	1440.15
415.197	1466.59
415.574	1473.37
415.951	1472.69
416.328	1501.84
416.705	1540.03
417.082	1538.67
417.46	1554.72
417.837	1583.87
418.214	1572.8
418.591	1606.24
418.967	1624.1
419.344	1629.97
419.721	1639.69
420.098	1632.46
420.475	1713.36
420.852	1713.58
421.228	1703.64
421.605	1739.35
421.982	1767.59
422.358	1780.25
422.735	1809.18
423.111	1812.57
423.488	1822.06
423.864	1848.72
424.241	1908.16
424.617	1897.31
424.994	1917.87
425.37	1933.47
425.746	1939.79
426.123	1982.28
426.499	1974.82
426.875	2037.42
427.251	2049.62
427.627	2094.59
428.003	2117.87
428.379	2152.9
428.756	2174.14
429.132	2198.54
429.507	2238.32
429.883	2295.26
430.259	2294.81
430.635	2306.56
431.011	2348.6
431.387	2426.33
431.763	2461.59
432.138	2432.21
432.514	2469.27
432.89	2514.02
433.265	2561.25
433.641	2575.26
434.016	2615.03
434.392	2672.2
434.767	2742.26
435.143	2723.05
435.518	2762.82
435.894	2784.97
436.269	2789.04
436.644	2843.05
437.02	2892.54
437.395	2864.29
437.77	2961.24
438.145	3009.14
438.52	3037.17
438.895	3071.06
439.271	3066.09
439.646	3140.21
440.021	3169.14
440.395	3186.31
440.77	3140.21
441.145	3219.31
441.52	3263.37
441.895	3290.04
442.27	3294.11
442.645	3325.75
443.019	3381.79
443.394	3359.87
443.769	3380.43
444.143	3378.63
444.518	3451.62
444.892	3481.67
445.267	3509.47
445.641	3556.25
446.016	3504.72
446.39	3568.23
446.764	3608.68
447.139	3598.96
447.513	3640.09
447.887	3650.48
448.262	3701.56
448.636	3674.44
449.01	3783.36
449.384	3828.56
449.758	3853.64
450.132	3889.35
450.506	3932.28
450.88	3934.32
451.254	3937.03
451.628	4032.62
452.002	4067.2
452.376	4067.65
452.75	4142.67
453.123	4180.64
453.497	4270.81
453.871	4286.62
454.244	4328.88
454.618	4383.12
454.992	4418.37
455.365	4477.81
455.739	4601.87
456.112	4617.46
456.486	4652.04
456.859	4725.71
457.232	4769.1
457.606	4802.09
457.979	4908.53
458.352	5018.36
458.725	4998.02
459.099	5080.73
459.472	5162.53
459.845	5174.96
460.218	5266.26
460.591	5364.34
460.964	5362.3
461.337	5496.76
461.71	5577.44
462.083	5621.28
462.456	5668.96
462.829	5722.97
463.201	5879.35
463.574	5825.12
463.947	5921.61
464.32	6048.84
464.692	6061.04
465.065	6124.99
465.438	6202.96
465.81	6319.79
466.183	6343.97
466.555	6550.97
466.928	6552.78
467.3	6573.34
467.672	6693.11
468.045	6820.8
468.417	6873.22
468.789	6936.95
469.161	7016.95
469.534	7196.6
469.906	7257.85
470.278	7357.96
470.65	7457.39
471.022	7662.58
471.394	7746.19
471.766	7803.37
472.138	7913.65
472.51	8158.84
472.882	8218.05
473.253	8265.05
473.625	8438.61
473.997	8639.96
474.369	8692.84
474.74	8748.2
475.112	8978.03
475.484	9138.93
475.855	9235.65
476.227	9300.05
476.598	9586.82
476.97	9717.89
477.341	9898.91
477.713	10100.71
478.084	10154.72
478.455	10399.91
478.827	10504.09
479.198	10819.33
479.569	10816.85
479.94	11127.12
480.311	11184.97
480.682	11446.89
481.053	11772.08
481.424	11947.89
481.795	12024.5
482.166	12223.59
482.537	12363.25
482.908	12697.48
483.279	12808.66
483.65	12981.76
484.021	13339.04
484.391	13429.89
484.762	13597.34
485.133	13757.34
485.503	13837.79
485.874	14169.08
486.244	14320.71
486.615	14615.84
486.985	14790.3
487.356	15044.31
487.726	15187.13
488.097	15585.31
488.467	15563.84
488.837	15898.75
489.207	16061.46
489.578	16291.96
489.948	16456.93
490.318	16764.71
490.688	16842.45
491.058	17092.84
491.428	17342.55
491.798	17503.9
492.168	17758.36
492.538	17880.84
492.908	18110.67
493.278	18370.77
493.648	18343.2
494.017	18604.67
494.387	18759.46
494.757	18947.48
495.126	19120.58
495.496	19171.43
495.866	19360.8
496.235	19597.18
496.605	19855.93
496.974	19909.26
497.344	20075.59
497.713	20184.29
498.082	20347.9
498.452	20552.64
498.821	20657.49
499.19	20810.26
499.559	21087.54
499.928	21042.34
500.298	21338.38
500.667	21443.91
501.036	21459.96
501.405	21658.15
501.774	21824.02
502.143	22001.64
502.512	22139.49
502.88	22259.26
503.249	22313.27
503.618	22505.35
503.987	22579.02
504.356	22798.68
504.724	22936.08
505.093	23090.65
505.462	23233.02
505.83	23418.32
506.199	23524.08
506.567	23943.06
506.936	23810.86
507.304	24159.77
507.672	24354.35
508.041	24356.15
508.409	24531.97
508.777	24759.76
509.145	25079.07
509.514	25032.75
509.882	25340.31
510.25	25347.31
510.618	25539.63
510.986	25752.5
511.354	25983.23
511.722	26220.51
512.09	26341.19
512.458	26340.51
512.826	26617.11
513.193	26780.72
513.561	26956.09
513.929	27170.32
514.297	27456.86
514.664	27584.77
515.032	27780.7
515.4	27943.86
515.767	28035.38
516.135	28211.87
516.502	28190.18
516.869	28713.33
517.237	28855.02
517.604	28780.67
517.972	29259.53
518.339	29379.75
518.706	29445.29
519.073	29692.28
519.44	29916.01
519.808	30325.71
520.175	30299.05
520.542	30721.64
520.909	30769.54
521.276	30812.48
521.643	31265.58
522.009	31463.54
522.376	31709.41
522.743	31934.94
523.11	32164.31
523.477	32660.12
523.843	32804.07
524.21	32927.91
524.577	33287.67
524.943	33425.97
525.31	33614.89
525.676	33922
526.043	34183.69
526.409	34279.73
526.776	34679.05
527.142	34805.6
527.508	35057.34
527.874	35296.2
528.241	35451.91
528.607	35572.58
528.973	35998.56
529.339	36033.36
529.705	36331.43
530.071	36596.74
530.437	36726.45
530.803	36855.49
531.169	37372.76
531.535	37240.33
531.901	37496.82
532.267	37624.05
532.632	37809.81
532.998	38003.93
533.364	38139.97
533.73	38332.74
534.095	38634.2
534.461	38765.94
534.826	38966.16
535.192	39026.73
535.557	39411.58
535.923	39320.28
536.288	39567.28
536.653	39594.4
537.019	39780.61
537.384	39994.16
537.749	40219.92
538.114	40197.54
538.479	40258.56
538.845	40592.11
539.21	40485.67
539.575	40720.69
539.94	40893.8
540.305	41064.64
540.67	41030.74
541.034	41330.4
541.399	41438.19
541.764	41583.5
542.129	41782.59
542.494	41876.37
542.858	41925.86
543.223	42065.97
543.587	42400.88
543.952	42175.35
544.316	42467.09
544.681	42600.65
545.045	42724.94
545.41	43011.93
545.774	43045.61
546.138	43250.57
546.503	43285.6
546.867	43230.69
547.231	43802.42
547.595	43792.48
547.959	43858.01
548.324	43982.08
548.688	44072.47
549.052	44169.64
549.416	44279.25
549.779	44332.8
550.143	44588.39
550.507	44890.3
550.871	45060.24
551.235	45078.55
551.599	45404.19
551.962	45384.08
552.326	45521.7
552.689	45822.48
553.053	45679.66
553.417	45725.99
553.78	46152.64
554.143	46064.74
554.507	46309.02
554.87	46460.43
555.234	46847.09
555.597	46699.07
555.96	46906.75
556.323	47057.93
556.686	47153.29
557.05	47446.62
557.413	47628.76
557.776	47614.07
558.139	48033.72
558.502	47989.2
558.865	48192.36
559.228	48517.78
559.59	48508.51
559.953	48618.57
560.316	48909.18
560.679	49019.01
561.041	49150.3
561.404	49530.41
561.767	49679.33
562.129	49549.39
562.492	49842.71
562.854	49851.3
563.217	50000
563.579	50245.87
563.941	50443.6
564.304	50555.69
564.666	50771.05
565.028	50717.04
565.39	50940.99
565.753	51145.51
566.115	51239.29
566.477	51301.89
566.839	51458.72
567.201	51643.35
567.563	51752.27
567.925	51975.09
568.287	51995.88
568.648	52162.43
569.01	52297.57
569.372	52450.33
569.734	52300.96
570.095	52567.61
570.457	52681.06
570.819	52827.72
571.18	52770.55
571.542	52952.69
571.903	52979.58
572.265	53102.06
572.626	53289.4
572.987	53314.26
573.349	53461.38
573.71	53503.41
574.071	53515.61
574.432	53646.68
574.794	53767.13
575.155	53828.15
575.516	53799.9
575.877	53951.31
576.238	53924.87
576.599	54040.34
576.96	54157.86
577.32	54158.31
577.681	54314.69
578.042	54296.61
578.403	54284.41
578.763	54337.74
579.124	54458.64
579.485	54458.64
579.845	54524.17
580.206	54505.87
580.566	54539.99
580.927	54583.61
581.287	54723.94
581.648	54591.74
582.008	54758.52
582.368	54703.6
582.728	54726.43
583.089	54750.38
583.449	54765.52
583.809	54732.76
584.169	54808.01
584.529	54703.6
584.889	54887.1
585.249	54678.52
585.609	54744.28
585.969	54872.19
586.329	54806.2
586.688	54885.29
587.048	54812.3
587.408	54789.7
587.768	54791.96
588.127	54749.93
588.487	54734.79
588.846	54933.88
589.206	54754
589.565	54779.31
589.925	54915.12
590.284	54779.08
590.643	54821.12
591.003	54930.49
591.362	54973.88
591.721	54863.6
592.08	54906.76
592.44	55017.27
592.799	55046.42
593.158	54929.36
593.517	54988.34
593.876	55048
594.235	54880.55
594.593	55058.85
594.952	55067.66
595.311	54940.66
595.67	54986.31
596.029	55211.61
596.387	55203.7
596.746	55173.65
597.104	55066.98
597.463	55144.95
597.822	55253.87
598.18	55160.77
598.538	55110.6
598.897	55257.71
599.255	55089.58
599.613	55419.97
599.972	55275.11
600.33	55401.44
600.688	55280.54
601.046	55286.19
601.404	55474.66
601.762	55409.35
602.12	55466.97
602.478	55415.9
602.836	55503.36
603.194	55368.45
603.552	55453.64
603.91	55436.01
604.268	55550.59
604.625	55509.23
604.983	55611.6
605.341	55447.09
605.698	55600.53
606.056	55645.27
606.413	55643.69
606.771	55669.23
607.128	55759.62
607.485	55557.59
607.843	55723.46
608.2	55860.18
608.557	55850.01
608.914	55815.67
609.272	55998.03
609.629	55907.19
609.986	56047.3
610.343	55860.64
610.7	56120.97
611.057	56039.16
611.414	56054.75
611.771	56066.73
612.127	56139.05
612.484	56083
612.841	56193.06
613.198	56158.93
613.554	56172.49
613.911	56272.15
614.267	56249.78
614.624	56221.76
614.98	56304.92
615.337	56421.75
615.693	56305.37
616.05	56355.76
616.406	56513.73
616.762	56304.01
617.118	56393.5
617.475	56419.04
617.831	56467.85
618.187	56490.68
618.543	56526.38
618.899	56641.63
619.255	56522.99
619.611	56573.39
619.967	56681.41
620.323	56657.68
620.678	56530.67
621.034	56492.94
621.39	56553.95
621.746	56542.2
622.101	56776.32
622.457	56576.55
622.812	56605.7
623.168	56639.15
623.523	56649.32
623.879	56722.76
624.234	56589.88
624.589	56647.06
624.945	56639.15
625.3	56603.44
625.655	56678.02
626.01	56667.39
626.365	56601.18
626.72	56633.27
627.075	56585.81
627.43	56655.64
627.785	56504.69
628.14	56652.93
628.495	56589.88
628.85	56560.28
629.205	56497.68
629.559	56658.13
629.914	56428.3
630.269	56511.92
630.623	56497.23
630.978	56367.06
631.332	56444.12
631.687	56474.4
632.041	56309.89
632.396	56440.06
632.75	56275.99
633.104	56351.02
633.459	56241.87
633.813	56193.06
634.167	56193.28
634.521	56196.45
634.875	56146.5
635.229	56097.24
635.583	55983.34
635.937	55977.02
636.291	55914.65
636.645	55998.03
636.999	55930.92
637.352	55921.65
637.706	55711.94
638.06	55917.81
638.413	55872.84
638.767	55711.26
639.121	55762.11
639.474	55585.16
639.828	55663.35
640.181	55585.39
640.534	55632.39
640.888	55519.4
641.241	55436.92
641.594	55417.48
641.947	55594.88
642.301	55506.97
642.654	55475.56
643.007	55411.16
643.36	55378.16
643.713	55337.71
644.066	55409.12
644.419	55140.43
644.771	54970.26
645.124	54687.56
645.477	54780.44
645.83	54530.5
646.182	54423.39
646.535	54302.48
646.888	54410.5
647.24	54180
647.593	54392.2
647.945	54280.56
648.298	54098.65
648.65	54128.03
649.002	54021.81
649.355	54176.84
649.707	54042.83
650.059	54150.4
650.411	54401.47
650.763	54545.19
651.115	54747.9
651.467	54690.95
651.819	54655.47
652.171	54516.94
652.523	54474.01
652.875	54505.87
653.227	54343.16
653.578	54500.22
653.93	54437.17
654.282	54324.18
654.633	54238.31
654.985	54291.19
655.337	54288.02
655.688	54209.83
656.039	54327.12
656.391	54116.27
656.742	54152.43
657.094	54090.74
657.445	54223.39
657.796	54133
658.147	54054.58
658.498	54113.56
658.849	54129.16
659.2	54023.62
659.551	54012.55
659.902	54134.13
660.253	53977.3
660.604	54089.83
660.955	53870.41
661.306	53982.27
661.656	53868.82
662.007	53958.76
662.358	53827.02
662.708	53897.3
663.059	53801.93
663.409	53662.73
663.76	53860.01
664.11	53814.59
664.461	53749.5
664.811	53814.59
665.161	53819.56
665.511	53703.4
665.862	53697.98
666.212	53751.76
666.562	53719
666.912	53763.29
667.262	53668.83
667.612	53673.57
667.962	53634.03
668.312	53608.49
668.662	53763.29
669.011	53522.62
669.361	53497.31
669.711	53506.57
670.06	53500.7
670.41	53434.03
670.76	53415.05
671.109	53541.83
671.459	53484.43
671.808	53308.39
672.157	53412.34
672.507	53185.23
672.856	53197.2
673.205	53129.41
673.554	53270.87
673.904	53174.6
674.253	53337.09
674.602	53301.83
674.951	52864.33
675.3	52606.26
675.649	53050.77
675.998	53049.18
676.346	53152.23
676.695	53146.36
677.044	52902.52
677.393	52906.59
677.741	53044.21
678.09	52788.17
678.438	52870.66
678.787	52872.24
679.135	52817.78
679.484	52625.92
679.832	52753.6
680.181	52577.11
680.529	52660.27
680.877	52606.48
681.225	52515.41
681.573	52793.15
681.922	52411.91
682.27	52431.8
682.618	52462.53
682.966	52252.6
683.314	52324.68
683.661	52285.59
684.009	52043.79
684.357	52020.51
684.705	51906.62
685.053	52031.81
685.4	51870.68
685.748	51759.5
686.095	51770.57
686.443	51652.61
686.79	51540.98
687.138	51701.88
687.485	51569
687.832	51376.46
688.18	51426.4
688.527	51235.9
688.874	51290.13
689.221	51157.93
689.568	51100.76
689.915	50967.21
690.262	50880.2
690.609	50903.7
690.956	50803.59
691.303	50792.07
691.65	50545.07
691.997	50592.07
692.344	50244.74
692.69	50161.12
693.037	50292.19
693.383	49953.22
693.73	50074.57
694.077	49866.9
694.423	49902.6
694.769	49738.31
695.116	49677.3
695.462	49624.42
695.808	49398.21
696.155	49430.07
696.501	49299
696.847	49171.55
697.193	48988.95
697.539	49115.28
697.885	48753.7
698.231	48675.29
698.577	48684.78
698.923	48705.12
699.269	48341.51
699.614	48193.94
699.96	48154.17
700.306	48305.81
700.651	48055.87
700.997	48083.21
701.342	47758.02
701.688	47760.06
702.033	47680.96
702.379	47657.46
702.724	47485.94
703.069	47571.81
703.415	47091.37
703.76	47130.92
704.105	47083.01
704.45	46929.57
704.795	46776.13
705.14	46677.83
705.485	46664.72
705.83	46500.88
706.175	46526.87
706.52	46373.65
706.865	46399.87
707.209	46191.74
707.554	46055.24
707.899	46123.94
708.243	45912.2
708.588	45754.69
708.932	45522.38
709.277	45503.62
709.621	45679.66
709.966	45245.55
710.31	45362.61
710.654	44872.22
710.998	45055.72
711.342	45044.87
711.687	44970.3
712.031	44733.24
712.375	44670.42
712.719	44666.58
713.063	44483.76
713.407	44581.38
713.75	44396.98
714.094	44323.76
714.438	44151.79
714.782	44177.55
715.125	43969.2
715.469	44037.44
715.812	43863.89
716.156	43501.64
716.499	43765.59
716.843	43658.02
717.186	43342.55
717.53	43527.17
717.873	43553.61
718.216	43531.69
718.559	43352.94
718.902	43006.74
719.246	43089.9
719.589	42886.29
719.932	42906.17
720.275	42732.39
720.617	42765.84
720.96	42614.88
721.303	42626.86
721.646	42692.17
721.989	42486.75
722.331	42460.08
722.674	42356.58
723.016	42401.1
723.359	42194.1
723.701	42244.5
724.044	42067.33
724.386	41817.39
724.729	42067.55
725.071	41781.68
725.413	41835.69
725.755	41728.8
726.097	41539.88
726.439	41454.23
726.782	41463.5
727.124	41587.79
727.465	41346.89
727.807	41267.57
728.149	41135.37
728.491	41053.57
728.833	41057.18
729.175	41023.51
729.516	40756.17
729.858	40916.4
730.199	40780.13
730.541	40723.18
730.882	40581.26
731.224	40783.52
731.565	40541.04
731.906	40536.52
732.248	40549.17
732.589	40290.42
732.93	40263.98
733.271	40416.3
733.612	40302.63
733.953	40215.85
734.294	40092.91
734.635	39839.36
734.976	40008.17
735.317	39757.33
735.658	39827.61
735.999	39736.77
736.339	39608.18
736.68	39781.28
737.021	39638.69
737.361	39458.13
737.702	39586.04
738.042	39462.42
738.383	39163.9
738.723	39346.49
739.063	39143.34
739.404	39367.96
739.744	39153.96
740.084	38853.85
740.424	38933.17
740.764	38950.8
741.104	38970.23
741.444	38711.03
741.784	38562.79
742.124	38769.11
742.464	38733.18
742.804	38493.18
743.143	38364.15
743.483	38487.31
743.823	38154.89
744.162	38208.9
744.502	38297.26
744.841	38127.77
745.181	38066.3
745.52	38007.09
745.86	38060.88
746.199	37831.73
746.538	37907.66
746.877	37922.8
747.216	37788.34
747.556	37691.85
747.895	37751.28
748.234	37541.8
748.573	37458.63
748.911	37375.47
749.25	37457.28
749.589	37204.4
749.928	37255.48
750.267	37176.38
750.605	37169.6
750.944	37080.56
751.283	36989.49
751.621	36915.37
751.96	36701.59
752.298	36712.21
752.636	36774.36
752.975	36417.53
753.313	36389.51
753.651	36650.29
753.989	36266.12
754.327	36183.64
754.666	36056.86
755.004	35987.49
755.342	35958.11
755.679	35951.33
756.017	35741.84
756.355	35787.27
756.693	35619.81
757.031	35711.79
757.368	35287.39
757.706	35338.01
758.044	35307.5
758.381	35264.12
758.719	35052.82
759.056	35111.12
759.394	34897.8
759.731	34815.09
760.068	34753.39
760.405	34491.93
760.743	34423.91
761.08	34550.24
761.417	34278.83
761.754	34367.19
762.091	34184.37
762.428	33983.02
762.765	33851.72
763.102	33930.59
763.438	33614.67
763.775	33597.27
764.112	33614.22
764.449	33529.25
764.785	33366.76
765.122	33190.27
765.458	33135.13
765.795	33086.77
766.131	32918.41
766.467	32772.66
766.804	32635.71
767.14	32496.73
767.476	32526.79
767.812	32273.46
768.148	32384.42
768.485	32129.06
768.821	31926.12
769.157	31974.94
769.492	31898.1
769.828	31870.08
770.164	31557.32
770.5	31499.92
770.836	31505.12
771.171	31355.07
771.507	31187.39
771.842	30987.17
772.178	30936.09
772.513	30833.05
772.849	30731.35
773.184	30651.58
773.519	30592.37
773.855	30356.22
774.19	30334.53
774.525	30264.02
774.86	30245.94
775.195	30044.59
775.53	29923.46
775.865	29778.16
776.2	29629.24
776.535	29435.12
776.87	29536.36
777.205	29343.82
777.539	29207.78
777.874	29156.71
778.209	28957.16
778.543	28889.82
778.878	28784.51
779.212	28786.09
779.547	28395.6
779.881	28628.81
780.215	28335.94
780.55	28452.77
780.884	28266.56
781.218	28225.2
781.552	28226.33
781.886	27926.23
782.22	27774.59
782.554	27844.42
782.888	27457.99
783.222	27398.11
783.556	27294.61
783.889	27301.61
784.223	27069.98
784.557	27044.44
784.89	27058.23
785.224	26869.76
785.557	26776.43
785.891	26696.88
786.224	26643.1
786.558	26676.09
786.891	26320.85
787.224	26211.92
787.557	26261.41
787.891	26116.56
788.224	26070.01
788.557	26004.25
788.89	25866.85
789.223	25824.82
789.556	25724.03
789.888	25722.67
790.221	25458.72
790.554	25226.86
790.887	25432.74
791.219	25176.24
791.552	25152.74
791.884	25001.11
792.217	24903.03
792.549	24901.45
792.882	24733.77
793.214	24686.99
793.546	24598.86
793.879	24514.57
794.211	24378.98
794.543	24443.16
794.875	24315.48
795.207	24389.37
795.539	24091.08
795.871	24183.28
796.203	23998.2
796.535	23859.44
796.867	23726.79
797.198	23788.26
797.53	23741.71
797.862	23529.73
798.193	23520.92
798.525	23374.71
798.856	23305.56
799.188	23046.58
799.519	23091.1
799.85	23009.07
800.182	23024.21
800.513	22933.14
800.844	22763.43
801.175	22917.32
801.506	22899.02
801.837	22676.65
802.168	22702.86
802.499	22568.4
802.83	22463.55
803.161	22466.49
803.491	22344.45
803.822	22377.9
804.153	22144.46
804.483	22073.28
804.814	21986.95
805.145	22055.87
805.475	21986.5
805.805	21858.37
806.136	21796.9
806.466	21837.35
806.796	21726.17
807.126	21600.75
807.457	21561.65
807.787	21511.48
808.117	21469.9
808.447	21380.86
808.777	21317.59
809.107	21348.55
809.436	21158.05
809.766	21057.71
810.096	21090.7
810.426	21030.82
810.755	21000.76
811.085	20979.97
811.414	20891.84
811.744	20728.45
812.073	20659.3
812.403	20737.49
812.732	20517.84
813.061	20545.63
813.39	20431.06
813.719	20440.55
814.049	20408.23
814.378	20390.38
814.707	20334.79
815.036	20210.5
815.365	20091.41
815.693	19932.09
816.022	20073.1
816.351	19928.25
816.68	19864.29
817.008	19881.92
817.337	19644.41
817.665	19679.67
817.994	19791.08
818.322	19658.65
818.651	19673.34
818.979	19518.77
819.307	19610.06
819.636	19543.62
819.964	19360.8
820.292	19569.84
820.62	19431.31
820.948	19385.21
821.276	19372.56
821.604	19387.92
821.932	19343.18
822.259	19378.66
822.587	19347.47
822.915	19371.65
823.243	19340.92
823.57	19213.01
823.898	19358.09
824.225	19234.71
824.553	19182.28
824.88	19340.24
825.207	19356.28
825.535	19261.6
825.862	19380.24
826.189	19224.54
826.516	19273.35
826.843	19340.92
827.17	19340.69
827.497	19334.59
827.824	19225.89
828.151	19349.96
828.478	19267.93
828.805	19308.83
829.131	19231.09
829.458	19234.48
829.785	19117.87
830.111	19210.75
830.438	19143.64
830.764	19162.17
831.09	19170.98
831.417	19011.89
831.743	19200.81
832.069	19198.77
832.395	19048.95
832.722	19099.34
833.048	19030.19
833.374	19070.87
833.7	18918.78
834.026	19039.91
834.351	19027.25
834.677	18873.36
835.003	19017.54
835.329	18941.61
835.654	19030.64
835.98	18792.46
836.306	18857.31
836.631	18766.92
836.956	18825.9
837.282	18894.38
837.607	18694.61
837.932	18625.46
838.258	18669.75
838.583	18632.46
838.908	18542.52
839.233	18564.22
839.558	18465.91
839.883	18448.51
840.208	18465.91
840.533	18428.63
840.858	18397.44
841.182	18423.2
841.507	18452.58
841.832	18231.57
842.156	18216.2
842.481	18287.16
842.805	18291
843.13	18132.36
843.454	18095.08
843.778	18029.99
844.103	18055.08
844.427	17919.03
844.751	17887.85
845.075	17809.88
845.399	17665.03
845.723	17694.18
846.047	17745.71
846.371	17565.37
846.695	17566.73
847.019	17440.4
847.343	17398.14
847.666	17301.42
847.99	17265.94
848.313	17214.19
848.637	17136.23
848.96	17079.73
849.284	16942.34
849.607	16823.02
849.931	16867.54
850.254	16735.11
850.577	16655.34
850.9	16491.05
851.223	16493.54
851.546	16352.3
851.869	16343.71
852.192	16354.56
852.515	16234.11
852.838	16230.27
853.161	16104.84
853.483	16034.56
853.806	16010.84
854.129	15988.46
854.451	15885.19
854.774	15829.6
855.096	15773.55
855.419	15690.39
855.741	15740.33
856.063	15613.56
856.385	15588.02
856.708	15506.44
857.03	15551.41
857.352	15531.53
857.674	15425.54
857.996	15325.66
858.318	15296.5
858.64	15369.72
858.961	15278.2
859.283	15216.05
859.605	15141.48
859.926	15141.25
860.248	15109.39
860.57	15018.55
860.891	15047.47
861.212	14863.07
861.534	14882.5
861.855	14902.62
862.176	14867.59
862.498	14898.55
862.819	14860.36
863.14	14850.19
863.461	14830.53
863.782	14646.13
864.103	14648.39
864.424	14588.05
864.745	14677.09
865.065	14623.53
865.386	14483.19
865.707	14567.48
866.027	14579.46
866.348	14442.52
866.668	14472.8
866.989	14406.81
867.309	14342.63
867.63	14383.76
867.95	14300.82
868.27	14300.6
868.59	14251.33
868.91	14312.12
869.23	14216.08
869.55	14105.12
869.87	14341.05
870.19	14182.86
870.51	14308.06
870.83	14118
871.15	14145.35
871.469	14090.21
871.789	14077.55
872.109	14136.08
872.428	14066.03
872.748	14007.95
873.067	13996.2
873.386	14038.91
873.706	14016.99
874.025	13855.86
874.344	13834.17
874.663	13876.65
874.982	13801.4
875.301	13835.07
875.62	13804.34
875.939	13709.88
876.258	13701.29
876.577	13686.6
876.896	13661.07
877.214	13640.95
877.533	13641.63
877.852	13578.13
878.17	13559.83
878.489	13583.33
878.807	13670.78
879.125	13521.18
879.444	13517.12
879.762	13358.25
880.08	13473.73
880.398	13386.27
880.716	13459.49
881.034	13350.34
881.352	13376.78
881.67	13291.59
881.988	13318.7
882.306	13285.03
882.624	13229.89
882.941	13162.32
883.259	13145.37
883.577	13107.64
883.894	13040.07
884.212	13094.08
884.529	13035.32
884.846	13004.14
885.164	13005.04
885.481	12930.69
885.798	12878.72
886.115	12849.11
886.432	12858.6
886.75	12816.57
887.067	12898.15
887.383	12724.37
887.7	12788.77
888.017	12662.22
888.334	12681.66
888.651	12704.48
888.967	12588.55
889.284	12559.18
889.6	12549.91
889.917	12424.49
890.233	12466.07
890.55	12360.08
890.866	12427.43
891.182	12318.96
891.498	12325.51
891.815	12320.31
892.131	12189.92
892.447	12216.81
892.763	12143.59
893.079	12110.83
893.395	12069.47
893.71	11994.9
894.026	11988.57
894.342	11961.68
894.657	11939.76
894.973	11938.17
895.289	11881.45
895.604	11886.42
895.92	11792.19
896.235	11763.72
896.55	11635.36
896.865	11710.84
897.181	11628.13
897.496	11570.27
897.811	11558.75
898.126	11495.47
898.441	11403.27
898.756	11397.17
899.071	11407.79
899.386	11319.66
899.7	11272.43
900.015	11159.89
900.33	11145.88
900.644	11139.55
900.959	11145.2
901.273	11042.15
901.588	11040.57
901.902	10967.58
902.216	10917.41
902.531	10952.89
902.845	10893.68
903.159	10830.63
903.473	10811.2
903.787	10742.73
904.101	10696.63
904.415	10647.81
904.729	10610.07
905.042	10582.5
905.356	10569.4
905.67	10518.78
905.984	10480.13
906.297	10435.39
906.611	10410.53
906.924	10333.92
907.237	10377.76
907.551	10343.64
907.864	10295.96
908.177	10159.46
908.491	10218.45
908.804	10180.03
909.117	10092.35
909.43	9984.33
909.743	9998.56
910.056	10037.21
910.368	9904.1
910.681	9902.52
910.994	9802.41
911.307	9785.24
911.619	9693.94
911.932	9735.07
912.244	9644.22
912.557	9658.01
912.869	9612.13
913.181	9473.38
913.494	9528.97
913.806	9514.06
914.118	9401.07
914.43	9367.85
914.742	9407.17
915.054	9314.06
915.366	9321.29
915.678	9296.21
915.99	9230.22
916.302	9094.86
916.613	9124.46
916.925	9043.79
917.236	9035.43
917.548	9015.54
917.859	8952.26
918.171	8898.25
918.482	8914.3
918.794	8891.02
919.105	8847.18
919.416	8677.47
919.727	8723.34
920.038	8750.91
920.349	8651.26
920.66	8631.6
920.971	8618.94
921.282	8574.87
921.593	8505.27
921.903	8477.7
922.214	8484.71
922.525	8404.48
922.835	8391.83
923.146	8332.39
923.456	8307.08
923.767	8267.08
924.077	8234.09
924.387	8199.52
924.697	8154.55
925.008	8112.96
925.318	8024.15
925.628	8079.52
925.938	8033.19
926.248	7922.91
926.558	7943.25
926.867	7932.86
927.177	7808.11
927.487	7839.75
927.796	7652.64
928.106	7790.94
928.416	7735.12
928.725	7707.55
929.034	7665.07
929.344	7680.21
929.653	7665.74
929.962	7557.73
930.271	7475.69
930.581	7542.36
930.89	7427.33
931.199	7410.84
931.508	7389.59
931.817	7375.58
932.125	7319.99
932.434	7323.15
932.743	7305.75
933.051	7219.65
933.36	7199.99
933.669	7120.67
933.977	7060.11
934.286	7120.22
934.594	7084.07
934.902	6958.87
935.21	6981.69
935.519	7002.03
935.827	6978.98
936.135	6880.45
936.443	6816.28
936.751	6820.34
937.059	6785.54
937.367	6828.25
937.674	6806.33
937.982	6767.01
938.29	6714.36
938.597	6695.6
938.905	6630.29
939.213	6599.11
939.52	6550.97
939.827	6579.22
940.135	6547.36
940.442	6494.02
940.749	6518.2
941.056	6439.34
941.363	6361.37
941.67	6440.92
941.977	6364.31
942.284	6303.29
942.591	6327.25
942.898	6242.51
943.205	6247.93
943.511	6215.84
943.818	6183.75
944.125	6132
944.431	6074.83
944.738	6067.59
945.044	6056.3
945.35	6022.4
945.657	6036.18
945.963	6016.07
946.269	5960.93
946.575	6017.43
946.881	5894.72
947.187	5888.62
947.493	5831.67
947.799	5825.34
948.105	5871.22
948.41	5772.46
948.716	5759.35
949.022	5712.58
949.327	5726.13
949.633	5642.07
949.938	5664.67
950.244	5630.32
950.549	5594.39
950.854	5567.49
951.16	5500.38
951.465	5476.42
951.77	5514.16
952.075	5419.02
952.38	5482.07
952.685	5418.57
952.99	5329.99
953.294	5437.33
953.599	5336.99
953.904	5342.19
954.209	5308.29
954.513	5269.2
954.818	5247.5
955.122	5272.59
955.426	5166.38
955.731	5185.36
956.035	5126.83
956.339	5103.33
956.643	5125.7
956.948	5097.22
957.252	5011.13
957.556	5059.71
957.86	5031.92
958.163	5017.23
958.467	4967.96
958.771	5002.31
959.075	5001.18
959.378	4916.21
959.682	4939.94
959.985	4863.11
960.289	4838.47
960.592	4807.97
960.896	4787.4
961.199	4793.05
961.502	4749.44
961.805	4754.18
962.108	4768.42
962.411	4728.19
962.714	4658.14
963.017	4659.5
963.32	4648.42
963.623	4660.4
963.926	4639.84
964.228	4577.92
964.531	4581.76
964.833	4553.28
965.136	4520.06
965.438	4499.5
965.741	4475.55
966.043	4484.59
966.345	4431.03
966.648	4492.72
966.95	4390.35
967.252	4354.65
967.554	4330.47
967.856	4335.89
968.158	4306.96
968.46	4310.13
968.761	4287.08
969.063	4269.22
969.365	4253.63
969.666	4237.59
969.968	4195.33
970.269	4180.19
970.571	4135.22
970.872	4137.25
971.174	4115.1
971.475	4121.21
971.776	4093.41
972.077	4023.81
972.378	4090.7
972.679	4027.65
972.98	4053.41
973.281	4003.47
973.582	3977.48
973.883	3955.11
974.183	3946.97
974.484	3897.93
974.785	3884.38
975.085	3856.58
975.386	3871.49
975.686	3872.62
975.986	3847.54
976.287	3807.99
976.587	3740.65
976.887	3766.41
977.187	3723.48
977.487	3785.39
977.787	3747.66
978.087	3715.11
978.387	3692.97
978.687	3730.03
978.987	3639.41
979.286	3638.05
979.586	3650.71
979.885	3645.96
980.185	3615.68
980.484	3560.32
980.784	3572.29
981.083	3579.52
981.382	3529.58
981.682	3528.45
981.981	3530.49
982.28	3515.35
982.579	3502.24
982.878	3508.79
983.177	3447.55
983.475	3464.95
983.774	3398.74
984.073	3417.72
984.372	3397.16
984.67	3392.18
984.969	3347.44
985.267	3299.76
985.566	3305.41
985.864	3285.97
986.162	3290.04
986.461	3284.62
986.759	3252.98
987.057	3213.88
987.355	3201.68
987.653	3210.27
987.951	3156.03
988.249	3144.73
988.547	3153.55
988.844	3156.26
989.142	3142.02
989.44	3122.59
989.737	3092.31
990.035	3097.96
990.332	3063.15
990.63	3064.28
990.927	3076.03
991.224	3000.33
991.521	2978.64
991.819	3024.74
992.116	2987.45
992.413	2953.1
992.71	2956.04
993.006	2946.32
993.303	2929.6
993.6	2912.2
993.897	2905.87
994.193	2904.06
994.49	2853.67
994.787	2837.85
995.083	2840.79
995.379	2822.71
995.676	2841.46
995.972	2806.44
996.268	2765.76
996.565	2747.68
996.861	2779.77
997.157	2758.3
997.453	2735.48
997.749	2726.67
998.044	2711.52
998.34	2705.2
998.636	2651.41
998.932	2672.66
999.227	2601.92
999.523	2666.55
999.818	2614.58
1000.114	2599.66
1000.409	2558.31
1000.704	2575.48
1001	2566.44
1001.295	2529.38
1001.59	2514.69
1001.885	2531.19
1002.18	2497.52
1002.475	2500.23
1002.77	2442.38
1003.065	2467.46
1003.359	2423.85
1003.654	2424.07
1003.949	2408.48
1004.243	2388.82
1004.538	2388.82
1004.832	2396.73
1005.127	2333.23
1005.421	2329.39
1005.715	2335.49
1006.009	2324.64
1006.304	2308.82
1006.598	2286
1006.892	2290.29
1007.186	2237.86
1007.48	2243.74
1007.773	2233.12
1008.067	2240.12
1008.361	2191.09
1008.655	2168.71
1008.948	2197.41
1009.242	2155.16
1009.535	2162.39
1009.829	2140.01
1010.122	2128.04
1010.415	2144.76
1010.708	2109.05
1011.001	2087.13
1011.295	2082.16
1011.588	2041.03
1011.881	2080.13
1012.173	2034.03
1012.466	2023.86
1012.759	2036.74
1013.052	2012.33
1013.344	2003.07
1013.637	1976.4
1013.93	1988.38
1014.222	1970.3
1014.514	1947.48
1014.807	1938.21
1015.099	1921.04
1015.391	1867.25
1015.683	1889.4
1015.976	1898.21
1016.268	1884.65
1016.56	1874.71
1016.851	1848.95
1017.143	1838.33
1017.435	1816.63
1017.727	1797.2
1018.018	1809.85
1018.31	1788.16
1018.602	1775.5
1018.893	1771.21
1019.185	1754.04
1019.476	1730.08
1019.767	1744.09
1020.058	1715.39
1020.35	1693.92
1020.641	1700.93
1020.932	1674.94
1021.223	1665.45
1021.514	1647.37
1021.804	1643.98
1022.095	1641.04
1022.386	1620.48
1022.677	1613.7
1022.967	1604.21
1023.258	1599.46
1023.548	1592.46
1023.839	1564.89
1024.129	1558.11
1024.419	1553.36
1024.709	1514.49
1025	1528.96
1025.29	1503.87
1025.58	1522.4
1025.87	1507.94
1026.16	1480.6
1026.449	1502.97
1026.739	1482.86
1027.029	1466.81
1027.319	1435.63
1027.608	1478.79
1027.898	1430.65
1028.187	1418.45
1028.477	1396.98
1028.766	1392.69
1029.055	1375.74
1029.344	1381.84
1029.634	1371.45
1029.923	1363.99
1030.212	1337.32
1030.501	1343.43
1030.79	1334.84
1031.078	1301.39
1031.367	1304.1
1031.656	1304.56
1031.945	1304.1
1032.233	1286.93
1032.522	1286.48
1032.81	1260.49
1033.099	1257.1
1033.387	1274.73
1033.675	1260.04
1033.963	1250.55
1034.251	1258.23
1034.54	1216.2
1034.828	1197.21
1035.116	1200.38
1035.403	1209.19
1035.691	1178.01
1035.979	1165.12
1036.267	1164.67
1036.554	1160.83
1036.842	1145.69
1037.129	1146.82
1037.417	1134.17
1037.704	1129.87
1037.992	1116.76
1038.279	1101.4
1038.566	1093.26
1038.853	1093.26
1039.14	1093.26
