Data from whiteboard_FLMS001491_00018.txt Node
Date: Wed Feb 08 11:25:29 GMT 2017
User: dcchb
Spectrometer: FLMS00149
Trigger mode: 0
Integration Time (sec): 2.000000E-2
Scans to average: 10
Electric dark correction enabled: true
Nonlinearity correction enabled: false
Boxcar width: 0
XAxis mode: Wavelengths
Number of Pixels in Spectrum: 2048
>>>>>Begin Spectral Data<<<<<
341.393	-20.64
341.776	-20.64
342.16	-20.64
342.543	-71.48
342.927	-62.89
343.31	-82.33
343.693	-93.4
344.077	-60.41
344.46	-76.23
344.843	-69.9
345.226	-31.03
345.61	-33.97
345.993	-5.72
346.376	-2.1
346.759	13.71
347.142	22.53
347.525	53.71
347.908	79.25
348.291	94.16
348.674	88.74
349.057	102.98
349.44	131.9
349.823	151.11
350.206	163.99
350.588	223.65
350.971	232.69
351.354	272.24
351.737	253.71
352.119	298.23
352.502	283.76
352.884	300.03
353.267	321.5
353.65	319.69
354.032	353.37
354.414	341.39
354.797	342.29
355.179	336.64
355.562	361.95
355.944	363.31
356.326	361.28
356.709	387.26
357.091	381.39
357.473	396.76
357.855	372.35
358.238	362.18
358.62	399.24
359.002	391.56
359.384	354.72
359.766	391.33
360.148	354.72
360.53	386.59
360.912	370.09
361.294	390.88
361.676	370.54
362.057	385.91
362.439	391.56
362.821	357.66
363.203	370.32
363.584	376.19
363.966	380.03
364.348	379.58
364.729	366.02
365.111	364.44
365.493	368.96
365.874	384.55
366.256	363.08
366.637	365.57
367.019	369.64
367.4	383.2
367.781	356.08
368.163	378.68
368.544	375.96
368.925	370.99
369.306	368.51
369.688	361.73
370.069	382.29
370.45	365.8
370.831	364.67
371.212	377.32
371.593	355.17
371.974	387.04
372.355	388.62
372.736	380.94
373.117	396.3
373.498	388.17
373.879	374.61
374.26	401.5
374.641	392.91
375.021	375.96
375.402	411.44
375.783	395.4
376.163	413.25
376.544	430.43
376.925	412.35
377.305	422.29
377.686	425.23
378.066	419.81
378.447	412.8
378.827	412.8
379.208	419.35
379.588	433.59
379.968	421.16
380.349	444.21
380.729	429.07
381.109	436.75
381.489	451.89
381.87	448.05
382.25	451.22
382.63	469.07
383.01	462.29
383.39	454.83
383.77	460.26
384.15	463.19
384.53	465.91
384.91	482.4
385.29	498
385.67	488.73
386.049	512.46
386.429	494.38
386.809	489.18
387.189	489.86
387.568	525.79
387.948	503.19
388.328	509.75
388.707	514.94
389.087	516.3
389.466	512.91
389.846	539.35
390.225	543.87
390.605	546.13
390.984	574.6
391.363	561.72
391.743	561.5
392.122	563.53
392.501	571.89
392.881	582.96
393.26	593.13
393.639	598.11
394.018	587.94
394.397	606.92
394.776	617.09
395.155	631.1
395.534	637.43
395.913	666.13
396.292	659.12
396.671	651.89
397.05	678.1
397.429	685.34
397.808	684.43
398.186	697.54
398.565	706.13
398.944	725.33
399.323	705.22
399.701	733.92
400.08	721.49
400.458	757.88
400.837	767.82
401.215	768.27
401.594	760.14
401.972	793.35
402.351	776.18
402.729	803.52
403.107	823.18
403.486	817.99
403.864	838.33
404.242	848.27
404.62	863.41
404.999	894.6
405.377	903.86
405.755	944.76
406.133	944.31
406.511	919
406.889	961.94
407.267	975.72
407.645	978.21
408.023	1008.26
408.401	1032.67
408.779	1069.28
409.156	1121.48
409.534	1111.31
409.912	1093.46
410.29	1150.63
410.667	1182.72
411.045	1192.89
411.422	1181.59
411.8	1190.86
412.178	1223.63
412.555	1259.11
412.933	1279.9
413.31	1307.01
413.687	1297.3
414.065	1346.56
414.442	1334.81
414.819	1380.23
415.197	1413.9
415.574	1410.51
415.951	1454.58
416.328	1455.26
416.705	1470.85
417.082	1483.28
417.46	1509.95
417.837	1510.62
418.214	1571.87
418.591	1556.95
418.967	1559.44
419.344	1595.59
419.721	1603.5
420.098	1613.67
420.475	1688.25
420.852	1688.02
421.228	1686.44
421.605	1708.81
421.982	1728.7
422.358	1766.21
422.735	1783.84
423.111	1803.72
423.488	1822.48
423.864	1839.43
424.241	1871.52
424.617	1878.3
424.994	1905.87
425.37	1891.41
425.746	1946.32
426.123	1982.93
426.499	2010.05
426.875	2000.1
427.251	2042.14
427.627	2109.7
428.003	2140.21
428.379	2113.55
428.756	2123.94
429.132	2192.19
429.507	2236.93
429.883	2295.01
430.259	2306.99
430.635	2295.91
431.011	2332.3
431.387	2413.65
431.763	2421.56
432.138	2438.51
432.514	2501.78
432.89	2523.7
433.265	2588.56
433.641	2633.76
434.016	2609.13
434.392	2681.44
434.767	2768.67
435.143	2725.96
435.518	2763.02
435.894	2792.62
436.269	2803.7
436.644	2894.54
437.02	2903.81
437.395	2924.82
437.77	2958.72
438.145	3041.21
438.52	3045.95
438.895	3116.23
439.271	3062.45
439.646	3162.56
440.021	3169.34
440.395	3203.69
440.77	3177.92
441.145	3204.59
441.52	3328.88
441.895	3332.05
442.27	3305.38
442.645	3345.83
443.019	3404.59
443.394	3400.07
443.769	3443.45
444.143	3440.52
444.518	3479.39
444.892	3472.15
445.267	3527.75
445.641	3580.17
446.016	3577.46
446.39	3634.41
446.764	3662.88
447.139	3642.32
447.513	3695.88
447.887	3682.32
448.262	3778.36
448.636	3769.32
449.01	3829.66
449.384	3850.9
449.758	3909.21
450.132	3986.94
450.506	3932.71
450.88	3978.13
451.254	3959.6
451.628	4092.93
452.002	4118.47
452.376	4145.36
452.75	4182.42
453.123	4221.29
453.497	4310.1
453.871	4333.15
454.244	4416.76
454.618	4454.28
454.992	4508.51
455.365	4530.43
455.739	4656.3
456.112	4691.56
456.486	4752.57
456.859	4778.11
457.232	4873.7
457.606	4869.86
457.979	4976.07
458.352	5040.02
458.725	5173.8
459.099	5129.74
459.472	5273.46
459.845	5311.88
460.218	5340.35
460.591	5448.15
460.964	5441.37
461.337	5598.43
461.71	5672.55
462.083	5722.26
462.456	5790.51
462.829	5815.14
463.201	5881.13
463.574	5928.36
463.947	6033.9
464.32	6150.95
464.692	6241.12
465.065	6255.13
465.438	6337.16
465.81	6500.55
466.183	6555.92
466.555	6685.63
466.928	6695.8
467.3	6704.61
467.672	6868.9
468.045	7054.66
468.417	7067.54
468.789	7105.73
469.161	7218.72
469.534	7336.91
469.906	7486.74
470.278	7556.34
470.65	7640.18
471.022	7772.38
471.394	7953.62
471.766	8036.55
472.138	8098.02
472.51	8240.84
472.882	8447.39
473.253	8531.68
473.625	8717.21
473.997	8836.08
474.369	8888.28
474.74	9033.14
475.112	9189.07
475.484	9293.02
475.855	9474.48
476.227	9619.34
476.598	9834.93
476.97	9874.7
477.341	10171.64
477.713	10335.7
478.084	10412.08
478.455	10656.15
478.827	10731.17
479.198	11130.26
479.569	11123.03
479.94	11372.51
480.311	11561.21
480.682	11798.94
481.053	12066.73
481.424	12259.04
481.795	12346.95
482.166	12517.34
482.537	12772.25
482.908	12984.22
483.279	13220.6
483.65	13367.26
484.021	13615.84
484.391	13831.66
484.762	13958.66
485.133	14073.23
485.503	14297.63
485.874	14628.02
486.244	14761.8
486.615	15047.9
486.985	15213.31
487.356	15454.21
487.726	15593.42
488.097	16007.87
488.467	16055.55
488.837	16417.12
489.207	16600.4
489.578	16865.25
489.948	16952.25
490.318	17249.42
490.688	17355.41
491.058	17545.91
491.428	17839.69
491.798	17995.39
492.168	18332.55
492.538	18330.52
492.908	18602.38
493.278	18854.35
493.648	18894.57
494.017	19191.97
494.387	19334.11
494.757	19617.27
495.126	19760.54
495.496	19869.01
495.866	20077.37
496.235	20252.73
496.605	20383.12
496.974	20597.35
497.344	20924.35
497.713	20894.75
498.082	21093.84
498.452	21344.68
498.821	21436.65
499.19	21480.95
499.559	21733.82
499.928	21874.83
500.298	21937.43
500.667	22263.52
501.036	22159.57
501.405	22453.12
501.774	22531.09
502.143	22720.69
502.512	22824.19
502.88	23056.27
503.249	23028.7
503.618	23288.36
503.987	23406.09
504.356	23485.64
504.724	23610.16
505.093	23784.16
505.462	23860.32
505.83	24001.33
506.199	24376.24
506.567	24665.72
506.936	24674.31
507.304	24966.96
507.672	25005.15
508.041	25206.95
508.409	25318.36
508.777	25608.52
509.145	25792.02
509.514	25805.13
509.882	26112.01
510.25	26247.83
510.618	26382.29
510.986	26579.8
511.354	26963.29
511.722	27119.89
512.09	27331.41
512.458	27384.29
512.826	27634.68
513.193	27763.27
513.561	27810.95
513.929	28060.21
514.297	28446.41
514.664	28635.79
515.032	28663.81
515.4	28941.32
515.767	28992.84
516.135	29268.31
516.502	29152.61
516.869	29597.57
517.237	29722.09
517.604	29685.7
517.972	30129.08
518.339	30172.24
518.706	30374.5
519.073	30533.59
519.44	30737.43
519.808	31047.02
520.175	31099.9
520.542	31427.35
520.909	31698.76
521.276	31722.03
521.643	32095.13
522.009	32222.81
522.376	32451.96
522.743	32683.59
523.11	33004.26
523.477	33410.8
523.843	33526.96
524.21	33925.82
524.577	34215.53
524.943	34191.8
525.31	34422.3
525.676	34964.43
526.043	35201.04
526.409	35251.66
526.776	35854.13
527.142	35676.51
527.508	36092.99
527.874	36450.27
528.241	36621.11
528.607	36596.48
528.973	36971.84
529.339	37047.54
529.705	37427.19
530.071	37635.1
530.437	37864.92
530.803	37995.99
531.169	38246.83
531.535	38276.89
531.901	38401.86
532.267	38678.91
532.632	38772.24
532.998	38848.4
533.364	39130.2
533.73	39341.95
534.095	39612.22
534.461	39797.98
534.826	40055.83
535.192	40175.37
535.557	40413.33
535.923	40461.01
536.288	40494.46
536.653	40851.06
537.019	40606.09
537.384	40984.16
537.749	41185.51
538.114	41244.95
538.479	41348.45
538.845	41586.18
539.21	41514.32
539.575	41705.95
539.94	42004.47
540.305	42054.64
540.67	42042.44
541.034	42340.29
541.399	42528.08
541.764	42602.65
542.129	42713.16
542.494	42792.02
542.858	43098.01
543.223	43039.48
543.587	43352.01
543.952	43324.44
544.316	43459.8
544.681	43430.2
545.045	43774.82
545.41	43939.57
545.774	44156.28
546.138	44178.2
546.503	44301.36
546.867	44278.99
547.231	44737.96
547.595	44753.33
547.959	44966.88
548.324	44913.55
548.688	45072.64
549.052	45256.37
549.416	45246.65
549.779	45383.59
550.143	45593.08
550.507	45778.84
550.871	45899.51
551.235	45976.35
551.599	46205.04
551.962	46369.56
552.326	46429.67
552.689	46768.64
553.053	46740.85
553.417	46829.43
553.78	47281.4
554.143	47065.81
554.507	47281.4
554.87	47445.91
555.234	47915.51
555.597	47616.98
555.96	47782.85
556.323	48127.03
556.686	48070.08
557.05	48371.09
557.413	48467.13
557.776	48553
558.139	48754.13
558.502	48937.4
558.865	48921.13
559.228	49201.57
559.59	49381
559.953	49451.96
560.316	49626.42
560.679	49673.43
561.041	49951.61
561.404	50246.74
561.767	50322.67
562.129	50218.95
562.492	50628.88
562.854	50660.97
563.217	50723.79
563.579	50822.1
563.941	51084.24
564.304	51265.25
564.666	51393.38
565.028	51377.56
565.39	51645.13
565.753	51725.57
566.115	51788.85
566.477	51929.41
566.839	52021.61
567.201	52208.5
567.563	52222.74
567.925	52451.88
568.287	52591.77
568.648	52651.88
569.01	52815.26
569.372	52972.1
569.734	52975.71
570.095	53165.09
570.457	53319.66
570.819	53323.73
571.18	53469.48
571.542	53594.45
571.903	53643.26
572.265	53794.45
572.626	53949.92
572.987	53922.35
573.349	54050.03
573.71	54128.9
574.071	54179.97
574.432	54392.4
574.794	54540.64
575.155	54464.94
575.516	54501.32
575.877	54556.91
576.238	54667.64
576.599	54805.27
576.96	54838.94
577.32	54778.15
577.681	54924.13
578.042	55064.47
578.403	54960.52
578.763	54998.48
579.124	55052.95
579.485	55133.17
579.845	55224.01
580.206	55194.64
580.566	55157.8
580.927	55265.82
581.287	55356.67
581.648	55210
582.008	55285.48
582.368	55215.65
582.728	55359.6
583.089	55252.71
583.449	55285.03
583.809	55284.13
584.169	55319.15
584.529	55282.54
584.889	55439.6
585.249	55283.9
585.609	55268.31
585.969	55424.69
586.329	55300.17
586.688	55359.38
587.048	55350.34
587.408	55348.3
587.768	55426.04
588.127	55372.48
588.487	55371.58
588.846	55541.52
589.206	55385.59
589.565	55384.24
589.925	55594.85
590.284	55482.09
590.643	55489.77
591.003	55670.33
591.362	55741.74
591.721	55686.37
592.08	55668.75
592.44	55746.26
592.799	55800.72
593.158	55743.32
593.517	55725.47
593.876	55778.12
594.235	55779.48
594.593	55898.57
594.952	55858.35
595.311	55845.24
595.67	55875.52
596.029	56033.03
596.387	56010.66
596.746	56107.38
597.104	55987.84
597.463	55989.19
597.822	56084.1
598.18	56010.21
598.538	56031
598.897	56139.24
599.255	55880.04
599.613	56289.75
599.972	55989.42
600.33	56071
600.688	56038.46
601.046	56151.9
601.404	56164.1
601.762	56115.74
602.12	56167.72
602.478	56162.75
602.836	56107.38
603.194	55968.63
603.552	56070.09
603.91	56055.4
604.268	56078.68
604.625	56067.38
604.983	56101.28
605.341	55981.73
605.698	56166.14
606.056	56123.2
606.413	56094.73
606.771	56210.65
607.128	56181.73
607.485	56103.76
607.843	56225.34
608.2	56303.53
608.557	56406.81
608.914	56275.06
609.272	56384.21
609.629	56391.89
609.986	56550.08
610.343	56417.2
610.7	56609.51
611.057	56653.36
611.414	56595.73
611.771	56696.97
612.127	56763.63
612.484	56778.32
612.841	56849.06
613.198	56834.14
613.554	56833.69
613.911	56999.11
614.267	56987.13
614.624	56906
614.98	57060.12
615.337	57209.5
615.693	57115.72
616.05	57059.22
616.406	57221.93
616.762	57164.75
617.118	57154.58
617.475	57217.63
617.831	57285.2
618.187	57318.42
618.543	57287.91
618.899	57468.7
619.255	57430.06
619.611	57375.14
619.967	57449.49
620.323	57465.31
620.678	57423.96
621.034	57373.11
621.39	57331.76
621.746	57346.44
622.101	57534.24
622.457	57322.04
622.812	57389.83
623.168	57427.8
623.523	57462.15
623.879	57463.05
624.234	57320
624.589	57430.28
624.945	57381.7
625.3	57437.97
625.655	57434.8
626.01	57360.23
626.365	57376.5
626.72	57269.16
627.075	57241.14
627.43	57257.41
627.785	57188.93
628.14	57211.31
628.495	57198.2
628.85	57245.66
629.205	57108.94
629.559	57226
629.914	57122.5
630.269	57084.98
630.623	57075.26
630.978	57018.09
631.332	57084.76
631.687	57110.52
632.041	57017.64
632.396	57105.32
632.75	56921.6
633.104	56977.64
633.459	56894.03
633.813	56875.72
634.167	56903.52
634.521	56916.85
634.875	56934.48
635.229	56913.69
635.583	56772.22
635.937	56736.74
636.291	56730.87
636.645	56705.33
636.999	56631.21
637.352	56825.55
637.706	56606.8
638.06	56707.36
638.413	56641.6
638.767	56579.46
639.121	56656.52
639.474	56501.72
639.828	56498.1
640.181	56643.41
640.534	56603.86
640.888	56387.15
641.241	56309.41
641.594	56341.95
641.947	56523.87
642.301	56318
642.654	56377.43
643.007	56404.77
643.36	56286.58
643.713	56324.32
644.066	56344.66
644.419	56091.79
644.771	55998.01
645.124	55711.01
645.477	55653.38
645.83	55582.65
646.182	55375.87
646.535	55338.14
646.888	55348.53
647.24	55218.36
647.593	55354.18
647.945	55252.04
648.298	55149.89
648.65	55038.93
649.002	54990.35
649.355	55167.29
649.707	55035.32
650.059	55159.38
650.411	55498.58
650.763	55473.27
651.115	55716.88
651.467	55640.5
651.819	55626.72
652.171	55531.35
652.523	55440.96
652.875	55450.9
653.227	55396.66
653.578	55539.94
653.93	55480.05
654.282	55279.38
654.633	55229.44
654.985	55286.61
655.337	55334.52
655.688	55299.27
656.039	55339.04
656.391	55084.58
656.742	55190.57
657.094	55130.23
657.445	55254.3
657.796	55162.09
658.147	55123.23
658.498	55029.67
658.849	55116.22
659.2	55054.98
659.551	54975.66
659.902	55029.89
660.253	54962.1
660.604	55088.88
660.955	54938.82
661.306	54974.98
661.656	54829.67
662.007	54853.18
662.358	54932.04
662.708	54876.9
663.059	54843.01
663.409	54695.44
663.76	54914.42
664.11	54794.65
664.461	54922.33
664.811	54880.97
665.161	54840.52
665.511	54800.97
665.862	54860.41
666.212	55003.45
666.562	54931.82
666.912	54876.45
667.262	54719.85
667.612	54701.09
667.962	54794.87
668.312	54653.41
668.662	54852.72
669.011	54672.39
669.361	54676.01
669.711	54713.97
670.06	54631.49
670.41	54611.37
670.76	54516.91
671.109	54670.13
671.459	54513.52
671.808	54521.21
672.157	54568.66
672.507	54379.29
672.856	54383.58
673.205	54572.96
673.554	54494.77
673.904	54426.52
674.253	54607.31
674.602	54474.43
674.951	54064.04
675.3	53910.83
675.649	54364.15
675.998	54382
676.346	54331.61
676.695	54320.08
677.044	54105.85
677.393	54222.46
677.741	54201.44
678.09	54097.72
678.438	54128.45
678.787	54060.88
679.135	54119.64
679.484	53840.32
679.832	53957.38
680.181	53725.75
680.529	53816.82
680.877	53719.19
681.225	53685.75
681.573	53820.21
681.922	53680.1
682.27	53610.05
682.618	53535.02
682.966	53426.1
683.314	53558.97
683.661	53410.5
684.009	53263.84
684.357	53136.61
684.705	53145.42
685.053	53128.02
685.4	52994.24
685.748	52922.15
686.095	52853
686.443	52782.5
686.79	52760.12
687.138	52745.66
687.485	52548.38
687.832	52564.42
688.18	52561.03
688.527	52348.61
688.874	52297.31
689.221	52229.06
689.568	52185.22
689.915	52133.25
690.262	52069.75
690.609	51881.73
690.956	51795.86
691.303	51789.75
691.65	51656.65
691.997	51667.72
692.344	51478.8
692.69	51439.48
693.037	51401.74
693.383	51129.21
693.73	51177.79
694.077	51014.18
694.423	50927.86
694.769	50875.88
695.116	50916.78
695.462	50779.39
695.808	50797.69
696.155	50796.11
696.501	50619.84
696.847	50559.5
697.193	50287.42
697.539	50464.37
697.885	50215.56
698.231	50096.24
698.577	50083.58
698.923	50014.43
699.269	49789.58
699.614	49746.42
699.96	49774.21
700.306	49684.95
700.651	49466.65
700.997	49442.7
701.342	49419.87
701.688	49478.4
702.033	49282.7
702.379	49304.17
702.724	49073.44
703.069	49275.02
703.415	48834.58
703.76	48849.49
704.105	48660.57
704.45	48744.64
704.795	48384.65
705.14	48313.01
705.485	48315.72
705.83	48223.52
706.175	48211.09
706.52	48102.85
706.865	48027.14
707.209	47983.53
707.554	47857.2
707.899	47913.25
708.243	47701.95
708.588	47750.99
708.932	47407.04
709.277	47394.16
709.621	47503.54
709.966	47105.36
710.31	47341.28
710.654	46870.79
710.998	47030.33
711.342	46951.92
711.687	46968.64
712.031	46564.81
712.375	46432.15
712.719	46582.43
713.063	46413.4
713.407	46469.67
713.75	46215.66
714.094	46163.01
714.438	46014.54
714.782	45960.3
715.125	45702.68
715.469	45769.35
715.812	45576.81
716.156	45355.8
716.499	45377.95
716.843	45313.31
717.186	45094.34
717.53	45213.66
717.873	45143.38
718.216	45106.77
718.559	44960.33
718.902	44614.35
719.246	44671.3
719.589	44617.29
719.932	44236.73
720.275	44303.85
720.617	44201.48
720.96	44149.05
721.303	44079.67
721.646	44183.4
721.989	43735.05
722.331	44040.58
722.674	43772.79
723.016	43698.22
723.359	43692.79
723.701	43629.97
724.044	43334.16
724.386	43128.06
724.729	43342.52
725.071	43221.39
725.413	43152.02
725.755	43067.27
726.097	42854.85
726.439	42644.23
726.782	42656.43
727.124	42991.57
727.465	42626.61
727.807	42525.14
728.149	42522.88
728.491	42388.19
728.833	42481.3
729.175	42261.64
729.516	42263.45
729.858	42022.78
730.199	42174.64
730.541	41980.29
730.882	41988.88
731.224	41962.44
731.565	41813.07
731.906	41727.19
732.248	41722
732.589	41670.25
732.93	41598.16
733.271	41592.28
733.612	41695.78
733.953	41616.91
734.294	41359.52
734.635	41351.61
734.976	41409.24
735.317	41277.49
735.658	41209.92
735.999	41276.58
736.339	41096.48
736.68	41258.28
737.021	41073.88
737.361	40934.9
737.702	41124.27
738.042	41034.78
738.383	40891.74
738.723	40961.56
739.063	40790.95
739.404	40768.8
739.744	40735.36
740.084	40478.19
740.424	40759.99
740.764	40618.3
741.104	40556.6
741.444	40376.72
741.784	40122.94
742.124	40363.16
742.464	40282.71
742.804	40158.87
743.143	40156.61
743.483	40225.76
743.823	40005.21
744.162	39959.78
744.502	40044.98
744.841	39677.53
745.181	39930.63
745.52	39635.95
745.86	39854.25
746.199	39487.03
746.538	39456.97
746.877	39490.64
747.216	39480.47
747.556	39351.89
747.895	39175.4
748.234	39093.36
748.573	39165
748.911	39074.83
749.25	39026.02
749.589	38798.68
749.928	38795.97
750.267	38817.44
750.605	38626.94
750.944	38592.59
751.283	38632.36
751.621	38631.23
751.96	38316.44
752.298	38252.71
752.636	38327.06
752.975	38037.57
753.313	37948.54
753.651	38182.43
753.989	38007.74
754.327	37780.18
754.666	37654.08
755.004	37694.76
755.342	37622.89
755.679	37503.58
756.017	37311.04
756.355	37361.21
756.693	37220.42
757.031	37272.17
757.368	36993.98
757.706	36927.77
758.044	36863.37
758.381	36946.98
758.719	36705.4
759.056	36725.74
759.394	36537.5
759.731	36371.63
760.068	36084.18
760.405	36119.43
760.743	35957.63
761.08	36017.74
761.417	35869.95
761.754	35748.14
762.091	35718.99
762.428	35496.85
762.765	35262.05
763.102	35438.32
763.438	35180.25
763.775	34900.93
764.112	34987.94
764.449	34954.72
764.785	34819.8
765.122	34544.11
765.458	34338.91
765.795	34386.14
766.131	34368.07
766.467	34211.91
766.804	34055.31
767.14	33905.48
767.476	33769.89
767.812	33747.97
768.148	33606.05
768.485	33540.52
768.821	33330.8
769.157	33245.16
769.492	33117.48
769.828	32980.76
770.164	32940.53
770.5	32754.1
770.836	32716.81
771.171	32436.36
771.507	32429.36
771.842	32166.99
772.178	32155.47
772.513	32163.38
772.849	31988.69
773.184	31897.85
773.519	31737.85
773.855	31593
774.19	31471.87
774.525	31427.8
774.86	31404.53
775.195	31273.46
775.53	31292.21
775.865	30931.09
776.2	30733.36
776.535	30476.87
776.87	30479.35
777.205	30404.55
777.539	30360.94
777.874	30351
778.209	30139.93
778.543	29978.35
778.878	29868.52
779.212	29742.42
779.547	29579.72
779.881	29573.39
780.215	29456.33
780.55	29423.11
780.884	29078.03
781.218	29208.65
781.552	29103.34
781.886	28869.45
782.22	28813.41
782.554	28643.47
782.888	28608.67
783.222	28410.93
783.556	28271.95
783.889	28278.73
784.223	28028.57
784.557	27920.1
784.89	28033.09
785.224	27876.03
785.557	27745.19
785.891	27746.09
786.224	27577.96
786.558	27619.54
786.891	27242.38
787.224	27293
787.557	27202.6
787.891	27112.44
788.224	27100.46
788.557	27147.92
788.89	27006.22
789.223	26961.03
789.556	26829.96
789.888	26751.77
790.221	26496.63
790.554	26436.3
790.887	26539.12
791.219	26333.02
791.552	26238.11
791.884	26129.41
792.217	25951.34
792.549	25987.49
792.882	25929.87
793.214	25738.69
793.546	25724.45
793.879	25489.2
794.211	25537.79
794.543	25429.77
794.875	25442.88
795.207	25457.79
795.539	25293.5
795.871	25369.43
796.203	25080.63
796.535	24928.99
796.867	25027.07
797.198	24823.91
797.53	24998.59
797.862	24658.04
798.193	24801.09
798.525	24571.71
798.856	24560.64
799.188	24351.38
799.519	24199.52
799.85	24123.14
800.182	24218.5
800.513	24163.81
800.844	23937.61
801.175	24101.67
801.506	23875.91
801.837	23694
802.168	23703.26
802.499	23699.87
802.83	23548.24
803.161	23535.13
803.491	23514.34
803.822	23494
804.153	23365.19
804.483	23182.82
804.814	23065.76
805.145	23161.35
805.475	23152.31
805.805	23030.28
806.136	22937.63
806.466	22917.97
806.796	22854.47
807.126	22650.86
807.457	22576.74
807.787	22630.52
808.117	22445.89
808.447	22381.26
808.777	22393.24
809.107	22369.28
809.436	22144.88
809.766	22116.41
810.096	22179.69
810.426	22026.69
810.755	22122.29
811.085	21960.71
811.414	21895.62
811.744	21703.31
812.073	21647.27
812.403	21656.08
812.732	21432.59
813.061	21504
813.39	21379.93
813.719	21321.85
814.049	21430.1
814.378	21311.01
814.707	21138.13
815.036	21127.96
815.365	20887.06
815.693	20861.3
816.022	20824.01
816.351	20712.15
816.68	20582.21
817.008	20610.46
817.337	20478.94
817.665	20414.31
817.994	20580.86
818.322	20439.17
818.651	20376.12
818.979	20245.5
819.307	20323.91
819.636	20282.56
819.964	20059.29
820.292	20212.51
820.62	20155.11
820.948	20071.94
821.276	20149.46
821.604	20008.89
821.932	20105.62
822.259	20142.68
822.587	20053.41
822.915	20062.68
823.243	20121.89
823.57	19955.79
823.898	19984.49
824.225	19919.41
824.553	19945.85
824.88	19995.79
825.207	20038.27
825.535	19917.37
825.862	20037.37
826.189	19929.57
826.516	20100.42
826.843	20069.23
827.17	20046.63
827.497	20001.21
827.824	20055.67
828.151	20155.56
828.478	20064.49
828.805	20062.23
829.131	19952.85
829.458	19945.85
829.785	20045.96
830.111	20046.18
830.438	20148.78
830.764	20091.83
831.09	20113.07
831.417	19902.91
831.743	20000.99
832.069	20120.76
832.395	19969.8
832.722	20113.98
833.048	20006.41
833.374	20012.06
833.7	20036.69
834.026	20035.56
834.351	20017.71
834.677	19989.01
835.003	20030.82
835.329	20102.23
835.654	19969.35
835.98	19864.72
836.306	19954.66
836.631	19734.55
836.956	19897.03
837.282	19889.12
837.607	19827.88
837.932	19817.71
838.258	19758.28
838.583	19749.69
838.908	19705.4
839.233	19698.62
839.558	19738.85
839.883	19626.31
840.208	19533.65
840.533	19579.08
840.858	19680.54
841.182	19608.45
841.507	19493.65
841.832	19363.04
842.156	19387.44
842.481	19325.75
842.805	19315.58
843.13	19368.46
843.454	19314.68
843.778	19148.35
844.103	19042.59
844.427	19000.79
844.751	19041.69
845.075	18914.23
845.399	18931.41
845.723	18863.39
846.047	18731.64
846.371	18562.38
846.695	18656.84
847.019	18471.08
847.343	18364.87
847.666	18324.87
847.99	18242.39
848.313	18176.17
848.637	18073.8
848.96	18006.69
849.284	18019.57
849.607	17839.91
849.931	17822.06
850.254	17719.01
850.577	17552.01
850.9	17474.5
851.223	17473.14
851.546	17345.01
851.869	17237.22
852.192	17315.86
852.515	17079.71
852.838	17019.59
853.161	16993.61
853.483	16926.94
853.806	16841.29
854.129	16829.32
854.451	16714.29
854.774	16638.14
855.096	16638.36
855.419	16536.44
855.741	16435.66
856.063	16361.08
856.385	16326.73
856.708	16315.88
857.03	16105.27
857.352	16119.05
857.674	16038.15
857.996	16068.43
858.318	15903.47
858.64	15936.91
858.961	15827.99
859.283	15839.74
859.605	15595.68
859.926	15714.77
860.248	15604.72
860.57	15603.81
860.891	15598.62
861.212	15498.28
861.534	15409.69
861.855	15338.74
862.176	15426.87
862.498	15344.61
862.819	15361.56
863.14	15283.6
863.461	15240.43
863.782	15099.42
864.103	15196.59
864.424	15042.7
864.745	15123.6
865.065	15058.06
865.386	14966.09
865.707	14957.5
866.027	15011.29
866.348	15012.64
866.668	14935.81
866.989	14868.69
867.309	14935.36
867.63	14919.54
867.95	14866.21
868.27	14778.75
868.59	14842.93
868.91	14757.28
869.23	14806.09
869.55	14731.97
869.87	14791.86
870.19	14757.73
870.51	14794.12
870.83	14762.25
871.15	14567.68
871.469	14693.78
871.789	14661.69
872.109	14573.11
872.428	14576.72
872.748	14645.87
873.067	14616.49
873.386	14581.47
873.706	14524.97
874.025	14438.42
874.344	14429.61
874.663	14475.25
874.982	14453.79
875.301	14437.97
875.62	14456.95
875.939	14442.71
876.258	14343.06
876.577	14339.89
876.896	14456.95
877.214	14380.34
877.533	14344.86
877.852	14289.27
878.17	14291.98
878.489	14299.89
878.807	14399.1
879.125	14318.42
879.444	14280.46
879.762	14287.69
880.08	14317.07
880.398	14239.1
880.716	14199.78
881.034	14136.28
881.352	14160.69
881.67	14103.29
881.988	14140.35
882.306	14214.7
882.624	14098.54
882.941	14037.53
883.259	14044.53
883.577	13984.87
883.894	13965.21
884.212	13906.91
884.529	13914.37
884.846	13913.46
885.164	13938.09
885.481	13757.76
885.798	13847.47
886.115	13811.54
886.432	13777.42
886.75	13668.27
887.067	13785.56
887.383	13641.15
887.7	13674.6
888.017	13623.3
888.334	13640.25
888.651	13570.65
888.967	13619.23
889.284	13471.21
889.6	13430.99
889.917	13302.18
890.233	13338.34
890.55	13265.12
890.866	13319.58
891.182	13309.41
891.498	13212.01
891.815	13173.82
892.131	13207.04
892.447	13162.52
892.763	13095.4
893.079	13035.29
893.395	12987.61
893.71	12932.02
894.026	12893.15
894.342	12878.69
894.657	12776.77
894.973	12763.21
895.289	12734.74
895.604	12713.04
895.92	12718.01
896.235	12520.96
896.55	12606.83
896.865	12513.5
897.181	12499.71
897.496	12379.04
897.811	12349.44
898.126	12291.36
898.441	12312.37
898.756	12211.59
899.071	12156.9
899.386	12121.64
899.7	12035.32
900.015	11932.05
900.33	11906.73
900.644	11901.54
900.959	11873.97
901.273	11756.23
901.588	11691.37
901.902	11608.66
902.216	11590.59
902.531	11551.94
902.845	11561.43
903.159	11417.71
903.473	11454.32
903.787	11316.69
904.101	11251.84
904.415	11300.65
904.729	11193.99
905.042	11165.06
905.356	11067.66
905.67	11089.13
905.984	11086.19
906.297	10998.28
906.611	10927.78
906.924	10955.12
907.237	10884.61
907.551	10807.1
907.864	10700.21
908.177	10701.79
908.491	10663.83
908.804	10524.62
909.117	10528.47
909.43	10485.08
909.743	10540.22
910.056	10405.98
910.368	10367.79
910.681	10346.78
910.994	10235.82
911.307	10212.32
911.619	10114.47
911.932	10199.66
912.244	10077.4
912.557	10050.51
912.869	10000.12
913.181	9979.78
913.494	9937.52
913.806	9903.62
914.118	9861.37
914.43	9770.29
914.742	9762.16
915.054	9700.92
915.366	9635.61
915.678	9663.86
915.99	9602.84
916.302	9494.37
916.613	9467.25
916.925	9472.45
917.236	9524.65
917.548	9435.39
917.859	9483.07
918.171	9313.36
918.482	9240.14
918.794	9277.65
919.105	9259.35
919.416	9041.95
919.727	9178.9
920.038	9086.47
920.349	9011.9
920.66	9031.1
920.971	8998.79
921.282	8921.95
921.593	8843.31
921.903	8823.43
922.214	8789.98
922.525	8798.79
922.835	8711.79
923.146	8718.8
923.456	8686.03
923.767	8701.17
924.077	8700.04
924.387	8611.23
924.697	8562.42
925.008	8533.94
925.318	8459.59
925.628	8531.68
925.938	8443.1
926.248	8368.97
926.558	8333.72
926.867	8311.12
927.177	8267.73
927.487	8227.74
927.796	8171.69
928.106	8171.69
928.416	8106.38
928.725	8147.74
929.034	8075.88
929.344	8071.58
929.653	7995.43
929.962	7918.82
930.271	7952.26
930.581	7954.07
930.89	7888.08
931.199	7790.01
931.508	7782.55
931.817	7832.49
932.125	7732.61
932.434	7715.21
932.743	7663.23
933.051	7647.19
933.36	7578.71
933.669	7495.1
933.977	7566.06
934.286	7514.76
934.594	7474.99
934.902	7479.05
935.21	7413.97
935.519	7359.51
935.827	7392.05
936.135	7384.37
936.443	7276.35
936.751	7251.72
937.059	7258.72
937.367	7208.33
937.674	7144.83
937.982	7186.41
938.29	7105.73
938.597	7139.85
938.905	7081.55
939.213	6982.12
939.52	7002.68
939.827	7035.45
940.135	6940.09
940.442	6974.89
940.749	6914.55
941.056	6910.48
941.363	6872.97
941.67	6813.31
941.977	6783.71
942.284	6731.5
942.591	6724.72
942.898	6671.39
943.205	6672.97
943.511	6632.98
943.818	6557.27
944.125	6541.68
944.431	6540.77
944.738	6536.03
945.044	6472.75
945.35	6484.05
945.657	6416.26
945.963	6400.67
946.269	6341.46
946.575	6357.5
946.881	6244.06
947.187	6311.63
947.493	6290.39
947.799	6230.73
948.105	6206.77
948.41	6190.73
948.716	6211.74
949.022	6158.64
949.327	6163.16
949.633	6045.42
949.938	6017.85
950.244	6064.18
950.549	6040.9
950.854	5945.99
951.16	5963.84
951.465	5938.53
951.77	5878.19
952.075	5884.97
952.38	5898.31
952.685	5766.56
952.99	5781.47
953.294	5711.64
953.599	5673.9
953.904	5675.03
954.209	5646.33
954.513	5714.13
954.818	5573.34
955.122	5594.81
955.426	5566.11
955.731	5484.08
956.035	5502.38
956.339	5529.05
956.643	5499.9
956.948	5378.55
957.252	5445.89
957.556	5405.21
957.86	5378.55
958.163	5328.6
958.467	5327.02
958.771	5314.14
959.075	5286.34
959.378	5253.8
959.682	5246.12
959.985	5222.16
960.289	5148.49
960.592	5184.43
960.896	5161.38
961.199	5148.49
961.502	5088.84
961.805	5115.5
962.108	5027.59
962.411	5075.95
962.714	4991.44
963.017	4978.56
963.32	4942.4
963.623	4954.6
963.926	4985.79
964.228	4902.85
964.531	4882.74
964.833	4874.83
965.136	4799.13
965.438	4788.5
965.741	4797.09
966.043	4749.41
966.345	4736.08
966.648	4689.75
966.95	4721.84
967.252	4682.74
967.554	4674.61
967.856	4649.98
968.158	4656.98
968.46	4639.36
968.761	4605.01
969.063	4567.04
969.365	4579.7
969.666	4571.56
969.968	4530.88
970.269	4493.37
970.571	4492.24
970.872	4472.13
971.174	4417.21
971.475	4422.41
971.776	4325.69
972.077	4359.14
972.378	4348.97
972.679	4301.06
972.98	4311.45
973.281	4297.67
973.582	4246.82
973.883	4243.66
974.183	4225.36
974.484	4188.97
974.785	4169.54
975.085	4151.46
975.386	4200.04
975.686	4119.37
975.986	4113.04
976.287	4104
976.587	4056.09
976.887	4028.98
977.187	4015.64
977.487	3982.88
977.787	3983.1
978.087	3956.89
978.387	3965.7
978.687	3912.59
978.987	3916.21
979.286	3881.86
979.586	3868.75
979.885	3837.12
980.185	3847.74
980.484	3801.19
980.784	3767.29
981.083	3747.85
981.382	3749.66
981.682	3695.65
981.981	3688.87
982.28	3701.3
982.579	3697.69
982.878	3666.73
983.177	3630.79
983.475	3657.46
983.774	3612.49
984.073	3573.39
984.372	3560.97
984.67	3531.81
984.969	3502.89
985.267	3527.75
985.566	3538.59
985.864	3489.1
986.162	3464.47
986.461	3417.01
986.759	3438.94
987.057	3365.72
987.355	3400.07
987.653	3385.38
987.951	3351.48
988.249	3368.88
988.547	3372.04
988.844	3373.63
989.142	3348.99
989.44	3288.2
989.737	3287.75
990.035	3322.1
990.332	3258.83
990.63	3228.55
990.927	3230.13
991.224	3216.12
991.521	3221.77
991.819	3158.72
992.116	3154.42
992.413	3141.54
992.71	3119.17
993.006	3104.25
993.303	3079.85
993.6	3077.36
993.897	3061.09
994.193	3062
994.49	3034.43
994.787	3052.28
995.083	3005.05
995.379	3026.52
995.676	2946.97
995.972	3007.76
996.268	2957.37
996.565	2940.87
996.861	2921.66
997.157	2904.49
997.453	2904.71
997.749	2883.47
998.044	2878.27
998.34	2876.46
998.636	2835.56
998.932	2826.07
999.227	2771.83
999.523	2789.69
999.818	2782.23
1000.114	2754.66
1000.409	2744.26
1000.704	2764.6
1001	2748.11
1001.295	2715.79
1001.59	2688.9
1001.885	2660.65
1002.18	2646.41
1002.475	2631.05
1002.77	2625.62
1003.065	2589.69
1003.359	2640.76
1003.654	2605.74
1003.949	2547.88
1004.243	2544.95
1004.538	2517.6
1004.832	2526.87
1005.127	2489.13
1005.421	2493.42
1005.715	2506.98
1006.009	2509.69
1006.304	2475.57
1006.598	2464.27
1006.892	2419.75
1007.186	2424.05
1007.48	2396.7
1007.773	2398.28
1008.067	2389.47
1008.361	2365.97
1008.655	2352.86
1008.948	2313.77
1009.242	2325.74
1009.535	2318.51
1009.829	2300.43
1010.122	2302.02
1010.415	2250.27
1010.708	2255.01
1011.001	2251.85
1011.295	2246.2
1011.588	2204.62
1011.881	2192.41
1012.173	2168.23
1012.466	2205.97
1012.759	2150.38
1013.052	2135.47
1013.344	2150.61
1013.637	2149.7
1013.93	2089.37
1014.222	2129.59
1014.514	2129.14
1014.807	2096.82
1015.099	2066.32
1015.391	2075.36
1015.683	2051.17
1015.976	2029.48
1016.268	2034.68
1016.56	1975.92
1016.851	2000.1
1017.143	2011.18
1017.435	1982.48
1017.727	1971.18
1018.018	1947
1018.31	1936.15
1018.602	1920.33
1018.893	1894.34
1019.185	1940.44
1019.476	1891.41
1019.767	1861.12
1020.058	1867.9
1020.35	1843.72
1020.641	1821.8
1020.932	1827.68
1021.223	1829.94
1021.514	1806.66
1021.804	1788.13
1022.095	1759.21
1022.386	1744.06
1022.677	1748.36
1022.967	1764.4
1023.258	1709.49
1023.548	1693.67
1023.839	1718.3
1024.129	1684.18
1024.419	1704.52
1024.709	1671.75
1025	1667.68
1025.29	1632.43
1025.58	1613.9
1025.87	1605.54
1026.16	1577.74
1026.449	1613.9
1026.739	1601.24
1027.029	1568.02
1027.319	1560.34
1027.608	1563.28
1027.898	1529.83
1028.187	1526.22
1028.477	1527.12
1028.766	1509.04
1029.055	1501.13
1029.344	1493.22
1029.634	1489.61
1029.923	1466.78
1030.212	1445.09
1030.501	1462.26
1030.79	1435.15
1031.078	1436.95
1031.367	1390.63
1031.656	1408.71
1031.945	1394.92
1032.233	1387.01
1032.522	1398.08
1032.81	1362.38
1033.099	1329.16
1033.387	1336.39
1033.675	1356.28
1033.963	1348.37
1034.251	1322.83
1034.54	1311.53
1034.828	1301.36
1035.116	1307.24
1035.403	1306.11
1035.691	1288.71
1035.979	1290.06
1036.267	1250.74
1036.554	1218.43
1036.842	1217.52
1037.129	1250.29
1037.417	1236.73
1037.704	1216.62
1037.992	1189.95
1038.279	1196.51
1038.566	1158.99
1038.853	1158.99
1039.14	1158.99
