Data from White_reflection_standard_FLMS001491_055.txt Node
Date: Tue Feb 07 10:32:06 GMT 2017
User: dcchb
Spectrometer: FLMS00149
Trigger mode: 0
Integration Time (sec): 2.000000E-2
Scans to average: 10
Electric dark correction enabled: true
Nonlinearity correction enabled: false
Boxcar width: 0
XAxis mode: Wavelengths
Number of Pixels in Spectrum: 2048
>>>>>Begin Spectral Data<<<<<
341.393	1.92
341.776	1.92
342.16	1.92
342.543	-64.97
342.927	-64.29
343.31	-81.47
343.693	-85.08
344.077	-64.74
344.46	-50.73
344.843	-56.38
345.226	-41.92
345.61	-15.48
345.993	-16.84
346.376	-6.67
346.759	3.95
347.142	44.18
347.525	22.94
347.908	64.29
348.291	86.44
348.674	98.87
349.057	98.64
349.44	133.22
349.823	149.71
350.206	187
350.588	221.58
350.971	271.74
351.354	274.91
351.737	273.55
352.119	297.73
352.502	295.7
352.884	320.56
353.267	314
353.65	326.21
354.032	329.6
354.414	351.97
354.797	351.74
355.179	359.43
355.562	362.59
355.944	389.93
356.326	356.49
356.709	392.19
357.091	384.74
357.473	404.62
357.855	403.04
358.238	404.4
358.62	414.79
359.002	399.88
359.384	401.91
359.766	406.66
360.148	386.09
360.53	385.41
360.912	402.81
361.294	397.39
361.676	402.81
362.057	436.94
362.439	410.95
362.821	394.23
363.203	394.9
363.584	417.28
363.966	407.11
364.348	413.89
364.729	404.85
365.111	408.01
365.493	407.11
365.874	422.93
366.256	380.67
366.637	421.12
367.019	431.97
367.4	404.62
367.781	419.76
368.163	398.75
368.544	415.7
368.925	414.34
369.306	432.87
369.688	410.95
370.069	389.93
370.45	430.61
370.831	439.88
371.212	427.67
371.593	413.66
371.974	436.26
372.355	434.23
372.736	450.72
373.117	446.43
373.498	448.46
373.879	438.97
374.26	432.64
374.641	409.82
375.021	446.2
375.402	456.15
375.783	501.79
376.163	505.86
376.544	499.31
376.925	491.63
377.305	461.57
377.686	470.38
378.066	506.09
378.447	497.28
378.827	504.96
379.208	507.67
379.588	531.4
379.968	516.03
380.349	516.26
380.729	522.81
381.109	525.75
381.489	526.43
381.87	556.71
382.25	532.08
382.63	551.74
383.01	545.41
383.39	551.96
383.77	545.18
384.15	574.34
384.53	566.43
384.91	577.95
385.29	585.63
385.67	587.67
386.049	610.27
386.429	623.83
386.809	606.65
387.189	619.08
387.568	620.89
387.948	617.27
388.328	638.97
388.707	639.19
389.087	678.97
389.466	657.95
389.846	686.42
390.225	664.5
390.605	707.44
390.984	682.58
391.363	704.73
391.743	698.4
392.122	715.8
392.501	712.41
392.881	715.12
393.26	768.23
393.639	752.18
394.018	759.87
394.397	761.45
394.776	769.13
395.155	786.53
395.534	789.02
395.913	799.87
396.292	821.11
396.671	796.93
397.05	822.01
397.429	829.7
397.808	834.44
398.186	838.28
398.565	838.06
398.944	857.72
399.323	865.4
399.701	889.58
400.08	892.29
400.458	900.65
400.837	934.33
401.215	913.99
401.594	921.67
401.972	929.35
402.351	975.91
402.729	956.47
403.107	964.83
403.486	970.48
403.864	990.37
404.242	1019.75
404.62	1006.41
404.999	1037.6
405.377	1032.4
405.755	1052.29
406.133	1057.26
406.511	1091.16
406.889	1085.51
407.267	1130.25
407.645	1094.77
408.023	1136.81
408.401	1136.58
408.779	1145.85
409.156	1188.33
409.534	1203.25
409.912	1234.2
410.29	1266.97
410.667	1239.4
411.045	1267.42
411.422	1298.84
411.8	1298.61
412.178	1336.12
412.555	1320.98
412.933	1334.09
413.31	1372.05
413.687	1385.84
414.065	1429.45
414.442	1405.05
414.819	1438.27
415.197	1456.12
415.574	1488.66
415.951	1483.46
416.328	1524.37
416.705	1525.04
417.082	1525.5
417.46	1548.55
417.837	1579.96
418.214	1574.53
418.591	1591.48
418.967	1611.37
419.344	1628.32
419.721	1675.78
420.098	1649.34
420.475	1703.57
420.852	1718.03
421.228	1718.26
421.605	1718.71
421.982	1777.92
422.358	1769.11
422.735	1811.14
423.111	1801.65
423.488	1848.65
423.864	1836
424.241	1876.22
424.617	1922.77
424.994	1915.77
425.37	1916.45
425.746	1927.07
426.123	1998.03
426.499	1977.69
426.875	2018.59
427.251	2062.66
427.627	2112.6
428.003	2115.54
428.379	2141.98
428.756	2173.84
429.132	2219.04
429.507	2243.9
429.883	2248.42
430.259	2304.91
430.635	2318.47
431.011	2340.16
431.387	2435.08
431.763	2438.01
432.138	2431.69
432.514	2501.74
432.89	2525.7
433.265	2588.29
433.641	2580.38
434.016	2621.74
434.392	2658.12
434.767	2722.53
435.143	2721.17
435.518	2760.72
435.894	2788.97
436.269	2837.33
436.644	2864.9
437.02	2902.41
437.395	2918
437.77	2982.41
438.145	3005.68
438.52	3012.92
438.895	3051.33
439.271	3066.25
439.646	3138.56
440.021	3173.59
440.395	3193.93
440.77	3139.24
441.145	3203.64
441.52	3230.99
441.895	3281.83
442.27	3296.07
442.645	3354.38
443.019	3363.87
443.394	3330.19
443.769	3399.8
444.143	3355.96
444.518	3469.85
444.892	3432.57
445.267	3497.87
445.641	3523.41
446.016	3543.52
446.39	3546.01
446.764	3592.33
447.139	3581.26
447.513	3659.23
447.887	3684.08
448.262	3681.15
448.636	3714.14
449.01	3778.77
449.384	3829.39
449.758	3835.04
450.132	3898.09
450.506	3971.31
450.88	3941.7
451.254	3958.2
451.628	4030.52
452.002	4090.17
452.376	4124.52
452.75	4091.76
453.123	4157.97
453.497	4230.96
453.871	4280.9
454.244	4335.59
454.618	4366.33
454.992	4487
455.365	4499.66
455.739	4589.14
456.112	4613.33
456.486	4636.38
456.859	4722.02
457.232	4834.56
457.606	4813.09
457.979	4875.69
458.352	4982.13
458.725	4978.06
459.099	5071.17
459.472	5170.15
459.845	5225.74
460.218	5247.66
460.591	5314.78
460.964	5399.07
461.337	5447.2
461.71	5593.86
462.083	5621.43
462.456	5657.37
462.829	5674.31
463.201	5811.94
463.574	5776.68
463.947	5867.08
464.32	6091.48
464.692	6075.66
465.065	6136.45
465.438	6219.84
465.81	6294.18
466.183	6364.69
466.555	6564.23
466.928	6545.93
467.3	6561.52
467.672	6652.14
468.045	6875.86
468.417	6859.37
468.789	6923.32
469.161	7019.36
469.534	7157.66
469.906	7333.03
470.278	7393.36
470.65	7470.65
471.022	7652.34
471.394	7717.2
471.766	7777.08
472.138	7905.67
472.51	8067.47
472.882	8179.56
473.253	8293.23
473.625	8418.87
473.997	8629.26
474.369	8727.57
474.74	8801.69
475.112	9029.48
475.484	9157.61
475.855	9251.17
476.227	9339.53
476.598	9655.9
476.97	9626.07
477.341	9893.41
477.713	9993.97
478.084	10113.52
478.455	10398.26
478.827	10510.8
479.198	10782.88
479.569	10832.6
479.94	11065.58
480.311	11230.78
480.682	11470.55
481.053	11800.71
481.424	11957.99
481.795	12076.41
482.166	12219.45
482.537	12361.82
482.908	12675.49
483.279	12793.22
483.65	12978.53
484.021	13216.71
484.391	13436.14
484.762	13518.18
485.133	13725.18
485.503	13866.64
485.874	14204.94
486.244	14296.46
486.615	14631.59
486.985	14768.76
487.356	14994.97
487.726	15134.63
488.097	15448.07
488.467	15488.07
488.837	15878.34
489.207	16054.61
489.578	16261.83
489.948	16361.49
490.318	16768.71
490.688	16741.59
491.058	17142.94
491.428	17317.85
491.798	17437.62
492.168	17743.15
492.538	17858.4
492.908	18131.16
493.278	18282.57
493.648	18320.31
494.017	18650.24
494.387	18770.24
494.757	19010.46
495.126	19129.33
495.496	19217.91
495.866	19328.87
496.235	19666.04
496.605	19801.17
496.974	19852.02
497.344	20028.96
497.713	20215.63
498.082	20311.9
498.452	20574.94
498.821	20706.24
499.19	20757.53
499.559	20871.88
499.928	21091.99
500.298	21223.96
500.667	21431.41
501.036	21495.82
501.405	21698.3
501.774	21712.99
502.143	21947.78
502.512	22103.49
502.88	22312.75
503.249	22397.72
503.618	22527.66
503.987	22630.25
504.356	22813.75
504.724	23004.93
505.093	23028.89
505.462	23171.48
505.83	23348.2
506.199	23593.39
506.567	23910.9
506.936	23889.43
507.304	24129.65
507.672	24332.13
508.041	24348.63
508.409	24643.08
508.777	24784.55
509.145	25082.17
509.514	24959.68
509.882	25349.05
510.25	25272.22
510.618	25479.44
510.986	25678.53
511.354	25827.46
511.722	26198.52
512.09	26302.92
512.458	26499.53
512.826	26653.88
513.193	26822.91
513.561	26995.79
513.929	27109.68
514.297	27516.23
514.664	27661.76
515.032	27774.07
515.4	27942.2
515.767	28131.35
516.135	28167.96
516.502	28205.47
516.869	28782.18
517.237	28836.42
517.604	28800.49
517.972	29146.92
518.339	29450.41
518.706	29502.16
519.073	29715.94
519.44	29969.72
519.808	30228.47
520.175	30174.46
520.542	30702.13
520.909	30771.96
521.276	30807.66
521.643	31312.74
522.009	31477.93
522.376	31648.55
522.743	31930.8
523.11	32253.73
523.477	32541.4
523.843	32658.69
524.21	32926.48
524.577	33176.42
524.943	33371.89
525.31	33597.42
525.676	33968.71
526.043	34248.7
526.409	34242.6
526.776	34676.94
527.142	34782.02
527.508	34970.04
527.874	35350.6
528.241	35528.44
528.607	35748.1
528.973	35924.37
529.339	36016.79
529.705	36546.04
530.071	36634.63
530.437	36762.31
530.803	36901.97
531.169	37237.33
531.535	37160.04
531.901	37390.99
532.267	37590.31
532.632	37992.79
532.998	37923.64
533.364	38257.86
533.73	38301.03
534.095	38570.4
534.461	38749.15
534.826	38991.18
535.192	39069.37
535.557	39307.78
535.923	39371.96
536.288	39593.87
536.653	39759.29
537.019	39734.89
537.384	39797.71
537.749	40139.85
538.114	40269.11
538.479	40355.89
538.845	40627.52
539.21	40489.22
539.575	40718.59
539.94	41063.44
540.305	41161.97
540.67	41142.76
541.034	41267.5
541.399	41455.75
541.764	41560.15
542.129	41819.13
542.494	41914.94
542.858	42028.84
543.223	42064.54
543.587	42297.31
543.952	42192.68
544.316	42523.06
544.681	42472.22
545.045	42836.95
545.41	42930.51
545.774	43003.28
546.138	43181.8
546.503	43250.5
546.867	43331.4
547.231	43707.44
547.595	43742.92
547.959	43873.08
548.324	43932.29
548.688	44037.15
549.052	44259.51
549.416	44312.62
549.779	44352.62
550.143	44543.8
550.507	44833.74
550.871	45065.14
551.235	44980.63
551.599	45267.17
551.962	45418.35
552.326	45603.66
552.689	45759.81
553.053	45671.45
553.417	45738.35
553.78	46187.83
554.143	46137.2
554.507	46390.76
554.87	46457.2
555.234	46818.77
555.597	46768.37
555.96	46873.23
556.323	47075.26
556.686	47115.26
557.05	47448.81
557.413	47553.44
557.776	47665.75
558.139	47975.35
558.502	48045.4
558.865	48138.28
559.228	48504.37
559.59	48548.89
559.953	48646.29
560.316	48959.5
560.679	48965.61
561.041	49271.13
561.404	49399.49
561.767	49674.29
562.129	49524.91
562.492	49895.98
562.854	49926.94
563.217	49991.57
563.579	50108.85
563.941	50463.19
564.304	50545
564.666	50824.77
565.028	50773.69
565.39	50924.42
565.753	51205.55
566.115	51225.43
566.477	51456.16
566.839	51490.51
567.201	51688.47
567.563	51666.1
567.925	51985.64
568.287	51957.16
568.648	52189.02
569.01	52284.61
569.372	52417.94
569.734	52393.76
570.095	52587.43
570.457	52743.36
570.819	52870.59
571.18	52754.66
571.542	52975.44
571.903	53085.04
572.265	53214.76
572.626	53163.01
572.987	53317.13
573.349	53384.7
573.71	53481.87
574.071	53527.07
574.432	53595.77
574.794	53847.51
575.155	53863.78
575.516	53756.21
575.877	53966.83
576.238	54041.86
576.599	54111.23
576.96	54092.02
577.32	54171.57
577.681	54282.08
578.042	54275.75
578.403	54319.59
578.763	54326.37
579.124	54359.36
579.485	54462.18
579.845	54546.7
580.206	54458.34
580.566	54521.62
580.927	54597.77
581.287	54731.33
581.648	54499.24
582.008	54737.88
582.368	54647.26
582.728	54748.96
583.089	54706.02
583.449	54641.84
583.809	54729.52
584.169	54738.11
584.529	54711.67
584.889	54900.36
585.249	54747.6
585.609	54663.99
585.969	54851.78
586.329	54695.85
586.688	54802.29
587.048	54740.82
587.408	54711.67
587.768	54814.72
588.127	54781.95
588.487	54711.22
588.846	54970.87
589.206	54745.34
589.565	54776.75
589.925	54923.87
590.284	54797.32
590.643	54895.62
591.003	55000.02
591.362	54985.33
591.721	54929.74
592.08	54995.73
592.44	55003.19
592.799	54965.9
593.158	54993.92
593.517	55033.92
593.876	54960.7
594.235	54875.28
594.593	54917.54
594.952	55078.66
595.311	54951.89
595.67	55012.23
596.029	55190.07
596.387	55157.08
596.746	55237.76
597.104	55074.82
597.463	55091.55
597.822	55214.48
598.18	55070.3
598.538	55092.9
598.897	55224.2
599.255	55008.38
599.613	55453.8
599.972	55291.99
600.33	55339.45
600.688	55274.14
601.046	55375.38
601.404	55455.38
601.762	55385.1
602.12	55519.33
602.478	55447.47
602.836	55471.2
603.194	55334.48
603.552	55481.82
603.91	55440.24
604.268	55515.04
604.625	55414.25
604.983	55548.93
605.341	55481.59
605.698	55599.78
606.056	55603.17
606.413	55580.12
606.771	55761.13
607.128	55745.54
607.485	55670.29
607.843	55604.98
608.2	55816.72
608.557	55873.67
608.914	55769.72
609.272	55891.75
609.629	55981.24
609.986	56046.77
610.343	55852.88
610.7	56127.68
611.057	56013.56
611.414	56031.18
611.771	56076.6
612.127	56155.7
612.484	56151.18
612.841	56234.79
613.198	56092.2
613.554	56138.07
613.911	56267.56
614.267	56281.12
614.624	56230.05
614.98	56294.23
615.337	56395.24
615.693	56355.47
616.05	56329.25
616.406	56425.75
616.762	56395.24
617.118	56311.4
617.475	56448.35
617.831	56526.54
618.187	56506.65
618.543	56534.67
618.899	56661.45
619.255	56559.3
619.611	56540.55
619.967	56660.09
620.323	56645.63
620.678	56531.51
621.034	56527.67
621.39	56517.95
621.746	56533.54
622.101	56772.86
622.457	56509.14
622.812	56634.1
623.168	56623.93
623.523	56604.95
623.879	56716.14
624.234	56455.8
624.589	56559.98
624.945	56697.15
625.3	56649.47
625.655	56641.11
626.01	56648.12
626.365	56666.65
626.72	56623.03
627.075	56552.07
627.43	56576.25
627.785	56509.36
628.14	56567.67
628.495	56628.23
628.85	56543.71
629.205	56426.43
629.559	56670.49
629.914	56443.6
630.269	56515.46
630.623	56446.76
630.978	56376.26
631.332	56489.02
631.687	56470.72
632.041	56353.89
632.396	56440.89
632.75	56210.61
633.104	56305.75
633.459	56190.5
633.813	56266.88
634.167	56190.73
634.521	56203.38
634.875	56243.83
635.229	56089.03
635.583	56010.62
635.937	55979.43
636.291	55946.21
636.645	55984.63
636.999	55931.52
637.352	55976.27
637.706	55821.7
638.06	55839.1
638.413	55829.61
638.767	55743.28
639.121	55751.64
639.474	55586.45
639.828	55640.46
640.181	55660.34
640.534	55649.05
640.888	55567.24
641.241	55392.55
641.594	55446.56
641.947	55568.6
642.301	55506.22
642.654	55461.71
643.007	55376.28
643.36	55320.47
643.713	55237.53
644.066	55380.35
644.419	55188.94
644.771	55007.93
645.124	54712.57
645.477	54706.25
645.83	54519.58
646.182	54370.89
646.535	54254.28
646.888	54358.68
647.24	54229.65
647.593	54344.67
647.945	54298.35
648.298	54096.09
648.65	54086.37
649.002	54056.77
649.355	54120.27
649.707	53979.71
650.059	54142.64
650.411	54524.1
650.763	54445.91
651.115	54781.95
651.467	54718.67
651.819	54608.85
652.171	54534.72
652.523	54542.86
652.875	54478.91
653.227	54395.07
653.578	54492.01
653.93	54463.77
654.282	54319.59
654.633	54267.16
654.985	54256.09
655.337	54292.47
655.688	54233.49
656.039	54268.29
656.391	54131.35
656.742	54186.94
657.094	54147.62
657.445	54293.83
657.796	54137.45
658.147	54117.79
658.498	54028.3
658.849	54118.69
659.2	54049.54
659.551	53897.23
659.902	54029.43
660.253	54029.43
660.604	54052.7
660.955	53922.76
661.306	53920.73
661.656	53840.73
662.007	53931.8
662.358	53894.52
662.708	53851.58
663.059	53810.22
663.409	53584.01
663.76	53877.11
664.11	53799.15
664.461	53812.94
664.811	53818.36
665.161	53674.86
665.511	53692.94
665.862	53682.77
666.212	53822.2
666.562	53770.22
666.912	53638.02
667.262	53604.58
667.612	53675.76
667.962	53612.04
668.312	53583.79
668.662	53683.67
669.011	53627.4
669.361	53506.95
669.711	53521.87
670.06	53484.36
670.41	53351.03
670.76	53357.35
671.109	53454.07
671.459	53398.71
671.808	53328.2
672.157	53414.53
672.507	53244.81
672.856	53213.63
673.205	53251.82
673.554	53285.94
673.904	53190.58
674.253	53396.68
674.602	53167.53
674.951	52762.34
675.3	52527.09
675.649	53089.11
675.998	52933.41
676.346	53049.79
676.695	53185.61
677.044	52954.65
677.393	52978.16
677.741	52994.2
678.09	52918.95
678.438	52790.59
678.787	52913.52
679.135	52827.88
679.484	52668.78
679.832	52769.57
680.181	52609.58
680.529	52669.69
680.877	52595.34
681.225	52571.39
681.573	52645.51
681.922	52404.84
682.27	52389.7
682.618	52444.61
682.966	52263.15
683.314	52314.9
683.661	52213.2
684.009	52088.46
684.357	51953.78
684.705	51944.96
685.053	51907.22
685.4	51995.36
685.748	51717.62
686.095	51688.25
686.443	51673.56
686.79	51537.97
687.138	51612.54
687.485	51624.74
687.832	51444.64
688.18	51429.27
688.527	51270.4
688.874	51247.81
689.221	51189.95
689.568	51076.96
689.915	50986.79
690.262	50850.98
690.609	50871.32
690.956	50742.51
691.303	50758.1
691.65	50500.71
691.997	50544.77
692.344	50329.41
692.69	50300.71
693.037	50240.6
693.383	49999.25
693.73	50140.49
694.077	49984.34
694.423	49918.12
694.769	49745.47
695.116	49648.07
695.462	49624.34
695.808	49386.16
696.155	49456.89
696.501	49239.72
696.847	49256.9
697.193	48989.56
697.539	49173.74
697.885	48858.49
698.231	48614.88
698.577	48580.76
698.923	48583.02
699.269	48492.4
699.614	48329.46
699.96	48139.19
700.306	48298.28
700.651	48062.58
700.997	47944.84
701.342	47857.61
701.688	47706.43
702.033	47740.55
702.379	47637.28
702.724	47512.54
703.069	47545.53
703.415	47115.71
703.76	47140.57
704.105	47147.35
704.45	46991.87
704.795	46684.08
705.14	46716.17
705.485	46704.2
705.83	46542.62
706.175	46452.68
706.52	46440.7
706.865	46281.83
707.209	46087.49
707.554	46106.02
707.899	46219.24
708.243	45792.58
708.588	45783.32
708.932	45514.4
709.277	45478.24
709.621	45508.07
709.966	45309.43
710.31	45421.29
710.654	44908.99
710.998	44956.22
711.342	45001.87
711.687	44892.04
712.031	44625.38
712.375	44572.5
712.719	44644.81
713.063	44516.23
713.407	44673.74
713.75	44387.19
714.094	44245.73
714.438	44171.15
714.782	44265.16
715.125	43981.56
715.469	44206.63
715.812	43848.23
716.156	43556.03
716.499	43690.94
716.843	43699.98
717.186	43397.39
717.53	43567.56
717.873	43601.23
718.216	43480.33
718.559	43160.79
718.902	43067.91
719.246	43046.89
719.589	42921.92
719.932	42839.21
720.275	42826.11
720.617	42828.59
720.96	42658.88
721.303	42615.04
721.646	42655.49
721.989	42386.8
722.331	42549.05
722.674	42362.61
723.016	42345.44
723.359	42131.66
723.701	42297.53
724.044	42117.88
724.386	41804.21
724.729	41985
725.071	41848.5
725.413	41894.38
725.755	41684.21
726.097	41621.62
726.439	41429.08
726.782	41433.15
727.124	41441.51
727.465	41312.47
727.807	41306.37
728.149	41167.62
728.491	41096.89
728.833	41081.07
729.175	40865.93
729.516	40753.84
729.858	40925.59
730.199	40980.28
730.541	40788.87
730.882	40723.79
731.224	40797.68
731.565	40529.44
731.906	40585.03
732.248	40535.77
732.589	40276.12
732.93	40180.53
733.271	40169.23
733.612	40289.22
733.953	40293.06
734.294	39941.44
734.635	39991.15
734.976	39957.93
735.317	39922.91
735.658	39778.95
735.999	39693.53
736.339	39617.83
736.68	39576.7
737.021	39480.66
737.361	39382.58
737.702	39687.21
738.042	39410.38
738.383	39362.47
738.723	39212.64
739.063	39143.94
739.404	39193.21
739.744	39087.22
740.084	38960.67
740.424	39099.65
740.764	38965.42
741.104	38940.11
741.444	38619.66
741.784	38658.08
742.124	38674.12
742.464	38600.45
742.804	38506.22
743.143	38408.37
743.483	38462.38
743.823	38076.4
744.162	38167.47
744.502	38157.3
744.841	38044.54
745.181	38210.41
745.52	38082.95
745.86	38080.69
746.199	37827.37
746.538	37796.86
746.877	37902.17
747.216	37723.64
747.556	37601.61
747.895	37781.72
748.234	37636.86
748.573	37365.68
748.911	37563.42
749.25	37393.03
749.589	37256.76
749.928	37212.92
750.267	37136.31
750.605	37111
750.944	37046.14
751.283	36837.11
751.621	36924.79
751.96	36703.33
752.298	36673.27
752.636	36659.94
752.975	36663.33
753.313	36395.09
753.651	36606.83
753.989	36241.42
754.327	36401.87
754.666	35975.89
755.004	36110.8
755.342	36081.65
755.679	35992.39
756.017	35699.06
756.355	35860.86
756.693	35593.98
757.031	35666.52
757.368	35328.22
757.706	35402.12
758.044	35255.01
758.381	35285.06
758.719	35120.09
759.056	35048.68
759.394	34928.69
759.731	34650.73
760.068	34741.35
760.405	34515.14
760.743	34462.26
761.08	34500.22
761.417	34347.46
761.754	34128.03
762.091	34358.53
762.428	34127.58
762.765	33886
763.102	33897.75
763.438	33682.84
763.775	33552.9
764.112	33569.17
764.449	33657.08
764.785	33427.26
765.122	33206.7
765.458	33101.84
765.795	33001.96
766.131	33019.81
766.467	32780.04
766.804	32742.08
767.14	32606.94
767.476	32604.45
767.812	32454.85
768.148	32358.58
768.485	32174.86
768.821	32176.44
769.157	31898.71
769.492	32023
769.828	31800.18
770.164	31549.34
770.5	31525.39
770.836	31487.19
771.171	31282.91
771.507	31199.74
771.842	30973.31
772.178	31005.4
772.513	30791.62
772.849	30874.56
773.184	30647.89
773.519	30663.49
773.855	30509.59
774.19	30273.67
774.525	30234.57
774.86	30222.82
775.195	30157.74
775.53	29959.78
775.865	29779.44
776.2	29638.2
776.535	29471.65
776.87	29459.68
777.205	29335.61
777.539	29196.63
777.874	29250.42
778.209	28983.53
778.543	28916.64
778.878	28753.48
779.212	28691.79
779.547	28467.61
779.881	28586.93
780.215	28322.31
780.55	28366.37
780.884	28198.92
781.218	28240.5
781.552	28173.84
781.886	28010.22
782.22	27824.24
782.554	27731.14
782.888	27493.18
783.222	27368.43
783.556	27296.8
783.889	27339.96
784.223	27011.15
784.557	27037.82
784.89	27048.67
785.224	26859.97
785.557	26667.89
785.891	26669.92
786.224	26667.21
786.558	26594.89
786.891	26263.15
787.224	26254.56
787.557	26214.34
787.891	26183.83
788.224	25999.2
788.557	26036.49
788.89	25955.14
789.223	25763.73
789.556	25622.04
789.888	25555.37
790.221	25448.94
790.554	25298.66
790.887	25335.49
791.219	25175.5
791.552	25114.71
791.884	25028.16
792.217	24898.67
792.549	24905.45
792.882	24680.37
793.214	24614.61
793.546	24608.96
793.879	24494.16
794.211	24395.4
794.543	24419.36
794.875	24385.91
795.207	24290.77
795.539	24233.6
795.871	24195.41
796.203	23894.17
796.535	23859.37
796.867	23788.41
797.198	23736.66
797.53	23695.54
797.862	23549.1
798.193	23600.17
798.525	23477.01
798.856	23374.41
799.188	23185.94
799.519	23087.64
799.85	23020.07
800.182	22954.31
800.513	23028.43
800.844	22757.93
801.175	22806.29
801.506	22912.96
801.837	22682.68
802.168	22717.48
802.499	22553.87
802.83	22476.36
803.161	22389.35
803.491	22458.51
803.822	22337.15
804.153	22205.86
804.483	22102.81
804.814	22024.62
805.145	22072.53
805.475	21998.18
805.805	21865.98
806.136	21862.81
806.466	21765.19
806.796	21739.88
807.126	21626.66
807.457	21507.12
807.787	21623.95
808.117	21526.78
808.447	21416.73
808.777	21420.34
809.107	21267.58
809.436	21240.01
809.766	21186.67
810.096	21080.01
810.426	20971.76
810.755	21088.37
811.085	20891.32
811.414	20867.81
811.744	20752.11
812.073	20661.04
812.403	20741.71
812.732	20732
813.061	20503.53
813.39	20436.64
813.719	20429.63
814.049	20488.16
814.378	20435.06
814.707	20261.73
815.036	20091.56
815.365	20089.53
815.693	19962.07
816.022	19990.32
816.351	19892.7
816.68	19774.06
817.008	19845.01
817.337	19689.09
817.665	19693.38
817.994	19689.76
818.322	19732.25
818.651	19529.54
818.979	19627.62
819.307	19644.12
819.636	19478.02
819.964	19394.18
820.292	19511.69
820.62	19448.64
820.948	19383.56
821.276	19504.68
821.604	19363.45
821.932	19414.52
822.259	19414.97
822.587	19264.92
822.915	19300.85
823.243	19444.57
823.57	19262.21
823.898	19312.15
824.225	19212.49
824.553	19259.95
824.88	19227.4
825.207	19308.31
825.535	19284.35
825.862	19274.86
826.189	19232.83
826.516	19343.33
826.843	19420.62
827.17	19234.18
827.497	19345.14
827.824	19296.33
828.151	19276.22
828.478	19272.6
828.805	19326.38
829.131	19175.88
829.458	19263.11
829.785	19198.25
830.111	19131.59
830.438	19278.48
830.764	19145.82
831.09	19155.32
831.417	19052.04
831.743	19184.24
832.069	19159.16
832.395	18974.08
832.722	19041.87
833.048	19017.47
833.374	19141.3
833.7	18933.17
834.026	19038.03
834.351	19018.37
834.677	18976.79
835.003	19021.08
835.329	18986.28
835.654	18934.53
835.98	18798.94
836.306	18952.83
836.631	18864.7
836.956	18890.24
837.282	18839.39
837.607	18678.94
837.932	18745.83
838.258	18772.27
838.583	18656.8
838.908	18569.12
839.233	18584.71
839.558	18497.48
839.883	18419.06
840.208	18448.22
840.533	18419.06
840.858	18401.21
841.182	18384.49
841.507	18264.49
841.832	18258.84
842.156	18279.18
842.481	18233.76
842.805	18204.61
843.13	18135
843.454	18076.02
843.778	18012.52
844.103	18006.87
844.427	17860.89
844.751	17850.49
845.075	17867.89
845.399	17811.4
845.723	17706.31
846.047	17795.35
846.371	17567.11
846.695	17490.95
847.019	17483.95
847.343	17488.92
847.666	17301.13
847.99	17213.45
848.313	17150.4
848.637	16967.8
848.96	16934.36
849.284	16974.58
849.607	16900.01
849.931	16845.32
850.254	16640.13
850.577	16594.48
850.9	16516.74
851.223	16559.9
851.546	16387.03
851.869	16259.35
852.192	16412.11
852.515	16219.57
852.838	16173.25
853.161	16186.58
853.483	16055.96
853.806	16065.45
854.129	15965.34
854.451	15941.84
854.774	15859.58
855.096	15839.92
855.419	15766.93
855.741	15721.06
856.063	15628.4
856.385	15713.15
856.708	15602.41
857.03	15573.94
857.352	15511.57
857.674	15376.43
857.996	15399.93
858.318	15327.85
858.64	15353.38
858.961	15281.75
859.283	15238.13
859.605	15114.52
859.926	15226.15
860.248	15125.14
860.57	15022.54
860.891	15023.22
861.212	14949.55
861.534	14921.08
861.855	14969.44
862.176	14860.06
862.498	14913.62
862.819	14859.16
863.14	14793.85
863.461	14720.18
863.782	14696
864.103	14667.52
864.424	14646.96
864.745	14733.74
865.065	14565.61
865.386	14509.79
865.707	14644.25
866.027	14573.06
866.348	14473.18
866.668	14536.91
866.989	14456.68
867.309	14315.67
867.63	14413.97
867.95	14366.29
868.27	14220.98
868.59	14338.04
868.91	14187.31
869.23	14214.88
869.55	14208.78
869.87	14224.82
870.19	14156.8
870.51	14224.82
870.83	14146.18
871.15	14003.59
871.469	14007.43
871.789	14211.49
872.109	13989.12
872.428	13938.96
872.748	14043.59
873.067	13954.77
873.386	13984.38
873.706	13970.59
874.025	13866.64
874.344	13792.52
874.663	13852.86
874.982	13857.38
875.301	13826.87
875.62	13767.43
875.939	13772.41
876.258	13778.51
876.577	13738.96
876.896	13601.11
877.214	13567.89
877.533	13605.4
877.852	13611.96
878.17	13606.99
878.489	13635.91
878.807	13591.39
879.125	13567.67
879.444	13500.1
879.762	13485.18
880.08	13405.41
880.398	13446.77
880.716	13434.11
881.034	13326.77
881.352	13338.29
881.67	13310.27
881.988	13369.03
882.306	13193.89
882.624	13227.34
882.941	13173.55
883.259	13114.34
883.577	13142.37
883.894	13080.9
884.212	13061.92
884.529	13024.63
884.846	12982.82
885.164	12931.52
885.481	12899.43
885.798	12961.81
886.115	12840
886.432	12869.15
886.75	12854.92
887.067	12888.36
887.383	12708.93
887.7	12740.12
888.017	12692.66
888.334	12719.78
888.651	12648.82
888.967	12596.17
889.284	12464.64
889.6	12531.08
889.917	12447.02
890.233	12409.28
890.55	12433.68
890.866	12396.17
891.182	12334.25
891.498	12350.3
891.815	12247.93
892.131	12315.5
892.447	12241.6
892.763	12186.69
893.079	12132.9
893.395	12060.81
893.71	12015.39
894.026	11965.9
894.342	11954.83
894.657	11882.29
894.973	11870.99
895.289	11939.23
895.604	11940.14
895.92	11708.96
896.235	11718.45
896.55	11698.56
896.865	11655.4
897.181	11659.24
897.496	11648.39
897.811	11561.62
898.126	11529.75
898.441	11479.36
898.756	11455.18
899.071	11367.72
899.386	11382.19
899.7	11327.5
900.015	11245.02
900.33	11198.01
900.644	11198.01
900.959	11148.97
901.273	11088.41
901.588	11070.78
901.902	11005.02
902.216	10961.41
902.531	10993.27
902.845	10894.06
903.159	10810.45
903.473	10779.72
903.787	10746.72
904.101	10699.94
904.415	10709.44
904.729	10665.37
905.042	10540.63
905.356	10569.33
905.67	10498.14
905.984	10544.69
906.297	10444.58
906.611	10436.22
906.924	10334.53
907.237	10259.05
907.551	10316.45
907.864	10265.83
908.177	10296.57
908.491	10273.52
908.804	10046.18
909.117	10016.12
909.43	9980.19
909.743	10008.21
910.056	9979.06
910.368	9889.34
910.681	9843.02
910.994	9797.6
911.307	9858.61
911.619	9732.29
911.932	9774.09
912.244	9690.25
912.557	9612.52
912.869	9600.76
913.181	9529.81
913.494	9480.54
913.806	9431.28
914.118	9482.12
914.43	9383.37
914.742	9397.38
915.054	9277.61
915.366	9288.46
915.678	9286.2
915.99	9177.5
916.302	9093.21
916.613	9125.3
916.925	9077.84
917.236	9030.84
917.548	9009.37
917.859	9014.34
918.171	8884.4
918.482	8899.31
918.794	8866.77
919.105	8773.44
919.416	8698.64
919.727	8794.68
920.038	8751.97
920.349	8690.05
920.66	8594.69
920.971	8659.09
921.282	8606.89
921.593	8522.37
921.903	8472.43
922.214	8445.09
922.525	8404.41
922.835	8332.78
923.146	8307.24
923.456	8339.33
923.767	8277.18
924.077	8230.41
924.387	8209.84
924.697	8119.45
925.008	8121.93
925.318	8090.97
925.628	8123.06
925.938	8034.03
926.248	7993.58
926.558	7934.59
926.867	7859.57
927.177	7844.43
927.487	7827.48
927.796	7712.23
928.106	7730.53
928.416	7709.29
928.725	7710.19
929.034	7665
929.344	7683.07
929.653	7618.9
929.962	7533.47
930.271	7571.89
930.581	7439.47
930.89	7473.81
931.199	7378.68
931.508	7380.26
931.817	7383.87
932.125	7336.42
932.434	7294.38
932.743	7238.57
933.051	7218.23
933.36	7115.86
933.669	7085.12
933.977	7123.99
934.286	7101.85
934.594	7034.05
934.902	6984.79
935.21	6994.96
935.519	7005.8
935.827	6949.08
936.135	6935.52
936.443	6866.37
936.751	6851.91
937.059	6823.44
937.367	6783.21
937.674	6749.77
937.982	6740.05
938.29	6705.93
938.597	6666.6
938.905	6568.75
939.213	6577.57
939.52	6618.47
939.827	6586.38
940.135	6480.39
940.442	6460.28
940.749	6474.75
941.056	6472.26
941.363	6403.11
941.67	6427.51
941.977	6360.4
942.284	6251.93
942.591	6266.61
942.898	6230.68
943.205	6273.62
943.511	6205.15
943.818	6189.78
944.125	6143.23
944.431	6140.97
944.738	6118.14
945.044	6070.46
945.35	6045.15
945.657	5984.59
945.963	5956.11
946.269	5925.15
946.575	5959.28
946.881	5893.29
947.187	5892.84
947.493	5874.31
947.799	5820.07
948.105	5812.62
948.41	5750.7
948.716	5737.14
949.022	5709.12
949.327	5689
949.633	5683.13
949.938	5683.13
950.244	5670.47
950.549	5632.28
950.854	5569.01
951.16	5529.91
951.465	5520.65
951.77	5510.02
952.075	5451.27
952.38	5414.43
952.685	5439.52
952.99	5374.66
953.294	5403.81
953.599	5320.2
953.904	5333.08
954.209	5272.74
954.513	5275
954.818	5241.78
955.122	5225.06
955.426	5219.18
955.731	5180.99
956.035	5157.27
956.339	5201.11
956.643	5150.49
956.948	5077.04
957.252	5054.22
957.556	5058.29
957.86	5061.67
958.163	5011.96
958.467	5021.22
958.771	5012.86
959.075	4949.14
959.378	4936.48
959.682	4902.36
959.985	4846.77
960.289	4904.84
960.592	4815.35
960.896	4882.7
961.199	4756.6
961.502	4756.6
961.805	4712.08
962.108	4698.97
962.411	4684.51
962.714	4639.09
963.017	4663.49
963.32	4637.51
963.623	4599.99
963.926	4620.56
964.228	4542.37
964.531	4534.68
964.833	4545.3
965.136	4462.82
965.438	4484.97
965.741	4488.13
966.043	4478.41
966.345	4437.74
966.648	4397.06
966.95	4431.63
967.252	4364.07
967.554	4394.35
967.856	4311.86
968.158	4309.15
968.46	4300.34
968.761	4311.64
969.063	4281.81
969.365	4214.92
969.666	4242.49
969.968	4198.87
970.269	4200
970.571	4130.63
970.872	4091.98
971.174	4107.8
971.475	4073.45
971.776	4075.03
972.077	4079.1
972.378	4075.71
972.679	4013.79
972.98	4018.76
973.281	3994.81
973.582	4001.59
973.883	3949.84
974.183	3916.85
974.484	3897.41
974.785	3891.76
975.085	3886.11
975.386	3859.22
975.686	3835.72
975.986	3861.71
976.287	3817.41
976.587	3753.46
976.887	3797.53
977.187	3735.83
977.487	3768.83
977.787	3757.3
978.087	3724.53
978.387	3729.51
978.687	3724.99
978.987	3679.56
979.286	3636.4
979.586	3607.93
979.885	3588.27
980.185	3598.66
980.484	3575.84
980.784	3548.72
981.083	3573.58
981.382	3513.01
981.682	3505.11
981.981	3544.2
982.28	3467.59
982.579	3456.29
982.878	3450.19
983.177	3412.45
983.475	3418.33
983.774	3358.89
984.073	3355.05
984.372	3346.92
984.67	3328.84
984.969	3335.17
985.267	3351.66
985.566	3315.51
985.864	3276.86
986.162	3302.17
986.461	3233.93
986.759	3205.68
987.057	3200.03
987.355	3207.03
987.653	3180.82
987.951	3216.3
988.249	3204.77
988.547	3148.05
988.844	3130.2
989.142	3137.21
989.44	3139.92
989.737	3101.95
990.035	3031.9
990.332	3030.99
990.63	3086.13
990.927	3042.29
991.224	3049.75
991.521	2989.86
991.819	2962.07
992.116	2960.26
992.413	2996.64
992.71	2961.62
993.006	2958.91
993.303	2927.72
993.6	2941.05
993.897	2904.67
994.193	2890.43
994.49	2850.66
994.787	2838.46
995.083	2854.05
995.379	2832.35
995.676	2822.86
995.972	2789.64
996.268	2763.2
996.565	2757.55
996.861	2757.55
997.157	2760.72
997.453	2717.33
997.749	2672.81
998.044	2664.9
998.34	2653.83
998.636	2655.86
998.932	2649.99
999.227	2607.95
999.523	2618.8
999.818	2607.73
1000.114	2577.9
1000.409	2580.84
1000.704	2561.63
1001	2562.76
1001.295	2535.87
1001.59	2528.63
1001.885	2484.34
1002.18	2494.74
1002.475	2493.83
1002.77	2459.71
1003.065	2425.13
1003.359	2436.21
1003.654	2424.23
1003.949	2427.62
1004.243	2401.18
1004.538	2349.43
1004.832	2395.3
1005.127	2355.53
1005.421	2325.93
1005.715	2326.15
1006.009	2328.19
1006.304	2303.1
1006.598	2269.21
1006.892	2316.44
1007.186	2274.86
1007.48	2265.14
1007.773	2255.65
1008.067	2240.96
1008.361	2201.41
1008.655	2167.74
1008.948	2156.89
1009.242	2182.43
1009.535	2137.91
1009.829	2141.75
1010.122	2153.95
1010.415	2093.39
1010.708	2081.19
1011.001	2094.3
1011.295	2092.04
1011.588	2061.08
1011.881	2044.8
1012.173	2043
1012.466	1998.03
1012.759	2000.29
1013.052	2013.62
1013.344	1996.44
1013.637	1973.17
1013.93	1966.61
1014.222	1943.79
1014.514	1943.11
1014.807	1928.65
1015.099	1930.68
1015.391	1917.8
1015.683	1893.4
1015.976	1872.61
1016.268	1857.47
1016.56	1883.91
1016.851	1833.96
1017.143	1865.83
1017.435	1836
1017.727	1807.52
1018.018	1772.5
1018.31	1762.55
1018.602	1767.07
1018.893	1735.43
1019.185	1746.73
1019.476	1780.86
1019.767	1730.91
1020.058	1724.36
1020.35	1698.15
1020.641	1707.86
1020.932	1677.13
1021.223	1674.65
1021.514	1647.08
1021.804	1642.56
1022.095	1616.79
1022.386	1659.5
1022.677	1613.86
1022.967	1594.2
1023.258	1585.83
1023.548	1577.7
1023.839	1557.59
1024.129	1548.32
1024.419	1569.11
1024.709	1567.76
1025	1515.33
1025.29	1525.95
1025.58	1516.46
1025.87	1475.1
1026.16	1490.7
1026.449	1495.44
1026.739	1493.41
1027.029	1435.56
1027.319	1424.48
1027.608	1426.52
1027.898	1438.04
1028.187	1407.76
1028.477	1419.28
1028.766	1431.26
1029.055	1384.71
1029.344	1355.56
1029.634	1362.79
1029.923	1357.82
1030.212	1344.26
1030.501	1364.6
1030.79	1342.45
1031.078	1336.35
1031.367	1319.85
1031.656	1302.9
1031.945	1297.03
1032.233	1302.23
1032.522	1300.87
1032.81	1258.61
1033.099	1256.8
1033.387	1262
1033.675	1237.59
1033.963	1242.11
1034.251	1236.46
1034.54	1193.3
1034.828	1214.54
1035.116	1202.34
1035.403	1177.94
1035.691	1193.3
1035.979	1199.4
1036.267	1149.69
1036.554	1153.08
1036.842	1128.67
1037.129	1139.07
1037.417	1143.81
1037.704	1113.76
1037.992	1113.53
1038.279	1111.5
1038.566	1104.72
1038.853	1104.72
1039.14	1104.72
