Data from white_poster_card_FLMS001491_00001.txt Node
Date: Wed Feb 08 11:50:56 GMT 2017
User: dcchb
Spectrometer: FLMS00149
Trigger mode: 0
Integration Time (sec): 2.000000E-2
Scans to average: 10
Electric dark correction enabled: true
Nonlinearity correction enabled: false
Boxcar width: 0
XAxis mode: Wavelengths
Number of Pixels in Spectrum: 2048
>>>>>Begin Spectral Data<<<<<
341.393	1.99
341.776	1.99
342.16	1.99
342.543	-59.25
342.927	-64.67
343.31	-57.67
343.693	-51.57
344.077	-66.93
344.46	-63.32
344.843	-45.46
345.226	-64.67
345.61	-39.14
345.993	-20.38
346.376	-6.82
346.759	25.95
347.142	24.36
347.525	42.44
347.908	61.88
348.291	73.63
348.674	80.86
349.057	106.85
349.44	124.7
349.823	138.71
350.206	168.99
350.588	191.82
350.971	223.91
351.354	231.82
351.737	226.17
352.119	262.55
352.502	267.52
352.884	282.66
353.267	296.22
353.65	293.74
354.032	335.09
354.414	320.63
354.797	315.43
355.179	333.96
355.562	314.98
355.944	318.59
356.326	335.09
356.709	333.06
357.091	357.01
357.473	352.72
357.855	357.91
358.238	361.53
358.62	341.42
359.002	341.42
359.384	352.72
359.766	351.13
360.148	352.94
360.53	350.46
360.912	344.36
361.294	357.01
361.676	336.9
362.057	347.97
362.439	310.01
362.821	355.65
363.203	345.26
363.584	337.8
363.966	320.18
364.348	314.98
364.729	301.64
365.111	339.84
365.493	326.73
365.874	312.27
366.256	323.11
366.637	315.43
367.019	331.7
367.4	317.01
367.781	316.11
368.163	328.31
368.544	313.85
368.925	311.81
369.306	342.1
369.688	306.84
370.069	315.88
370.45	323.56
370.831	326.28
371.212	340.97
371.593	337.58
371.974	325.6
372.355	313.85
372.736	309.1
373.117	304.58
373.498	341.87
373.879	341.64
374.26	326.05
374.641	343
375.021	341.64
375.402	339.38
375.783	337.35
376.163	347.75
376.544	331.93
376.925	336.67
377.305	350.91
377.686	358.59
378.066	349.55
378.447	339.84
378.827	341.64
379.208	341.19
379.588	360.4
379.968	338.03
380.349	347.29
380.729	357.01
381.109	347.07
381.489	352.72
381.87	372.83
382.25	366.05
382.63	345.94
383.01	374.41
383.39	352.04
383.77	370.34
384.15	368.08
384.53	368.99
384.91	362.66
385.29	364.92
385.67	374.64
386.049	392.26
386.429	359.5
386.809	373.96
387.189	385.26
387.568	381.19
387.948	391.59
388.328	373.73
388.707	379.83
389.087	414.64
389.466	393.62
389.846	407.18
390.225	381.87
390.605	397.69
390.984	404.47
391.363	408.76
391.743	436.1
392.122	427.97
392.501	406.27
392.881	425.48
393.26	434.3
393.639	415.77
394.018	434.07
394.397	408.76
394.776	436.56
395.155	431.36
395.534	412.38
395.913	413.05
396.292	448.76
396.671	437.23
397.05	469.55
397.429	441.53
397.808	442.43
398.186	438.59
398.565	479.27
398.944	462.77
399.323	481.75
399.701	484.24
400.08	471.81
400.458	463.67
400.837	477.46
401.215	475.65
401.594	479.95
401.972	484.46
402.351	494.86
402.729	495.54
403.107	492.6
403.486	493.05
403.864	532.82
404.242	501.19
404.62	532.15
404.999	512.49
405.377	518.36
405.755	543.22
406.133	523.56
406.511	557.46
406.889	580.51
407.267	553.16
407.645	588.19
408.023	592.94
408.401	593.84
408.779	570.34
409.156	610.11
409.534	602.65
409.912	618.25
410.29	633.84
410.667	645.14
411.045	644.69
411.422	671.13
411.8	693.27
412.178	683.56
412.555	715.87
412.933	751.8
413.31	703.67
413.687	757.45
414.065	756.77
414.442	791.58
414.819	794.74
415.197	823.21
415.574	836.77
415.951	876.32
416.328	870.22
416.705	879.93
417.082	895.53
417.46	932.81
417.837	925.36
418.214	948.18
418.591	947.5
418.967	990.67
419.344	985.92
419.721	1004.45
420.098	1027.95
420.475	1059.82
420.852	1075.18
421.228	1082.64
421.605	1097.1
421.982	1104.11
422.358	1117.67
422.735	1153.6
423.111	1145.92
423.488	1166.03
423.864	1209.42
424.241	1203.32
424.617	1215.29
424.994	1235.86
425.37	1268.4
425.746	1276.53
426.123	1277.44
426.499	1316.76
426.875	1315.86
427.251	1351.56
427.627	1387.27
428.003	1368.51
428.379	1384.55
428.756	1415.74
429.132	1444.67
429.507	1479.24
429.883	1496.64
430.259	1511.33
430.635	1532.8
431.011	1556.98
431.387	1558.56
431.763	1601.27
432.138	1624.55
432.514	1636.98
432.89	1653.25
433.265	1699.57
433.641	1715.17
434.016	1738.44
434.392	1775.73
434.767	1804.66
435.143	1792.45
435.518	1823.64
435.894	1859.8
436.269	1872.22
436.644	1906.35
437.02	1904.09
437.395	1912.45
437.77	1956.29
438.145	1983.63
438.52	1974.82
438.895	2023.63
439.271	2006.46
439.646	2093.24
440.021	2077.87
440.395	2112.67
440.77	2062.05
441.145	2119.22
441.52	2169.84
441.895	2160.35
442.27	2160.13
442.645	2168.71
443.019	2181.6
443.394	2182.73
443.769	2212.78
444.143	2219.11
444.518	2281.25
444.892	2298.65
445.267	2253.01
445.641	2287.81
446.016	2289.39
446.39	2325.77
446.764	2327.58
447.139	2301.37
447.513	2383.85
447.887	2369.61
448.262	2396.73
448.636	2396.73
449.01	2445.09
449.384	2490.97
449.758	2466.11
450.132	2482.83
450.506	2501.36
450.88	2538.42
451.254	2542.72
451.628	2584.75
452.002	2576.84
452.376	2606.89
452.75	2628.59
453.123	2671.98
453.497	2691.86
453.871	2685.76
454.244	2787.91
454.618	2789.94
454.992	2835.59
455.365	2812.77
455.739	2872.88
456.112	2907.45
456.486	2910.16
456.859	2953.33
457.232	3045.75
457.606	3038.3
457.979	3070.84
458.352	3138.18
458.725	3171.4
459.099	3141.57
459.472	3219.99
459.845	3243.04
460.218	3253.21
460.591	3290.27
460.964	3311.96
461.337	3377.27
461.71	3451.17
462.083	3482.13
462.456	3503.37
462.829	3532.07
463.201	3600.99
463.574	3611.61
463.947	3640.77
464.32	3723.25
464.692	3762.8
465.065	3776.58
465.438	3821.33
465.81	3863.13
466.183	3955.11
466.555	4006.86
466.928	4041.21
467.3	4021.32
467.672	4111.04
468.045	4192.16
468.417	4227.64
468.789	4256.34
469.161	4291.6
469.534	4389.22
469.906	4448.2
470.278	4503.12
470.65	4562.55
471.022	4592.38
471.394	4674.19
471.766	4756.67
472.138	4748.08
472.51	4877.34
472.882	4922.54
473.253	5004.35
473.625	5059.26
473.997	5182.19
474.369	5181.74
474.74	5232.59
475.112	5345.35
475.484	5429.65
475.855	5555.74
476.227	5558.68
476.598	5721.62
476.97	5773.59
477.341	5873.7
477.713	6001.83
478.084	5976.52
478.455	6190.08
478.827	6226.01
479.198	6331.54
479.569	6459.22
479.94	6535.15
480.311	6655.38
480.682	6789.61
481.053	6960.68
481.424	7047
481.795	7052.65
482.166	7260.56
482.537	7320.67
482.908	7440.44
483.279	7555.92
483.65	7673.2
484.021	7828.9
484.391	7905.29
484.762	7966.75
485.133	8095.56
485.503	8178.73
485.874	8350.47
486.244	8399.74
486.615	8535.78
486.985	8748.65
487.356	8792.27
487.726	8842.44
488.097	9065.03
488.467	9131.24
488.837	9294.63
489.207	9381.18
489.578	9551.12
489.948	9608.29
490.318	9786.14
490.688	9837.21
491.058	9966.7
491.428	10140.48
491.798	10171.44
492.168	10384.09
492.538	10469.74
492.908	10615.05
493.278	10738.66
493.648	10779.34
494.017	10880.58
494.387	10997.18
494.757	11084.41
495.126	11276.5
495.496	11229.72
495.866	11379.32
496.235	11467.23
496.605	11591.52
496.974	11610.73
497.344	11735.47
497.713	11858.63
498.082	11941.34
498.452	12100.88
498.821	12015.01
499.19	12193.99
499.559	12317.37
499.928	12432.4
500.298	12420.65
500.667	12620.42
501.036	12603.24
501.405	12684.6
501.774	12797.81
502.143	12955.78
502.512	12902.67
502.88	13114.64
503.249	13077.13
503.618	13190.35
503.987	13359.83
504.356	13451.36
504.724	13464.69
505.093	13594.18
505.462	13665.36
505.83	13692.25
506.199	13927.95
506.567	13943.77
506.936	13979.25
507.304	14178.57
507.672	14268.51
508.041	14331.56
508.409	14453.14
508.777	14516.41
509.145	14673.92
509.514	14736.29
509.882	14848.15
510.25	14918.44
510.618	14998.21
510.986	15143.97
511.354	15217.86
511.722	15374.69
512.09	15514.35
512.458	15494.69
512.826	15710.28
513.193	15760.67
513.561	15725.87
513.929	15955.02
514.297	16079.31
514.664	16312.3
515.032	16311.39
515.4	16399.3
515.767	16567.88
516.135	16672.74
516.502	16631.16
516.869	16888.78
517.237	16991.38
517.604	16991.83
517.972	17138.49
518.339	17354.98
518.706	17420.74
519.073	17466.39
519.44	17676.55
519.808	17797
520.175	17822.09
520.542	18136.2
520.909	18139.37
521.276	18127.39
521.643	18435.86
522.009	18580.03
522.376	18670.2
522.743	18694.38
523.11	18970.53
523.477	19146.12
523.843	19318.55
524.21	19414.81
524.577	19683.06
524.943	19652.77
525.31	19835.82
525.676	20044.18
526.043	20225.19
526.409	20291.18
526.776	20606.87
527.142	20507.67
527.508	20700.66
527.874	20879.18
528.241	20945.4
528.607	21151.04
528.973	21346.06
529.339	21312.17
529.705	21665.38
530.071	21758.48
530.437	21856.11
530.803	22018.81
531.169	22015.2
531.535	22144.91
531.901	22255.19
532.267	22379.03
532.632	22541.29
532.998	22588.52
533.364	22626.48
533.73	22860.37
534.095	23006.13
534.461	23117.77
534.826	23296.07
535.192	23283.87
535.557	23428.95
535.923	23356.86
536.288	23486.12
536.653	23696.28
537.019	23645.89
537.384	23861.7
537.749	23921.59
538.114	23873.91
538.479	24129.27
538.845	24220.79
539.21	24166.1
539.575	24280.9
539.94	24485.64
540.305	24576.03
540.67	24534.91
541.034	24627.33
541.399	24741.68
541.764	24825.52
542.129	24976.93
542.494	25118.85
542.858	25151.84
543.223	25251.05
543.587	25407.43
543.952	25399.74
544.316	25479.29
544.681	25445.84
545.045	25645.16
545.41	25725.83
545.774	25838.6
546.138	25890.58
546.503	25910.24
546.867	25936.9
547.231	26367.85
547.595	26177.12
547.959	26269.1
548.324	26407.4
548.688	26462.99
549.052	26520.62
549.416	26660.73
549.779	26681.74
550.143	26748.41
550.507	26963.09
550.871	27098.91
551.235	26966.71
551.599	27314.72
551.962	27383.42
552.326	27427.03
552.689	27597.88
553.053	27567.14
553.417	27689.4
553.78	27965.32
554.143	27926.45
554.507	28036.73
554.87	28257.07
555.234	28438.08
555.597	28374.58
555.96	28461.58
556.323	28615.02
556.686	28656.61
557.05	28901.57
557.413	28987.44
557.776	29054.11
558.139	29332.07
558.502	29345.63
558.865	29367.77
559.228	29682.79
559.59	29610.03
559.953	29799.63
560.316	30117.36
560.679	30155.77
561.041	30228.09
561.404	30387.63
561.767	30554.18
562.129	30584.01
562.492	30889.77
562.854	30907.85
563.217	30882.76
563.579	31144.68
563.941	31353.03
564.304	31390.54
564.666	31586.92
565.028	31603.87
565.39	31786.69
565.753	31964.09
566.115	32087.02
566.477	32205.89
566.839	32191.2
567.201	32460.12
567.563	32480.01
567.925	32741.47
568.287	32816.04
568.648	32925.87
569.01	33066.66
569.372	33347.78
569.734	33264.39
570.095	33546.42
570.457	33563.82
570.819	33571.73
571.18	33669.58
571.542	33856.69
571.903	33871.61
572.265	34110.47
572.626	34093.3
572.987	34208.32
573.349	34176.01
573.71	34371.71
574.071	34632.72
574.432	34564.7
574.794	34853.05
575.155	34863.45
575.516	34859.38
575.877	34904.58
576.238	35106.15
576.599	35156.32
576.96	35202.87
577.32	35294.17
577.681	35319.25
578.042	35486.71
578.403	35451.68
578.763	35571.9
579.124	35719.92
579.485	35730.09
579.845	35722.18
580.206	35646.25
580.566	35755.18
580.927	35760.83
581.287	35848.51
581.648	35778.9
582.008	36079.46
582.368	35956.53
582.728	36008.05
583.089	35892.57
583.449	35993.14
583.809	36082.17
584.169	36090.76
584.529	36009.86
584.889	36220.02
585.249	35867.04
585.609	35967.15
585.969	36171.21
586.329	36068.84
586.688	36014.83
587.048	36135.05
587.408	35963.31
587.768	36039.91
588.127	36114.71
588.487	35935.96
588.846	36174.6
589.206	35990.2
589.565	36091.44
589.925	36344.76
590.284	36168.05
590.643	36241.26
591.003	36186.35
591.362	36236.74
591.721	36251.21
592.08	36301.15
592.44	36419.34
592.799	36337.53
593.158	36385.44
593.517	36299.34
593.876	36433.35
594.235	36371.66
594.593	36378.89
594.952	36332.56
595.311	36335.05
595.67	36486.46
596.029	36663.85
596.387	36636.51
596.746	36688.71
597.104	36386.57
597.463	36471.77
597.822	36695.72
598.18	36538.88
598.538	36447.13
598.897	36651.88
599.255	36405.33
599.613	36956.27
599.972	36770.97
600.33	36763.28
600.688	36817.97
601.046	36759.9
601.404	36923.51
601.762	36844.64
602.12	37164.4
602.478	37044.86
602.836	37175.03
603.194	36817.52
603.552	37108.13
603.91	36850.51
604.268	37160.56
604.625	37003.5
604.983	37148.59
605.341	37070.85
605.698	37317.62
606.056	37270.39
606.413	37192.88
606.771	37361.24
607.128	37345.64
607.485	37178.42
607.843	37346.55
608.2	37620.21
608.557	37585.86
608.914	37472.64
609.272	37684.16
609.629	37651.85
609.986	37749.93
610.343	37676.03
610.7	37903.14
611.057	37824.73
611.414	37889.13
611.771	37819.98
612.127	38034.66
612.484	37935.46
612.841	37973.87
613.198	37871.73
613.554	38036.47
613.911	38111.72
614.267	38156.69
614.624	38115.34
614.98	38176.81
615.337	38272.85
615.693	38285.73
616.05	38173.19
616.406	38480.08
616.762	38403.92
617.118	38401.89
617.475	38494.31
617.831	38429
618.187	38443.69
618.543	38538.61
618.899	38654.53
619.255	38583.58
619.611	38551.26
619.967	38647.75
620.323	38814.98
620.678	38448.89
621.034	38559.17
621.39	38509.91
621.746	38441.43
622.101	38876.9
622.457	38585.38
622.812	38601.43
623.168	38714.42
623.523	38888.88
623.879	38878.94
624.234	38531.6
624.589	38682.1
624.945	38791.71
625.3	38728.2
625.655	38671.71
626.01	38697.02
626.365	38702.22
626.72	38666.96
627.075	38682.56
627.43	38695.44
627.785	38486.63
628.14	38617.25
628.495	38669.9
628.85	38601.88
629.205	38573.86
629.559	38622.44
629.914	38501.54
630.269	38495.67
630.623	38337.03
630.978	38453.86
631.332	38558.72
631.687	38459.51
632.041	38306.52
632.396	38438.95
632.75	38275.56
633.104	38351.49
633.459	38113.31
633.813	38180.87
634.167	37991.5
634.521	38033.99
634.875	38111.05
635.229	38158.95
635.583	37791.51
635.937	37918.73
636.291	37690.94
636.645	37845.29
636.999	37741.79
637.352	37843.48
637.706	37472.87
638.06	37716.03
638.413	37584.28
638.767	37588.35
639.121	37455.02
639.474	37306.1
639.828	37434.45
640.181	37384.29
640.534	37450.27
640.888	37271.52
641.241	37205.08
641.594	37266.55
641.947	37248.47
642.301	37243.5
642.654	37148.59
643.007	37179.32
643.36	37127.34
643.713	37078.08
644.066	37199.21
644.419	36803.06
644.771	36715.6
645.124	36365.78
645.477	36252.11
645.83	36007.15
646.182	35837.89
646.535	35812.58
646.888	35736.65
647.24	35561.73
647.593	35663.88
647.945	35703.65
648.298	35564.22
648.65	35379.59
649.002	35364.23
649.355	35568.51
649.707	35469.31
650.059	35429.08
650.411	35977.77
650.763	35981.84
651.115	36290.08
651.467	36173.02
651.819	36182.96
652.171	36032.23
652.523	35974.15
652.875	35941.16
653.227	35831.33
653.578	36081.95
653.93	35832.24
654.282	35717.66
654.633	35550.89
654.985	35872.01
655.337	35808.28
655.688	35698.91
656.039	35814.84
656.391	35535.29
656.742	35563.32
657.094	35487.16
657.445	35747.49
657.796	35661.17
658.147	35383.66
658.498	35444.9
658.849	35626.59
659.2	35439.48
659.551	35348.18
659.902	35512.47
660.253	35384.79
660.604	35500.04
660.955	35112.48
661.306	35283.78
661.656	35277.22
662.007	35258.47
662.358	35197.68
662.708	35323.32
663.059	35279.71
663.409	34957.91
663.76	35283.78
664.11	35087.85
664.461	35150.22
664.811	35175.98
665.161	35187.51
665.511	35087.17
665.862	35037.68
666.212	35137.79
666.562	35322.64
666.912	35088.98
667.262	35065.25
667.612	35037.91
667.962	35202.65
668.312	34911.13
668.662	35100.5
669.011	35036.1
669.361	34964.01
669.711	34962.2
670.06	34827.74
670.41	34870.45
670.76	34666.16
671.109	34967.4
671.459	34846.72
671.808	34778.48
672.157	34924.92
672.507	34488.32
672.856	34552.04
673.205	34562.44
673.554	34744.35
673.904	34513.4
674.253	34695.09
674.602	34574.64
674.951	34076.58
675.3	33957.93
675.649	34420.07
675.998	34406.28
676.346	34313.41
676.695	34523.12
677.044	34197.93
677.393	34310.47
677.741	34462.33
678.09	34166.74
678.438	34114.77
678.787	34197.93
679.135	34354.53
679.484	33947.31
679.832	34166.29
680.181	33999.97
680.529	33929.46
680.877	33886.52
681.225	33824.83
681.573	33947.31
681.922	33763.82
682.27	33647.21
682.618	33618.73
682.966	33550.71
683.314	33597.72
683.661	33608.34
684.009	33370.61
684.357	33369.02
684.705	33368.12
685.053	33356.14
685.4	33349.82
685.748	33167.9
686.095	33166.54
686.443	32991.18
686.79	32876.16
687.138	32881.13
687.485	32987.56
687.832	32791.19
688.18	32797.06
688.527	32677.97
688.874	32538.99
689.221	32506
689.568	32386.68
689.915	32372.44
690.262	32325.44
690.609	32305.77
690.956	32077.08
691.303	32143.29
691.65	31978.55
691.997	31780.36
692.344	31838.44
692.69	31818.33
693.037	31730.87
693.383	31382.64
693.73	31605.23
694.077	31450.66
694.423	31352.58
694.769	31289.3
695.116	31227.16
695.462	31179.7
695.808	31012.93
696.155	31013.38
696.501	30824.91
696.847	30835.76
697.193	30549.89
697.539	30764.12
697.885	30473.51
698.231	30612.94
698.577	30497.91
698.923	30407.29
699.269	30043.01
699.614	30096.57
699.96	29988.1
700.306	29979.96
700.651	29847.53
700.997	29714.66
701.342	29786.97
701.688	29646.18
702.033	29415
702.379	29550.82
702.724	29445.74
703.069	29559.63
703.415	29066.09
703.76	29165.74
704.105	29146.31
704.45	29110.15
704.795	28904.28
705.14	28831.06
705.485	28874.45
705.83	28709.49
706.175	28815.02
706.52	28634.01
706.865	28553.78
707.209	28414.58
707.554	28438.76
707.899	28439.66
708.243	28211.65
708.588	28215.71
708.932	28016.85
709.277	28116.05
709.621	27982.5
709.966	27825.44
710.31	27808.27
710.654	27703.18
710.998	27657.76
711.342	27763.52
711.687	27655.95
712.031	27436.75
712.375	27437.2
712.719	27393.36
713.063	27335.51
713.407	27459.57
713.75	27384.32
714.094	27260.71
714.438	27199.47
714.782	27173.93
715.125	27021.17
715.469	27232.91
715.812	26874.28
716.156	26847.39
716.499	26790.44
716.843	26805.81
717.186	26656.88
717.53	26793.6
717.873	26740.95
718.216	26618.01
718.559	26542.54
718.902	26347.29
719.246	26425.25
719.589	26285.37
719.932	26285.37
720.275	26116.33
720.617	26129.89
720.96	26220.51
721.303	26157.46
721.646	26141.87
721.989	25909.56
722.331	26041.08
722.674	25856
723.016	25943.68
723.359	25924.25
723.701	25909.11
724.044	25597.93
724.386	25582.79
724.729	25808.32
725.071	25558.61
725.413	25588.66
725.755	25535.56
726.097	25486.07
726.439	25318.16
726.782	25381.21
727.124	25447.42
727.465	25338.95
727.807	25236.13
728.149	25131.95
728.491	25248.79
728.833	25134.66
729.175	24917.95
729.516	24961.56
729.858	24960.88
730.199	24875.01
730.541	24932.86
730.882	24870.04
731.224	24902.13
731.565	24700.78
731.906	24774.67
732.248	24747.78
732.589	24529.48
732.93	24494.68
733.271	24537.39
733.612	24559.09
733.953	24556.37
734.294	24362.93
734.635	24419.88
734.976	24517.73
735.317	24350.5
735.658	24334.69
735.999	24256.27
736.339	24190.73
736.68	24225.99
737.021	24185.31
737.361	24052.88
737.702	24215.37
738.042	23990.97
738.383	24063.51
738.723	24012.43
739.063	23916.84
739.404	23941.02
739.744	23905.09
740.084	23778.32
740.424	23717.98
740.764	23807.92
741.104	23774.02
741.444	23557.98
741.784	23583.52
742.124	23657.64
742.464	23543.97
742.804	23498.77
743.143	23443.63
743.483	23497.87
743.823	23313.92
744.162	23335.16
744.502	23327.71
744.841	23213.81
745.181	23285.45
745.52	23233.25
745.86	23185.56
746.199	23214.26
746.538	23169.07
746.877	23131.55
747.216	23095.17
747.556	23087.03
747.895	22971.33
748.234	22917.32
748.573	22843.42
748.911	22844.55
749.25	22764.33
749.589	22594.84
749.928	22641.62
750.267	22719.59
750.605	22580.83
750.944	22502.87
751.283	22518.24
751.621	22534.96
751.96	22315.53
752.298	22406.83
752.636	22369.99
752.975	22235.31
753.313	22221.52
753.651	22323.66
753.989	22150.79
754.327	22080.06
754.666	22040.73
755.004	22017.68
755.342	21936.78
755.679	22007.29
756.017	21936.1
756.355	21970.68
756.693	21840.06
757.031	21785.6
757.368	21650.01
757.706	21642.33
758.044	21529.34
758.381	21566.4
758.719	21446.85
759.056	21421.54
759.394	21324.82
759.731	21171.6
760.068	21144.71
760.405	21062.68
760.743	21026.3
761.08	21096.58
761.417	21000.54
761.754	20856.36
762.091	20858.17
762.428	20741.79
762.765	20649.36
763.102	20732.52
763.438	20558.29
763.775	20485.29
764.112	20478.06
764.449	20444.62
764.785	20374.34
765.122	20281.23
765.458	20270.61
765.795	20135.02
766.131	20104.51
766.467	20027.23
766.804	19958.98
767.14	19862.94
767.476	19740.23
767.812	19761.7
768.148	19744.3
768.485	19583.85
768.821	19492.55
769.157	19399.22
769.492	19391.76
769.828	19384.08
770.164	19227.47
770.5	19217.08
770.836	19273.12
771.171	19030.42
771.507	18918.33
771.842	18881.5
772.178	18914.04
772.513	18797.43
772.849	18823.87
773.184	18736.87
773.519	18609.64
773.855	18581.84
774.19	18510.88
774.525	18475.63
774.86	18438.79
775.195	18371.23
775.53	18285.8
775.865	18196.99
776.2	17999.71
776.535	18010.56
776.87	17984.57
777.205	17854.4
777.539	17768.08
777.874	17805.82
778.209	17656.22
778.543	17680.85
778.878	17568.76
779.212	17608.31
779.547	17477.69
779.881	17450.57
780.215	17284.7
780.55	17330.58
780.884	17274.31
781.218	17198.38
781.552	17262.33
781.886	17105.72
782.22	17009.45
782.554	16865.05
782.888	16696.47
783.222	16707.31
783.556	16643.59
783.889	16593.42
784.223	16449.69
784.557	16435.46
784.89	16440.43
785.224	16391.17
785.557	16368.11
785.891	16323.14
786.224	16233.88
786.558	16176.71
786.891	16060.33
787.224	16004.28
787.557	15990.5
787.891	15925.19
788.224	15865.76
788.557	15839.99
788.89	15724.74
789.223	15802.03
789.556	15609.94
789.888	15604.52
790.221	15581.24
790.554	15442.94
790.887	15465.77
791.219	15377.18
791.552	15369.05
791.884	15273.45
792.217	15225.55
792.549	15081.37
792.882	15003.86
793.214	15026.23
793.546	15029.62
793.879	14983.74
794.211	14838.66
794.543	14920.24
794.875	14849.28
795.207	14935.16
795.539	14788.5
795.871	14743.07
796.203	14641.61
796.535	14542.4
796.867	14535.62
797.198	14453.81
797.53	14574.26
797.862	14413.82
798.193	14390.09
798.525	14361.84
798.856	14369.98
799.188	14168.4
799.519	14128.63
799.85	14066.25
800.182	14045.46
800.513	14063.32
800.844	13910.78
801.175	14004.34
801.506	13921.85
801.837	13854.06
802.168	13787.84
802.499	13806.83
802.83	13706.04
803.161	13622.2
803.491	13668.07
803.822	13602.09
804.153	13548.98
804.483	13453.39
804.814	13400.06
805.145	13398.25
805.475	13326.61
805.805	13266.95
806.136	13366.39
806.466	13217.46
806.796	13296.78
807.126	13115.54
807.457	13160.29
807.787	13145.15
808.117	13142.21
808.447	13059.95
808.777	13088.43
809.107	12946.74
809.436	12956.91
809.766	12992.84
810.096	12891.14
810.426	12859.51
810.755	12805.95
811.085	12843.46
811.414	12776.57
811.744	12687.53
812.073	12661.77
812.403	12680.53
812.732	12555.79
813.061	12568.89
813.39	12473.98
813.719	12466.75
814.049	12499.97
814.378	12458.39
814.707	12484.38
815.036	12429.24
815.365	12312.4
815.693	12166.87
816.022	12259.75
816.351	12222.24
816.68	12129.81
817.008	12222.24
817.337	11989.7
817.665	12031.96
817.994	12053.2
818.322	11992.18
818.651	11989.92
818.979	11865.41
819.307	12011.39
819.636	11964.16
819.964	11881.45
820.292	11904.5
820.62	11908.35
820.948	11781.34
821.276	11924.39
821.604	11857.05
821.932	11855.01
822.259	11800.1
822.587	11802.59
822.915	11846.65
823.243	11766.43
823.57	11762.59
823.898	11785.41
824.225	11765.98
824.553	11725.07
824.88	11706.54
825.207	11793.09
825.535	11654.11
825.862	11798.07
826.189	11735.02
826.516	11794.68
826.843	11830.61
827.17	11795.13
827.497	11822.25
827.824	11757.16
828.151	11798.74
828.478	11815.24
828.805	11850.27
829.131	11763.26
829.458	11721.68
829.785	11620.22
830.111	11732.3
830.438	11754
830.764	11748.58
831.09	11729.14
831.417	11680.1
831.743	11749.25
832.069	11687.11
832.395	11660.67
832.722	11654.34
833.048	11584.51
833.374	11617.51
833.7	11549.03
834.026	11636.26
834.351	11597.84
834.677	11602.36
835.003	11571.4
835.329	11532.76
835.654	11536.6
835.98	11492.08
836.306	11551.07
836.631	11495.7
836.956	11502.48
837.282	11512.65
837.607	11449.83
837.932	11403.5
838.258	11355.14
838.583	11434.91
838.908	11386.55
839.233	11303.62
839.558	11279.21
839.883	11286.44
840.208	11299.1
840.533	11277.18
840.858	11260.23
841.182	11249.15
841.507	11245.54
841.832	11230.85
842.156	11101.36
842.481	11113.79
842.805	11152.43
843.13	11072.89
843.454	11059.33
843.778	10970.29
844.103	11030.18
844.427	10995.37
844.751	10897.07
845.075	10932.1
845.399	10876.73
845.723	10827.24
846.047	10878.09
846.371	10782.5
846.695	10739.79
847.019	10688.26
847.343	10610.75
847.666	10526.01
847.99	10540.25
848.313	10544.99
848.637	10478.78
848.96	10456.18
849.284	10453.02
849.607	10324.43
849.931	10327.6
850.254	10212.57
850.577	10181.16
850.9	10190.42
851.223	10143.19
851.546	10100.71
851.869	9972.58
852.192	9988.85
852.515	10023.42
852.838	9891.9
853.161	9990.43
853.483	9897.32
853.806	9832.24
854.129	9849.19
854.451	9775.52
854.774	9704.56
855.096	9735.97
855.419	9723.32
855.741	9649.2
856.063	9578.46
856.385	9612.13
856.708	9573.27
857.03	9527.16
857.352	9486.26
857.674	9498.01
857.996	9471.57
858.318	9448.07
858.64	9400.84
858.961	9409.43
859.283	9313.84
859.605	9242.65
859.926	9297.11
860.248	9257.79
860.57	9328.53
860.891	9257.57
861.212	9181.86
861.534	9161.52
861.855	9204.46
862.176	9214.86
862.498	9143.45
862.819	9121.75
863.14	9087.4
863.461	9028.87
863.782	8996.33
864.103	8972.6
864.424	8996.11
864.745	9043.11
865.065	8922.21
865.386	8895.32
865.707	8898.71
866.027	8927.86
866.348	8915.88
866.668	8905.49
866.989	8846.96
867.309	8797.01
867.63	8825.04
867.95	8813.51
868.27	8738.26
868.59	8748.43
868.91	8770.12
869.23	8726.96
869.55	8777.58
869.87	8738.26
870.19	8689.45
870.51	8686.06
870.83	8698.71
871.15	8621.65
871.469	8658.04
871.789	8707.75
872.109	8667.98
872.428	8607.64
872.748	8638.6
873.067	8675.66
873.386	8625.04
873.706	8570.58
874.025	8506.4
874.344	8498.27
874.663	8496.46
874.982	8500.98
875.301	8478.38
875.62	8440.19
875.939	8459.85
876.258	8440.41
876.577	8387.76
876.896	8423.01
877.214	8395.67
877.533	8366.97
877.852	8429.34
878.17	8381.21
878.489	8374.88
878.807	8280.42
879.125	8298.27
879.444	8281.55
879.762	8290.36
880.08	8289.91
880.398	8205.17
880.716	8258.05
881.034	8211.95
881.352	8197.93
881.67	8180.53
881.988	8199.97
882.306	8132.17
882.624	8171.27
882.941	8100.08
883.259	8067.09
883.577	8085.62
883.894	8047.88
884.212	7998.84
884.529	8079.29
884.846	8015.11
885.164	8023.25
885.481	7962.46
885.798	7990.03
886.115	7943.93
886.432	7980.99
886.75	7877.72
887.067	7853.99
887.383	7913.42
887.7	7801.11
888.017	7864.38
888.334	7843.37
888.651	7776.25
888.967	7776.7
889.284	7739.19
889.6	7663.26
889.917	7669.81
890.233	7741.22
890.55	7622.58
890.866	7635.24
891.182	7589.36
891.498	7653.99
891.815	7524.51
892.131	7544.62
892.447	7491.06
892.763	7417.84
893.079	7449.03
893.395	7432.08
893.71	7394.34
894.026	7388.69
894.342	7372.19
894.657	7344.62
894.973	7326.77
895.289	7321.8
895.604	7259.43
895.92	7222.37
896.235	7181.01
896.55	7136.49
896.865	7152.09
897.181	7166.55
897.496	7172.2
897.811	7089.71
898.126	7038.42
898.441	7038.64
898.756	7068.25
899.071	6971.98
899.386	7006.1
899.7	6964.75
900.015	6884.07
900.33	6857.4
900.644	6865.31
900.959	6905.76
901.273	6842.04
901.588	6814.69
901.902	6753.68
902.216	6787.8
902.531	6750.29
902.845	6704.41
903.159	6680.69
903.473	6617.64
903.787	6628.26
904.101	6606.79
904.415	6589.61
904.729	6499.22
905.042	6559.11
905.356	6545.55
905.67	6493.12
905.984	6477.53
906.297	6418.32
906.611	6422.39
906.924	6406.34
907.237	6410.64
907.551	6393.91
907.864	6306.68
908.177	6297.19
908.491	6283.18
908.804	6278.89
909.117	6189.17
909.43	6212.45
909.743	6154.82
910.056	6147.59
910.368	6130.64
910.681	6120.25
910.994	6080.93
911.307	6096.07
911.619	5982.85
911.932	6061.95
912.244	6030.31
912.557	6008.16
912.869	5962.06
913.181	5942.63
913.494	5883.42
913.806	5868.5
914.118	5856.98
914.43	5821.73
914.742	5813.36
915.054	5747.15
915.366	5740.37
915.678	5736.98
915.99	5723.65
916.302	5677.32
916.613	5640.71
916.925	5657.66
917.236	5577.66
917.548	5601.39
917.859	5605.46
918.171	5571.56
918.482	5503.09
918.794	5473.71
919.105	5468.06
919.416	5422.64
919.727	5406.82
920.038	5371.57
920.349	5385.13
920.66	5323.66
920.971	5372.7
921.282	5353.26
921.593	5294.28
921.903	5290.67
922.214	5303.77
922.525	5275.75
922.835	5232.36
923.146	5141.29
923.456	5207.05
923.767	5167.73
924.077	5163.44
924.387	5072.37
924.697	5115.53
925.008	5064.91
925.318	5071.69
925.628	5044.57
925.938	5017.68
926.248	4995.08
926.558	4961.18
926.867	4941.52
927.177	4926.83
927.487	4902.43
927.796	4848.87
928.106	4833.5
928.416	4816.55
928.725	4816.33
929.034	4822.2
929.344	4778.14
929.653	4777.69
929.962	4791.47
930.271	4702.21
930.581	4678.25
930.89	4744.24
931.199	4655.2
931.508	4667.63
931.817	4636.22
932.125	4597.58
932.434	4568.43
932.743	4589.44
933.051	4565.04
933.36	4535.66
933.669	4504.47
933.977	4502.44
934.286	4492.49
934.594	4467.18
934.902	4432.61
935.21	4432.84
935.519	4432.84
935.827	4360.07
936.135	4347.87
936.443	4322.78
936.751	4283.69
937.059	4297.7
937.367	4265.61
937.674	4260.86
937.982	4238.49
938.29	4219.73
938.597	4254.31
938.905	4184.93
939.213	4169.11
939.52	4109.45
939.827	4142.22
940.135	4125.72
940.442	4109.23
940.749	4102.67
941.056	4121.66
941.363	4023.13
941.67	4039.4
941.977	4040.08
942.284	3975.45
942.591	4019.51
942.898	3957.82
943.205	3981.55
943.511	3963.24
943.818	3895.45
944.125	3899.29
944.431	3908.33
944.738	3870.59
945.044	3850.93
945.35	3885.28
945.657	3859.07
945.963	3810.93
946.269	3790.37
946.575	3789.91
946.881	3784.26
947.187	3759.63
947.493	3751.95
947.799	3756.7
948.105	3667.43
948.41	3668.56
948.716	3686.41
949.022	3672.86
949.327	3628.34
949.633	3594.44
949.938	3621.33
950.244	3637.6
950.549	3563.71
950.854	3587.21
951.16	3561.67
951.465	3551.05
951.77	3494.1
952.075	3493.65
952.38	3499.3
952.685	3509.7
952.99	3450.26
953.294	3470.6
953.599	3425.4
953.904	3400.09
954.209	3371.62
954.513	3420.43
954.818	3372.52
955.122	3365.07
955.426	3335.69
955.731	3329.14
956.035	3307.89
956.339	3336.59
956.643	3302.47
956.948	3264.28
957.252	3269.93
957.556	3248.01
957.86	3251.85
958.163	3263.15
958.467	3222.47
958.771	3199.2
959.075	3193.32
959.378	3193.32
959.682	3166.43
959.985	3121.46
960.289	3120.1
960.592	3107.22
960.896	3115.36
961.199	3062.93
961.502	3079.2
961.805	3079.42
962.108	3073.1
962.411	3037.17
962.714	3068.13
963.017	3002.82
963.32	3053.44
963.623	2995.36
963.926	2974.12
964.228	2963.27
964.531	2961.46
964.833	2930.5
965.136	2909.49
965.438	2912.65
965.741	2872.88
966.043	2866.1
966.345	2865.64
966.648	2878.98
966.95	2864.52
967.252	2871.75
967.554	2856.61
967.856	2820.9
968.158	2801.24
968.46	2767.12
968.761	2772.54
969.063	2783.61
969.365	2751.98
969.666	2768.92
969.968	2724.86
970.269	2737.51
970.571	2730.06
970.872	2710.17
971.174	2686.44
971.475	2666.33
971.776	2682.37
972.077	2656.16
972.378	2618.87
972.679	2605.09
972.98	2598.76
973.281	2624.75
973.582	2601.7
973.883	2569.16
974.183	2596.73
974.484	2534.35
974.785	2548.59
975.085	2568.93
975.386	2535.94
975.686	2521.47
975.986	2537.97
976.287	2486.67
976.587	2530.96
976.887	2505.65
977.187	2477.18
977.487	2427.24
977.787	2462.27
978.087	2461.36
978.387	2426.33
978.687	2398.99
978.987	2375.04
979.286	2375.49
979.586	2370.97
979.885	2412.55
980.185	2373.45
980.484	2352.66
980.784	2382.72
981.083	2380.91
981.382	2307.47
981.682	2290.74
981.981	2327.35
982.28	2314.02
982.579	2282.61
982.878	2283.74
983.177	2283.74
983.475	2269.05
983.774	2256.62
984.073	2241.48
984.372	2219.56
984.67	2235.38
984.969	2238.99
985.267	2227.24
985.566	2188.37
985.864	2170.97
986.162	2167.13
986.461	2132.78
986.759	2130.3
987.057	2120.81
987.355	2134.59
987.653	2128.04
987.951	2111.54
988.249	2056.63
988.547	2113.12
988.844	2054.37
989.142	2101.6
989.44	2074.71
989.737	2046.46
990.035	2050.98
990.332	2012.11
990.63	2025.89
990.927	2047.59
991.224	2022.05
991.521	2001.03
991.819	2008.04
992.116	2013.01
992.413	1977.53
992.71	1979.11
993.006	1959.23
993.303	1936.18
993.6	1967.14
993.897	1941.6
994.193	1951.54
994.49	1906.12
994.787	1903.41
995.083	1894.15
995.379	1890.3
995.676	1861.83
995.972	1877.87
996.268	1843.3
996.565	1848.95
996.861	1830.19
997.157	1850.08
997.453	1835.16
997.749	1817.31
998.044	1812.34
998.34	1821.6
998.636	1796.97
998.932	1754.49
999.227	1747.26
999.523	1752.23
999.818	1756.97
1000.114	1723.53
1000.409	1735.96
1000.704	1722.85
1001	1707.48
1001.295	1751.55
1001.59	1721.95
1001.885	1715.62
1002.18	1686.69
1002.475	1710.65
1002.77	1692.12
1003.065	1671.1
1003.359	1676.07
1003.654	1670.42
1003.949	1639.01
1004.243	1617.32
1004.538	1627.71
1004.832	1640.14
1005.127	1604.89
1005.421	1613.93
1005.715	1615.06
1006.009	1596.75
1006.304	1547.71
1006.598	1549.52
1006.892	1565.57
1007.186	1563.08
1007.48	1517.43
1007.773	1563.98
1008.067	1540.26
1008.361	1524.89
1008.655	1504.78
1008.948	1513.59
1009.242	1486.92
1009.535	1501.16
1009.829	1449.19
1010.122	1454.38
1010.415	1440.82
1010.708	1460.26
1011.001	1429.75
1011.295	1434.27
1011.588	1431.56
1011.881	1416.64
1012.173	1420.71
1012.466	1423.65
1012.759	1406.7
1013.052	1394.27
1013.344	1386.59
1013.637	1382.52
1013.93	1354.5
1014.222	1356.53
1014.514	1349.75
1014.807	1350.66
1015.099	1335.06
1015.391	1319.24
1015.683	1321.96
1015.976	1313.82
1016.268	1299.13
1016.56	1317.89
1016.851	1304.56
1017.143	1267.95
1017.435	1281.05
1017.727	1295.06
1018.018	1275.63
1018.31	1261.39
1018.602	1247.83
1018.893	1241.73
1019.185	1242.41
1019.476	1229.08
1019.767	1227.95
1020.058	1220.49
1020.35	1218.46
1020.641	1208.74
1020.932	1195.63
1021.223	1179.36
1021.514	1158.12
1021.804	1184.33
1022.095	1174.84
1022.386	1157.89
1022.677	1140.04
1022.967	1151.11
1023.258	1120.15
1023.548	1110.89
1023.839	1119.7
1024.129	1109.98
1024.419	1081.51
1024.709	1102.98
1025	1092.13
1025.29	1095.97
1025.58	1057.56
1025.87	1065.47
1026.16	1066.82
1026.449	1065.47
1026.739	1048.29
1027.029	1063.21
1027.319	1041.29
1027.608	1074.51
1027.898	1005.58
1028.187	1034.05
1028.477	1010.55
1028.766	1011.23
1029.055	993.83
1029.344	990.44
1029.634	990.44
1029.923	977.33
1030.212	991.34
1030.501	985.02
1030.79	982.98
1031.078	965.81
1031.367	971.46
1031.656	948.63
1031.945	920.39
1032.233	940.05
1032.522	939.37
1032.81	943.89
1033.099	931.46
1033.387	934.17
1033.675	929.88
1033.963	893.04
1034.251	912.7
1034.54	896.66
1034.828	877.45
1035.116	870.67
1035.403	890.33
1035.691	870.22
1035.979	866.38
1036.267	852.14
1036.554	861.86
1036.842	843.78
1037.129	826.38
1037.417	853.95
1037.704	821.18
1037.992	846.94
1038.279	826.38
1038.566	835.87
1038.853	835.87
1039.14	835.87
