Data from White_reflection_standard_FLMS001491_019.txt Node
Date: Tue Feb 07 10:31:59 GMT 2017
User: dcchb
Spectrometer: FLMS00149
Trigger mode: 0
Integration Time (sec): 2.000000E-2
Scans to average: 10
Electric dark correction enabled: true
Nonlinearity correction enabled: false
Boxcar width: 0
XAxis mode: Wavelengths
Number of Pixels in Spectrum: 2048
>>>>>Begin Spectral Data<<<<<
341.393	-33.66
341.776	-33.66
342.16	-33.66
342.543	-58.97
342.927	-66.2
343.31	-74.79
343.693	-72.98
344.077	-43.83
344.46	-62.81
344.843	-46.31
345.226	-31.4
345.61	-41.34
345.993	-10.38
346.376	-3.6
346.759	10.64
347.142	38.21
347.525	47.92
347.908	59.45
348.291	52.89
348.674	71.2
349.057	107.13
349.44	137.64
349.823	123.63
350.206	167.92
350.588	249.05
350.971	267.8
351.354	272.55
351.737	291.31
352.119	300.8
352.502	313.23
352.884	312.32
353.267	308.93
353.65	349.84
354.032	349.84
354.414	365.65
354.797	372.89
355.179	365.88
355.562	368.82
355.944	369.95
356.326	388.03
356.709	391.42
357.091	406.78
357.473	409.04
357.855	414.47
358.238	399.33
358.62	398.2
359.002	409.95
359.384	421.47
359.766	413.11
360.148	423.05
360.53	414.69
360.912	397.07
361.294	393.22
361.676	412.43
362.057	398.87
362.439	377.18
362.821	393.68
363.203	421.47
363.584	419.89
363.966	412.43
364.348	408.59
364.729	404.75
365.111	425.99
365.493	402.26
365.874	401.81
366.256	414.69
366.637	398.65
367.019	401.59
367.4	401.13
367.781	411.08
368.163	404.3
368.544	429.16
368.925	420.12
369.306	423.05
369.688	426.9
370.069	426.44
370.45	425.54
370.831	409.49
371.212	449.27
371.593	449.49
371.974	448.36
372.355	447.46
372.736	439.32
373.117	472.77
373.498	448.14
373.879	453.56
374.26	439.32
374.641	421.47
375.021	444.97
375.402	440.68
375.783	466.67
376.163	494.01
376.544	500.57
376.925	487.01
377.305	474.35
377.686	468.7
378.066	504.63
378.447	502.83
378.827	516.16
379.208	497.63
379.588	522.03
379.968	538.08
380.349	521.36
380.729	513.67
381.109	561.36
381.489	563.84
381.87	544.63
382.25	533.79
382.63	548.47
383.01	562.94
383.39	567
383.77	586.44
384.15	575.59
384.53	611.98
384.91	600.22
385.29	575.59
385.67	609.26
386.049	622.37
386.429	631.18
386.809	620.79
387.189	611.75
387.568	645.87
387.948	634.57
388.328	647.68
388.707	665.76
389.087	659.88
389.466	668.02
389.846	692.65
390.225	673.44
390.605	701.69
390.984	714.35
391.363	696.04
391.743	713.67
392.122	732.42
392.501	716.61
392.881	743.05
393.26	753.89
393.639	745.53
394.018	747.34
394.397	770.39
394.776	782.59
395.155	781.46
395.534	783.27
395.913	811.29
396.292	818.98
396.671	809.94
397.05	843.61
397.429	856.26
397.808	841.8
398.186	844.74
398.565	840.9
398.944	884.06
399.323	862.59
399.701	889.26
400.08	930.61
400.458	879.77
400.837	907.56
401.215	927.22
401.594	932.87
401.972	933.55
402.351	955.02
402.729	959.08
403.107	952.53
403.486	967.67
403.864	983.49
404.242	1016.48
404.62	1029.82
404.999	1048.35
405.377	1065.3
405.755	1040.44
406.133	1058.52
406.511	1099.19
406.889	1088.12
407.267	1103.26
407.645	1118.63
408.023	1123.83
408.401	1182.13
408.779	1166.76
409.156	1192.75
409.534	1198.17
409.912	1213.54
410.29	1227.55
410.667	1256.48
411.045	1258.06
411.422	1307.32
411.8	1300.54
412.178	1301.45
412.555	1355.91
412.933	1345.52
413.31	1385.29
413.687	1395.91
414.065	1398.85
414.442	1442.24
414.819	1463.7
415.197	1474.78
415.574	1445.17
415.951	1496.7
416.328	1508
416.705	1531.27
417.082	1553.87
417.46	1550.26
417.837	1565.62
418.214	1604.94
418.591	1610.59
418.967	1639.52
419.344	1650.59
419.721	1637.49
420.098	1656.02
420.475	1714.55
420.852	1713.87
421.228	1728.78
421.605	1742.34
421.982	1773.07
422.358	1768.78
422.735	1816.24
423.111	1816.69
423.488	1819.85
423.864	1858.5
424.241	1848.33
424.617	1889.23
424.994	1941.21
425.37	1944.37
425.746	1951.15
426.123	2007.87
426.499	1992.5
426.875	2028.44
427.251	2055.55
427.627	2099.62
428.003	2120.64
428.379	2154.08
428.756	2182.56
429.132	2195.44
429.507	2215.32
429.883	2275.21
430.259	2333.29
430.635	2339.84
431.011	2340.29
431.387	2440.18
431.763	2439.95
432.138	2428.88
432.514	2502.77
432.89	2474.98
433.265	2548.87
433.641	2626.39
434.016	2619.83
434.392	2692.82
434.767	2745.7
435.143	2723.78
435.518	2768.75
435.894	2776.21
436.269	2851.24
436.644	2874.29
437.02	2896.21
437.395	2876.77
437.77	2950.9
438.145	2989.09
438.52	3042.42
438.895	3076.09
439.271	3045.58
439.646	3175.98
440.021	3150.21
440.395	3184.79
440.77	3177.33
441.145	3231.12
441.52	3292.58
441.895	3300.72
442.27	3324.67
442.645	3308.85
443.019	3375.97
443.394	3362.86
443.769	3394.95
444.143	3405.12
444.518	3476.31
444.892	3469.3
445.267	3494.16
445.641	3536.19
446.016	3568.28
446.39	3563.76
446.764	3567.83
447.139	3615.06
447.513	3678.34
447.887	3670.88
448.262	3669.75
448.636	3698.67
449.01	3786.36
449.384	3787.71
449.758	3852.57
450.132	3868.16
450.506	3895.73
450.88	3914.71
451.254	3903.64
451.628	4020.7
452.002	4060.47
452.376	4094.82
452.75	4109.51
453.123	4222.28
453.497	4272.67
453.871	4258.89
454.244	4402.84
454.618	4410.52
454.992	4469.73
455.365	4455.49
455.739	4581.14
456.112	4598.54
456.486	4687.12
456.859	4683.51
457.232	4838.3
457.606	4834.01
457.979	4869.94
458.352	5006.21
458.725	5067.23
459.099	5080.56
459.472	5170.95
459.845	5255.02
460.218	5302.02
460.591	5316.26
460.964	5359.87
461.337	5484.84
461.71	5552.86
462.083	5645.52
462.456	5670.83
462.829	5671.96
463.201	5829.92
463.574	5788.79
463.947	5937.94
464.32	6041.21
464.692	6076.69
465.065	6120.98
465.438	6189.68
465.81	6325.95
466.183	6386.29
466.555	6511.48
466.928	6530.69
467.3	6602.55
467.672	6714.87
468.045	6864.92
468.417	6885.03
468.789	6948.53
469.161	7046.83
469.534	7195.76
469.906	7311.46
470.278	7321.63
470.65	7447.5
471.022	7608.85
471.394	7782.63
471.766	7824.22
472.138	7906.7
472.51	8129.52
472.882	8235.5
473.253	8296.52
473.625	8450.87
473.997	8644.76
474.369	8681.59
474.74	8787.81
475.112	8931.08
475.484	9096.27
475.855	9242.93
476.227	9338.53
476.598	9630.72
476.97	9698.52
477.341	9919.75
477.713	10043.14
478.084	10123.36
478.455	10437.93
478.827	10459.63
479.198	10797.7
479.569	10841.99
479.94	11168.53
480.311	11221.64
480.682	11442.88
481.053	11737.33
481.424	11895.75
481.795	11988.63
482.166	12219.81
482.537	12452.79
482.908	12707.02
483.279	12780.7
483.65	13041.03
484.021	13231.08
484.391	13417.06
484.762	13574.35
485.133	13748.58
485.503	13894.11
485.874	14123.94
486.244	14429.24
486.615	14657.26
486.985	14788.33
487.356	15025.83
487.726	15259.5
488.097	15559.83
488.467	15482.77
488.837	15950.33
489.207	16106.71
489.578	16301.51
489.948	16583.08
490.318	16649.52
490.688	16738.56
491.058	17125.44
491.428	17385.09
491.798	17480.23
492.168	17771.3
492.538	17870.05
492.908	18038.18
493.278	18326.09
493.648	18301.91
494.017	18575.12
494.387	18728.34
494.757	18853.3
495.126	19081.32
495.496	19155.89
495.866	19402.44
496.235	19594.75
496.605	19837.91
496.974	19811.02
497.344	20072.93
497.713	20176.66
498.082	20344.11
498.452	20556.54
498.821	20668.62
499.19	20730.99
499.559	20986.13
499.928	21092.11
500.298	21220.02
500.667	21427.93
501.036	21556.06
501.405	21685.77
501.774	21709.27
502.143	21970.28
502.512	22127.57
502.88	22313.78
503.249	22444.4
503.618	22524.39
503.987	22572.3
504.356	22806.42
504.724	22973.65
505.093	23033.76
505.462	23236.24
505.83	23475.1
506.199	23565.04
506.567	23942.66
506.936	23908.09
507.304	24254.52
507.672	24253.84
508.041	24401.86
508.409	24517.11
508.777	24726.6
509.145	24999.58
509.514	24990.54
509.882	25296.98
510.25	25333.59
510.618	25585.33
510.986	25768.38
511.354	25895.15
511.722	26101.25
512.09	26536.94
512.458	26403.61
512.826	26655.81
513.193	26811.29
513.561	26910.72
513.929	27108.91
514.297	27454.21
514.664	27550.25
515.032	27663.69
515.4	27999.73
515.767	28132.16
516.135	28317.91
516.502	28168.09
516.869	28654.85
517.237	29007.61
517.604	28847.17
517.972	29071.11
518.339	29392.91
518.706	29544.77
519.073	29650.08
519.44	29905.67
519.808	30280.8
520.175	30303.85
520.542	30658.42
520.909	30824.74
521.276	30872.2
521.643	31249.14
522.009	31525.96
522.376	31612.74
522.743	31939.29
523.11	32311.48
523.477	32530.91
523.843	32654.97
524.21	33013.84
524.577	33269.65
524.943	33309.87
525.31	33611.11
525.676	33915.96
526.043	34216.74
526.409	34287.47
526.776	34640.91
527.142	34754.13
527.508	35084.29
527.874	35220.78
528.241	35557.95
528.607	35627.1
528.973	36059.18
529.339	36090.82
529.705	36401.09
530.071	36572.61
530.437	36818.93
530.803	36985.03
531.169	37234.97
531.535	37229.32
531.901	37458.46
532.267	37598.8
532.632	37944.78
532.998	37934.61
533.364	38125.57
533.73	38340.02
534.095	38514.26
534.461	38737.98
534.826	38944.3
535.192	39080.79
535.557	39446.43
535.923	39252.09
536.288	39648.24
536.653	39751.96
537.019	39684.17
537.384	39876.71
537.749	40125.96
538.114	40193.99
538.479	40375.68
538.845	40573.64
539.21	40448.22
539.575	40745.38
539.94	40805.72
540.305	41106.5
540.67	41117.35
541.034	41290.23
541.399	41571.8
541.764	41587.17
542.129	41763.44
542.494	41909.19
542.858	41990.1
543.223	41928.4
543.587	42382.63
543.952	42287.04
544.316	42611.78
544.681	42517.99
545.045	42686.58
545.41	42880.69
545.774	42947.59
546.138	43090.63
546.503	43252.89
546.867	43298.76
547.231	43770.16
547.595	43848.58
547.959	43947.79
548.324	43997.05
548.688	44109.36
549.052	44084.96
549.416	44293.54
549.779	44333.31
550.143	44599.29
550.507	44900.08
550.871	44891.49
551.235	45011.03
551.599	45266.17
551.962	45425.94
552.326	45524.01
552.689	45786.83
553.053	45646.95
553.417	45754.07
553.78	46184.11
554.143	46209.65
554.507	46459.36
554.87	46552.69
555.234	46856.18
555.597	46658.45
555.96	46981.15
556.323	46992.9
556.686	47194.03
557.05	47528.71
557.413	47609.84
557.776	47662.04
558.139	47983.16
558.502	48090.28
558.865	48164.85
559.228	48518.29
559.59	48443.71
559.953	48685.74
560.316	49062
560.679	48995.11
561.041	49284.82
561.404	49405.49
561.767	49731.36
562.129	49507.19
562.492	49995.99
562.854	49914.18
563.217	49935.42
563.579	50238.24
563.941	50405.24
564.304	50474.17
564.666	50718.45
565.028	50828.51
565.39	50879.35
565.753	51043.64
566.115	51258.33
566.477	51339
566.839	51556.17
567.201	51749.84
567.563	51720.01
567.925	51968.82
568.287	52029.61
568.648	52079.32
569.01	52231.86
569.372	52375.36
569.734	52327
570.095	52635.24
570.457	52564.96
570.819	52828.91
571.18	52821.22
571.542	52955.23
571.903	52976.7
572.265	53187.54
572.626	53234.32
572.987	53250.59
573.349	53422.79
573.71	53442.22
574.071	53517.48
574.432	53700.07
574.794	53892.61
575.155	53837.69
575.516	53800.86
575.877	53939.61
576.238	54001.53
576.599	54066.16
576.96	54117.24
577.32	54142.55
577.681	54315.65
578.042	54310
578.403	54344.35
578.763	54392.26
579.124	54383.22
579.485	54461.41
579.845	54588.18
580.206	54456.89
580.566	54578.01
580.927	54617.11
581.287	54744.79
581.648	54633.83
582.008	54730.78
582.368	54625.02
582.728	54720.38
583.089	54670.22
583.449	54731.91
583.809	54721.06
584.169	54771
584.529	54796.54
584.889	54940.72
585.249	54690.33
585.609	54704.79
585.969	54865.46
586.329	54822.08
586.688	54860.49
587.048	54817.78
587.408	54729.2
587.768	54842.41
588.127	54776.65
588.487	54762.19
588.846	54904.11
589.206	54703.89
589.565	54765.58
589.925	54879.02
590.284	54800.16
590.643	54828.85
591.003	54911.79
591.362	55021.84
591.721	54942.3
592.08	54847.16
592.44	55025.69
592.799	54980.04
593.158	54941.85
593.517	55029.75
593.876	54955.41
594.235	54973.03
594.593	54922.41
594.952	55056.19
595.311	54902.53
595.67	55051.45
596.029	55169.86
596.387	55191.56
596.746	55174.61
597.104	55093.03
597.463	55076.53
597.822	55211.67
598.18	55064.55
598.538	55098.45
598.897	55278.56
599.255	55058.91
599.613	55441.04
599.972	55250.31
600.33	55312.01
600.688	55242.86
601.046	55389.29
601.404	55449.18
601.762	55394.26
602.12	55521.49
602.478	55509.52
602.836	55494.37
603.194	55388.16
603.552	55447.6
603.91	55333.7
604.268	55545.67
604.625	55442.17
604.983	55595.61
605.341	55454.83
605.698	55639.91
606.056	55603.3
606.413	55598.1
606.771	55693.69
607.128	55772.56
607.485	55607.82
607.843	55636.07
608.2	55805.78
608.557	55904.53
608.914	55771.2
609.272	55956.96
609.629	55918.77
609.986	56023.85
610.343	55885.1
610.7	56133.68
611.057	55989.73
611.414	56011.87
611.771	56076.73
612.127	56158.99
612.484	56123.96
612.841	56223.17
613.198	56170.97
613.554	56162.15
613.911	56245.09
614.267	56267.24
614.624	56202.6
614.98	56357.85
615.337	56416.61
615.693	56354.69
616.05	56338.42
616.406	56502.48
616.762	56449.83
617.118	56364.18
617.475	56398.53
617.831	56452.09
618.187	56466.55
618.543	56478.08
618.899	56617.73
619.255	56565.31
619.611	56556.04
619.967	56656.6
620.323	56706.55
620.678	56562.82
621.034	56485.31
621.39	56562.59
621.746	56490.73
622.101	56727.79
622.457	56535.48
622.812	56581.13
623.168	56675.13
623.523	56663.38
623.879	56719.65
624.234	56491.41
624.589	56638.52
624.945	56659.99
625.3	56707.9
625.655	56646.43
626.01	56677.39
626.365	56656.83
626.72	56558.08
627.075	56601.46
627.43	56581.13
627.785	56495.03
628.14	56559.88
628.495	56629.71
628.85	56597.62
629.205	56412.09
629.559	56590.62
629.914	56422.03
630.269	56518.98
630.623	56389.72
630.978	56352.88
631.332	56481.92
631.687	56490.73
632.041	56311.3
632.396	56451.64
632.75	56349.94
633.104	56380.23
633.459	56224.98
633.813	56217.74
634.167	56152.44
634.521	56166.22
634.875	56222.94
635.229	56087.13
635.583	55945.66
635.937	56035.38
636.291	56012.1
636.645	55981.59
636.999	55865.89
637.352	55996.73
637.706	55771.2
638.06	55890.97
638.413	55751.32
638.767	55752.9
639.121	55738.44
639.474	55632.9
639.828	55607.37
640.181	55670.64
640.534	55690.3
640.888	55538.44
641.241	55415.05
641.594	55427.26
641.947	55559.46
642.301	55481.72
642.654	55452.57
643.007	55350.42
643.36	55361.5
643.713	55347.94
644.066	55437.88
644.419	55204.89
644.771	54930.77
645.124	54786.6
645.477	54692.81
645.83	54564.46
646.182	54414.63
646.535	54255.76
646.888	54314.07
647.24	54236.55
647.593	54318.36
647.945	54274.52
648.298	54099.61
648.65	54132.38
649.002	53961.08
649.355	54064.36
649.707	54060.06
650.059	54133.73
650.411	54519.48
650.763	54498.47
651.115	54848.97
651.467	54637.22
651.819	54642.19
652.171	54611.91
652.523	54440.39
652.875	54565.59
653.227	54388.41
653.578	54526.49
653.93	54493.72
654.282	54329.21
654.633	54272.71
654.985	54373.95
655.337	54267.97
655.688	54277.46
656.039	54254.18
656.391	54091.7
656.742	54060.97
657.094	54185.93
657.445	54182.77
657.796	54043.56
658.147	54081.08
658.498	54018.25
658.849	54104.35
659.2	54077.69
659.551	53921.08
659.902	54030.68
660.253	53963.34
660.604	54008.54
660.955	53941.19
661.306	54028.42
661.656	53862.33
662.007	53854.64
662.358	53872.04
662.708	53836.11
663.059	53849.45
663.409	53670.47
663.76	53813.51
664.11	53818.03
664.461	53837.47
664.811	53725.83
665.161	53787.98
665.511	53667.76
665.862	53697.81
666.212	53807.19
666.562	53759.96
666.912	53600.41
667.262	53700.52
667.612	53587.08
667.962	53703.23
668.312	53540.75
668.662	53726.29
669.011	53612.84
669.361	53499.17
669.711	53485.61
670.06	53400.42
670.41	53445.61
670.76	53348.67
671.109	53470.02
671.459	53325.84
671.808	53248.33
672.157	53392.96
672.507	53196.58
672.856	53212.17
673.205	53235.22
673.554	53244.94
673.904	53193.19
674.253	53299.63
674.602	53168.79
674.951	52757.27
675.3	52569.48
675.649	53050.37
675.998	53039.52
676.346	53011.28
676.695	53196.13
677.044	52838.62
677.393	52965.85
677.741	53023.48
678.09	52887.21
678.438	52791.62
678.787	52839.98
679.135	52868.91
679.484	52671.4
679.832	52736.25
680.181	52571.06
680.529	52648.8
680.877	52585.98
681.225	52562.93
681.573	52622.13
681.922	52440.67
682.27	52318.64
682.618	52334.46
682.966	52236.38
683.314	52340.11
683.661	52247.68
684.009	52101.7
684.357	52009.95
684.705	51975.14
685.053	51969.72
685.4	51912.55
685.748	51737.41
686.095	51753.68
686.443	51555.49
686.79	51539
687.138	51586.23
687.485	51558.88
687.832	51445.67
688.18	51499
688.527	51247.48
688.874	51230.53
689.221	51147.37
689.568	51048.16
689.915	50898.11
690.262	50913.48
690.609	50798.9
690.956	50771.11
691.303	50653.37
691.65	50539.02
691.997	50512.58
692.344	50299.48
692.69	50253.38
693.037	50336.77
693.383	49981.3
693.73	50224.91
694.077	49843.45
694.423	49857.91
694.769	49753.73
695.116	49603.68
695.462	49556.68
695.808	49408.66
696.155	49514.87
696.501	49206.63
696.847	49258.61
697.193	48940.42
697.539	49075.33
697.885	48871.05
698.231	48785.17
698.577	48648.45
698.923	48570.94
699.269	48397.61
699.614	48364.62
699.96	48275.58
700.306	48246.66
700.651	48036.94
700.997	47967.34
701.342	47893.67
701.688	47786.78
702.033	47623.85
702.379	47624.98
702.724	47542.27
703.069	47487.58
703.415	47115.61
703.76	47137.31
704.105	47028.38
704.45	46993.81
704.795	46786.81
705.14	46608.51
705.485	46505.01
705.83	46349.53
706.175	46460.71
706.52	46427.49
706.865	46162.87
707.209	46091.23
707.554	45987.05
707.899	46064.11
708.243	45822.76
708.588	45805.59
708.932	45463
709.277	45589.78
709.621	45538.48
709.966	45383.23
710.31	45307.98
710.654	44986.4
710.998	45162.44
711.342	45141.2
711.687	44959.51
712.031	44729.23
712.375	44563.36
712.719	44634.09
713.063	44664.6
713.407	44767.2
713.75	44375.12
714.094	44428.22
714.438	44129.7
714.782	44197.72
715.125	43963.15
715.469	44049.93
715.812	43864.85
716.156	43754.34
716.499	43819.65
716.843	43696.94
717.186	43526.78
717.53	43610.17
717.873	43619.21
718.216	43406.33
718.559	43223.28
718.902	42987.13
719.246	43170.4
719.589	42821.04
719.932	42758.21
720.275	42898.1
720.617	42707.37
720.96	42711.89
721.303	42605.22
721.646	42727.7
721.989	42286.36
722.331	42502.4
722.674	42311.9
723.016	42344.21
723.359	42308.51
723.701	42325.45
724.044	41907.16
724.386	41824.45
724.729	41979.02
725.071	41833.49
725.413	41681.4
725.755	41751.23
726.097	41558.92
726.439	41362.09
726.782	41488.87
727.124	41567.96
727.465	41487.74
727.807	41180.4
728.149	41122.1
728.491	41078.71
728.833	41087.07
729.175	41018.37
729.516	40906.51
729.858	40833.29
730.199	40889.11
730.541	40776.57
730.882	40719.62
731.224	40798.26
731.565	40509.01
731.906	40596.23
732.248	40431.49
732.589	40266.3
732.93	40133.65
733.271	40150.14
733.612	40185.17
733.953	40132.74
734.294	40197.38
734.635	39899.3
734.976	40062.01
735.317	39705.64
735.658	39760.78
735.999	39690.5
736.339	39561.46
736.68	39616.6
737.021	39450.95
737.361	39332.77
737.702	39525.98
738.042	39293.9
738.383	39226.1
738.723	39407.57
739.063	39174.8
739.404	39200.57
739.744	39187.68
740.084	38926.22
740.424	38949.05
740.764	38841.03
741.104	38910.18
741.444	38734.59
741.784	38663.86
742.124	38798.09
742.464	38516.06
742.804	38446.69
743.143	38475.39
743.483	38393.81
743.823	38285.79
744.162	38154.27
744.502	38268.61
744.841	38087.83
745.181	38148.16
745.52	38067.26
745.86	38080.14
746.199	37940.03
746.538	37812.35
746.877	37984.55
747.216	37836.76
747.556	37840.6
747.895	37713.82
748.234	37392.25
748.573	37437.22
748.911	37556.54
749.25	37449.65
749.589	37213.72
749.928	37222.09
750.267	37350.9
750.605	37066.38
750.944	37102.32
751.283	36926.27
751.621	36935.09
751.96	36674.98
752.298	36699.84
752.636	36610.58
752.975	36486.29
753.313	36320.64
753.651	36343.47
753.989	36304.37
754.327	36178.95
754.666	35935.79
755.004	36102.57
755.342	36095.11
755.679	35931.72
756.017	35702.58
756.355	35742.13
756.693	35695.12
757.031	35619.42
757.368	35326.32
757.706	35397.95
758.044	35354.34
758.381	35211.52
758.719	34974.46
759.056	35149.82
759.394	34830.74
759.731	34562.95
760.068	34685.43
760.405	34559.11
760.743	34422.84
761.08	34483.85
761.417	34411.31
761.754	34157.31
762.091	34151.21
762.428	33892.91
762.765	33919.12
763.102	33963.19
763.438	33629.64
763.775	33699.24
764.112	33635.74
764.449	33685.23
764.785	33353.94
765.122	33120.5
765.458	33125.92
765.795	33130.67
766.131	32960.73
766.467	32779.72
766.804	32668.99
767.14	32565.03
767.476	32607.97
767.812	32313.51
768.148	32364.13
768.485	32139.96
768.821	32076.68
769.157	31979.29
769.492	31835.34
769.828	31802.34
770.164	31510.37
770.5	31375.23
770.836	31456.81
771.171	31142.25
771.507	31150.83
771.842	30982.48
772.178	30883.04
772.513	30905.64
772.849	30796.04
773.184	30641.24
773.519	30557.4
773.855	30473.11
774.19	30374.36
774.525	30125.78
774.86	30207.36
775.195	30033.57
775.53	29902.96
775.865	29713.58
776.2	29604.43
776.535	29418.45
776.87	29441.27
777.205	29265.91
777.539	29223.2
777.874	29191.34
778.209	28874.74
778.543	29026.14
778.878	28766.26
779.212	28782.53
779.547	28588.64
779.881	28668.64
780.215	28327.86
780.55	28460.51
780.884	28274.98
781.218	28176.9
781.552	28134.42
781.886	27936.23
782.22	27813.75
782.554	27720.64
782.888	27501.89
783.222	27332.18
783.556	27332.18
783.889	27235.23
784.223	26978.74
784.557	27012.86
784.89	27003.82
785.224	26889.93
785.557	26804.28
785.891	26668.92
786.224	26604.51
786.558	26564.06
786.891	26328.59
787.224	26289.27
787.557	26184.86
787.891	26105.09
788.224	26077.75
788.557	26121.59
788.89	25894.47
789.223	25846.57
789.556	25648.61
789.888	25602.96
790.221	25448.61
790.554	25319.57
790.887	25207.49
791.219	25225.34
791.552	25129.07
791.884	24979.24
792.217	24905.8
792.549	24761.4
792.882	24636.2
793.214	24631
793.546	24590.55
793.879	24546.71
794.211	24281.18
794.543	24379.94
794.875	24359.83
795.207	24379.94
795.539	24231.92
795.871	24185.82
796.203	23874.41
796.535	23899.05
796.867	23833.51
797.198	23629.45
797.53	23632.84
797.862	23579.28
798.193	23520.53
798.525	23400.3
798.856	23417.25
799.188	23191.04
799.519	23073.08
799.85	22982.46
800.182	22965.51
800.513	23022.46
800.844	22813.65
801.175	22829.47
801.506	22913.54
801.837	22665.86
802.168	22709.47
802.499	22471.29
802.83	22420.67
803.161	22297.51
803.491	22438.29
803.822	22315.81
804.153	22239.43
804.483	22069.72
804.814	22054.35
805.145	21926.22
805.475	21949.95
805.805	21840.34
806.136	21984.97
806.466	21853.68
806.796	21794.92
807.126	21627.69
807.457	21461.37
807.787	21577.53
808.117	21418.66
808.447	21314.48
808.777	21446.46
809.107	21329.4
809.436	21164.66
809.766	21261.38
810.096	21120.81
810.426	20986.13
810.755	21084.88
811.085	20909.07
811.414	20911.1
811.744	20710.88
812.073	20752.46
812.403	20634.27
812.732	20514.95
813.061	20592.92
813.39	20363.55
813.719	20301.63
814.049	20468.63
814.378	20326.26
814.707	20264.57
815.036	20281.29
815.365	20161.29
815.693	19943.67
816.022	19930.56
816.351	19992.26
816.68	19857.12
817.008	19909.55
817.337	19693.51
817.665	19606.05
817.994	19766.73
818.322	19596.34
818.651	19613.28
818.979	19487.41
819.307	19594.53
819.636	19548.43
819.964	19370.8
820.292	19502.1
820.62	19412.61
820.948	19399.05
821.276	19376.91
821.604	19382.56
821.932	19373.74
822.259	19305.72
822.587	19388.66
822.915	19288.77
823.243	19394.08
823.57	19380.52
823.898	19390.24
824.225	19253.75
824.553	19335.32
824.88	19224.37
825.207	19253.97
825.535	19320.41
825.862	19349.79
826.189	19206.06
826.516	19335.78
826.843	19293.07
827.17	19320.41
827.497	19343.69
827.824	19272.28
828.151	19364.93
828.478	19242.67
828.805	19333.29
829.131	19284.7
829.458	19142.11
829.785	19107.31
830.111	19169
830.438	19250.13
830.764	19190.24
831.09	19218.49
831.417	19169.23
831.743	19225.05
832.069	19123.81
832.395	18994.77
832.722	19066.86
833.048	19080.19
833.374	19161.32
833.7	18908.22
834.026	18989.8
834.351	18992.28
834.677	18957.71
835.003	19059.17
835.329	18868.22
835.654	18956.8
835.98	18851.27
836.306	18850.59
836.631	18783.7
836.956	18783.02
837.282	18895.11
837.607	18700.31
837.932	18564.5
838.258	18752.52
838.583	18650.6
838.908	18535.35
839.233	18555.01
839.558	18482.92
839.883	18432.3
840.208	18328.12
840.533	18368.34
840.858	18397.95
841.182	18298.97
841.507	18355.01
841.832	18260.32
842.156	18213.32
842.481	18264.84
842.805	18142.59
843.13	18115.02
843.454	18148.92
843.778	17946.89
844.103	18054.45
844.427	17903.27
844.751	17871.18
845.075	17844.06
845.399	17789.83
845.723	17732.66
846.047	17718.42
846.371	17644.52
846.695	17584.86
847.019	17419.44
847.343	17411.76
847.666	17301.71
847.99	17281.59
848.313	17289.05
848.637	17126.8
848.96	16997.53
849.284	17034.59
849.607	16883.19
849.931	16853.36
850.254	16643.64
850.577	16612.01
850.9	16504.21
851.223	16488.39
851.546	16434.38
851.869	16304.67
852.192	16412.24
852.515	16202.3
852.838	16160.04
853.161	16165.24
853.483	16067.84
853.806	15976.77
854.129	15982.87
854.451	15999.37
854.774	15921.86
855.096	15828.07
855.419	15692.71
855.741	15738.13
856.063	15619.04
856.385	15574.52
856.708	15580.4
857.03	15506.27
857.352	15511.24
857.674	15395.54
857.996	15401.64
858.318	15337.46
858.64	15337.69
858.961	15263.79
859.283	15173.4
859.605	15051.37
859.926	15169.11
860.248	15078.94
860.57	14952.39
860.891	14918.04
861.212	14928.89
861.534	14843.92
861.855	14925.72
862.176	14904.03
862.498	14893.63
862.819	14813.64
863.14	14778.38
863.461	14774.31
863.782	14638.05
864.103	14687.09
864.424	14656.58
864.745	14641.21
865.065	14568.22
865.386	14531.16
865.707	14570.7
866.027	14496.58
866.348	14513.3
866.668	14523.93
866.989	14453.87
867.309	14385.85
867.63	14324.38
867.95	14314.21
868.27	14279.19
868.59	14345.17
868.91	14258.85
869.23	14226.76
869.55	14123.71
869.87	14265.18
870.19	14160.77
870.51	14196.93
870.83	14209.81
871.15	14111.51
871.469	14071.96
871.789	14121.45
872.109	14089.36
872.428	13923.72
872.748	13995.35
873.067	13993.77
873.386	14051.17
873.706	13920.1
874.025	13841.01
874.344	13836.26
874.663	13921
874.982	13801.46
875.301	13831.74
875.62	13833.55
875.939	13744.74
876.258	13695.25
876.577	13614.8
876.896	13647.34
877.214	13554.23
877.533	13692.08
877.852	13595.14
878.17	13646.89
878.489	13596.94
878.807	13597.85
879.125	13475.14
879.444	13500.9
879.762	13513.11
880.08	13492.99
880.398	13341.36
880.716	13460.9
881.034	13318.76
881.352	13363.28
881.67	13332.77
881.988	13258.87
882.306	13274.02
882.624	13262.94
882.941	13129.61
883.259	13066.56
883.577	13203.96
883.894	13087.58
884.212	13069.73
884.529	13030.86
884.846	13013.91
885.164	13031.76
885.481	12970.52
885.798	12994.7
886.115	12856.4
886.432	12823.63
886.75	12884.2
887.067	12714.26
887.383	12735.27
887.7	12785.21
888.017	12664.99
888.334	12679.45
888.651	12608.95
888.967	12701.6
889.284	12481.49
889.6	12500.93
889.917	12488.5
890.233	12501.15
890.55	12402.4
890.866	12400.82
891.182	12336.19
891.498	12320.82
891.815	12236.3
892.131	12157.66
892.447	12178.22
892.763	12171.9
893.079	12159.02
893.395	12003.09
893.71	12045.35
894.026	12065.23
894.342	11920.6
894.657	11918.57
894.973	11942.07
895.289	11953.6
895.604	11809.65
895.92	11854.84
896.235	11774.85
896.55	11663.21
896.865	11617.34
897.181	11623.66
897.496	11601.74
897.811	11494.63
898.126	11560.61
898.441	11433.39
898.756	11412.37
899.071	11390.22
899.386	11380.51
899.7	11254.41
900.015	11280.85
900.33	11226.39
900.644	11115.88
900.959	11120.17
901.273	11008.54
901.588	11062.77
901.902	10976
902.216	11023.68
902.531	10939.61
902.845	10916.56
903.159	10866.62
903.473	10784.59
903.787	10711.14
904.101	10679.06
904.415	10662.11
904.729	10566.06
905.042	10514.99
905.356	10551.6
905.67	10554.99
905.984	10510.7
906.297	10405.84
906.611	10425.95
906.924	10353.87
907.237	10393.64
907.551	10302.57
907.864	10195
908.177	10175.79
908.491	10200.88
908.804	10068.22
909.117	10130.37
909.43	10030.48
909.743	10026.42
910.056	9954.1
910.368	9896.48
910.681	9874.56
910.994	9826.87
911.307	9769.93
911.619	9757.27
911.932	9710.72
912.244	9610.16
912.557	9594.79
912.869	9583.04
913.181	9620.55
913.494	9496.71
913.806	9448.13
914.118	9520.44
914.43	9373.55
914.742	9384.63
915.054	9302.14
915.366	9288.13
915.678	9199.32
915.99	9187.57
916.302	9134.01
916.613	9042.49
916.925	9072.09
917.236	9090.4
917.548	8996.16
917.859	9021.7
918.171	8901.7
918.482	8891.08
918.794	8851.08
919.105	8831.42
919.416	8737.41
919.727	8778.09
920.038	8727.24
920.349	8649.05
920.66	8646.11
920.971	8630.3
921.282	8602.27
921.593	8528.15
921.903	8498.1
922.214	8479.11
922.525	8384.65
922.835	8406.12
923.146	8315.05
923.456	8315.5
923.767	8210.87
924.077	8186.47
924.387	8209.52
924.697	8184.21
925.008	8117.31
925.318	8098.33
925.628	8095.62
925.938	8017.88
926.248	7956.19
926.558	7923.87
926.867	7928.39
927.177	7855.63
927.487	7795.74
927.796	7729.98
928.106	7777.44
928.416	7687.27
928.725	7701.51
929.034	7715.97
929.344	7659.02
929.653	7650.89
929.962	7556.2
930.271	7538.12
930.581	7464.45
930.89	7402.31
931.199	7340.84
931.508	7478.91
931.817	7364.11
932.125	7302.65
932.434	7330.22
932.743	7222.2
933.051	7212.48
933.36	7195.53
933.669	7140.39
933.977	7150.11
934.286	7083.67
934.594	7094.29
934.902	6999.83
935.21	7034.18
935.519	6976.78
935.827	6886.84
936.135	6892.49
936.443	6835.77
936.751	6839.61
937.059	6819.72
937.367	6722.55
937.674	6789.89
937.982	6746.5
938.29	6716.45
938.597	6659.73
938.905	6629.9
939.213	6558.71
939.52	6544.25
939.827	6511.03
940.135	6494.98
940.442	6507.19
940.749	6490.01
941.056	6461.31
941.363	6356.68
941.67	6378.6
941.977	6291.83
942.284	6257.7
942.591	6343.58
942.898	6244.37
943.205	6212.05
943.511	6219.51
943.818	6198.95
944.125	6112.85
944.431	6122.11
944.738	6117.14
945.044	6051.83
945.35	6085.05
945.657	5996.47
945.963	5991.95
946.269	5962.8
946.575	5944.49
946.881	5900.2
947.187	5862.68
947.493	5876.92
947.799	5826.75
948.105	5822.46
948.41	5736.81
948.716	5793.08
949.022	5703.14
949.327	5730.03
949.633	5693.65
949.938	5635.35
950.244	5638.28
950.549	5533.88
950.854	5547.89
951.16	5543.37
951.465	5475.8
951.77	5488.46
952.075	5473.09
952.38	5452.3
952.685	5364.39
952.99	5331.85
953.294	5362.81
953.599	5349.25
953.904	5319.65
954.209	5282.59
954.513	5303.38
954.818	5286.88
955.122	5227.22
955.426	5224.74
955.731	5169.82
956.035	5156.71
956.339	5151.74
956.643	5135.47
956.948	5095.7
957.252	5053.44
957.556	5062.48
957.86	5039.2
958.163	5003.72
958.467	5002.37
958.771	5008.7
959.075	4923.05
959.378	4870.39
959.682	4892.99
959.985	4885.99
960.289	4870.39
960.592	4837.18
960.896	4812.09
961.199	4777.74
961.502	4784.52
961.805	4790.85
962.108	4700.23
962.411	4670.4
962.714	4680.34
963.017	4644.86
963.32	4652.77
963.623	4613.9
963.926	4644.86
964.228	4565.32
964.531	4578.2
964.833	4577.75
965.136	4503.17
965.438	4500.69
965.741	4467.69
966.043	4453.91
966.345	4408.71
966.648	4412.78
966.95	4434.93
967.252	4357.41
967.554	4358.32
967.856	4371.65
968.158	4292.33
968.46	4302.05
968.761	4290.52
969.063	4241.26
969.365	4244.42
969.666	4209.17
969.968	4190.41
970.269	4180.02
970.571	4173.24
970.872	4137.76
971.174	4130.3
971.475	4059.12
971.776	4022.06
972.077	4074.03
972.378	4082.62
972.679	3991.55
972.98	3993.58
973.281	4008.5
973.582	4008.27
973.883	3948.38
974.183	3967.37
974.484	3916.52
974.785	3878.1
975.085	3884.21
975.386	3908.16
975.686	3847.37
975.986	3841.72
976.287	3819.35
976.587	3780.25
976.887	3762.18
977.187	3753.14
977.487	3729.18
977.787	3738.9
978.087	3741.84
978.387	3695.96
978.687	3701.16
978.987	3651.67
979.286	3642.86
979.586	3640.82
979.885	3598.79
980.185	3620.94
980.484	3573.93
980.784	3534.61
981.083	3544.55
981.382	3525.8
981.682	3520.15
981.981	3517.66
982.28	3458.68
982.579	3443.77
982.878	3442.18
983.177	3421.85
983.475	3447.38
983.774	3390.66
984.073	3379.13
984.372	3388.4
984.67	3387.72
984.969	3360.83
985.267	3370.32
985.566	3318.34
985.864	3285.8
986.162	3295.75
986.461	3267.95
986.759	3217.1
987.057	3226.37
987.355	3198.8
987.653	3206.03
987.951	3202.19
988.249	3197.44
988.547	3183.66
988.844	3122.64
989.142	3142.76
989.44	3141.4
989.737	3074.74
990.035	3061.85
990.332	3078.13
990.63	3049.88
990.927	3042.65
991.224	3004.23
991.521	3029.09
991.819	2985.47
992.116	3001.97
992.413	2979.6
992.71	2963.33
993.006	2945.93
993.303	2945.25
993.6	2918.36
993.897	2892.82
994.193	2911.12
994.49	2871.8
994.787	2851.69
995.083	2806.27
995.379	2836.32
995.676	2832.26
995.972	2757.46
996.268	2774.86
996.565	2750.45
996.861	2762.2
997.157	2716.55
997.453	2714.97
997.749	2696.44
998.044	2697.57
998.34	2677.46
998.636	2686.27
998.932	2678.81
999.227	2622.09
999.523	2642.43
999.818	2600.85
1000.114	2614.18
1000.409	2588.42
1000.704	2573.51
1001	2543.9
1001.295	2514.52
1001.59	2517.69
1001.885	2498.93
1002.18	2506.39
1002.475	2485.15
1002.77	2494.64
1003.065	2418.71
1003.359	2479.5
1003.654	2429.55
1003.949	2408.99
1004.243	2394.53
1004.538	2424.13
1004.832	2378.48
1005.127	2352.04
1005.421	2361.99
1005.715	2378.26
1006.009	2340.97
1006.304	2310.91
1006.598	2325.83
1006.892	2274.3
1007.186	2249.9
1007.48	2234.98
1007.773	2255.32
1008.067	2199.28
1008.361	2189.79
1008.655	2221.65
1008.948	2199.96
1009.242	2169.45
1009.535	2147.53
1009.829	2175.32
1010.122	2121.31
1010.415	2116.57
1010.708	2098.72
1011.001	2088.77
1011.295	2079.96
1011.588	2054.88
1011.881	2056.01
1012.173	2047.87
1012.466	2015.33
1012.759	2023.69
1013.052	1993.86
1013.344	2027.98
1013.637	1965.84
1013.93	1928.33
1014.222	1966.74
1014.514	1940.98
1014.807	1919.74
1015.099	1924.94
1015.391	1907.76
1015.683	1890.36
1015.976	1900.3
1016.268	1894.65
1016.56	1905.5
1016.851	1860.76
1017.143	1815.56
1017.435	1831.6
1017.727	1793.64
1018.018	1818.5
1018.31	1816.46
1018.602	1790.93
1018.893	1792.51
1019.185	1796.13
1019.476	1763.13
1019.767	1753.87
1020.058	1729.91
1020.35	1724.94
1020.641	1717.94
1020.932	1696.01
1021.223	1650.82
1021.514	1679.97
1021.804	1645.62
1022.095	1624.6
1022.386	1666.41
1022.677	1644.94
1022.967	1619.41
1023.258	1611.72
1023.548	1580.76
1023.839	1585.06
1024.129	1590.48
1024.419	1582.35
1024.709	1545.74
1025	1523.82
1025.29	1546.19
1025.58	1510.71
1025.87	1477.94
1026.16	1506.42
1026.449	1473.87
1026.739	1442.24
1027.029	1482.01
1027.319	1435.23
1027.608	1455.12
1027.898	1447.43
1028.187	1446.3
1028.477	1395.46
1028.766	1409.02
1029.055	1408.34
1029.344	1366.76
1029.634	1376.48
1029.923	1357.94
1030.212	1364.27
1030.501	1350.71
1030.79	1347.32
1031.078	1320.88
1031.367	1322.47
1031.656	1313.2
1031.945	1328.34
1032.233	1298.51
1032.522	1307.32
1032.81	1245.18
1033.099	1252.18
1033.387	1243.15
1033.675	1228.46
1033.963	1241.56
1034.251	1246.54
1034.54	1205.41
1034.828	1180.77
1035.116	1208.8
1035.403	1176.25
1035.691	1179.19
1035.979	1184.39
1036.267	1142.58
1036.554	1137.61
1036.842	1164.05
1037.129	1154.79
1037.417	1111.17
1037.704	1135.8
1037.992	1115.92
1038.279	1108.23
1038.566	1104.84
1038.853	1104.84
1039.14	1104.84
