Data from White_paper_FLMS001491_084.txt Node
Date: Tue Feb 07 10:35:40 GMT 2017
User: dcchb
Spectrometer: FLMS00149
Trigger mode: 0
Integration Time (sec): 2.000000E-2
Scans to average: 10
Electric dark correction enabled: true
Nonlinearity correction enabled: false
Boxcar width: 0
XAxis mode: Wavelengths
Number of Pixels in Spectrum: 2048
>>>>>Begin Spectral Data<<<<<
341.393	-1.44
341.776	-1.44
342.16	-1.44
342.543	-62
342.927	-62.23
343.31	-89.35
343.693	-92.51
344.077	-72.85
344.46	-57.71
344.843	-62.46
345.226	-31.95
345.61	-5.28
345.993	-22.23
346.376	22.06
346.759	16.19
347.142	14.15
347.525	36.3
347.908	77.43
348.291	86.01
348.674	82.62
349.057	99.57
349.44	135.73
349.823	136.18
350.206	168.72
350.588	232.45
350.971	232
351.354	238.33
351.737	253.92
352.119	289.63
352.502	290.98
352.884	302.05
353.267	321.71
353.65	328.49
354.032	318.78
354.414	324.2
354.797	350.64
355.179	343.86
355.562	348.38
355.944	358.78
356.326	354.71
356.709	363.07
357.091	376.4
357.473	358.55
357.855	357.65
358.238	366.91
358.62	371.2
359.002	374.37
359.384	375.72
359.766	364.43
360.148	402.62
360.53	373.69
360.912	366.01
361.294	394.03
361.676	373.01
362.057	375.27
362.439	381.6
362.821	380.02
363.203	368.95
363.584	369.62
363.966	389.06
364.348	366.23
364.729	354.48
365.111	378.21
365.493	345.44
365.874	363.3
366.256	365.33
366.637	368.04
367.019	349.96
367.4	344.09
367.781	355.16
368.163	362.17
368.544	382.28
368.925	364.2
369.306	385.44
369.688	373.46
370.069	387.7
370.45	366.01
370.831	374.59
371.212	363.3
371.593	364.43
371.974	363.75
372.355	373.01
372.736	366.23
373.117	361.49
373.498	386.12
373.879	379.79
374.26	375.5
374.641	390.41
375.021	384.76
375.402	384.99
375.783	396.97
376.163	401.26
376.544	413.69
376.925	404.88
377.305	406.91
377.686	391.32
378.066	411.2
378.447	396.06
378.827	408.27
379.208	410.3
379.588	416.85
379.968	407.14
380.349	404.65
380.729	418.89
381.109	402.39
381.489	434.03
381.87	435.38
382.25	438.1
382.63	409.17
383.01	423.41
383.39	422.28
383.77	437.19
384.15	437.42
384.53	455.5
384.91	441.49
385.29	448.72
385.67	460.92
386.049	466.8
386.429	461.6
386.809	465.67
387.189	474.48
387.568	456.63
387.948	469.28
388.328	474.48
388.707	489.39
389.087	472.67
389.466	509.73
389.846	498.66
390.225	498.89
390.605	504.99
390.984	486.46
391.363	505.66
391.743	515.38
392.122	516.74
392.501	518.55
392.881	526.46
393.26	532.33
393.639	546.57
394.018	541.14
394.397	573.23
394.776	559.45
395.155	569.39
395.534	566
395.913	584.98
396.292	586.34
396.671	586.34
397.05	594.25
397.429	589.73
397.808	594.48
398.186	609.62
398.565	631.54
398.944	614.59
399.323	622.5
399.701	629.28
400.08	660.91
400.458	660.01
400.837	646.23
401.215	681.03
401.594	671.54
401.972	681.25
402.351	681.93
402.729	719.44
403.107	706.34
403.486	714.47
403.864	720.57
404.242	726.22
404.62	766.9
404.999	747.69
405.377	792.66
405.755	779.1
406.133	820.01
406.511	843.51
406.889	855.49
407.267	878.08
407.645	890.29
408.023	914.47
408.401	897.52
408.779	923.96
409.156	947.69
409.534	971.19
409.912	996.5
410.29	1031.75
410.667	1021.13
411.045	1068.59
411.422	1074.69
411.8	1104.29
412.178	1125.76
412.555	1189.26
412.933	1191.97
413.31	1234.46
413.687	1272.42
414.065	1295.93
414.442	1336.6
414.819	1326.43
415.197	1379.54
415.574	1380.22
415.951	1408.24
416.328	1449.82
416.705	1471.74
417.082	1503.15
417.46	1556.48
417.837	1564.85
418.214	1574.56
418.591	1593.32
418.967	1653.21
419.344	1623.83
419.721	1646.2
420.098	1687.78
420.475	1762.13
420.852	1750.38
421.228	1791.28
421.605	1803.71
421.982	1843.71
422.358	1883.93
422.735	1898.85
423.111	1885.97
423.488	1926.42
423.864	1935.68
424.241	1994.67
424.617	2016.13
424.994	2035.12
425.37	2041.67
425.746	2098.17
426.123	2125.28
426.499	2103.59
426.875	2168.9
427.251	2218.61
427.627	2242.79
428.003	2312.4
428.379	2330.25
428.756	2330.48
429.132	2421.55
429.507	2408.21
429.883	2451.15
430.259	2449.57
430.635	2515.78
431.011	2542.67
431.387	2628.55
431.763	2639.62
432.138	2715.78
432.514	2729.79
432.89	2741.09
433.265	2833.06
433.641	2807.75
434.016	2851.37
434.392	2933.62
434.767	2988.99
435.143	3017.24
435.518	3064.69
435.894	3031.93
436.269	3121.64
436.644	3150.34
437.02	3186.5
437.395	3197.57
437.77	3226.95
438.145	3305.37
438.52	3337
438.895	3385.81
439.271	3402.76
439.646	3449.99
440.021	3458.13
440.395	3506.04
440.77	3483.44
441.145	3517.56
441.52	3580.84
441.895	3577.22
442.27	3643.89
442.645	3593.95
443.019	3714.39
443.394	3716.65
443.769	3736.09
444.143	3707.61
444.518	3783.09
444.892	3775.64
445.267	3827.84
445.641	3834.16
446.016	3859.25
446.39	3878.46
446.764	3897.21
447.139	3949.19
447.513	4012.47
447.887	3973.82
448.262	4000.49
448.636	4025.12
449.01	4103.54
449.384	4080.26
449.758	4165.68
450.132	4209.52
450.506	4217.21
450.88	4249.07
451.254	4219.92
451.628	4301.95
452.002	4319.8
452.376	4395.51
452.75	4441.15
453.123	4466.69
453.497	4548.27
453.871	4535.16
454.244	4667.59
454.618	4650.41
454.992	4737.42
455.365	4780.58
455.739	4920.46
456.112	4933.57
456.486	4951.65
456.859	4977.64
457.232	5031.87
457.606	5072.32
457.979	5095.15
458.352	5307.8
458.725	5330.62
459.099	5384.63
459.472	5455.37
459.845	5523.84
460.218	5578.98
460.591	5645.87
460.964	5654.23
461.337	5782.14
461.71	5841.8
462.083	5968.35
462.456	5964.96
462.829	5980.1
463.201	6079.76
463.574	6175.8
463.947	6232.07
464.32	6353.87
464.692	6422.8
465.065	6472.97
465.438	6531.27
465.81	6657.59
466.183	6714.09
466.555	6832.73
466.928	6857.14
467.3	6876.57
467.672	7051.03
468.045	7253.96
468.417	7208.09
468.789	7236.34
469.161	7347.97
469.534	7510.68
469.906	7705.93
470.278	7740.05
470.65	7841.97
471.022	7961.06
471.394	8138.01
471.766	8189.08
472.138	8244.67
472.51	8364.44
472.882	8583.19
473.253	8652.12
473.625	8822.73
473.997	8986.35
474.369	9067.25
474.74	9148.83
475.112	9339.78
475.484	9461.81
475.855	9639.21
476.227	9766.66
476.598	9964.85
476.97	10069.03
477.341	10275.58
477.713	10445.74
478.084	10447.32
478.455	10824.04
478.827	10920.08
479.198	11258.38
479.569	11201.88
479.94	11475.55
480.311	11550.8
480.682	11909.43
481.053	12082.99
481.424	12289.76
481.795	12473.49
482.166	12600.49
482.537	12870.99
482.908	13096.97
483.279	13183.07
483.65	13475.95
484.021	13714.58
484.391	13807.01
484.762	13995.25
485.133	14091.97
485.503	14317.05
485.874	14556.59
486.244	14687.66
486.615	15072.06
486.985	15180.08
487.356	15374.88
487.726	15526.51
488.097	15857.8
488.467	15889.89
488.837	16206.95
489.207	16515.87
489.578	16633.83
489.948	16742.75
490.318	17040.6
490.688	17114.72
491.058	17334.15
491.428	17521.94
491.798	17761.26
492.168	18029.27
492.538	18295.03
492.908	18321.02
493.278	18552.42
493.648	18561.24
494.017	18870.61
494.387	18968.23
494.757	19210.26
495.126	19309.69
495.496	19393.76
495.866	19581.77
496.235	19796.91
496.605	20010.24
496.974	20066.28
497.344	20280.74
497.713	20305.6
498.082	20575.19
498.452	20723.21
498.821	20806.37
499.19	20977.44
499.559	21061.73
499.928	21212.92
500.298	21396.64
500.667	21538.78
501.036	21556.86
501.405	21805.9
501.774	21797.99
502.143	22085.44
502.512	22144.19
502.88	22416.73
503.249	22362.72
503.618	22600.45
503.987	22669.38
504.356	22750.28
504.724	22937.39
505.093	23086.09
505.462	23206.54
505.83	23343.48
506.199	23456.7
506.567	23826.41
506.936	23869.34
507.304	24185.72
507.672	24181.65
508.041	24303.01
508.409	24470.68
508.777	24690.34
509.145	24770.56
509.514	24820.96
509.882	25114.28
510.25	25098.01
510.618	25435.18
510.986	25387.5
511.354	25726.7
511.722	25802.63
512.09	26078.1
512.458	26024.99
512.826	26376.62
513.193	26491.65
513.561	26600.35
513.929	26883.73
514.297	27090.5
514.664	27285.07
515.032	27299.08
515.4	27636.93
515.767	27704.27
516.135	27784.04
516.502	27662.46
516.869	28184.94
517.237	28240.98
517.604	28169.34
517.972	28603.68
518.339	28714.64
518.706	28872.15
519.073	29017.46
519.44	29216.1
519.808	29440.27
520.175	29497.67
520.542	29962.29
520.909	30069.86
521.276	30058.11
521.643	30288.16
522.009	30513.69
522.376	30917.29
522.743	30983.73
523.11	31324.06
523.477	31609.25
523.843	31718.4
524.21	31984.38
524.577	32220.99
524.943	32357.93
525.31	32472.06
525.676	32846.51
526.043	32944.59
526.409	33100.29
526.776	33497.57
527.142	33605.36
527.508	33768.07
527.874	34096.87
528.241	34284.21
528.607	34328.28
528.973	34641.94
529.339	34771.66
529.705	35018.43
530.071	35225.88
530.437	35408.48
530.803	35593.78
531.169	35871.29
531.535	35752.42
531.901	35966.43
532.267	36061.11
532.632	36417.49
532.998	36506.75
533.364	36694.77
533.73	36892.28
534.095	37109.22
534.461	37218.6
534.826	37477.35
535.192	37473.51
535.557	37764.35
535.923	37791.69
536.288	38077.33
536.653	38145.35
537.019	38101.74
537.384	38357.78
537.749	38568.17
538.114	38725.45
538.479	38717.77
538.845	38969.06
539.21	38889.51
539.575	39090.19
539.94	39180.81
540.305	39378.09
540.67	39407.69
541.034	39647.69
541.399	39915.93
541.764	39942.37
542.129	40111.63
542.494	40197.95
542.858	40395.24
543.223	40434.78
543.587	40646.98
543.952	40657.38
544.316	40906.64
544.681	40917.48
545.045	41144.82
545.41	41221.88
545.774	41374.65
546.138	41397.92
546.503	41545.49
546.867	41555.66
547.231	41886.95
547.595	42077.23
547.959	42225.25
548.324	42146.38
548.688	42354.06
549.052	42567.61
549.416	42571.23
549.779	42579.36
550.143	42720.15
550.507	43104.09
550.871	43125.33
551.235	43367.59
551.599	43469.51
551.962	43531.65
552.326	43853.45
552.689	44072.43
553.053	43701.82
553.417	43975.26
553.78	44425.41
554.143	44251.63
554.507	44403.04
554.87	44502.25
555.234	44918.73
555.597	44665.86
555.96	45055.45
556.323	45096.36
556.686	45240.76
557.05	45528.21
557.413	45649.11
557.776	45679.62
558.139	45928.65
558.502	46013.39
558.865	46146.72
559.228	46373.39
559.59	46461.97
559.953	46559.82
560.316	46948.06
560.679	46976.08
561.041	47215.4
561.404	47310.76
561.767	47508.04
562.129	47482.06
562.492	47873.01
562.854	47894.02
563.217	47931.99
563.579	48037.07
563.941	48327.46
564.304	48514.12
564.666	48743.72
565.028	48803.83
565.39	48965.18
565.753	49154.1
566.115	49363.82
566.477	49407.2
566.839	49486.07
567.201	49689.23
567.563	49867.08
567.925	50059.84
568.287	50070.46
568.648	50158.14
569.01	50313.62
569.372	50603.33
569.734	50559.26
570.095	50731.01
570.457	50927.62
570.819	51060.04
571.18	51015.52
571.542	51164.45
571.903	51333.48
572.265	51361.95
572.626	51552.46
572.987	51635.85
573.349	51753.36
573.71	51899.79
574.071	51966.23
574.432	52071.99
574.794	52301.82
575.155	52192.67
575.516	52237.64
575.877	52302.27
576.238	52355.6
576.599	52508.59
576.96	52546.78
577.32	52551.53
577.681	52699.55
578.042	52806.66
578.403	52823.39
578.763	52916.72
579.124	52936.38
579.485	53077.16
579.845	53127.33
580.206	53136.15
580.566	53139.31
580.927	53142.25
581.287	53381.34
581.648	53255.92
582.008	53410.26
582.368	53330.26
582.728	53429.02
583.089	53360.55
583.449	53356.25
583.809	53511.05
584.169	53556.47
584.529	53524.84
584.889	53769.12
585.249	53599.41
585.609	53513.08
585.969	53655.68
586.329	53645.96
586.688	53713.76
587.048	53693.19
587.408	53717.82
587.768	53715.34
588.127	53676.02
588.487	53741.33
588.846	53950.81
589.206	53716.47
589.565	53826.97
589.925	53905.62
590.284	53791.27
590.643	53941.32
591.003	53920.98
591.362	54121.88
591.721	53965.95
592.08	53955.11
592.44	54047.99
592.799	54001.43
593.158	54076.01
593.517	54047.99
593.876	54107.19
594.235	54112.62
594.593	54192.16
594.952	54171.37
595.311	54118.94
595.67	54117.81
596.029	54376.11
596.387	54303.35
596.746	54358.94
597.104	54275.55
597.463	54293.18
597.822	54424.02
598.18	54376.79
598.538	54336.79
598.897	54481.42
599.255	54250.24
599.613	54654.3
599.972	54527.3
600.33	54539.95
600.688	54475.32
601.046	54569.33
601.404	54731.36
601.762	54571.36
602.12	54813.16
602.478	54679.38
602.836	54687.52
603.194	54600.29
603.552	54753.28
603.91	54516.22
604.268	54829.43
604.625	54715.31
604.983	54795.31
605.341	54682.77
605.698	54844.35
606.056	54936.55
606.413	54813.39
606.771	54936.55
607.128	55050.45
607.485	54854.97
607.843	54831.92
608.2	55054.06
608.557	55131.8
608.914	55037.34
609.272	55158.69
609.629	55197.56
609.986	55272.59
610.343	55186.49
610.7	55292.25
611.057	55336.54
611.414	55303.77
611.771	55285.02
612.127	55427.38
612.484	55386.71
612.841	55469.19
613.198	55341.74
613.554	55335.41
613.911	55542.41
614.267	55518.68
614.624	55525.91
614.98	55539.92
615.337	55645.68
615.693	55560.49
616.05	55493.37
616.406	55690.65
616.762	55621.05
617.118	55625.12
617.475	55610.66
617.831	55675.74
618.187	55715.51
618.543	55721.39
618.899	55909.41
619.255	55801.39
619.611	55859.01
619.967	55933.13
620.323	55948.27
620.678	55756.19
621.034	55814.94
621.39	55831.22
621.746	55847.26
622.101	56117.31
622.457	55823.08
622.812	55885.45
623.168	55924.09
623.523	55985.34
623.879	56041.61
624.234	55828.96
624.589	55886.58
624.945	55945.11
625.3	55973.81
625.655	55942.63
626.01	55945.34
626.365	56056.97
626.72	55943.08
627.075	55935.85
627.43	55916.19
627.785	55869.18
628.14	56053.81
628.495	55948.27
628.85	55902.63
629.205	55910.54
629.559	56037.31
629.914	55892
630.269	55934.94
630.623	55874.6
630.978	55857.43
631.332	55958.9
631.687	56007.48
632.041	55788.73
632.396	55892.23
632.75	55826.7
633.104	55845.23
633.459	55726.59
633.813	55735.85
634.167	55784.44
634.521	55735.17
634.875	55809.75
635.229	55744.44
635.583	55626.48
635.937	55607.27
636.291	55671.9
636.645	55562.97
636.999	55637.1
637.352	55661.95
637.706	55573.14
638.06	55636.19
638.413	55551.67
638.767	55536.99
639.121	55553.93
639.474	55458.12
639.828	55468.97
640.181	55536.08
640.534	55458.57
640.888	55421.06
641.241	55289.31
641.594	55399.81
641.947	55532.01
642.301	55457.21
642.654	55425.8
643.007	55364.34
643.36	55358.91
643.713	55302.19
644.066	55415.41
644.419	55255.41
644.771	55065.81
645.124	54740.4
645.477	54806.16
645.83	54529.33
646.182	54538.37
646.535	54491.36
646.888	54529.33
647.24	54391.93
647.593	54516
647.945	54442.33
648.298	54311.03
648.65	54372.95
649.002	54320.07
649.355	54364.36
649.707	54385.83
650.059	54436.45
650.411	54775.42
650.763	54802.77
651.115	55063.78
651.467	54953.95
651.819	54979.94
652.171	54913.5
652.523	54979.03
652.875	54890.68
653.227	54754.41
653.578	54872.37
653.93	54903.1
654.282	54709.44
654.633	54699.72
654.985	54725.48
655.337	54720.74
655.688	54803.45
656.039	54819.04
656.391	54640.74
656.742	54549.44
657.094	54628.31
657.445	54762.77
657.796	54676.9
658.147	54641.19
658.498	54615.88
658.849	54766.61
659.2	54721.87
659.551	54577.24
659.902	54656.56
660.253	54575.66
660.604	54597.8
660.955	54440.74
661.306	54686.61
661.656	54598.25
662.007	54571.14
662.358	54471.93
662.708	54556.9
663.059	54516.67
663.409	54407.07
663.76	54549.22
664.11	54534.3
664.461	54556.9
664.811	54504.47
665.161	54461.08
665.511	54399.61
665.862	54454.98
666.212	54460.63
666.562	54447.75
666.912	54436.9
667.262	54409.78
667.612	54357.36
667.962	54386.28
668.312	54255.66
668.662	54477.58
669.011	54374.53
669.361	54278.94
669.711	54301.31
670.06	54195.78
670.41	54234.42
670.76	54125.95
671.109	54230.81
671.459	54196.23
671.808	54160.98
672.157	54185.16
672.507	53981.55
672.856	54038.49
673.205	54006.86
673.554	54078.04
673.904	53966.18
674.253	54090.24
674.602	53981.09
674.951	53609.35
675.3	53365.97
675.649	53887.09
675.998	53762.8
676.346	53911.94
676.695	53979.29
677.044	53767.99
677.393	53753.76
677.741	53776.13
678.09	53681.67
678.438	53636.7
678.787	53688
679.135	53687.09
679.484	53385.63
679.832	53624.04
680.181	53338.4
680.529	53463.59
680.877	53343.15
681.225	53273.99
681.573	53488.45
681.922	53319.64
682.27	53162.81
682.618	53208.01
682.966	53151.96
683.314	53130.5
683.661	52948.13
684.009	52810.05
684.357	52807.79
684.705	52780.45
685.053	52729.6
685.4	52712.65
685.748	52640.11
686.095	52510.85
686.443	52402.38
686.79	52400.12
687.138	52343.85
687.485	52435.15
687.832	52256.62
688.18	52188.37
688.527	52059.11
688.874	52108.38
689.221	51932.79
689.568	51838.78
689.915	51798.1
690.262	51763.07
690.609	51639.01
690.956	51583.19
691.303	51565.34
691.65	51278.11
691.997	51281.05
692.344	51215.07
692.69	51146.37
693.037	51104.11
693.383	50836.09
693.73	50928.52
694.077	50692.82
694.423	50740.05
694.769	50652.14
695.116	50472.71
695.462	50438.82
695.808	50250.12
696.155	50301.64
696.501	50074.76
696.847	50049.67
697.193	49797.93
697.539	50061.88
697.885	49757.25
698.231	49683.35
698.577	49761.32
698.923	49542.57
699.269	49419.63
699.614	49292.18
699.96	49178.96
700.306	49212.63
700.651	49089.25
700.997	48942.81
701.342	48854
701.688	48838.18
702.033	48686.54
702.379	48740.78
702.724	48656.94
703.069	48589.82
703.415	48136.05
703.76	48271.64
704.105	48209.27
704.45	47966.11
704.795	47849.05
705.14	47746.46
705.485	47786.91
705.83	47601.83
706.175	47676.18
706.52	47480.47
706.865	47403.41
707.209	47443.41
707.554	47241.61
707.899	47309.18
708.243	47128.39
708.588	47022.86
708.932	46732.7
709.277	46750.32
709.621	46826.93
709.966	46497.68
710.31	46619.93
710.654	46280.96
710.998	46299.04
711.342	46320.51
711.687	46194.63
712.031	46029.67
712.375	45902.66
712.719	45942.44
713.063	45748.77
713.407	45995.32
713.75	45816.11
714.094	45749.9
714.438	45573.18
714.782	45470.13
715.125	45323.02
715.469	45394.88
715.812	45168.67
716.156	44921.9
716.499	45024.27
716.843	45174.32
717.186	44951.95
717.53	45034.44
717.873	44937.94
718.216	44877.15
718.559	44638.29
718.902	44341.8
719.246	44490.27
719.589	44355.13
719.932	44255.93
720.275	44238.07
720.617	44144.29
720.96	44015.26
721.303	44050.73
721.646	44126.21
721.989	43705.66
722.331	44038.08
722.674	43785.43
723.016	43922.83
723.359	43708.82
723.701	43705.43
724.044	43476.96
724.386	43290.08
724.729	43546.79
725.071	43441.48
725.413	43332.34
725.755	43247.14
726.097	43088.95
726.439	43011.89
726.782	43116.3
727.124	43150.42
727.465	42812.12
727.807	42785.46
728.149	42644.67
728.491	42634.73
728.833	42735.51
729.175	42466.82
729.516	42402.64
729.858	42374.17
730.199	42483.09
730.541	42324.23
730.882	42293.94
731.224	42510.21
731.565	42162.42
731.906	42119.94
732.248	42127.85
732.589	41986.61
732.93	41867.29
733.271	41815.99
733.612	41990
733.953	41953.84
734.294	41752.04
734.635	41610.35
734.976	41553.4
735.317	41486.51
735.658	41483.34
735.999	41428.43
736.339	41342.11
736.68	41334.42
737.021	41193.86
737.361	41157.25
737.702	41416.91
738.042	41204.26
738.383	41042.45
738.723	41086.07
739.063	40906.64
739.404	41126.74
739.744	40907.99
740.084	40724.95
740.424	40704.61
740.764	40637.72
741.104	40778.05
741.444	40488.79
741.784	40420.55
742.124	40695.12
742.464	40437.04
742.804	40475.69
743.143	40372.41
743.483	40399.76
743.823	40149.37
744.162	40197.28
744.502	40215.58
744.841	40035.7
745.181	40095.58
745.52	39990.95
745.86	39958.86
746.199	39820.56
746.538	39798.64
746.877	39814.01
747.216	39848.13
747.556	39741.47
747.895	39693.11
748.234	39506
748.573	39417.64
748.911	39459.67
749.25	39348.03
749.589	39197.53
749.928	39226
750.267	39261.03
750.605	39181.48
750.944	39052.9
751.283	38787.37
751.621	39003.64
751.96	38669.18
752.298	38822.85
752.636	38743.08
752.975	38569.97
753.313	38494.95
753.651	38499.69
753.989	38246.14
754.327	38296.31
754.666	38136.09
755.004	38152.13
755.342	38274.16
755.679	38118.46
756.017	37952.36
756.355	37936.54
756.693	37766.15
757.031	37860.39
757.368	37524.13
757.706	37497.69
758.044	37497.69
758.381	37404.81
758.719	37252.95
759.056	37304.25
759.394	37156.68
759.731	36932.28
760.068	36901.09
760.405	36715.33
760.743	36560.76
761.08	36684.15
761.417	36551.72
761.754	36403.93
762.091	36278.74
762.428	36253.65
762.765	36076.48
763.102	36038.97
763.438	35889.37
763.775	35867.22
764.112	35874.68
764.449	35757.17
764.785	35655.02
765.122	35314.47
765.458	35278.99
765.795	35341.58
766.131	35253.23
766.467	35187.46
766.804	34787.93
767.14	34733.01
767.476	34734.14
767.812	34581.15
768.148	34674.03
768.485	34305.23
768.821	34156.98
769.157	34208.06
769.492	33972.58
769.828	34048.74
770.164	33666.83
770.5	33757.22
770.836	33625.02
771.171	33418.92
771.507	33499.6
771.842	33128.08
772.178	33179.16
772.513	33016.9
772.849	32947.52
773.184	32773.74
773.519	32825.27
773.855	32562.22
774.19	32396.58
774.525	32334.21
774.86	32355
775.195	32289.69
775.53	32120.2
775.865	31922.92
776.2	31718.86
776.535	31452.87
776.87	31569.03
777.205	31476.15
777.539	31305.76
777.874	31374.46
778.209	31182.37
778.543	30985.77
778.878	30832.78
779.212	30790.52
779.547	30588.04
779.881	30729.73
780.215	30432.11
780.55	30486.12
780.884	30290.42
781.218	30185.34
781.552	30269.4
781.886	29907.38
782.22	29778.12
782.554	29815.18
782.888	29602.3
783.222	29435.3
783.556	29339.93
783.889	29264.23
784.223	29011.36
784.557	29092.26
784.89	29035.54
785.224	28856.56
785.557	28734.3
785.891	28745.15
786.224	28596.68
786.558	28501.99
786.891	28265.16
787.224	28223.58
787.557	28107.42
787.891	28154.2
788.224	28090.25
788.557	27951.04
788.89	27859.07
789.223	27847.77
789.556	27721.9
789.888	27578.17
790.221	27599.42
790.554	27223.15
790.887	27254.79
791.219	27157.39
791.552	27133.89
791.884	26898.87
792.217	26916.95
792.549	26830.85
792.882	26642.15
793.214	26580.91
793.546	26637.63
793.879	26417.98
794.211	26344.76
794.543	26359
794.875	26199.23
795.207	26290.75
795.539	26027.48
795.871	26054.15
796.203	25807.37
796.535	25730.76
796.867	25638.34
797.198	25524.22
797.53	25664.78
797.862	25358.8
798.193	25459.58
798.525	25204.9
798.856	25371.9
799.188	25019.82
799.519	24944.12
799.85	24857.11
800.182	24769.66
800.513	24698.47
800.844	24669.1
801.175	24684.69
801.506	24599.04
801.837	24528.08
802.168	24501.19
802.499	24283.57
802.83	24247.41
803.161	24259.39
803.491	24190.92
803.822	24045.38
804.153	24053.75
804.483	23854.66
804.814	23803.81
805.145	23673.87
805.475	23713.42
805.805	23576.24
806.136	23547.09
806.466	23632.97
806.796	23522.23
807.126	23296.25
807.457	23327.21
807.787	23237.27
808.117	23166.99
808.447	23124.96
808.777	23145.3
809.107	23091.06
809.436	22967.67
809.766	22994.34
810.096	22832.08
810.426	22733.55
810.755	22767
811.085	22575.37
811.414	22645.42
811.744	22430.29
812.073	22377.18
812.403	22412.89
812.732	22297.18
813.061	22242.95
813.39	22120.92
813.719	22126.57
814.049	22138.99
814.378	22008.6
814.707	21981.71
815.036	21899.9
815.365	21837.76
815.693	21682.96
816.022	21628.27
816.351	21650.65
816.68	21444.1
817.008	21628.5
817.337	21410.65
817.665	21382.18
817.994	21459.46
818.322	21384.89
818.651	21233.93
818.979	21196.42
819.307	21321.84
819.636	21139.7
819.964	20958.46
820.292	21083.43
820.62	21069.42
820.948	21079.14
821.276	20953.71
821.604	21018.57
821.932	20969.31
822.259	20957.78
822.587	20911.68
822.915	20913.04
823.243	21048.18
823.57	20847.05
823.898	20942.19
824.225	20834.17
824.553	20814.96
824.88	20888.63
825.207	20946.03
825.535	20809.09
825.862	20865.58
826.189	20818.12
826.516	20939.93
826.843	20963.43
827.17	20877.11
827.497	20893.83
827.824	20917.33
828.151	20947.84
828.478	20890.44
828.805	20992.36
829.131	20819.03
829.458	20886.82
829.785	20651.12
830.111	20858.58
830.438	20883.21
830.764	20780.16
831.09	20835.53
831.417	20713.49
831.743	20851.12
832.069	20773.61
832.395	20655.19
832.722	20736.77
833.048	20558.24
833.374	20692.48
833.7	20664.23
834.026	20628.53
834.351	20645.7
834.677	20556.89
835.003	20614.74
835.329	20542.65
835.654	20487.06
835.98	20468.3
836.306	20518.02
836.631	20373.84
836.956	20452.03
837.282	20439.6
837.607	20258.14
837.932	20250.68
838.258	20286.61
838.583	20318.93
838.908	20125.71
839.233	20203
839.558	20068.31
839.883	20062.89
840.208	19954.64
840.533	20023.34
840.858	19977.24
841.182	20003.01
841.507	19958.26
841.832	19803.69
842.156	19796
842.481	19794.87
842.805	19722.33
843.13	19711.71
843.454	19722.33
843.778	19547.88
844.103	19645.73
844.427	19428.1
844.751	19488.44
845.075	19429.01
845.399	19374.77
845.723	19199.86
846.047	19289.8
846.371	19135.91
846.695	19128.9
847.019	19023.37
847.343	18964.39
847.666	18808.91
847.99	18737.95
848.313	18660.44
848.637	18638.3
848.96	18520.78
849.284	18497.28
849.607	18368.25
849.931	18339.09
850.254	18173
850.577	18125.54
850.9	17932.78
851.223	17930.97
851.546	17907.92
851.869	17730.07
852.192	17923.06
852.515	17629.51
852.838	17622.95
853.161	17688.26
853.483	17497.31
853.806	17464.09
854.129	17400.59
854.451	17414.15
854.774	17321.72
855.096	17255.96
855.419	17188.62
855.741	17063.87
856.063	16998.34
856.385	17068.62
856.708	16949.53
857.03	16914.05
857.352	16791.79
857.674	16804.67
857.996	16756.76
858.318	16592.02
858.64	16649.42
858.961	16610.1
859.283	16540.5
859.605	16426.83
859.926	16422.31
860.248	16425.7
860.57	16386.83
860.891	16300.05
861.212	16196.1
861.534	16260.05
861.855	16202.2
862.176	16190
862.498	16185.48
862.819	16171.24
863.14	16129.89
863.461	16049.66
863.782	16030.91
864.103	16042.43
864.424	15894.64
864.745	16062.32
865.065	15898.03
865.386	15807.18
865.707	15881.53
866.027	15853.51
866.348	15805.38
866.668	15846.28
866.989	15738.71
867.309	15545.04
867.63	15665.49
867.95	15665.94
868.27	15610.13
868.59	15590.01
868.91	15486.51
869.23	15514.99
869.55	15460.53
869.87	15528.55
870.19	15395.89
870.51	15518.15
870.83	15391.6
871.15	15354.54
871.469	15332.17
871.789	15341.88
872.109	15322.9
872.428	15206.3
872.748	15255.33
873.067	15190.02
873.386	15254.88
873.706	15184.37
874.025	15097.6
874.344	15093.08
874.663	15078.16
874.982	15106.64
875.301	15031.61
875.62	15021.22
875.939	14933.53
876.258	15031.84
876.577	14897.6
876.896	14799.75
877.214	14857.38
877.533	14877.26
877.852	14865.29
878.17	14832.97
878.489	14834.33
878.807	14781.67
879.125	14702.13
879.444	14630.49
879.762	14741.67
880.08	14630.72
880.398	14597.5
880.716	14536.71
881.034	14521.12
881.352	14468.46
881.67	14459.87
881.988	14486.09
882.306	14403.83
882.624	14400.21
882.941	14380.78
883.259	14319.54
883.577	14285.19
883.894	14363.61
884.212	14200.45
884.529	14228.92
884.846	14149.37
885.164	14166.55
885.481	14021.02
885.798	14079.77
886.115	13997.29
886.432	14047.68
886.75	13994.12
887.067	13983.5
887.383	13880.91
887.7	13927.23
888.017	13800.23
888.334	13817.86
888.651	13780.57
888.967	13741.93
889.284	13756.62
889.6	13640.01
889.917	13577.64
890.233	13517.75
890.55	13474.82
890.866	13534.7
891.182	13500.13
891.498	13437.3
891.815	13318.21
892.131	13276.18
892.447	13267.14
892.763	13222.39
893.079	13053.58
893.395	13165.44
893.71	13120.02
894.026	13076.18
894.342	13081.38
894.657	13009.52
894.973	12952.34
895.289	12965.9
895.604	12914.38
895.92	12751.9
896.235	12779.69
896.55	12770.43
896.865	12743.08
897.181	12662.63
897.496	12609.3
897.811	12619.02
898.126	12533.6
898.441	12482.52
898.756	12465.8
899.071	12415.41
899.386	12442.53
899.7	12294.96
900.015	12253.15
900.33	12124.12
900.644	12169.54
900.959	12139.94
901.273	12106.94
901.588	12015.42
901.902	11946.49
902.216	11976.55
902.531	11917.79
902.845	11920.96
903.159	11781.53
903.473	11749.21
903.787	11719.38
904.101	11632.83
904.415	11581.53
904.729	11600.97
905.042	11548.54
905.356	11489.78
905.67	11452.95
905.984	11400.75
906.297	11405.72
906.611	11283.91
906.924	11314.19
907.237	11282.78
907.551	11242.11
907.864	11182.45
908.177	11128.89
908.491	11065.61
908.804	10996.46
909.117	10965.5
909.43	10889.8
909.743	10803.25
910.056	10841.66
910.368	10737.94
910.681	10729.35
910.994	10697.71
911.307	10651.61
911.619	10577.04
911.932	10540.2
912.244	10462.24
912.557	10512.18
912.869	10412.52
913.181	10373.2
913.494	10421.56
913.806	10274.9
914.118	10256.59
914.43	10156.48
914.742	10283.49
915.054	10120.33
915.366	10135.24
915.678	10044.85
915.99	9950.39
916.302	9918.52
916.613	9852.31
916.925	9850.28
917.236	9791.97
917.548	9751.52
917.859	9817.96
918.171	9650.06
918.482	9557.4
918.794	9643.05
919.105	9599.89
919.416	9466.78
919.727	9529.16
920.038	9477.41
920.349	9446.9
920.66	9394.92
920.971	9350.86
921.282	9251.2
921.593	9261.82
921.903	9237.19
922.214	9182.72
922.525	9104.99
922.835	9134.82
923.146	9045.1
923.456	9006.91
923.767	8933.92
924.077	8957.19
924.387	8897.08
924.697	8861.15
925.008	8919.68
925.318	8785.67
925.628	8729.4
925.938	8695.96
926.248	8621.61
926.558	8576.64
926.867	8579.35
927.177	8537.77
927.487	8482.63
927.796	8504.32
928.106	8419.35
928.416	8423.65
928.725	8346.81
929.034	8292.58
929.344	8318.57
929.653	8317.89
929.962	8159.7
930.271	8169.42
930.581	8094.62
930.89	8080.15
931.199	8094.39
931.508	8051.45
931.817	8008.52
932.125	8021.85
932.434	7972.59
932.743	7861.18
933.051	7826.38
933.36	7818.69
933.669	7784.8
933.977	7746.15
934.286	7753.16
934.594	7741.41
934.902	7586.83
935.21	7572.15
935.519	7622.31
935.827	7534.63
936.135	7539.6
936.443	7476.1
936.751	7422.32
937.059	7441.75
937.367	7336.45
937.674	7335.54
937.982	7331.47
938.29	7306.84
938.597	7299.61
938.905	7206.51
939.213	7143.68
939.52	7113.63
939.827	7133.74
940.135	7054.65
940.442	7018.71
940.749	7065.04
941.056	7002.89
941.363	6939.17
941.67	6909.56
941.977	6906.4
942.284	6829.11
942.591	6814.2
942.898	6836.12
943.205	6798.38
943.511	6736.91
943.818	6708.89
944.125	6640.42
944.431	6604.71
944.738	6633.64
945.044	6663.69
945.35	6545.73
945.657	6578.27
945.963	6555.45
946.269	6462.12
946.575	6475.45
946.881	6374.21
947.187	6381.44
947.493	6363.36
947.799	6299.41
948.105	6299.18
948.41	6247.21
948.716	6258.73
949.022	6183.71
949.327	6250.37
949.633	6121.79
949.938	6100.32
950.244	6106.65
950.549	6077.04
950.854	6060.77
951.16	6056.71
951.465	6011.96
951.77	5955.92
952.075	5939.65
952.38	5940.1
952.685	5908.01
952.99	5834.56
953.294	5885.41
953.599	5775.36
953.904	5808.58
954.209	5754.57
954.513	5701.46
954.818	5662.37
955.122	5680.9
955.426	5657.39
955.731	5651.29
956.035	5604.51
956.339	5560.22
956.643	5558.64
956.948	5508.24
957.252	5482.03
957.556	5493.56
957.86	5444.74
958.163	5430.51
958.467	5421.02
958.771	5416.04
959.075	5383.95
959.378	5341.02
959.682	5357.06
959.985	5296.73
960.289	5233.22
960.592	5263.96
960.896	5190.29
961.199	5206.56
961.502	5168.59
961.805	5133.57
962.108	5113.91
962.411	5128.82
962.714	5043.17
963.017	5087.47
963.32	5022.38
963.623	4964.98
963.926	4993.46
964.228	4948.71
964.531	4954.81
964.833	4916.62
965.136	4880.24
965.438	4868.94
965.741	4870.52
966.043	4819.45
966.345	4797.53
966.648	4776.96
966.95	4755.5
967.252	4725.44
967.554	4711.66
967.856	4687.48
968.158	4656.74
968.46	4657.87
968.761	4602.51
969.063	4612.45
969.365	4587.59
969.666	4543.52
969.968	4553.02
970.269	4536.97
970.571	4512.11
970.872	4529.29
971.174	4467.14
971.475	4442.06
971.776	4415.17
972.077	4427.6
972.378	4370.65
972.679	4332
972.98	4348.95
973.281	4313.25
973.582	4300.37
973.883	4283.19
974.183	4229.41
974.484	4266.92
974.785	4164.1
975.085	4184.44
975.386	4250.88
975.686	4202.97
975.986	4126.36
976.287	4136.3
976.587	4127.72
976.887	4114.38
977.187	4106.93
977.487	4048.17
977.787	4005.69
978.087	3994.61
978.387	3945.57
978.687	3999.36
978.987	3917.33
979.286	3948.96
979.586	3922.3
979.885	3915.52
980.185	3874.84
980.484	3876.42
980.784	3828.97
981.083	3832.36
981.382	3825.8
981.682	3810.89
981.981	3786.93
982.28	3772.25
982.579	3744.45
982.878	3744.9
983.177	3703.32
983.475	3713.72
983.774	3636.2
984.073	3663.77
984.372	3607.5
984.67	3617.9
984.969	3620.39
985.267	3620.39
985.566	3638.46
985.864	3547.84
986.162	3551.01
986.461	3520.5
986.759	3478.47
987.057	3481.86
987.355	3442.54
987.653	3455.42
987.951	3442.31
988.249	3445.93
988.547	3420.84
988.844	3400.05
989.142	3388.98
989.44	3394.4
989.737	3367.06
990.035	3362.76
990.332	3334.52
990.63	3332.71
990.927	3290
991.224	3264.01
991.521	3257.91
991.819	3246.84
992.116	3228.76
992.413	3190.34
992.71	3195.31
993.006	3167.52
993.303	3167.74
993.6	3165.26
993.897	3174.07
994.193	3105.14
994.49	3085.48
994.787	3101.75
995.083	3028.54
995.379	3014.53
995.676	3036.9
995.972	2987.41
996.268	2987.63
996.565	2965.94
996.861	2965.26
997.157	2969.55
997.453	2925.26
997.749	2920.74
998.044	2884.36
998.34	2887.52
998.636	2879.61
998.932	2885.72
999.227	2845.26
999.523	2857.69
999.818	2774.76
1000.114	2792.16
1000.409	2797.58
1000.704	2723.46
1001	2775.44
1001.295	2709.67
1001.59	2709.45
1001.885	2703.8
1002.18	2686.4
1002.475	2683.91
1002.77	2656.12
1003.065	2622.45
1003.359	2629.68
1003.654	2626.96
1003.949	2610.24
1004.243	2567.53
1004.538	2565.27
1004.832	2571.6
1005.127	2537.48
1005.421	2513.52
1005.715	2512.39
1006.009	2507.42
1006.304	2496.57
1006.598	2484.37
1006.892	2398.27
1007.186	2435.11
1007.48	2378.38
1007.773	2430.59
1008.067	2351.72
1008.361	2360.08
1008.655	2364.6
1008.948	2307.2
1009.242	2322.57
1009.535	2331.61
1009.829	2282.57
1010.122	2300.42
1010.415	2277.6
1010.708	2284.6
1011.001	2279.63
1011.295	2214.55
1011.588	2221.78
1011.881	2192.4
1012.173	2211.61
1012.466	2180.2
1012.759	2163.02
1013.052	2173.19
1013.344	2148.11
1013.637	2122.57
1013.93	2151.27
1014.222	2124.15
1014.514	2052.74
1014.807	2081.22
1015.099	2059.3
1015.391	2061.78
1015.683	2035.34
1015.976	2022.69
1016.268	1987.21
1016.56	2014.1
1016.851	2006.64
1017.143	1976.36
1017.435	1976.13
1017.727	1954.67
1018.018	1962.12
1018.31	1935.01
1018.602	1924.84
1018.893	1891.62
1019.185	1922.8
1019.476	1888.91
1019.767	1887.1
1020.058	1850.26
1020.35	1829.47
1020.641	1781.34
1020.932	1810.04
1021.223	1772.75
1021.514	1765.74
1021.804	1733.43
1022.095	1765.29
1022.386	1728.46
1022.677	1732.98
1022.967	1679.65
1023.258	1699.31
1023.548	1695.01
1023.839	1680.55
1024.129	1662.92
1024.419	1644.17
1024.709	1666.09
1025	1651.62
1025.29	1613.66
1025.58	1589.25
1025.87	1619.31
1026.16	1609.59
1026.449	1582.7
1026.739	1586.77
1027.029	1562.59
1027.319	1537.73
1027.608	1537.05
1027.898	1525.3
1028.187	1541.12
1028.477	1512.64
1028.766	1477.84
1029.055	1483.04
1029.344	1503.15
1029.634	1451.18
1029.923	1436.94
1030.212	1469.48
1030.501	1419.99
1030.79	1425.87
1031.078	1407.11
1031.367	1387.22
1031.656	1391.52
1031.945	1394
1032.233	1381.12
1032.522	1365.08
1032.81	1368.47
1033.099	1337.06
1033.387	1346.55
1033.675	1332.31
1033.963	1324.85
1034.251	1322.82
1034.54	1319.2
1034.828	1262.03
1035.116	1301.8
1035.403	1286.66
1035.691	1260.67
1035.979	1258.87
1036.267	1246.66
1036.554	1232.88
1036.842	1250.28
1037.129	1225.19
1037.417	1215.93
1037.704	1206.21
1037.992	1195.14
1038.279	1213.22
1038.566	1168.25
1038.853	1168.25
1039.14	1168.25
