Data from whiteboard_FLMS001491_00099.txt Node
Date: Wed Feb 08 11:28:45 GMT 2017
User: dcchb
Spectrometer: FLMS00149
Trigger mode: 0
Integration Time (sec): 2.000000E-2
Scans to average: 10
Electric dark correction enabled: true
Nonlinearity correction enabled: false
Boxcar width: 0
XAxis mode: Wavelengths
Number of Pixels in Spectrum: 2048
>>>>>Begin Spectral Data<<<<<
341.393	-3.94
341.776	-3.94
342.16	-3.94
342.543	-54.33
342.927	-67.22
343.31	-71.06
343.693	-64.5
344.077	-59.53
344.46	-65.41
344.843	-45.97
345.226	-21.57
345.61	-24.51
345.993	-12.3
346.376	-1.23
346.759	-2.13
347.142	20.69
347.525	36.06
347.908	49.39
348.291	74.7
348.674	81.93
349.057	105.44
349.44	129.39
349.823	143.4
350.206	157.19
350.588	218.2
350.971	232.66
351.354	262.72
351.737	267.46
352.119	285.54
352.502	275.37
352.884	317.63
353.267	320.12
353.65	354.02
354.032	364.64
354.414	342.49
354.797	332.77
355.179	365.09
355.562	369.83
355.944	367.8
356.326	389.27
356.709	385.43
357.091	367.8
357.473	375.71
357.855	387.01
358.238	387.46
358.62	379.1
359.002	396.27
359.384	389.04
359.766	376.39
360.148	392.43
360.53	380.23
360.912	366.67
361.294	362.6
361.676	365.09
362.057	372.55
362.439	379.33
362.821	375.94
363.203	372.09
363.584	371.19
363.966	386.33
364.348	384.07
364.729	377.29
365.111	380.91
365.493	388.82
365.874	363.51
366.256	361.02
366.637	371.87
367.019	365.54
367.4	367.35
367.781	382.26
368.163	354.92
368.544	367.35
368.925	368.7
369.306	369.61
369.688	400.57
370.069	384.07
370.45	373.9
370.831	372.09
371.212	396.5
371.593	371.64
371.974	372.55
372.355	380.68
372.736	385.43
373.117	383.62
373.498	383.39
373.879	375.94
374.26	361.47
374.641	389.72
375.021	382.72
375.402	396.27
375.783	390.17
376.163	407.35
376.544	406.67
376.925	402.83
377.305	409.16
377.686	408.93
378.066	405.31
378.447	431.3
378.827	427.46
379.208	411.42
379.588	410.29
379.968	418.2
380.349	421.36
380.729	421.81
381.109	436.5
381.489	428.82
381.87	415.94
382.25	434.47
382.63	424.97
383.01	444.86
383.39	414.13
383.77	439.89
384.15	459.78
384.53	445.54
384.91	447.12
385.29	467.46
385.67	447.57
386.049	458.87
386.429	462.26
386.809	481.92
387.189	496.39
387.568	502.94
387.948	479.89
388.328	477.18
388.707	488.7
389.087	504.29
389.466	509.27
389.846	511.53
390.225	512.66
390.605	500.23
390.984	526.89
391.363	534.35
391.743	530.28
392.122	544.29
392.501	545.65
392.881	556.27
393.26	535.71
393.639	582.26
394.018	594.24
394.397	568.25
394.776	556.72
395.155	587.23
395.534	620.68
395.913	602.6
396.292	604.63
396.671	635.36
397.05	629.94
397.429	623.39
397.808	660.9
398.186	661.58
398.565	668.36
398.944	674.46
399.323	680.34
399.701	686.21
400.08	699.09
400.458	717.62
400.837	714.68
401.215	755.14
401.594	748.13
401.972	762.14
402.351	807.34
402.729	786.55
403.107	804.85
403.486	824.74
403.864	847.56
404.242	824.74
404.62	860.44
404.999	884.4
405.377	869.48
405.755	903.83
406.133	933.66
406.511	960.1
406.889	949.48
407.267	964.17
407.645	990.16
408.023	1005.07
408.401	1043.49
408.779	1036.26
409.156	1093.88
409.534	1115.13
409.912	1112.64
410.29	1159.42
410.667	1185.41
411.045	1153.09
411.422	1217.04
411.8	1219.3
412.178	1243.03
412.555	1270.6
412.933	1283.71
413.31	1311.51
413.687	1344.27
414.065	1337.04
414.442	1379.07
414.819	1408.68
415.197	1425.63
415.574	1462.91
415.951	1480.54
416.328	1492.97
416.705	1522.57
417.082	1530.93
417.46	1539.3
417.837	1588.56
418.214	1576.13
418.591	1628.56
418.967	1607.99
419.344	1612.06
419.721	1693.42
420.098	1653.87
420.475	1722.12
420.852	1721.89
421.228	1768.89
421.605	1779.74
421.982	1803.47
422.358	1812.51
422.735	1824.94
423.111	1846.63
423.488	1892.05
423.864	1902.22
424.241	1906.52
424.617	1958.49
424.994	1966.18
425.37	1996.23
425.746	1963.24
426.123	2031.71
426.499	2043.92
426.875	2070.36
427.251	2134.76
427.627	2156.23
428.003	2174.31
428.379	2223.12
428.756	2222.67
429.132	2268.54
429.507	2323.46
429.883	2375.43
430.259	2367.75
430.635	2404.81
431.011	2424.47
431.387	2468.08
431.763	2526.61
432.138	2539.27
432.514	2523.68
432.89	2574.52
433.265	2712.15
433.641	2692.26
434.016	2736.55
434.392	2764.8
434.767	2821.52
435.143	2832.6
435.518	2839.37
435.894	2873.05
436.269	2938.35
436.644	2968.41
437.02	3004.34
437.395	3005.47
437.77	3041.4
438.145	3131.34
438.52	3121.63
438.895	3172.93
439.271	3195.3
439.646	3257.44
440.021	3299.7
440.395	3271
440.77	3263.77
441.145	3286.37
441.52	3381.06
441.895	3371.79
442.27	3429.87
442.645	3421.28
443.019	3539.02
443.394	3485.46
443.769	3544.89
444.143	3521.84
444.518	3603.2
444.892	3556.87
445.267	3635.06
445.641	3631.9
446.016	3640.48
446.39	3694.49
446.764	3708.96
447.139	3732.46
447.513	3799.58
447.887	3780.14
448.262	3774.27
448.636	3834.83
449.01	3901.49
449.384	3936.07
449.758	3945.56
450.132	3983.75
450.506	4014.71
450.88	4051.55
451.254	4099
451.628	4169.51
452.002	4170.64
452.376	4212.45
452.75	4271.88
453.123	4338.77
453.497	4378.54
453.871	4369.5
454.244	4484.98
454.618	4540.8
454.992	4586
455.365	4580.57
455.739	4714.81
456.112	4745.09
456.486	4815.14
456.859	4844.75
457.232	4943.95
457.606	4946.44
457.979	5012.88
458.352	5166.09
458.725	5204.06
459.099	5204.74
459.472	5376.71
459.845	5398.18
460.218	5440.66
460.591	5457.61
460.964	5498.51
461.337	5690.37
461.71	5737.6
462.083	5788.9
462.456	5825.74
462.829	5844.49
463.201	5952.96
463.574	5984.83
463.947	6080.87
464.32	6227.76
464.692	6229.12
465.065	6299.85
465.438	6362.9
465.81	6503.23
466.183	6582.55
466.555	6721.98
466.928	6717.69
467.3	6749.1
467.672	6906.61
468.045	7082.2
468.417	7092.82
468.789	7135.31
469.161	7177.79
469.534	7363.32
469.906	7507.5
470.278	7587.05
470.65	7681.06
471.022	7866.36
471.394	7954.72
471.766	8066.81
472.138	8148.16
472.51	8398.1
472.882	8461.6
473.253	8508.15
473.625	8694.14
473.997	8868.37
474.369	8923.06
474.74	9001.7
475.112	9208.7
475.484	9311.29
475.855	9447.79
476.227	9535.92
476.598	9858.17
476.97	9919.41
477.341	10152.4
477.713	10289.8
478.084	10346.75
478.455	10629.23
478.827	10691.37
479.198	11075.99
479.569	11064.47
479.94	11394.4
480.311	11472.59
480.682	11739.93
481.053	12086.36
481.424	12203.87
481.795	12441.38
482.166	12593.69
482.537	12643.86
482.908	12947.36
483.279	13075.04
483.65	13349.38
484.021	13571.3
484.391	13777.39
484.762	13858.29
485.133	14037.5
485.503	14216.25
485.874	14579.18
486.244	14710.93
486.615	14972.84
486.985	15162.89
487.356	15421.42
487.726	15541.87
488.097	15773.95
488.467	15897.79
488.837	16292.35
489.207	16480.15
489.578	16795.62
489.948	16785.22
490.318	17047.59
490.688	17049.85
491.058	17411.42
491.428	17578.42
491.798	17734.35
492.168	18130.05
492.538	18158.29
492.908	18380.21
493.278	18642.57
493.648	18735.91
494.017	18942
494.387	19191.94
494.757	19241.66
495.126	19521.65
495.496	19621.76
495.866	19772.26
496.235	19906.5
496.605	20135.19
496.974	20267.39
497.344	20480.27
497.713	20552.58
498.082	20701.73
498.452	20993.25
498.821	21031.21
499.19	21141.04
499.559	21344.88
499.928	21501.71
500.298	21650.63
500.667	21964.3
501.036	21766.33
501.405	22127
501.774	22070.06
502.143	22445.64
502.512	22515.47
502.88	22723.15
503.249	22725.63
503.618	23019.18
503.987	23068.45
504.356	23043.36
504.724	23241.55
505.093	23381.89
505.462	23444.26
505.83	23733.97
506.199	23753.17
506.567	24228.19
506.936	24199.72
507.304	24469.99
507.672	24419.37
508.041	24736.65
508.409	24864.33
508.777	25041.5
509.145	25223.19
509.514	25167.37
509.882	25471.1
510.25	25516.29
510.618	25701.82
510.986	25813.69
511.354	26161.93
511.722	26272.2
512.09	26577.96
512.458	26710.39
512.826	26830.61
513.193	27084.84
513.561	27080.55
513.929	27338.39
514.297	27532.28
514.664	27807.08
515.032	27991.03
515.4	28161.19
515.767	28309.44
516.135	28472.15
516.502	28364.35
516.869	28917.11
517.237	29097.89
517.604	29071.68
517.972	29440.93
518.339	29566.13
518.706	29692.23
519.073	29864.2
519.44	29989.62
519.808	30338.31
520.175	30382.15
520.542	30821.69
520.909	30877.73
521.276	30929.71
521.643	31257.16
522.009	31475.68
522.376	31687.43
522.743	31866.18
523.11	32166.96
523.477	32479.5
523.843	32620.96
524.21	32900.73
524.577	33271.79
524.943	33442.19
525.31	33480.15
525.676	33794.49
526.043	33964.88
526.409	34147.03
526.776	34420.01
527.142	34535.94
527.508	34913.56
527.874	35163.72
528.241	35335.7
528.607	35425.64
528.973	35868.34
529.339	35871.05
529.705	36382.22
530.071	36477.81
530.437	36592.84
530.803	36979.72
531.169	37047.06
531.535	37056.55
531.901	37356.88
532.267	37530.67
532.632	37774.5
532.998	37943.99
533.364	38287.03
533.73	38345.56
534.095	38594.14
534.461	38652.9
534.826	38958.2
535.192	38868.48
535.557	39189.15
535.923	39265.76
536.288	39565.41
536.653	39670.95
537.019	39552.53
537.384	39938.29
537.749	40021
538.114	40053.99
538.479	40157.72
538.845	40368.33
539.21	40256.02
539.575	40575.33
539.94	40685.84
540.305	40844.25
540.67	40691.26
541.034	41114.07
541.399	41135.54
541.764	41346.16
542.129	41411.24
542.494	41457.34
542.858	41607.39
543.223	41803.77
543.587	41901.62
543.952	41867.73
544.316	42073.15
544.681	42077.66
545.045	42349.52
545.41	42625
545.774	42646.92
546.138	42753.58
546.503	42918.55
546.867	42913.12
547.231	43339.1
547.595	43434.92
547.959	43571.64
548.324	43629.94
548.688	43735.7
549.052	43935.47
549.416	44096.37
549.779	44160.77
550.143	44199.87
550.507	44702.68
550.871	44807.54
551.235	44673.98
551.599	45080.98
551.962	45210.69
552.326	45306.05
552.689	45651.13
553.053	45291.59
553.417	45530.23
553.78	46028.97
554.143	45792.37
554.507	46108.07
554.87	46262.41
555.234	46601.16
555.597	46341.73
555.96	46581.05
556.323	46866.01
556.686	46873.7
557.05	47106.69
557.413	47197.53
557.776	47406.56
558.139	47548.71
558.502	47583.73
558.865	47573.57
559.228	47949.15
559.59	47984.4
559.953	47986.66
560.316	48404.96
560.679	48340.32
561.041	48718.39
561.404	48740.09
561.767	48849.01
562.129	48936.24
562.492	49325.61
562.854	49326.51
563.217	49302.11
563.579	49451.03
563.941	49734.86
564.304	49810.34
564.666	50024.57
565.028	50054.4
565.39	50166.27
565.753	50338.69
566.115	50406.03
566.477	50653.94
566.839	50666.14
567.201	51062.74
567.563	50950.43
567.925	51362.84
568.287	51373.92
568.648	51542.95
569.01	51681.48
569.372	51923.51
569.734	51890.51
570.095	52079.66
570.457	52249.37
570.819	52376.83
571.18	52396.72
571.542	52563.94
571.903	52592.42
572.265	52705.86
572.626	52847.1
572.987	52970.03
573.349	52999.19
573.71	53014.33
574.071	53107.88
574.432	53235.34
574.794	53535.22
575.155	53475.33
575.516	53410.7
575.877	53516.23
576.238	53698.83
576.599	53683.24
576.96	53797.58
577.32	53830.12
577.681	53907.86
578.042	53932.27
578.403	53939.05
578.763	53916
579.124	53910.35
579.485	54094.98
579.845	54023.57
580.206	53963.45
580.566	53994.87
580.927	54009.33
581.287	54183.56
581.648	53967.97
582.008	54132.04
582.368	54104.69
582.728	54086.16
583.089	54055.65
583.449	54089.1
583.809	54122.09
584.169	54222.2
584.529	54070.12
584.889	54246.16
585.249	54274.18
585.609	54086.39
585.969	54268.98
586.329	54209.78
586.688	54256.78
587.048	54261.07
587.408	54216.1
587.768	54244.12
588.127	54213.62
588.487	54172.49
588.846	54398.92
589.206	54271.24
589.565	54322.99
589.925	54458.58
590.284	54373.61
590.643	54501.52
591.003	54601.18
591.362	54633.49
591.721	54659.71
592.08	54703.55
592.44	54748.07
592.799	54798.91
593.158	54748.97
593.517	54739.03
593.876	54824.67
594.235	54750.55
594.593	54793.71
594.952	54891.57
595.311	54754.85
595.67	54823.54
596.029	54951.9
596.387	54977.89
596.746	54985.57
597.104	54864.45
597.463	54866.03
597.822	55007.49
598.18	54890.21
598.538	54815.86
598.897	55017.21
599.255	54760.72
599.613	55205.46
599.972	54944.45
600.33	54990.55
600.688	54864.22
601.046	54940.38
601.404	55069.41
601.762	54908.06
602.12	55078.68
602.478	54969.08
602.836	54944.67
603.194	54767.27
603.552	54821.74
603.91	54735.19
604.268	54856.76
604.625	54775.86
604.983	54849.53
605.341	54617.67
605.698	54811.12
606.056	54875.07
606.413	54861.51
606.771	54897.89
607.128	54972.92
607.485	54822.19
607.843	54950.55
608.2	54974.27
608.557	55149.86
608.914	54979.92
609.272	55166.81
609.629	55261.95
609.986	55380.37
610.343	55181.05
610.7	55415.62
611.057	55265.11
611.414	55399.35
611.771	55369.74
612.127	55511.89
612.484	55477.76
612.841	55604.99
613.198	55521.83
613.554	55588.27
613.911	55816.29
614.267	55717.31
614.624	55712.56
614.98	55847.92
615.337	56033.91
615.693	55959.56
616.05	55954.36
616.406	56170.4
616.762	56047.92
617.118	56102.15
617.475	56127.92
617.831	56172.21
618.187	56218.54
618.543	56236.39
618.899	56354.35
619.255	56255.37
619.611	56224.86
619.967	56328.59
620.323	56374.01
620.678	56250.63
621.034	56147.8
621.39	56116.84
621.746	56053.57
622.101	56440
622.457	56143.28
622.812	56181.25
623.168	56196.39
623.523	56161.14
623.879	56109.16
624.234	55969.28
624.589	55961.82
624.945	56005.43
625.3	56134.7
625.655	55978.77
626.01	56010.63
626.365	56047.47
626.72	55952.1
627.075	55868.71
627.43	55872.78
627.785	55795.72
628.14	55778.32
628.495	55896.06
628.85	55771.77
629.205	55718.89
629.559	55816.06
629.914	55683.86
630.269	55639.12
630.623	55579.46
630.978	55500.14
631.332	55587.59
631.687	55660.81
632.041	55541.04
632.396	55559.8
632.75	55427.6
633.104	55441.38
633.459	55451.1
633.813	55381.5
634.167	55449.06
634.521	55454.49
634.875	55487.93
635.229	55514.37
635.583	55363.19
635.937	55359.58
636.291	55359.35
636.645	55396.64
636.999	55282.52
637.352	55369.52
637.706	55230.09
638.06	55329.97
638.413	55288.84
638.767	55251.78
639.121	55347.37
639.474	55231.22
639.828	55171.78
640.181	55230.99
640.534	55291.78
640.888	55136.53
641.241	55108.06
641.594	55123.65
641.947	55207.72
642.301	55069.64
642.654	55179.02
643.007	55200.26
643.36	55092.01
643.713	55185.57
644.066	55196.42
644.419	54973.6
644.771	54741.06
645.124	54421.97
645.477	54391.69
645.83	54223.33
646.182	54105.6
646.535	54074.64
646.888	54141.3
647.24	53963.68
647.593	54183.56
647.945	54009.78
648.298	53816.11
648.65	53733.86
649.002	53563.01
649.355	53674.2
649.707	53669.9
650.059	53647.98
650.411	53966.39
650.763	54007.97
651.115	54205.93
651.467	54052.72
651.819	54010.23
652.171	53863.12
652.523	53901.31
652.875	53889.11
653.227	53761.2
653.578	53848.88
653.93	53744.7
654.282	53647.3
654.633	53611.6
654.985	53646.63
655.337	53581.54
655.688	53573.41
656.039	53629.23
656.391	53331.15
656.742	53457.93
657.094	53351.49
657.445	53530.7
657.796	53378.61
658.147	53305.17
658.498	53285.05
658.849	53452.05
659.2	53277.82
659.551	53263.36
659.902	53280.31
660.253	53243.47
660.604	53285.05
660.955	53156.02
661.306	53322.57
661.656	53252.74
662.007	53309.46
662.358	53293.19
662.708	53280.08
663.059	53272.62
663.409	53052.07
663.76	53277.14
664.11	53352.85
664.461	53421.32
664.811	53331.83
665.161	53307.88
665.511	53226.52
665.862	53236.92
666.212	53316.01
666.562	53274.88
666.912	53266.75
667.262	53178.39
667.612	53166.64
667.962	53203.25
668.312	53139.97
668.662	53215.45
669.011	53209.12
669.361	53240.99
669.711	53137.94
670.06	52983.14
670.41	53054.33
670.76	53071.95
671.109	53225.62
671.459	53094.1
671.808	52867.21
672.157	53062.23
672.507	52899.98
672.856	52810.26
673.205	52883.71
673.554	52889.13
673.904	52815.91
674.253	53026.08
674.602	52850.71
674.951	52355.13
675.3	52174.8
675.649	52715.35
675.998	52634.22
676.346	52557.84
676.695	52678.06
677.044	52480.78
677.393	52502.93
677.741	52411.4
678.09	52377.51
678.438	52190.85
678.787	52304.06
679.135	52161.92
679.484	51896.62
679.832	52111.98
680.181	51881.93
680.529	51870.85
680.877	51838.76
681.225	51699.56
681.573	51803.28
681.922	51645.32
682.27	51598.32
682.618	51607.58
682.966	51439
683.314	51434.03
683.661	51434.48
684.009	51193.13
684.357	51124.88
684.705	51045.34
685.053	51062.51
685.4	51006.7
685.748	50826.14
686.095	50763.31
686.443	50686.93
686.79	50526.26
687.138	50532.58
687.485	50611.23
687.832	50446.94
688.18	50615.75
688.527	50312.25
688.874	50260.73
689.221	50194.74
689.568	50186.83
689.915	50033.61
690.262	49930.11
690.609	49854.41
690.956	49797.91
691.303	49671.59
691.65	49513.4
691.997	49681.08
692.344	49350.69
692.69	49347.98
693.037	49412.84
693.383	48993.64
693.73	49156.35
694.077	48964.94
694.423	48959.97
694.769	48944.6
695.116	48748.9
695.462	48820.76
695.808	48605.4
696.155	48717.26
696.501	48454.9
696.847	48486.31
697.193	48180.78
697.539	48385.52
697.885	48037.06
698.231	47926.32
698.577	47934.91
698.923	47781.02
699.269	47716.16
699.614	47514.13
699.96	47480.91
700.306	47370.63
700.651	47359.56
700.997	47251.77
701.342	47117.98
701.688	47090.41
702.033	46960.93
702.379	46969.06
702.724	46916.41
703.069	46829.18
703.415	46414.95
703.76	46384.44
704.105	46454.27
704.45	46281.62
704.795	46176.09
705.14	45968.41
705.485	45969.99
705.83	45939.71
706.175	45857.9
706.52	45530.91
706.865	45548.31
707.209	45349.44
707.554	45174.08
707.899	45355.09
708.243	45085.95
708.588	45083.24
708.932	44723.02
709.277	44630.59
709.621	44706.97
709.966	44288.45
710.31	44388.56
710.654	44028.57
710.998	44109.25
711.342	44050.95
711.687	43809.37
712.031	43664.97
712.375	43538.87
712.719	43554.69
713.063	43470.4
713.407	43503.16
713.75	43064.98
714.094	43219.56
714.438	42971.2
714.782	43160.12
715.125	42918.09
715.469	43009.84
715.812	42616.86
716.156	42422.51
716.499	42403.31
716.843	42383.87
717.186	42134.84
717.53	42272.24
717.873	42227.49
718.216	42126.03
718.559	42017.78
718.902	41629.32
719.246	41620.73
719.589	41580.95
719.932	41474.29
720.275	41358.36
720.617	41405.37
720.96	41280.85
721.303	41206.05
721.646	41250.57
721.989	41049.9
722.331	41129.22
722.674	40915.66
723.016	40954.3
723.359	40867.75
723.701	40961.08
724.044	40589.79
724.386	40379.4
724.729	40665.05
725.071	40455.11
725.413	40426.63
725.755	40602.22
726.097	40274.77
726.439	40097.38
726.782	40178.96
727.124	40381.66
727.465	40001.34
727.807	39879.08
728.149	39842.47
728.491	39870.27
728.833	39761.79
729.175	39571.74
729.516	39496.49
729.858	39529.94
730.199	39590.05
730.541	39334.01
730.882	39425.76
731.224	39426.66
731.565	39260.79
731.906	39377.4
732.248	39244.74
732.589	39096.95
732.93	39035.26
733.271	39011.53
733.612	39077.52
733.953	39174.92
734.294	38953.91
734.635	38888.37
734.976	38941.25
735.317	38678.66
735.658	38755.72
735.999	38660.81
736.339	38541.26
736.68	38791.42
737.021	38577.64
737.361	38442.05
737.702	38692.67
738.042	38583.29
738.383	38247.93
738.723	38391.66
739.063	38203.87
739.404	38153.25
739.744	38071.22
740.084	37956.87
740.424	38070.54
740.764	37806.59
741.104	37916.42
741.444	37782.64
741.784	37551.91
742.124	37556.43
742.464	37694.05
742.804	37553.04
743.143	37448.41
743.483	37378.81
743.823	37192.37
744.162	37166.61
744.502	37294.97
744.841	36926.39
745.181	37106.27
745.52	36858.59
745.86	37088.64
746.199	36879.16
746.538	36725.72
746.877	36774.98
747.216	36570.46
747.556	36566.17
747.895	36540.64
748.234	36355.1
748.573	36356.01
748.911	36291.6
749.25	36130.48
749.589	36086.18
749.928	36123.02
750.267	35983.59
750.605	35859.98
750.944	35797.83
751.283	35586.08
751.621	35563.71
751.96	35436.26
752.298	35252.31
752.636	35426.77
752.975	35116.27
753.313	34976.83
753.651	35112.65
753.989	34892.77
754.327	34916.27
754.666	34483.74
755.004	34565.55
755.342	34693.68
755.679	34462.27
756.017	34319.68
756.355	34357.64
756.693	34053.92
757.031	34153.81
757.368	33790.43
757.706	33936.41
758.044	33553.82
758.381	33679.02
758.719	33480.15
759.056	33507.72
759.394	33364.67
759.731	33285.35
760.068	33079.48
760.405	32941.63
760.743	32857.79
761.08	32917.68
761.417	32840.17
761.754	32682.66
762.091	32565.37
762.428	32469.33
762.765	32300.07
763.102	32501.19
763.438	32238.83
763.775	32027.99
764.112	32078.61
764.449	32086.06
764.785	31978.5
765.122	31741.67
765.458	31502.35
765.795	31544.83
766.131	31544.38
766.467	31431.62
766.804	31173.77
767.14	31185.3
767.476	31040.89
767.812	31022.59
768.148	31097.16
768.485	30826.44
768.821	30708.7
769.157	30659.89
769.492	30536.5
769.828	30637.74
770.164	30363.85
770.5	30230.74
770.836	30324.3
771.171	30148.94
771.507	30011.99
771.842	29833.02
772.178	29844.99
772.513	29801.6
772.849	29650.19
773.184	29421.5
773.519	29483.42
773.855	29305.35
774.19	29184.44
774.525	29114.62
774.86	29098.35
775.195	29035.97
775.53	28983.77
775.865	28734.06
776.2	28650.45
776.535	28458.81
776.87	28307.41
777.205	28394.86
777.539	28360.06
777.874	28332.26
778.209	28117.58
778.543	27986.06
778.878	27916.23
779.212	27816.34
779.547	27671.94
779.881	27767.76
780.215	27540.42
780.55	27481.89
780.884	27366.64
781.218	27315.57
781.552	27210.94
781.886	27185.85
782.22	26952.19
782.554	26851.17
782.888	26585.87
783.222	26611.4
783.556	26537.28
783.889	26465.65
784.223	26202.38
784.557	26248.7
784.89	26045.32
785.224	26041.02
785.557	25836.51
785.891	25815.72
786.224	25589.28
786.558	25557.65
786.891	25298.9
787.224	25290.54
787.557	25186.58
787.891	25081.73
788.224	25099.35
788.557	25035.18
788.89	24877.89
789.223	24903.88
789.556	24685.13
789.888	24517.45
790.221	24499.6
790.554	24261.18
790.887	24328.75
791.219	24151.81
791.552	24157.23
791.884	24011.47
792.217	23932.15
792.549	23839.05
792.882	23595.89
793.214	23492.84
793.546	23572.61
793.879	23443.13
794.211	23107.09
794.543	23307.08
794.875	23165.17
795.207	23167.2
795.539	22890.82
795.871	22968.11
796.203	22759.75
796.535	22571.51
796.867	22682.24
797.198	22496.94
797.53	22480.21
797.862	22344.85
798.193	22351.86
798.525	22225.31
798.856	22252.65
799.188	21994.13
799.519	21913.68
799.85	21802.49
800.182	21724.08
800.513	21751.87
800.844	21566.79
801.175	21682.27
801.506	21535.15
801.837	21376.51
802.168	21455.38
802.499	21351.88
802.83	21172
803.161	21065.34
803.491	21027.6
803.822	21165.45
804.153	20972.01
804.483	20851.33
804.814	20720.49
805.145	20722.97
805.475	20637.78
805.805	20532.92
806.136	20596.2
806.466	20590.09
806.796	20546.71
807.126	20282.08
807.457	20373.6
807.787	20390.1
808.117	20322.98
808.447	20238.92
808.777	20292.25
809.107	20109.88
809.436	20112.14
809.766	20064.01
810.096	20035.08
810.426	19977.91
810.755	19944.24
811.085	19923.45
811.414	19807.29
811.744	19732.94
812.073	19601.65
812.403	19749.66
812.732	19621.98
813.061	19592.83
813.39	19531.59
813.719	19535.66
814.049	19562.78
814.378	19506.51
814.707	19492.5
815.036	19291.15
815.365	19367.53
815.693	19126.4
816.022	19151.94
816.351	19026.75
816.68	19006.86
817.008	19231.26
817.337	18972.51
817.665	18905.84
817.994	19017.93
818.322	18995.33
818.651	18899.74
818.979	18765.51
819.307	18798.28
819.636	18738.84
819.964	18680.99
820.292	18775.9
820.62	18747.88
820.948	18659.52
821.276	18633.54
821.604	18713.08
821.932	18716.7
822.259	18737.71
822.587	18607.77
822.915	18615.23
823.243	18655.91
823.57	18583.14
823.898	18623.14
824.225	18624.5
824.553	18620.65
824.88	18608.23
825.207	18617.04
825.535	18568.45
825.862	18628.56
826.189	18500.21
826.516	18578.17
826.843	18637.83
827.17	18628.79
827.497	18615.46
827.824	18542.92
828.151	18570.26
828.478	18422.24
828.805	18515.35
829.131	18435.57
829.458	18441.9
829.785	18353.54
830.111	18381.79
830.438	18467.89
830.764	18409.36
831.09	18371.85
831.417	18317.61
831.743	18341.79
832.069	18344.5
832.395	18211.4
832.722	18228.12
833.048	18196.26
833.374	18170.72
833.7	18066.32
834.026	18114.23
834.351	18133.21
834.677	18092.53
835.003	18046.21
835.329	18029.71
835.654	17955.14
835.98	17913.78
836.306	17942.71
836.631	17866.55
836.956	17867.23
837.282	17902.48
837.607	17782.94
837.932	17681.24
838.258	17700.45
838.583	17647.35
838.908	17478.76
839.233	17510.85
839.558	17529.61
839.883	17419.56
840.208	17361.93
840.533	17408.48
840.858	17338.88
841.182	17454.36
841.507	17276.06
841.832	17290.07
842.156	17149.73
842.481	17187.47
842.805	17027.48
843.13	17048.72
843.454	16868.16
843.778	16797.88
844.103	16821.83
844.427	16819.57
844.751	16807.37
845.075	16745.68
845.399	16673.14
845.723	16581.84
846.047	16616.64
846.371	16484.89
846.695	16438.79
847.019	16245.12
847.343	16181.62
847.666	16062.08
847.99	16079.03
848.313	16106.6
848.637	15942.31
848.96	15912.93
849.284	15834.74
849.607	15799.03
849.931	15662.54
850.254	15605.82
850.577	15556.55
850.9	15461.42
851.223	15435.65
851.546	15386.62
851.869	15305.04
852.192	15385.71
852.515	15179.84
852.838	15182.1
853.161	15212.61
853.483	15095.1
853.806	15024.14
854.129	14994.54
854.451	14998.6
854.774	14837.03
855.096	14775.56
855.419	14888.78
855.741	14829.12
856.063	14722.68
856.385	14733.07
856.708	14712.06
857.03	14635.22
857.352	14570.82
857.674	14475.9
857.996	14483.81
858.318	14396.36
858.64	14416.47
858.961	14466.19
859.283	14355.68
859.605	14344.38
859.926	14347.77
860.248	14233.43
860.57	14180.32
860.891	14283.37
861.212	14278.4
861.534	14231.84
861.855	14115.91
862.176	14063.26
862.498	14152.98
862.819	14142.81
863.14	14092.41
863.461	14141.45
863.782	13990.72
864.103	13989.14
864.424	13954.11
864.745	14008.12
865.065	13898.52
865.386	13863.27
865.707	13950.72
866.027	13929.25
866.348	13850.61
866.668	13830.95
866.989	13824.4
867.309	13676.83
867.63	13718.64
867.95	13654.23
868.27	13631.63
868.59	13719.99
868.91	13690.39
869.23	13784.17
869.55	13631.63
869.87	13663.72
870.19	13599.54
870.51	13597.28
870.83	13607.68
871.15	13585.53
871.469	13621.69
871.789	13544.4
872.109	13530.39
872.428	13437.97
872.748	13400.45
873.067	13369.27
873.386	13456.95
873.706	13396.39
874.025	13396.84
874.344	13311.64
874.663	13303.51
874.982	13225.32
875.301	13283.39
875.62	13194.36
875.939	13117.52
876.258	13249.72
876.577	13170.63
876.896	13066.45
877.214	13066.22
877.533	13037.07
877.852	13004.53
878.17	13049.28
878.489	13040.69
878.807	13069.16
879.125	12929.05
879.444	12936.06
879.762	12898.09
880.08	12861.03
880.398	12859
880.716	12788.49
881.034	12779.45
881.352	12744.88
881.67	12699.68
881.988	12710.08
882.306	12659
882.624	12610.19
882.941	12553.7
883.259	12448.39
883.577	12423.98
883.894	12392.57
884.212	12417.43
884.529	12357.54
884.846	12322.51
885.164	12231.44
885.481	12189.64
885.798	12310.76
886.115	12127.27
886.432	12023.54
886.75	12012.69
887.067	12084.1
887.383	11938.57
887.7	11881.17
888.017	11867.61
888.334	11962.07
888.651	11846.37
888.967	11775.41
889.284	11748.97
889.6	11635.98
889.917	11570.44
890.233	11565.92
890.55	11549.2
890.866	11613.61
891.182	11462.65
891.498	11434.4
891.815	11353.05
892.131	11294.52
892.447	11310.79
892.763	11249.55
893.079	11176.56
893.395	11186.95
893.71	11127.74
894.026	11175.65
894.342	11136.11
894.657	10987.41
894.973	11001.87
895.289	10986.96
895.604	10932.72
895.92	10854.08
896.235	10790.58
896.55	10792.84
896.865	10839.84
897.181	10704.03
897.496	10701.77
897.811	10646.85
898.126	10598.94
898.441	10460.87
898.756	10499.96
899.071	10511.49
899.386	10511.26
899.7	10377.26
900.015	10370.48
900.33	10353.3
900.644	10304.26
900.959	10332.51
901.273	10201.67
901.588	10193.98
901.902	10107.21
902.216	10135
902.531	10138.62
902.845	10089.81
903.159	9991.95
903.473	9989.24
903.787	9906.99
904.101	9896.59
904.415	9938.17
904.729	9860.66
905.042	9850.94
905.356	9905.86
905.67	9800.1
905.984	9825.63
906.297	9770.94
906.611	9678.74
906.924	9621.57
907.237	9643.49
907.551	9606.43
907.864	9551.06
908.177	9543.6
908.491	9513.55
908.804	9431.07
909.117	9420.67
909.43	9419.77
909.743	9347.45
910.056	9307.23
910.368	9296.38
910.681	9248.47
910.994	9241.92
911.307	9205.76
911.619	9103.39
911.932	9161.92
912.244	9045.09
912.557	9040.79
912.869	8968.93
913.181	9013.9
913.494	8959.67
913.806	8937.52
914.118	8898.42
914.43	8869.5
914.742	8877.63
915.054	8825.21
915.366	8810.06
915.678	8748.6
915.99	8648.04
916.302	8641.48
916.613	8561.71
916.925	8642.16
917.236	8643.52
917.548	8529.62
917.859	8518.1
918.171	8462.5
918.482	8495.27
918.794	8408.04
919.105	8419.57
919.416	8337.31
919.727	8333.47
920.038	8301.38
920.349	8221.61
920.66	8202.17
920.971	8245.56
921.282	8186.35
921.593	8155.62
921.903	8086.69
922.214	8050.76
922.525	8070.2
922.835	7999.46
923.146	7931.67
923.456	7917.89
923.767	7919.47
924.077	7851.45
924.387	7840.82
924.697	7815.29
925.008	7798.57
925.318	7764.89
925.628	7799.47
925.938	7745.91
926.248	7633.15
926.558	7631.11
926.867	7573.49
927.177	7589.53
927.487	7538.23
927.796	7455.98
928.106	7472.02
928.416	7422.3
928.725	7400.84
929.034	7369.42
929.344	7383.44
929.653	7348.18
929.962	7255.76
930.271	7187.73
930.581	7194.97
930.89	7208.75
931.199	7108.87
931.508	7049.66
931.817	7105.93
932.125	7048.98
932.434	6943.22
932.743	6854.41
933.051	6905.93
933.36	6895.99
933.669	6789.78
933.977	6823.68
934.286	6814.19
934.594	6760.18
934.902	6664.81
935.21	6665.94
935.519	6693.74
935.827	6631.37
936.135	6568.99
936.443	6531.25
936.751	6438.15
937.059	6521.54
937.367	6401.77
937.674	6445.61
937.982	6364.48
938.29	6359.51
938.597	6372.16
938.905	6303.01
939.213	6279.96
939.52	6164.71
939.827	6208.55
940.135	6106.41
940.442	6050.14
940.749	6070.93
941.056	6056.92
941.363	6050.36
941.67	6035
941.977	5973.76
942.284	5912.74
942.591	5886.98
942.898	5898.05
943.205	5830.26
943.511	5795.91
943.818	5773.08
944.125	5712.75
944.431	5750.71
944.738	5630.49
945.044	5586.19
945.35	5616.48
945.657	5559.3
945.963	5544.39
946.269	5527.67
946.575	5510.49
946.881	5492.86
947.187	5461.45
947.493	5395.01
947.799	5395.47
948.105	5376.48
948.41	5334
948.716	5366.31
949.022	5254.45
949.327	5239.54
949.633	5241.8
949.938	5213.32
950.244	5170.39
950.549	5146.43
950.854	5119.54
951.16	5126.32
951.465	5105.76
951.77	5040.45
952.075	5058.53
952.38	5022.59
952.685	4983.72
952.99	4948.92
953.294	4956.38
953.599	4920.68
953.904	4850.4
954.209	4866.21
954.513	4837.29
954.818	4812.2
955.122	4805.88
955.426	4763.17
955.731	4789.15
956.035	4703.28
956.339	4703.51
956.643	4642.26
956.948	4691.53
957.252	4617.86
957.556	4629.38
957.86	4568.37
958.163	4587.13
958.467	4537.86
958.771	4533.34
959.075	4543.74
959.378	4501.48
959.682	4507.81
959.985	4443.63
960.289	4460.8
960.592	4380.58
960.896	4389.84
961.199	4362.27
961.502	4383.06
961.805	4344.65
962.108	4292.44
962.411	4344.87
962.714	4363.85
963.017	4281.6
963.32	4282.05
963.623	4273.91
963.926	4195.5
964.228	4188.72
964.531	4151.2
964.833	4146.01
965.136	4138.1
965.438	4128.61
965.741	4065.56
966.043	4117.76
966.345	4079.34
966.648	4052.22
966.95	4034.37
967.252	4047.25
967.554	4007.25
967.856	4008.16
968.158	3959.12
968.46	3993.24
968.761	3974.49
969.063	3947.37
969.365	3938.33
969.666	3930.42
969.968	3892
970.269	3917.31
970.571	3906.24
970.872	3880.48
971.174	3836.18
971.475	3838.44
971.776	3830.53
972.077	3813.81
972.378	3772.23
972.679	3804.77
972.98	3781.72
973.281	3783.76
973.582	3767.49
973.883	3687.71
974.183	3687.49
974.484	3674.61
974.785	3657.43
975.085	3710.31
975.386	3682.52
975.686	3684.55
975.986	3625.57
976.287	3619.69
976.587	3549.19
976.887	3559.13
977.187	3617.43
977.487	3566.36
977.787	3559.13
978.087	3570.2
978.387	3536.53
978.687	3569.07
978.987	3508.96
979.286	3495.18
979.586	3502.41
979.885	3491.79
980.185	3447.04
980.484	3383.54
980.784	3401.62
981.083	3399.59
981.382	3382.19
981.682	3374.73
981.981	3343.99
982.28	3344.22
982.579	3326.37
982.878	3337.89
983.177	3278.91
983.475	3288.63
983.774	3265.13
984.073	3237.56
984.372	3205.92
984.67	3246.82
984.969	3248.4
985.267	3197.78
985.566	3180.38
985.864	3180.38
986.162	3171.8
986.461	3138.12
986.759	3138.8
987.057	3111.91
987.355	3101.29
987.653	3075.75
987.951	3068.52
988.249	3058.8
988.547	3064
988.844	3066.26
989.142	3039.14
989.44	3040.73
989.737	3016.77
990.035	3003.66
990.332	2925.25
990.63	2958.47
990.927	2921.63
991.224	2901.52
991.521	2882.76
991.819	2867.4
992.116	2885.47
992.413	2865.81
992.71	2818.81
993.006	2842.76
993.303	2823.1
993.6	2849.09
993.897	2799.38
994.193	2781.75
994.49	2777
994.787	2754.4
995.083	2738.13
995.379	2736.78
995.676	2705.37
995.972	2701.3
996.268	2668.76
996.565	2641.64
996.861	2652.03
997.157	2604.35
997.453	2631.7
997.749	2557.57
998.044	2582.43
998.34	2588.99
998.636	2525.03
998.932	2546.27
999.227	2527.74
999.523	2494.3
999.818	2495.2
1000.114	2434.87
1000.409	2436.67
1000.704	2470.8
1001	2432.83
1001.295	2360.97
1001.59	2405.71
1001.885	2422.66
1002.18	2388.99
1002.475	2386.28
1002.77	2374.53
1003.065	2296.11
1003.359	2288.43
1003.654	2315.77
1003.949	2292.5
1004.243	2283.46
1004.538	2260.18
1004.832	2249.79
1005.127	2213.4
1005.421	2172.27
1005.715	2160.75
1006.009	2185.83
1006.304	2151.93
1006.598	2129.56
1006.892	2141.77
1007.186	2126.62
1007.48	2096.12
1007.773	2116.46
1008.067	2078.72
1008.361	2095.67
1008.655	2066.06
1008.948	2014.99
1009.242	2022.9
1009.535	1985.84
1009.829	2009.79
1010.122	1999.17
1010.415	1949.45
1010.708	1961.21
1011.001	1982.45
1011.295	1928.89
1011.588	1924.14
1011.881	1919.4
1012.173	1888.44
1012.466	1877.14
1012.759	1869.91
1013.052	1873.98
1013.344	1842.56
1013.637	1830.59
1013.93	1818.38
1014.222	1791.27
1014.514	1802.57
1014.807	1760.53
1015.099	1766.63
1015.391	1758.72
1015.683	1746.97
1015.976	1737.26
1016.268	1690.7
1016.56	1714.21
1016.851	1718.27
1017.143	1669.46
1017.435	1695.9
1017.727	1667.65
1018.018	1637.6
1018.31	1667.2
1018.602	1658.16
1018.893	1608.22
1019.185	1579.97
1019.476	1594.66
1019.767	1611.16
1020.058	1582.46
1020.35	1563.93
1020.641	1563.25
1020.932	1554.44
1021.223	1556.24
1021.514	1515.79
1021.804	1515.57
1022.095	1481.67
1022.386	1503.82
1022.677	1499.97
1022.967	1443.03
1023.258	1470.37
1023.548	1454.55
1023.839	1453.42
1024.129	1427.89
1024.419	1441.22
1024.709	1433.08
1025	1412.52
1025.29	1394.89
1025.58	1386.76
1025.87	1393.76
1026.16	1370.26
1026.449	1369.36
1026.739	1345.63
1027.029	1377.72
1027.319	1339.3
1027.608	1336.59
1027.898	1340.66
1028.187	1294.1
1028.477	1287.78
1028.766	1311.96
1029.055	1278.51
1029.344	1270.83
1029.634	1265.63
1029.923	1255.01
1030.212	1248.46
1030.501	1242.58
1030.79	1241.9
1031.078	1257.5
1031.367	1213.2
1031.656	1210.26
1031.945	1188.57
1032.233	1191.73
1032.522	1215.69
1032.81	1187.21
1033.099	1199.42
1033.387	1167.78
1033.675	1153.77
1033.963	1160.32
1034.251	1154.45
1034.54	1158.97
1034.828	1143.6
1035.116	1141.11
1035.403	1129.36
1035.691	1107.22
1035.979	1121.68
1036.267	1114.22
1036.554	1104.96
1036.842	1082.13
1037.129	1087.56
1037.417	1073.55
1037.704	1081.68
1037.992	1064.51
1038.279	1053.43
1038.566	1046.2
1038.853	1046.2
1039.14	1046.2
