Data from White_paper_FLMS001491_091.txt Node
Date: Tue Feb 07 10:35:49 GMT 2017
User: dcchb
Spectrometer: FLMS00149
Trigger mode: 0
Integration Time (sec): 2.000000E-2
Scans to average: 10
Electric dark correction enabled: true
Nonlinearity correction enabled: false
Boxcar width: 0
XAxis mode: Wavelengths
Number of Pixels in Spectrum: 2048
>>>>>Begin Spectral Data<<<<<
341.393	-1.64
341.776	-1.64
342.16	-1.64
342.543	-75.76
342.927	-75.08
343.31	-76.44
343.693	-78.92
344.077	-69.89
344.46	-55.87
344.843	-29.43
345.226	-35.99
345.61	-17.68
345.993	-24.24
346.376	-5.03
346.759	-0.96
347.142	20.73
347.525	48.98
347.908	57.57
348.291	75.65
348.674	81.07
349.057	110.45
349.44	126.49
349.823	144.8
350.206	175.31
350.588	221.18
350.971	241.97
351.354	260.28
351.737	272.25
352.119	278.13
352.502	302.76
352.884	315.87
353.267	314.06
353.65	326.49
354.032	341.18
354.414	330.33
354.797	338.47
355.179	349.99
355.562	345.25
355.944	348.86
356.326	349.31
356.709	384.57
357.091	362.65
357.473	373.04
357.855	380.5
358.238	375.3
358.62	358.8
359.002	367.84
359.384	361.74
359.766	367.62
360.148	382.98
360.53	361.29
360.912	352.7
361.294	366.49
361.676	378.69
362.057	362.42
362.439	386.15
362.821	366.26
363.203	353.38
363.584	378.24
363.966	343.21
364.348	351.8
364.729	347.05
365.111	371.69
365.493	354.28
365.874	358.8
366.256	364.91
366.637	336.43
367.019	361.97
367.4	366.26
367.781	370.33
368.163	347.96
368.544	374.17
368.925	355.87
369.306	373.49
369.688	366.04
370.069	354.74
370.45	352.48
370.831	365.13
371.212	364.23
371.593	356.77
371.974	385.02
372.355	354.51
372.736	353.38
373.117	384.79
373.498	359.48
373.879	374.62
374.26	349.99
374.641	375.75
375.021	361.52
375.402	379.37
375.783	383.89
376.163	382.53
376.544	388.86
376.925	386.83
377.305	385.24
377.686	389.09
378.066	398.35
378.447	375.07
378.827	369.2
379.208	424.11
379.588	397.9
379.968	390.44
380.349	387.96
380.729	413.94
381.109	419.82
381.489	408.52
381.87	420.5
382.25	428.63
382.63	414.62
383.01	413.27
383.39	438.12
383.77	403.77
384.15	431.8
384.53	432.02
384.91	429.54
385.29	450.1
385.67	443.55
386.049	455.52
386.429	433.83
386.809	457.33
387.189	456.2
387.568	465.69
387.948	446.49
388.328	482.87
388.707	471.57
389.087	459.14
389.466	487.39
389.846	477.22
390.225	490.78
390.605	484.9
390.984	496.2
391.363	499.14
391.743	495.52
392.122	496.43
392.501	510.89
392.881	500.27
393.26	521.74
393.639	543.66
394.018	526.03
394.397	545.47
394.776	526.26
395.155	544.56
395.534	520.61
395.913	532.36
396.292	569.19
396.671	538.01
397.05	550.21
397.429	581.85
397.808	547.05
398.186	582.08
398.565	604.45
398.944	585.69
399.323	632.47
399.701	592.47
400.08	614.16
400.458	627.27
400.837	643.77
401.215	647.61
401.594	639.7
401.972	656.2
402.351	667.72
402.729	671.56
403.107	677.44
403.486	675.86
403.864	701.17
404.242	700.94
404.62	718.12
404.999	747.95
405.377	748.4
405.755	768.96
406.133	769.87
406.511	809.41
406.889	800.15
407.267	798.11
407.645	837.44
408.023	855.97
408.401	847.6
408.779	875.85
409.156	903.87
409.534	930.77
409.912	987.94
410.29	1011.89
410.667	987.04
411.045	999.24
411.422	1054.15
411.8	1082.17
412.178	1086.47
412.555	1103.87
412.933	1127.6
413.31	1147.48
413.687	1192.91
414.065	1236.97
414.442	1242.4
414.819	1274.71
415.197	1302.28
415.574	1333.69
415.951	1375.05
416.328	1395.16
416.705	1440.36
417.082	1403.07
417.46	1469.51
417.837	1496.18
418.214	1515.16
418.591	1547.25
418.967	1548.83
419.344	1568.94
419.721	1611.65
420.098	1621.6
420.475	1638.09
420.852	1712.21
421.228	1693.91
421.605	1705.44
421.982	1770.52
422.358	1771.87
422.735	1802.61
423.111	1819.33
423.488	1857.07
423.864	1866.79
424.241	1913.34
424.617	1947.91
424.994	1947.24
425.37	1956.73
425.746	1984.52
426.123	2019.78
426.499	2069.27
426.875	2038.99
427.251	2098.87
427.627	2130.73
428.003	2167.12
428.379	2211.18
428.756	2222.94
429.132	2286.89
429.507	2276.72
429.883	2342.25
430.259	2393.78
430.635	2380.9
431.011	2427.22
431.387	2473.32
431.763	2565.75
432.138	2538.86
432.514	2598.97
432.89	2589.48
433.265	2659.53
433.641	2702.02
434.016	2745.86
434.392	2801.68
434.767	2845.74
435.143	2812.52
435.518	2890.04
435.894	2938.85
436.269	3003.25
436.644	3014.1
437.02	3011.62
437.395	3038.28
437.77	3089.81
438.145	3156.7
438.52	3152.85
438.895	3175
439.271	3195.11
439.646	3275.11
440.021	3287.77
440.395	3327.54
440.77	3287.31
441.145	3340.42
441.52	3413.87
441.895	3396.69
442.27	3393.07
442.645	3456.58
443.019	3532.28
443.394	3489.57
443.769	3548.32
444.143	3510.13
444.518	3588.78
444.892	3593.97
445.267	3624.93
445.641	3682.56
446.016	3689.79
446.39	3680.07
446.764	3744.48
447.139	3720.07
447.513	3742.9
447.887	3752.61
448.262	3781.54
448.636	3830.58
449.01	3896.11
449.384	3903.57
449.758	3895.66
450.132	3996.9
450.506	4014.3
450.88	4039.16
451.254	4059.27
451.628	4134.52
452.002	4118.03
452.376	4186.27
452.75	4209.1
453.123	4245.03
453.497	4301.98
453.871	4305.37
454.244	4414.52
454.618	4455.65
454.992	4486.38
455.365	4544.68
455.739	4607.05
456.112	4657.22
456.486	4711.46
456.859	4735.41
457.232	4859.02
457.606	4893.6
457.979	4887.27
458.352	4967.27
458.725	5035.07
459.099	5087.27
459.472	5205.91
459.845	5259.24
460.218	5323.65
460.591	5318.9
460.964	5345.11
461.337	5472.12
461.71	5528.16
462.083	5583.3
462.456	5656.97
462.829	5684.99
463.201	5777.87
463.574	5785.78
463.947	5846.8
464.32	6033.91
464.692	6083.63
465.065	6112.1
465.438	6196.39
465.81	6291.08
466.183	6357.97
466.555	6478.87
466.928	6543.27
467.3	6548.92
467.672	6718.18
468.045	6817.17
468.417	6871.4
468.789	6894
469.161	6942.36
469.534	7126.54
469.906	7270.94
470.278	7284.95
470.65	7350.48
471.022	7539.41
471.394	7658.5
471.766	7726.52
472.138	7877.93
472.51	8016.91
472.882	8133.29
473.253	8260.29
473.625	8315.21
473.997	8500.28
474.369	8539.61
474.74	8658.02
475.112	8802.65
475.484	8947.96
475.855	9081.29
476.227	9192.24
476.598	9465.46
476.97	9523.53
477.341	9749.97
477.713	9856.41
478.084	9922.17
478.455	10175.72
478.827	10283.97
479.198	10617.74
479.569	10553.34
479.94	10855.93
480.311	10958.07
480.682	11179.08
481.053	11479.64
481.424	11673.99
481.795	11753.98
482.166	11975
482.537	12018.84
482.908	12324.14
483.279	12450.46
483.65	12685.26
484.021	12983.1
484.391	13095.42
484.762	13158.24
485.133	13386.26
485.503	13478.23
485.874	13803.65
486.244	13845.23
486.615	14111.44
486.985	14426.91
487.356	14565.21
487.726	14647.69
488.097	15007.01
488.467	15074.12
488.837	15372.65
489.207	15427.11
489.578	15662.58
489.948	15815.35
490.318	16037.71
490.688	16116.36
491.058	16391.38
491.428	16573.29
491.798	16799.95
492.168	17061.42
492.538	17065.03
492.908	17307.96
493.278	17592.48
493.648	17594.74
494.017	17838.34
494.387	18027.04
494.757	18096.87
495.126	18320.14
495.496	18382.96
495.866	18544.99
496.235	18692.33
496.605	18883.29
496.974	19024.3
497.344	19069.72
497.713	19286.44
498.082	19373.9
498.452	19523.27
498.821	19723.94
499.19	19776.6
499.559	19946.76
499.928	20054.11
500.298	20186.53
500.667	20365.28
501.036	20392.4
501.405	20602.11
501.774	20568.67
502.143	20789.91
502.512	20907.42
502.88	21025.15
503.249	21116.9
503.618	21363
503.987	21381.53
504.356	21647.74
504.724	21786.26
505.093	21865.58
505.462	21981.06
505.83	22021.74
506.199	22200.49
506.567	22475.74
506.936	22433.48
507.304	22658.56
507.672	22885.44
508.041	22962.05
508.409	23171.54
508.777	23318.88
509.145	23588.93
509.514	23540.57
509.882	23644.75
510.25	23756.61
510.618	23967.67
510.986	24087.22
511.354	24190.49
511.722	24540.09
512.09	24823.7
512.458	24725.17
512.826	24841.78
513.193	25090.58
513.561	25110.7
513.929	25465.71
514.297	25562.89
514.664	25741.64
515.032	25771.24
515.4	26025.47
515.767	26062.99
516.135	26260.04
516.502	26273.83
516.869	26642.63
517.237	26709.07
517.604	26613.93
517.972	27147.93
518.339	27207.59
518.706	27300.69
519.073	27424.99
519.44	27592.21
519.808	27960.79
520.175	27861.81
520.542	28247.56
520.909	28384.73
521.276	28444.39
521.643	28772.29
522.009	28979.52
522.376	29132.96
522.743	29405.05
523.11	29589.9
523.477	29917.8
523.843	29937.46
524.21	30268.98
524.577	30340.39
524.943	30748.06
525.31	30871
525.676	31091.1
526.043	31297.88
526.409	31395.05
526.776	31769.96
527.142	31726.34
527.508	32048.14
527.874	32217.85
528.241	32344.4
528.607	32595.02
528.973	32809.25
529.339	32978.29
529.705	33244.95
530.071	33532.4
530.437	33537.59
530.803	33762.45
531.169	34015.77
531.535	34017.58
531.901	34171.93
532.267	34252.15
532.632	34508.64
532.998	34670.67
533.364	34783.44
533.73	34876.99
534.095	35143.88
534.461	35344.55
534.826	35494.38
535.192	35675.16
535.557	35896.63
535.923	35837.87
536.288	36042.39
536.653	36343.62
537.019	36257.52
537.384	36419.78
537.749	36607.12
538.114	36605.76
538.479	36711.75
538.845	37061.79
539.21	37024.05
539.575	37015.24
539.94	37186.08
540.305	37412.52
540.67	37402.35
541.034	37697.94
541.399	37782.9
541.764	37910.13
542.129	37877.59
542.494	38179.28
542.858	38440.74
543.223	38269.22
543.587	38556.67
543.952	38616.56
544.316	38789.88
544.681	38806.83
545.045	39005.02
545.41	39099.71
545.774	39366.37
546.138	39413.14
546.503	39487.04
546.867	39493.37
547.231	39927.48
547.595	39981.27
547.959	40041.6
548.324	40089.28
548.688	40261.94
549.052	40387.58
549.416	40474.81
549.779	40572.44
550.143	40756.39
550.507	40898.98
550.871	41121.8
551.235	41066.43
551.599	41276.82
551.962	41380.78
552.326	41482.92
552.689	41814.89
553.053	41526.99
553.417	41820.76
553.78	42360.64
554.143	42168.55
554.507	42361.54
554.87	42467.75
555.234	42756.56
555.597	42557.02
555.96	42916.1
556.323	43168.3
556.686	42988.42
557.05	43423.89
557.413	43462.53
557.776	43533.94
558.139	43778
558.502	43804.89
558.865	43893.93
559.228	44294.6
559.59	44429.28
559.953	44443.75
560.316	44980.91
560.679	44815.94
561.041	45117.85
561.404	45253.44
561.767	45474.45
562.129	45362.82
562.492	45877.16
562.854	45764.39
563.217	45815.46
563.579	46031.28
563.941	46307.65
564.304	46394.88
564.666	46705.16
565.028	46563.24
565.39	46888.43
565.753	47156.9
566.115	47105.15
566.477	47400.73
566.839	47502.88
567.201	47736.77
567.563	47776.31
567.925	48165
568.287	48084.1
568.648	48087.27
569.01	48272.57
569.372	48670.53
569.734	48561.15
570.095	48877.53
570.457	48919.56
570.819	48979.9
571.18	49150.29
571.542	49244.52
571.903	49395.93
572.265	49487.23
572.626	49572.65
572.987	49798.86
573.349	49790.95
573.71	50004.05
574.071	50161.11
574.432	50122.02
574.794	50409.92
575.155	50344.38
575.516	50247.44
575.877	50535.34
576.238	50622.79
576.599	50764.48
576.96	50740.98
577.32	50703.24
577.681	50884.48
578.042	51129.9
578.403	51032.95
578.763	51176.45
579.124	51164.25
579.485	51357.46
579.845	51442.66
580.206	51409.67
580.566	51295.09
580.927	51538.93
581.287	51559.49
581.648	51348.65
582.008	51723.78
582.368	51650.56
582.728	51644.46
583.089	51650.56
583.449	51747.28
583.809	51695.76
584.169	51796.32
584.529	51773.72
584.889	52016.88
585.249	51914.28
585.609	51755.87
585.969	51941.18
586.329	51872.48
586.688	52048.97
587.048	51987.96
587.408	51995.19
587.768	52006.94
588.127	52103.21
588.487	51988.86
588.846	52195.86
589.206	51981.85
589.565	52065.47
589.925	52198.57
590.284	52189.31
590.643	52158.57
591.003	52142.98
591.362	52398.34
591.721	52267.5
592.08	52295.97
592.44	52364.22
592.799	52348.85
593.158	52369.41
593.517	52333.48
593.876	52553.14
594.235	52340.26
594.593	52485.34
594.952	52512.91
595.311	52406.25
595.67	52542.52
596.029	52719.69
596.387	52694.38
596.746	52771.66
597.104	52582.97
597.463	52681.5
597.822	52850.76
598.18	52642.85
598.538	52703.87
598.897	52832.68
599.255	52643.53
599.613	53008.04
599.972	52725.79
600.33	52941.38
600.688	52806.92
601.046	53001.94
601.404	53003.97
601.762	52967.82
602.12	53183.18
602.478	53064.99
602.836	53169.84
603.194	52971.43
603.552	53104.99
603.91	52975.27
604.268	53142.05
604.625	53039.68
604.983	53169.17
605.341	53065.21
605.698	53287.81
606.056	53316.06
606.413	53254.59
606.771	53360.57
607.128	53376.62
607.485	53257.07
607.843	53288.03
608.2	53438.76
608.557	53500.23
608.914	53384.08
609.272	53533.9
609.629	53533.23
609.986	53728.02
610.343	53524.64
610.7	53755.59
611.057	53702.03
611.414	53704.75
611.771	53678.08
612.127	53826.78
612.484	53818.64
612.841	53916.49
613.198	53795.37
613.554	53781.81
613.911	53973.89
614.267	53978.86
614.624	53972.54
614.98	54035.81
615.337	54157.16
615.693	54062.7
616.05	54040.1
616.406	54153.77
616.762	54047.79
617.118	54035.58
617.475	53968.92
617.831	54096.83
618.187	54175.69
618.543	54256.37
618.899	54299.53
619.255	54261.12
619.611	54249.36
619.967	54329.59
620.323	54458.4
620.678	54276.48
621.034	54239.87
621.39	54243.94
621.746	54231.06
622.101	54563.71
622.457	54308.8
622.812	54405.97
623.168	54379.08
623.523	54365.97
623.879	54523.26
624.234	54329.81
624.589	54408.23
624.945	54443.03
625.3	54485.06
625.655	54388.12
626.01	54412.75
626.365	54478.29
626.72	54425.63
627.075	54478.29
627.43	54423.82
627.785	54272.41
628.14	54366.88
628.495	54425.41
628.85	54445.97
629.205	54337.05
629.559	54521.9
629.914	54379.98
630.269	54432.86
630.623	54306.54
630.978	54250.72
631.332	54503.82
631.687	54380.43
632.041	54347.22
632.396	54405.74
632.75	54239.87
633.104	54306.76
633.459	54253.43
633.813	54226.09
634.167	54251.85
634.521	54175.47
634.875	54267.67
635.229	54220.44
635.583	54035.81
635.937	54078.07
636.291	54125.07
636.645	54079.2
636.999	54058.86
637.352	54172.08
637.706	53952.65
638.06	54091.4
638.413	53946.55
638.767	53945.42
639.121	54039.43
639.474	53834.01
639.828	53874.69
640.181	53985.64
640.534	53914.68
640.888	53737.29
641.241	53773.22
641.594	53756.27
641.947	53793.33
642.301	53775.7
642.654	53707.23
643.007	53759.43
643.36	53707.23
643.713	53656.84
644.066	53821.58
644.419	53587.46
644.771	53371.2
645.124	53140.02
645.477	53112.45
645.83	52975.05
646.182	52834.94
646.535	52800.59
646.888	52800.14
647.24	52664.55
647.593	52925.56
647.945	52761.27
648.298	52612.35
648.65	52628.84
649.002	52540.26
649.355	52595.62
649.707	52602.63
650.059	52776.86
650.411	53114.03
650.763	53154.03
651.115	53423.62
651.467	53289.39
651.819	53395.6
652.171	53235.38
652.523	53202.84
652.875	53256.17
653.227	53152.67
653.578	53343.17
653.93	53208.26
654.282	53063.18
654.633	53024.31
654.985	53085.33
655.337	53097.3
655.688	53132.33
656.039	53259.56
656.391	52930.08
656.742	52940.7
657.094	53049.17
657.445	53132.33
657.796	52993.8
658.147	53012.56
658.498	52945.67
658.849	53046.91
659.2	53006.69
659.551	52869.51
659.902	53012.79
660.253	52973.47
660.604	53011.88
660.955	52806.46
661.306	52864.54
661.656	52844.88
662.007	52878.33
662.358	52869.97
662.708	52803.3
663.059	52883.07
663.409	52612.57
663.76	52862.73
664.11	52744.55
664.461	52779.8
664.811	52803.98
665.161	52775.5
665.511	52660.25
665.862	52735.96
666.212	52810.53
666.562	52842.85
666.912	52681.72
667.262	52682.4
667.612	52657.09
667.962	52715.39
668.312	52567.83
668.662	52708.16
669.011	52632.46
669.361	52537.77
669.711	52458
670.06	52524.89
670.41	52440.37
670.76	52387.27
671.109	52553.59
671.459	52484.89
671.808	52369.19
672.157	52546.58
672.507	52262.3
672.856	52261.17
673.205	52243.54
673.554	52363.31
673.904	52203.32
674.253	52441.73
674.602	52252.81
674.951	51760.84
675.3	51587.06
675.649	52093.94
675.998	52098.01
676.346	52113.6
676.695	52280.6
677.044	51881.07
677.393	52029.76
677.741	52052.13
678.09	51911.8
678.438	51895.53
678.787	51933.95
679.135	51875.64
679.484	51648.53
679.832	51848.07
680.181	51578.25
680.529	51628.64
680.877	51501.87
681.225	51544.8
681.573	51697.34
681.922	51480.17
682.27	51397.01
682.618	51295.09
682.966	51206.51
683.314	51289.44
683.661	51143.68
684.009	50959.28
684.357	50959.28
684.705	50820.98
685.053	50871.37
685.4	50736.24
685.748	50735.11
686.095	50778.04
686.443	50513.42
686.79	50426.41
687.138	50522.91
687.485	50423.7
687.832	50232.52
688.18	50370.82
688.527	50162.01
688.874	50124.95
689.221	49979.87
689.568	49873.66
689.915	49865.98
690.262	49767.9
690.609	49675.47
690.956	49666.21
691.303	49453.78
691.65	49251.76
691.997	49408.81
692.344	49026.68
692.69	49122.72
693.037	49002.95
693.383	48801.6
693.73	48921.14
694.077	48751.88
694.423	48675.05
694.769	48686.57
695.116	48448.39
695.462	48422.85
695.808	48289.75
696.155	48360.03
696.501	48058.57
696.847	48031
697.193	47799.14
697.539	47866.93
697.885	47567.28
698.231	47489.32
698.577	47495.87
698.923	47396.89
699.269	47226.72
699.614	47003
699.96	47002.32
700.306	47066.28
700.651	46839.16
700.997	46626.74
701.342	46641.65
701.688	46560.98
702.033	46469
702.379	46437.82
702.724	46383.81
703.069	46446.86
703.415	45965.06
703.76	45923.71
704.105	45892.3
704.45	45796.71
704.795	45582.7
705.14	45573.21
705.485	45489.14
705.83	45249.38
706.175	45410.5
706.52	45253.67
706.865	45059.32
707.209	44950.63
707.554	44916.95
707.899	44935.94
708.243	44817.3
708.588	44673.35
708.932	44492.78
709.277	44429.96
709.621	44486.23
709.966	44201.04
710.31	44261.15
710.654	44021.16
710.998	44066.36
711.342	44148.61
711.687	43980.48
712.031	43785.46
712.375	43561.28
712.719	43641.51
713.063	43671.56
713.407	43657.1
713.75	43494.17
714.094	43378.46
714.438	43245.36
714.782	43348.86
715.125	43115.42
715.469	43075.65
715.812	42975.76
716.156	42823.45
716.499	42795.2
716.843	42827.97
717.186	42549.11
717.53	42705.71
717.873	42709.33
718.216	42542.78
718.559	42397.25
718.902	42029.35
719.246	42194.77
719.589	42096.01
719.932	41950.93
720.275	42010.36
720.617	41879.75
720.96	41766.75
721.303	41856.7
721.646	41713.2
721.989	41575.12
722.331	41677.94
722.674	41571.05
723.016	41588
723.359	41452.86
723.701	41383.49
724.044	41216.03
724.386	41065.3
724.729	41203.15
725.071	41089.71
725.413	41000.45
725.755	41150.27
726.097	40854.91
726.439	40601.81
726.782	40745.31
727.124	40873.45
727.465	40603.62
727.807	40608.37
728.149	40445.89
728.491	40499.22
728.833	40472.78
729.175	40293.12
729.516	40487.69
729.858	40172.45
730.199	40325.21
730.541	40221.71
730.882	40033.02
731.224	40234.14
731.565	39997.76
731.906	39862.85
732.248	40060.13
732.589	39852.91
732.93	39640.03
733.271	39713.93
733.612	39706.02
733.953	39830.08
734.294	39604.55
734.635	39478.45
734.976	39461.28
735.317	39261.51
735.658	39249.31
735.999	39319.36
736.339	39158.01
736.68	39230.78
737.021	39121.63
737.361	38939.03
737.702	39141.74
738.042	39091.8
738.383	38911.01
738.723	39002.76
739.063	38782.2
739.404	38945.81
739.744	38767.96
740.084	38561.64
740.424	38681.19
740.764	38490.46
741.104	38723.67
741.444	38553.96
741.784	38423.57
742.124	38390.35
742.464	38368.88
742.804	38287.07
743.143	38230.58
743.483	38274.87
743.823	38090.47
744.162	38134.76
744.502	38154.42
744.841	37838.95
745.181	37913.75
745.52	37976.57
745.86	37901.55
746.199	37810.93
746.538	37647.99
746.877	37803.02
747.216	37712.4
747.556	37597.82
747.895	37650.93
748.234	37449.13
748.573	37393.31
748.911	37359.41
749.25	37232.64
749.589	37141.57
749.928	37250.49
750.267	37219.08
750.605	37062.47
750.944	36987.22
751.283	36814.57
751.621	36894.11
751.96	36701.35
752.298	36688.7
752.636	36705.65
752.975	36428.82
753.313	36441.92
753.651	36630.39
753.989	36366.67
754.327	36230.18
754.666	36063.4
755.004	36108.15
755.342	36165.77
755.679	35994.93
756.017	35901.37
756.355	35904.31
756.693	35786.8
757.031	35801.71
757.368	35604.66
757.706	35562.17
758.044	35286.02
758.381	35534.38
758.719	35262.52
759.056	35228.4
759.394	35131.22
759.731	34966.71
760.068	34968.74
760.405	34833.15
760.743	34649.65
761.08	34740.27
761.417	34600.62
761.754	34490.34
762.091	34344.35
762.428	34299.38
762.765	34079.05
763.102	34273.84
763.438	34031.14
763.775	33816.91
764.112	33774.42
764.449	33722.9
764.785	33720.41
765.122	33514.77
765.458	33342.57
765.795	33195.91
766.131	33334.89
766.467	33130.37
766.804	32908.68
767.14	32872.75
767.476	32795.92
767.812	32662.59
768.148	32783.26
768.485	32424.4
768.821	32437.06
769.157	32343.5
769.492	32193.67
769.828	32146.44
770.164	31997.52
770.5	31889.5
770.836	31758.2
771.171	31645.89
771.507	31578.55
771.842	31277.99
772.178	31411.09
772.513	31221.72
772.849	31283.19
773.184	30992.12
773.519	30941.73
773.855	30899.92
774.19	30684.79
774.525	30615.64
774.86	30582.42
775.195	30563.66
775.53	30365.47
775.865	30224.01
776.2	30024.24
776.535	29837.58
776.87	29944.01
777.205	29880.06
777.539	29573.4
777.874	29618.83
778.209	29380.19
778.543	29349.45
778.878	29166.41
779.212	29020.2
779.547	29036.92
779.881	29033.3
780.215	28813.2
780.55	28876.25
780.884	28709.25
781.218	28662.01
781.552	28619.53
781.886	28461.12
782.22	28307
782.554	28215.47
782.888	27907.46
783.222	27854.8
783.556	27742.94
783.889	27672.66
784.223	27435.61
784.557	27527.13
784.89	27569.39
785.224	27353.35
785.557	27116.74
785.891	27123.75
786.224	27106.35
786.558	26939.8
786.891	26775.28
787.224	26685.34
787.557	26707.72
787.891	26628.85
788.224	26504.78
788.557	26474.28
788.89	26404
789.223	26315.41
789.556	26157.9
789.888	25994.06
790.221	26049.2
790.554	25912.48
790.887	25883.1
791.219	25719.95
791.552	25628.2
791.884	25510.23
792.217	25461.42
792.549	25391.14
792.882	25199.51
793.214	25080.19
793.546	25160.86
793.879	25022.11
794.211	24998.83
794.543	24861.21
794.875	24812.85
795.207	24825.28
795.539	24675
795.871	24608.11
796.203	24547.55
796.535	24311.39
796.867	24424.84
797.198	24179.87
797.53	24188.91
797.862	24035.24
798.193	24072.08
798.525	23874.57
798.856	23906.89
799.188	23573.79
799.519	23600
799.85	23433
800.182	23467.8
800.513	23499.44
800.844	23268.48
801.175	23447.91
801.506	23269.16
801.837	23198.2
802.168	23155.27
802.499	22951.43
802.83	22999.79
803.161	22912.11
803.491	22757.31
803.822	22823.75
804.153	22738.78
804.483	22562.97
804.814	22415.85
805.145	22562.74
805.475	22418.79
805.805	22367.26
806.136	22367.04
806.466	22360.03
806.796	22193.26
807.126	22067.16
807.457	22049.99
807.787	22038.23
808.117	21935.41
808.447	21772.7
808.777	21893.15
809.107	21796.88
809.436	21660.84
809.766	21728.86
810.096	21645.7
810.426	21486.16
810.755	21567.74
811.085	21402.77
811.414	21358.93
811.744	21238.48
812.073	21221.98
812.403	21194.87
812.732	20997.58
813.061	21041.2
813.39	20913.97
813.719	20884.14
814.049	21029.22
814.378	20920.52
814.707	20764.82
815.036	20665.39
815.365	20636.69
815.693	20466.75
816.022	20478.73
816.351	20410.25
816.68	20322.12
817.008	20433.76
817.337	20265.17
817.665	20203.25
817.994	20219.98
818.322	20250.26
818.651	20156.25
818.979	20018.4
819.307	20031.28
819.636	19996.48
819.964	19878.52
820.292	19980.66
820.62	20014.78
820.948	19837.84
821.276	19950.61
821.604	19884.17
821.932	19829.25
822.259	19917.39
822.587	19821.57
822.915	19855.69
823.243	19843.72
823.57	19832.87
823.898	19797.16
824.225	19674.45
824.553	19698.63
824.88	19692.76
825.207	19850.5
825.535	19810.72
825.862	19846.43
826.189	19646.21
826.516	19801.91
826.843	19711.97
827.17	19792.87
827.497	19757.39
827.824	19696.6
828.151	19718.07
828.478	19730.05
828.805	19807.11
829.131	19708.58
829.458	19673.55
829.785	19583.61
830.111	19627.9
830.438	19696.37
830.764	19648.92
831.09	19687.56
831.417	19590.39
831.743	19735.7
832.069	19657.51
832.395	19629.71
832.722	19701.35
833.048	19499.32
833.374	19631.29
833.7	19420.45
834.026	19496.38
834.351	19547
834.677	19539.32
835.003	19408.92
835.329	19490.5
835.654	19372.09
835.98	19367.57
836.306	19333.45
836.631	19208.7
836.956	19299.32
837.282	19314.69
837.607	19153.79
837.932	19257.74
838.258	19189.72
838.583	19194.02
838.908	18999.44
839.233	19068.82
839.558	18991.31
839.883	18922.61
840.208	18909.95
840.533	18926
840.858	18879.9
841.182	18933.68
841.507	18921.03
841.832	18831.31
842.156	18769.17
842.481	18806.45
842.805	18654.59
843.13	18585.67
843.454	18569.85
843.778	18525.11
844.103	18510.87
844.427	18444.2
844.751	18457.76
845.075	18427.71
845.399	18366.92
845.723	18227.49
846.047	18218.67
846.371	18017.55
846.695	18079.47
847.019	17924.67
847.343	17889.64
847.666	17807.38
847.99	17652.81
848.313	17663.21
848.637	17596.09
848.96	17530.78
849.284	17500.27
849.607	17410.11
849.931	17289.66
850.254	17122.43
850.577	17133.5
850.9	16885.38
851.223	17013.73
851.546	16885.6
851.869	16748.66
852.192	16896
852.515	16749.56
852.838	16751.14
853.161	16657.58
853.483	16621.2
853.806	16463.69
854.129	16500.3
854.451	16430.92
854.774	16340.08
855.096	16291.94
855.419	16339.17
855.741	16309.12
856.063	16138.05
856.385	15997.71
856.708	16009.01
857.03	15869.81
857.352	15986.19
857.674	15889.02
857.996	15773.09
858.318	15842.69
858.64	15765.86
858.961	15730.6
859.283	15694.9
859.605	15581.68
859.926	15644.28
860.248	15559.31
860.57	15493.1
860.891	15477.73
861.212	15349.82
861.534	15334
861.855	15327
862.176	15326.32
862.498	15408.58
862.819	15345.98
863.14	15215.36
863.461	15162.03
863.782	15119.77
864.103	15184.18
864.424	15123.61
864.745	15188.7
865.065	15117.06
865.386	14969.49
865.707	14945.99
866.027	15000.91
866.348	14935.82
866.668	14944.64
866.989	14950.28
867.309	14720.69
867.63	14816.05
867.95	14810.4
868.27	14618.77
868.59	14677.3
868.91	14704.64
869.23	14675.04
869.55	14623.97
869.87	14635.72
870.19	14654.47
870.51	14607.02
870.83	14622.38
871.15	14461.26
871.469	14524.53
871.789	14535.61
872.109	14505.32
872.428	14393.46
872.748	14430.07
873.067	14470.3
873.386	14366.57
873.706	14380.81
874.025	14211.32
874.344	14220.81
874.663	14291.55
874.982	14264.43
875.301	14229.17
875.62	14189.17
875.939	14114.6
876.258	14150.08
876.577	14079.8
876.896	14041.61
877.214	14057.88
877.533	14018.56
877.852	14028.5
878.17	14071.89
878.489	13986.02
878.807	13951.89
879.125	13968.39
879.444	13879.58
879.762	13835.51
880.08	13831.44
880.398	13799.35
880.716	13774.72
881.034	13742.18
881.352	13700.83
881.67	13661.05
881.988	13668.28
882.306	13631.22
882.624	13661.51
882.941	13562.07
883.259	13557.33
883.577	13508.51
883.894	13480.72
884.212	13439.36
884.529	13368.63
884.846	13418.12
885.164	13357.11
885.481	13290.67
885.798	13317.11
886.115	13359.37
886.432	13246.15
886.75	13191.01
887.067	13219.71
887.383	13110.11
887.7	13115.98
888.017	13061.75
888.334	13059.26
888.651	12979.49
888.967	12970.45
889.284	12827.85
889.6	12881.19
889.917	12854.97
890.233	12841.64
890.55	12730.91
890.866	12808.42
891.182	12714.86
891.498	12697.91
891.815	12650.46
892.131	12579.73
892.447	12542.44
892.763	12497.69
893.079	12458.6
893.395	12371.6
893.71	12322.11
894.026	12370.92
894.342	12303.57
894.657	12249.79
894.973	12229.68
895.289	12226.97
895.604	12243.92
895.92	12058.16
896.235	12066.74
896.55	12033.07
896.865	12124.82
897.181	11996.01
897.496	11956.24
897.811	11867.43
898.126	11869.01
898.441	11763.93
898.756	11749.69
899.071	11711.5
899.386	11724.16
899.7	11612.52
900.015	11561
900.33	11553.76
900.644	11513.31
900.959	11430.38
901.273	11489.36
901.588	11344.96
901.902	11310.83
902.216	11275.58
902.531	11208.46
902.845	11223.6
903.159	11168.92
903.473	11088.47
903.787	11052.31
904.101	11006.66
904.415	10937.74
904.729	10989.49
905.042	10884.4
905.356	10826.33
905.67	10777.06
905.984	10794.69
906.297	10762.82
906.611	10707.91
906.924	10673.79
907.237	10602.38
907.551	10623.84
907.864	10557.18
908.177	10505.88
908.491	10474.7
908.804	10448.93
909.117	10344.76
909.43	10322.16
909.743	10275.61
910.056	10220.47
910.368	10227.92
910.681	10066.35
910.994	10082.16
911.307	10062.96
911.619	9966.46
911.932	9986.57
912.244	9979.79
912.557	9918.1
912.869	9835.17
913.181	9788.61
913.494	9819.57
913.806	9729.41
914.118	9624.78
914.43	9697.99
914.742	9654.15
915.054	9592.46
915.366	9547.04
915.678	9492.12
915.99	9484.44
916.302	9371.9
916.613	9354.73
916.925	9304.78
917.236	9355.63
917.548	9207.16
917.859	9228.4
918.171	9161.51
918.482	9167.84
918.794	9147.73
919.105	9109.08
919.416	8987.05
919.727	9005.58
920.038	8962.65
920.349	8888.07
920.66	8783.67
920.971	8882.42
921.282	8746.15
921.593	8734.18
921.903	8677.68
922.214	8656.67
922.525	8672.71
922.835	8620.96
923.146	8589.55
923.456	8557.23
923.767	8465.26
924.077	8424.35
924.387	8398.37
924.697	8423.9
925.008	8303.45
925.318	8366.96
925.628	8297.13
925.938	8211.03
926.248	8153.63
926.558	8169.22
926.867	8103.91
927.177	8079.96
927.487	8041.54
927.796	7982.11
928.106	7967.87
928.416	7992.95
928.725	7921.77
929.034	7846.29
929.344	7872.5
929.653	7832.05
929.962	7813.52
930.271	7687.42
930.581	7719.51
930.89	7674.77
931.199	7640.42
931.508	7587.09
931.817	7617.37
932.125	7543.25
932.434	7503.02
932.743	7442.01
933.051	7403.36
933.36	7397.49
933.669	7351.39
933.977	7343.25
934.286	7362.46
934.594	7352.97
934.902	7257.38
935.21	7152.75
935.519	7210.15
935.827	7192.75
936.135	7075.46
936.443	7089.93
936.751	7030.72
937.059	7066.42
937.367	6929.25
937.674	6931.51
937.982	6949.59
938.29	6862.81
938.597	6888.12
938.905	6778.3
939.213	6805.41
939.52	6754.79
939.827	6779.43
940.135	6729.26
940.442	6633.44
940.749	6657.62
941.056	6664.18
941.363	6610.84
941.67	6563.16
941.977	6522.48
942.284	6456.04
942.591	6447.01
942.898	6416.27
943.205	6511.64
943.511	6389.38
943.818	6417.18
944.125	6312.55
944.431	6231.64
944.738	6261.93
945.044	6251.76
945.35	6207.92
945.657	6156.84
945.963	6164.53
946.269	6115.26
946.575	6079.78
946.881	6096.96
947.187	6063.06
947.493	6004.31
947.799	6011.31
948.105	5965.66
948.41	5929.51
948.716	5922.05
949.022	5859.22
949.327	5896.06
949.633	5781.26
949.938	5767.25
950.244	5803.63
950.549	5771.32
950.854	5711.43
951.16	5680.02
951.465	5642.73
951.77	5642.28
952.075	5644.54
952.38	5592.56
952.685	5594.6
952.99	5558.89
953.294	5495.84
953.599	5507.14
953.904	5485.9
954.209	5506.92
954.513	5421.72
954.818	5388.73
955.122	5367.94
955.426	5379.24
955.731	5322.29
956.035	5305.79
956.339	5253.59
956.643	5259.47
956.948	5264.89
957.252	5170.2
957.556	5183.08
957.86	5119.81
958.163	5140.6
958.467	5113.26
958.771	5155.97
959.075	5096.53
959.378	5092.69
959.682	5030.77
959.985	5034.61
960.289	4976.54
960.592	4932.7
960.896	4987.38
961.199	4940.15
961.502	4885.92
961.805	4875.3
962.108	4873.71
962.411	4843.43
962.714	4794.39
963.017	4777.45
963.32	4758.46
963.623	4754.62
963.926	4743.77
964.228	4687.5
964.531	4698.8
964.833	4712.59
965.136	4658.35
965.438	4662.65
965.741	4619.94
966.043	4576.09
966.345	4529.32
966.648	4576.32
966.95	4519.37
967.252	4471.92
967.554	4491.12
967.856	4427.4
968.158	4437.34
968.46	4413.16
968.761	4367.06
969.063	4362.99
969.365	4325.48
969.666	4323.67
969.968	4315.54
970.269	4327.74
970.571	4272.83
970.872	4253.17
971.174	4267.4
971.475	4217.46
971.776	4177.91
972.077	4183.11
972.378	4156.9
972.679	4158.7
972.98	4145.15
973.281	4088.88
973.582	4070.8
973.883	4104.02
974.183	4077.58
974.484	4034.64
974.785	3985.38
975.085	3975.43
975.386	3974.08
975.686	3964.59
975.986	3950.35
976.287	3916.9
976.587	3870.8
976.887	3872.16
977.187	3876.9
977.487	3823.35
977.787	3844.81
978.087	3818.15
978.387	3791.93
978.687	3842.1
978.987	3768.21
979.286	3715.1
979.586	3759.62
979.885	3701.09
980.185	3708.32
980.484	3669.23
980.784	3650.24
981.083	3656.12
981.382	3640.53
981.682	3608.21
981.981	3592.39
982.28	3537.7
982.579	3527.53
982.878	3556.46
983.177	3562.79
983.475	3487.99
983.774	3503.58
984.073	3459.51
984.372	3457.48
984.67	3424.26
984.969	3424.94
985.267	3450.02
985.566	3403.24
985.864	3389.01
986.162	3399.63
986.461	3350.82
986.759	3316.69
987.057	3324.83
987.355	3310.14
987.653	3289.8
987.951	3292.51
988.249	3278.28
988.547	3262
988.844	3256.81
989.142	3201.67
989.44	3204.38
989.737	3155.57
990.035	3174.1
990.332	3136.81
990.63	3151.5
990.927	3159.18
991.224	3092.29
991.521	3118.96
991.819	3089.58
992.116	3122.12
992.413	3076.47
992.71	3000.99
993.006	3032.86
993.303	2999.41
993.6	2995.57
993.897	3009.81
994.193	2961.22
994.49	2953.99
994.787	2923.71
995.083	2959.87
995.379	2898.17
995.676	2902.92
995.972	2869.92
996.268	2864.73
996.565	2785.63
996.861	2858.17
997.157	2819.53
997.453	2807.33
997.749	2813.43
998.044	2749.02
998.34	2739.98
998.636	2728.69
998.932	2704.73
999.227	2683.04
999.523	2676.03
999.818	2675.58
1000.114	2690.72
1000.409	2634.22
1000.704	2653.43
1001	2600.78
1001.295	2608.69
1001.59	2587.67
1001.885	2581.57
1002.18	2543.83
1002.475	2540.67
1002.77	2539.31
1003.065	2501.12
1003.359	2515.81
1003.654	2501.8
1003.949	2452.08
1004.243	2434.91
1004.538	2444.85
1004.832	2439.88
1005.127	2412.54
1005.421	2394.68
1005.715	2416.83
1006.009	2379.09
1006.304	2339.32
1006.598	2356.72
1006.892	2320.33
1007.186	2331.41
1007.48	2295.25
1007.773	2283.73
1008.067	2270.62
1008.361	2274.23
1008.655	2261.13
1008.948	2262.71
1009.242	2246.21
1009.535	2185.65
1009.829	2200.34
1010.122	2208.47
1010.415	2189.72
1010.708	2171.86
1011.001	2157.4
1011.295	2123.96
1011.588	2106.55
1011.881	2121.24
1012.173	2093.22
1012.466	2087.8
1012.759	2076.73
1013.052	2053.9
1013.344	2062.04
1013.637	2036.95
1013.93	2013.22
1014.222	1987.91
1014.514	2001.25
1014.807	1977.74
1015.099	1964.86
1015.391	1949.27
1015.683	1977.97
1015.976	1933.23
1016.268	1972.55
1016.56	1909.5
1016.851	1867.24
1017.143	1890.29
1017.435	1884.87
1017.727	1859.33
1018.018	1874.7
1018.31	1829.73
1018.602	1816.17
1018.893	1839.44
1019.185	1800.57
1019.476	1795.38
1019.767	1783.63
1020.058	1759.67
1020.35	1755.6
1020.641	1730.29
1020.932	1716.28
1021.223	1725.55
1021.514	1718.99
1021.804	1710.86
1022.095	1670.41
1022.386	1661.59
1022.677	1631.09
1022.967	1634.7
1023.258	1613.23
1023.548	1655.72
1023.839	1611.2
1024.129	1589.96
1024.419	1602.61
1024.709	1586.57
1025	1555.16
1025.29	1539.56
1025.58	1521.71
1025.87	1529.62
1026.16	1522.16
1026.449	1520.36
1026.739	1483.97
1027.029	1483.52
1027.319	1483.97
1027.608	1486.91
1027.898	1485.78
1028.187	1449.17
1028.477	1437.87
1028.766	1452.33
1029.055	1403.75
1029.344	1400.81
1029.634	1414.82
1029.923	1399.23
1030.212	1389.51
1030.501	1373.47
1030.79	1370.75
1031.078	1367.59
1031.367	1359.23
1031.656	1346.35
1031.945	1340.02
1032.233	1317.42
1032.522	1293.47
1032.81	1322.62
1033.099	1280.59
1033.387	1268.61
1033.675	1260.93
1033.963	1280.81
1034.251	1244.43
1034.54	1243.07
1034.828	1204.88
1035.116	1213.24
1035.403	1246.46
1035.691	1203.75
1035.979	1204.66
1036.267	1187.48
1036.554	1164.88
1036.842	1180.03
1037.129	1174.83
1037.417	1171.89
1037.704	1180.03
1037.992	1149.07
1038.279	1157.2
1038.566	1125.79
1038.853	1125.79
1039.14	1125.79
