Data from White_paper_FLMS001491_014.txt Node
Date: Tue Feb 07 10:34:43 GMT 2017
User: dcchb
Spectrometer: FLMS00149
Trigger mode: 0
Integration Time (sec): 2.000000E-2
Scans to average: 10
Electric dark correction enabled: true
Nonlinearity correction enabled: false
Boxcar width: 0
XAxis mode: Wavelengths
Number of Pixels in Spectrum: 2048
>>>>>Begin Spectral Data<<<<<
341.393	-9.72
341.776	-9.72
342.16	-9.72
342.543	-66.66
342.927	-63.28
343.31	-63.5
343.693	-51.3
344.077	-68.02
344.46	-54.24
344.843	-62.82
345.226	-59.21
345.61	-12.88
345.993	-10.17
346.376	2.71
346.759	13.56
347.142	11.53
347.525	41.81
347.908	65.31
348.291	64.18
348.674	77.29
349.057	105.76
349.44	124.97
349.823	148.24
350.206	174.01
350.588	227.34
350.971	247
351.354	254.23
351.737	270.05
352.119	284.51
352.502	296.04
352.884	288.81
353.267	302.82
353.65	318.18
354.032	319.54
354.414	328.13
354.797	337.39
355.179	349.37
355.562	343.72
355.944	352.08
356.326	343.49
356.709	373.32
357.091	347.56
357.473	387.79
357.855	368.35
358.238	370.84
358.62	391.18
359.002	361.12
359.384	374.68
359.766	367.9
360.148	345.75
360.53	371.74
360.912	389.14
361.294	389.14
361.676	397.28
362.057	362.25
362.439	352.76
362.821	366.32
363.203	356.15
363.584	365.41
363.966	368.35
364.348	358.86
364.729	368.13
365.111	364.28
365.493	366.32
365.874	364.96
366.256	361.8
366.637	359.76
367.019	362.02
367.4	344.62
367.781	364.74
368.163	347.11
368.544	344.62
368.925	370.61
369.306	357.73
369.688	369.03
370.069	368.8
370.45	362.48
370.831	403.15
371.212	370.16
371.593	376.04
371.974	357.28
372.355	360.67
372.736	370.84
373.117	365.87
373.498	380.78
373.879	373.78
374.26	365.41
374.641	369.26
375.021	365.64
375.402	384.17
375.783	385.75
376.163	376.26
376.544	388.01
376.925	388.92
377.305	391.18
377.686	398.63
378.066	383.49
378.447	414.68
378.827	399.54
379.208	399.09
379.588	397.5
379.968	397.05
380.349	414.9
380.729	382.14
381.109	415.36
381.489	419.65
381.87	399.09
382.25	404.06
382.63	418.75
383.01	452.87
383.39	407.45
383.77	428.46
384.15	431.63
384.53	425.75
384.91	437.95
385.29	442.25
385.67	439.99
386.049	465.07
386.429	455.81
386.809	447.22
387.189	472.53
387.568	438.86
387.948	463.94
388.328	455.58
388.707	463.94
389.087	475.69
389.466	468.69
389.846	460.1
390.225	501.23
390.605	537.61
390.984	501.91
391.363	494.68
391.743	516.6
392.122	516.14
392.501	489.7
392.881	512.53
393.26	524.96
393.639	529.7
394.018	520.21
394.397	515.92
394.776	545.3
395.155	552.53
395.534	537.39
395.913	553.66
396.292	551.17
396.671	559.53
397.05	582.13
397.429	583.26
397.808	587.33
398.186	587.1
398.565	586.65
398.944	609.25
399.323	620.55
399.701	626.88
400.08	608.35
400.458	623.71
400.837	615.35
401.215	647.44
401.594	655.8
401.972	644.5
402.351	672.75
402.729	678.63
403.107	690.15
403.486	690.15
403.864	715.01
404.242	723.14
404.62	726.53
404.999	746.87
405.377	772.18
405.755	765.4
406.133	771.05
406.511	780.32
406.889	816.7
407.267	844.27
407.645	864.84
408.023	902.35
408.401	923.14
408.779	905.96
409.156	938.28
409.534	943.7
409.912	964.72
410.29	1016.92
410.667	1025.28
411.045	1048.11
411.422	1092.17
411.8	1091.5
412.178	1107.77
412.555	1154.55
412.933	1181.89
413.31	1203.13
413.687	1251.49
414.065	1261.66
414.442	1301.66
414.819	1322.68
415.197	1348.67
415.574	1357.03
415.951	1431.6
416.328	1430.02
416.705	1458.49
417.082	1484.93
417.46	1507.3
417.837	1566.06
418.214	1563.12
418.591	1590.24
418.967	1605.83
419.344	1636.57
419.721	1661.43
420.098	1692.61
420.475	1724.47
420.852	1741.2
421.228	1766.06
421.605	1806.28
421.982	1825.49
422.358	1824.58
422.735	1930.12
423.111	1882.89
423.488	1919.05
423.864	1920.85
424.241	1966.73
424.617	2012.38
424.994	2028.87
425.37	2057.57
425.746	2085.14
426.123	2118.59
426.499	2103.22
426.875	2154.52
427.251	2209.89
427.627	2258.02
428.003	2286.95
428.379	2308.87
428.756	2310.9
429.132	2368.75
429.507	2388.19
429.883	2437.22
430.259	2508.86
430.635	2499.82
431.011	2557.9
431.387	2566.94
431.763	2627.5
432.138	2660.72
432.514	2695.97
432.89	2713.6
433.265	2801.51
433.641	2820.49
434.016	2882.41
434.392	2926.93
434.767	2943.88
435.143	2950.43
435.518	3049.64
435.894	3078.79
436.269	3085.79
436.644	3128.28
437.02	3162.18
437.395	3172.12
437.77	3247.37
438.145	3306.58
438.52	3299.57
438.895	3323.53
439.271	3350.65
439.646	3408.27
440.021	3481.04
440.395	3455.73
440.77	3487.37
441.145	3478.78
441.52	3570.98
441.895	3537.53
442.27	3649.17
442.645	3600.81
443.019	3664.31
443.394	3689.39
443.769	3696.17
444.143	3707.47
444.518	3737.75
444.892	3708.15
445.267	3816.4
445.641	3855.94
446.016	3847.13
446.39	3873.8
446.764	3890.75
447.139	3887.81
447.513	3955.6
447.887	3994.92
448.262	3987.24
448.636	4027.01
449.01	4009.16
449.384	4123.06
449.758	4090.06
450.132	4168.25
450.506	4156.95
450.88	4194.47
451.254	4212.32
451.628	4283.5
452.002	4287.12
452.376	4364.63
452.75	4373.9
453.123	4450.96
453.497	4531.63
453.871	4507.45
454.244	4623.16
454.618	4638.3
454.992	4671.29
455.365	4749.03
455.739	4820.89
456.112	4865.41
456.486	4897.72
456.859	4944.73
457.232	5026.76
457.606	5067.89
457.979	5123.03
458.352	5207.77
458.725	5250.26
459.099	5311.27
459.472	5442.57
459.845	5467.2
460.218	5488.9
460.591	5564.37
460.964	5627.65
461.337	5706.97
461.71	5830.36
462.083	5847.08
462.456	5879.85
462.829	5914.19
463.201	6061.76
463.574	6061.31
463.947	6137.92
464.32	6298.14
464.692	6316.9
465.065	6325.94
465.438	6476.89
465.81	6544.01
466.183	6588.75
466.555	6763.21
466.928	6827.39
467.3	6793.04
467.672	6899.71
468.045	7202.3
468.417	7114.62
468.789	7178.57
469.161	7273.71
469.534	7388.28
469.906	7547.37
470.278	7626.92
470.65	7675.28
471.022	7884.09
471.394	7975.16
471.766	8072.56
472.138	8120.69
472.51	8297.86
472.882	8493.34
473.253	8570.4
473.625	8710.73
473.997	8815.59
474.369	8892.42
474.74	8996.83
475.112	9142.58
475.484	9284.95
475.855	9482.46
476.227	9491.73
476.598	9837.93
476.97	9853.98
477.341	10115.21
477.713	10288.54
478.084	10286.51
478.455	10618.93
478.827	10749.77
479.198	11015.98
479.569	10944.8
479.94	11339.59
480.311	11385.92
480.682	11749.52
481.053	11907.71
481.424	12132.34
481.795	12160.58
482.166	12425.66
482.537	12542.95
482.908	12822.94
483.279	12998.98
483.65	13173.89
484.021	13403.94
484.391	13564.39
484.762	13683.71
485.133	13839.86
485.503	13948.11
485.874	14344.26
486.244	14498.38
486.615	14654.08
486.985	14826.28
487.356	15132.94
487.726	15249.09
488.097	15607.95
488.467	15604.56
488.837	15999.58
489.207	16054.04
489.578	16197.54
489.948	16462.39
490.318	16684.08
490.688	16785.55
491.058	17093.79
491.428	17219.43
491.798	17411.29
492.168	17757.27
492.538	17786.42
492.908	17929.7
493.278	18160.43
493.648	18231.16
494.017	18509.8
494.387	18705.72
494.757	18820.97
495.126	18941.42
495.496	19098.93
495.866	19191.81
496.235	19415.53
496.605	19615.76
496.974	19655.53
497.344	19827.5
497.713	19986.14
498.082	20114.95
498.452	20407.82
498.821	20400.59
499.19	20441.27
499.559	20593.36
499.928	20833.35
500.298	20959.67
500.667	21090.07
501.036	21093.91
501.405	21256.16
501.774	21374.58
502.143	21503.16
502.512	21636.95
502.88	21937.28
503.249	21935.02
503.618	22096.37
503.987	22156.71
504.356	22280.77
504.724	22484.83
505.093	22495
505.462	22709.46
505.83	22897.93
506.199	22978.38
506.567	23288.65
506.936	23358.26
507.304	23579.72
507.672	23645.48
508.041	23761.64
508.409	23958.47
508.777	24093.6
509.145	24315.29
509.514	24335.41
509.882	24585.12
510.25	24623.53
510.618	24839.12
510.986	24866.92
511.354	25170.41
511.722	25310.52
512.09	25550.51
512.458	25622.6
512.826	25720.45
513.193	25903.05
513.561	25950.05
513.929	26303.72
514.297	26466.2
514.664	26709.81
515.032	26690.82
515.4	26947.54
515.767	27089.46
516.135	27157.25
516.502	27060.76
516.869	27525.15
517.237	27685.37
517.604	27610.35
517.972	27988.87
518.339	28067.74
518.706	28235.64
519.073	28371.23
519.44	28514.73
519.808	28905.23
520.175	28866.59
520.542	29270.19
520.909	29387.02
521.276	29478.77
521.643	29696.85
522.009	29854.13
522.376	30091.64
522.743	30205.99
523.11	30612.53
523.477	30741.11
523.843	30981.56
524.21	31325.5
524.577	31560.75
524.943	31703.8
525.31	31717.13
525.676	32159.38
526.043	32382.2
526.409	32345.14
526.776	32718.24
527.142	32656.09
527.508	32938.12
527.874	33328.39
528.241	33567.7
528.607	33510.53
528.973	33870.97
529.339	33870.3
529.705	34156.62
530.071	34465.53
530.437	34708.47
530.803	34894.45
531.169	35015.8
531.535	35021.68
531.901	35171.28
532.267	35389.8
532.632	35513.64
532.998	35709.12
533.364	36008.09
533.73	36026.17
534.095	36236.11
534.461	36343.45
534.826	36495.31
535.192	36634.29
535.557	36904.11
535.923	36994.51
536.288	37036.54
536.653	37404.67
537.019	37335.97
537.384	37481.05
537.749	37669.52
538.114	37761.27
538.479	37839.46
538.845	38120.13
539.21	38042.39
539.575	38242.84
539.94	38371.42
540.305	38643.96
540.67	38512.43
541.034	38658.19
541.399	38854.35
541.764	39065.41
542.129	39170.27
542.494	39242.58
542.858	39487.1
543.223	39583.82
543.587	39791.95
543.952	39809.12
544.316	39916.46
544.681	39916.69
545.045	40192.39
545.41	40235.33
545.774	40474.19
546.138	40591.25
546.503	40683.9
546.867	40732.71
547.231	41085.25
547.595	41030.79
547.959	41259.25
548.324	41322.08
548.688	41366.14
549.052	41598.45
549.416	41694.27
549.779	41606.59
550.143	41858.56
550.507	42136.52
550.871	42204.77
551.235	42226.01
551.599	42621.25
551.962	42522.27
552.326	42756.16
552.689	43019.66
553.053	42870.06
553.417	42970.62
553.78	43476.37
554.143	43266.66
554.507	43528.8
554.87	43609.02
555.234	44108.9
555.597	43800.88
555.96	44056.47
556.323	44248.55
556.686	44289.23
557.05	44544.37
557.413	44818.71
557.776	44675.21
558.139	45037.46
558.502	45044.24
558.865	45182.99
559.228	45575.98
559.59	45596.99
559.953	45601.06
560.316	46041.5
560.679	46108.62
561.041	46296.18
561.404	46449.4
561.767	46749.51
562.129	46554.26
562.492	47117.63
562.854	46911.76
563.217	46946.56
563.579	47229.72
563.941	47531.63
564.304	47581.8
564.666	47884.84
565.028	47842.36
565.39	48027.21
565.753	48237.6
566.115	48436.47
566.477	48502.45
566.839	48604.37
567.201	48885.95
567.563	49039.84
567.925	49221.53
568.287	49235.99
568.648	49306.05
569.01	49541.07
569.372	49776.77
569.734	49651.8
570.095	49848.41
570.457	50099.47
570.819	50113.71
571.18	50216.31
571.542	50449.97
571.903	50405.45
572.265	50609.29
572.626	50725.9
572.987	50851.54
573.349	50917.98
573.71	51059
574.071	51087.92
574.432	51320.23
574.794	51398.87
575.155	51472.54
575.516	51351.19
575.877	51592.32
576.238	51707.57
576.599	51762.93
576.96	51794.12
577.32	51801.58
577.681	52124.96
578.042	52043.15
578.403	52019.65
578.763	52141.68
579.124	52206.31
579.485	52354.33
579.845	52357.04
580.206	52381.45
580.566	52440.66
580.927	52499.18
581.287	52507.77
581.648	52552.06
582.008	52663.7
582.368	52698.95
582.728	52728.78
583.089	52711.61
583.449	52706.86
583.809	52838.16
584.169	52861.21
584.529	52789.8
584.889	53012.84
585.249	52865.73
585.609	52875.22
585.969	53117.02
586.329	52992.96
586.688	53037.48
587.048	52990.47
587.408	52945.95
587.768	52980.3
588.127	53105.5
588.487	53036.57
588.846	53244.25
589.206	52954.54
589.565	53080.64
589.925	53234.53
590.284	53128.32
590.643	53151.82
591.003	53237.24
591.362	53303.91
591.721	53298.71
592.08	53190.24
592.44	53371.25
592.799	53374.42
593.158	53363.79
593.517	53335.77
593.876	53362.66
594.235	53360.86
594.593	53424.81
594.952	53526.95
595.311	53418.93
595.67	53425.94
596.029	53615.77
596.387	53666.39
596.746	53726.72
597.104	53620.51
597.463	53495.54
597.822	53782.99
598.18	53660.96
598.538	53675.88
598.897	53741.64
599.255	53575.09
599.613	53999.26
599.972	53757.91
600.33	53946.38
600.688	53797
601.046	53852.37
601.404	53998.13
601.762	53893.95
602.12	54140.5
602.478	54066.15
602.836	53935.3
603.194	53867.51
603.552	54019.37
603.91	53931.69
604.268	54029.77
604.625	54029.31
604.983	54225.92
605.341	54002.42
605.698	54193.83
606.056	54261.62
606.413	54194.51
606.771	54291
607.128	54312.92
607.485	54135.53
607.843	54214.39
608.2	54372.36
608.557	54536.87
608.914	54330.1
609.272	54484.44
609.629	54533.26
609.986	54673.82
610.343	54488.06
610.7	54686.92
611.057	54640.6
611.414	54648.96
611.771	54646.92
612.127	54749.07
612.484	54772.12
612.841	54771.67
613.198	54594.27
613.554	54750.42
613.911	54921.72
614.267	54894.6
614.624	54843.53
614.98	54906.13
615.337	54963.98
615.693	54878.56
616.05	54925.56
616.406	55080.81
616.762	54969.63
617.118	55013.92
617.475	54954.71
617.831	55117.65
618.187	55032.9
618.543	55144.99
618.899	55240.58
619.255	55126.91
619.611	55135.73
619.967	55315.83
620.323	55232.45
620.678	55243.97
621.034	55152.9
621.39	55187.93
621.746	55093.92
622.101	55443.97
622.457	55227.7
622.812	55231.54
623.168	55319.22
623.523	55315.61
623.879	55416.62
624.234	55159.68
624.589	55321.03
624.945	55366.23
625.3	55337.53
625.655	55248.72
626.01	55367.36
626.365	55319
626.72	55308.6
627.075	55323.97
627.43	55266.8
627.785	55209.4
628.14	55364.87
628.495	55280.81
628.85	55312.9
629.205	55264.99
629.559	55390.41
629.914	55248.49
630.269	55339.34
630.623	55221.15
630.978	55175.72
631.332	55297.53
631.687	55371.2
632.041	55279.68
632.396	55272.44
632.75	55099.57
633.104	55241.49
633.459	55170.3
633.813	55140.25
634.167	55087.59
634.521	55101.38
634.875	55186.12
635.229	55010.98
635.583	54979.8
635.937	55001.49
636.291	54989.97
636.645	55011.66
636.999	54942.51
637.352	55088.72
637.706	54834.72
638.06	54982.51
638.413	54935.05
638.767	54787.03
639.121	54931.89
639.474	54796.07
639.828	54767.15
640.181	54856.41
640.534	54778.45
640.888	54762.4
641.241	54719.24
641.594	54765.34
641.947	54795.85
642.301	54669.3
642.654	54736.64
643.007	54780.48
643.36	54673.14
643.713	54668.85
644.066	54790.42
644.419	54559.92
644.771	54322.19
645.124	54104.79
645.477	54103.89
645.83	53931.69
646.182	53799.49
646.535	53728.76
646.888	53807.17
647.24	53569.66
647.593	53784.57
647.945	53726.72
648.298	53630.91
648.65	53642.43
649.002	53483.34
649.355	53690.11
649.707	53602.43
650.059	53750
650.411	54038.35
650.763	54126.71
651.115	54406.71
651.467	54345.01
651.819	54324.67
652.171	54199.7
652.523	54185.02
652.875	54205.81
653.227	54105.47
653.578	54335.97
653.93	54145.92
654.282	54118.13
654.633	53994.96
654.985	54093.04
655.337	54038.35
655.688	54139.37
656.039	54171.23
656.391	53954.29
656.742	53944.34
657.094	54026.83
657.445	54145.47
657.796	54067.5
658.147	53959.26
658.498	53952.25
658.849	54058.92
659.2	53986.83
659.551	53950.45
659.902	53931.01
660.253	53888.98
660.604	53982.54
660.955	53794.29
661.306	53962.65
661.656	53877
662.007	53840.17
662.358	53773.95
662.708	53841.07
663.059	53804.69
663.409	53607.63
663.76	53860.96
664.11	53765.14
664.461	53804.24
664.811	53750.45
665.161	53762.88
665.511	53632.49
665.862	53764.01
666.212	53764.46
666.562	53772.37
666.912	53689.66
667.262	53710.9
667.612	53686.95
667.962	53736.89
668.312	53611.92
668.662	53708.42
669.011	53651.7
669.361	53616.67
669.711	53526.28
670.06	53479.27
670.41	53434.08
670.76	53353.17
671.109	53563.56
671.459	53462.78
671.808	53463.9
672.157	53406.73
672.507	53211.26
672.856	53326.28
673.205	53325.38
673.554	53402.66
673.904	53327.41
674.253	53429.56
674.602	53274.53
674.951	52811.72
675.3	52637.03
675.649	53100.07
675.998	53121.99
676.346	53118.15
676.695	53254.19
677.044	53008.78
677.393	53048.77
677.741	53040.87
678.09	53028.89
678.438	52821.89
678.787	52982.11
679.135	53004.26
679.484	52697.15
679.832	52834.99
680.181	52629.58
680.529	52715.9
680.877	52610.37
681.225	52440.66
681.573	52613.31
681.922	52451.5
682.27	52436.59
682.618	52476.13
682.966	52388.68
683.314	52398.85
683.661	52281.11
684.009	52150.04
684.357	52021.01
684.705	52019.88
685.053	51929.03
685.4	51922.93
685.748	51847.68
686.095	51778.3
686.443	51701.01
686.79	51620.34
687.138	51582.15
687.485	51633.44
687.832	51406.78
688.18	51466.22
688.527	51326.79
688.874	51268.93
689.221	51181.71
689.568	51063.97
689.915	50967.47
690.262	50989.39
690.609	50941.26
690.956	50763.86
691.303	50809.51
691.65	50581.49
691.997	50656.07
692.344	50383.99
692.69	50211.34
693.037	50260.15
693.383	49966.37
693.73	50198.91
694.077	50096.99
694.423	49787.84
694.769	49802.31
695.116	49746.94
695.462	49678.69
695.808	49387.63
696.155	49628.98
696.501	49370.23
696.847	49246.61
697.193	49031.03
697.539	49057.02
697.885	48829.9
698.231	48725.5
698.577	48861.09
698.923	48736.57
699.269	48496.13
699.614	48314.66
699.96	48283.48
700.306	48373.19
700.651	48113.31
700.997	48036.03
701.342	47928.23
701.688	47829.02
702.033	47819.08
702.379	47794.9
702.724	47513.33
703.069	47722.59
703.415	47304.97
703.76	47290.28
704.105	47332.99
704.45	47071.08
704.795	46928.71
705.14	46787.7
705.485	46781.37
705.83	46521.49
706.175	46747.25
706.52	46515.84
706.865	46603.07
707.209	46361.49
707.554	46202.63
707.899	46316.75
708.243	46079.24
708.588	46067.94
708.932	45848.74
709.277	45766.71
709.621	45725.13
709.966	45508.63
710.31	45598.35
710.654	45228.19
710.998	45405.13
711.342	45296.89
711.687	45194.97
712.031	45039.72
712.375	44910.23
712.719	45012.6
713.063	44891.7
713.407	45123.11
713.75	44618.49
714.094	44834.53
714.438	44648.32
714.782	44637.02
715.125	44400.41
715.469	44520.41
715.812	44307.99
716.156	44031.61
716.499	44112.29
716.843	44172.85
717.186	43775.12
717.53	43985.74
717.873	43895.79
718.216	43879.98
718.559	43672.75
718.902	43438.18
719.246	43544.17
719.589	43426.2
719.932	43141.01
720.275	43205.64
720.617	43184.85
720.96	43089.71
721.303	43223.95
721.646	43071.41
721.989	42884.3
722.331	43007.91
722.674	42881.58
723.016	42919.32
723.359	42809.5
723.701	42793.68
724.044	42555.04
724.386	42351.2
724.729	42476.62
725.071	42422.16
725.413	42418.09
725.755	42406.34
726.097	42147.14
726.439	41938.78
726.782	42125.22
727.124	42228.49
727.465	41935.17
727.807	41849.97
728.149	41798.9
728.491	41743.08
728.833	41773.36
729.175	41601.39
729.516	41625.12
729.858	41524.11
730.199	41432.36
730.541	41348.07
730.882	41409.31
731.224	41536.08
731.565	41214.06
731.906	41233.49
732.248	41334.51
732.589	41048.64
732.93	40979.04
733.271	41007.28
733.612	41007.28
733.953	40985.59
734.294	40798.25
734.635	40587.18
734.976	40796.89
735.317	40616.11
735.658	40454.98
735.999	40426.73
736.339	40459.95
736.68	40551.93
737.021	40469.67
737.361	40215.89
737.702	40490.91
738.042	40307.41
738.383	40094.99
738.723	40202.78
739.063	39971.83
739.404	40254.99
739.744	39980.19
740.084	39889.35
740.424	39836.01
740.764	39787.65
741.104	39899.97
741.444	39665.85
741.784	39749.01
742.124	39717.37
742.464	39720.54
742.804	39619.07
743.143	39481.45
743.483	39358.29
743.823	39255.46
744.162	39195.35
744.502	39411.17
744.841	39266.09
745.181	39245.3
745.52	39056.83
745.86	39125.3
746.199	39051.18
746.538	39035.36
746.877	39047.33
747.216	38950.39
747.556	38870.39
747.895	38779.32
748.234	38541.13
748.573	38662.94
748.911	38619.55
749.25	38568.03
749.589	38498.65
749.928	38456.62
750.267	38390.85
750.605	38244.19
750.944	38314.47
751.283	37997.19
751.621	38269.05
751.96	38029.96
752.298	37953.8
752.636	37960.58
752.975	37778.67
753.313	37745.9
753.651	37773.47
753.989	37619.35
754.327	37514.49
754.666	37333.48
755.004	37451.44
755.342	37350.66
755.679	37293.93
756.017	37071.34
756.355	37326.93
756.693	37015.07
757.031	37039.03
757.368	36801.74
757.706	36778.02
758.044	36558.36
758.381	36565.37
758.719	36559.72
759.056	36408.31
759.394	36316.79
759.731	36154.76
760.068	36067.75
760.405	36011.48
760.743	35720.42
761.08	35823.01
761.417	35690.81
761.754	35631.38
762.091	35509.12
762.428	35439.97
762.765	35244.72
763.102	35413.31
763.438	35051.96
763.775	34967.67
764.112	35003.6
764.449	34986.2
764.785	34769.03
765.122	34589.37
765.458	34523.84
765.795	34443.16
766.131	34492.88
766.467	34391.64
766.804	34146.67
767.14	33965.89
767.476	33984.19
767.812	33917.3
768.148	33804.99
768.485	33663.75
768.821	33444.09
769.157	33412.68
769.492	33387.6
769.828	33269.41
770.164	32945.12
770.5	33006.82
770.836	33026.48
771.171	32708.97
771.507	32665.36
771.842	32327.74
772.178	32511.69
772.513	32349.88
772.849	32367.74
773.184	31982.66
773.519	32007.29
773.855	31926.84
774.19	31842.55
774.525	31724.14
774.86	31630.81
775.195	31643.91
775.53	31457.48
775.865	31268.56
776.2	31058.39
776.535	30886.19
776.87	30878.06
777.205	30746.76
777.539	30635.58
777.874	30678.97
778.209	30401.46
778.543	30329.15
778.878	30114.91
779.212	30124.18
779.547	29928.25
779.881	29965.54
780.215	29835.6
780.55	29847.8
780.884	29636.06
781.218	29540.47
781.552	29515.83
781.886	29508.38
782.22	29211.66
782.554	29195.62
782.888	28822.52
783.222	28857.55
783.556	28676.31
783.889	28669.75
784.223	28447.84
784.557	28413.26
784.89	28519.48
785.224	28295.3
785.557	28048.3
785.891	28239.03
786.224	28091.69
786.558	28031.81
786.891	27684.47
787.224	27731.25
787.557	27434.76
787.891	27512.72
788.224	27449
788.557	27400.64
788.89	27300.98
789.223	27245.84
789.556	26993.19
789.888	26845.4
790.221	26930.37
790.554	26751.84
790.887	26656.7
791.219	26644.05
791.552	26484.73
791.884	26417.61
792.217	26410.61
792.549	26163.38
792.882	26111.86
793.214	26033.67
793.546	26007.45
793.879	25882.71
794.211	25690.85
794.543	25838.87
794.875	25694.47
795.207	25716.16
795.539	25432.55
795.871	25464.19
796.203	25399.56
796.535	25193.46
796.867	25096.29
797.198	25000.25
797.53	24975.84
797.862	24814.94
798.193	24969.74
798.525	24750.54
798.856	24669.41
799.188	24540.6
799.519	24338.34
799.85	24372.47
800.182	24366.82
800.513	24453.37
800.844	24107.61
801.175	24176.77
801.506	24180.61
801.837	23897
802.168	23920.27
802.499	23894.29
802.83	23702.2
803.161	23672.6
803.491	23650
803.822	23600.06
804.153	23422.89
804.483	23321.42
804.814	23239.16
805.145	23268.54
805.475	23231.03
805.805	23081.88
806.136	23127.75
806.466	23119.39
806.796	22962.33
807.126	22783.81
807.457	22827.42
807.787	22836.91
808.117	22678.05
808.447	22605.51
808.777	22681.44
809.107	22551.95
809.436	22476.7
809.766	22443.25
810.096	22402.8
810.426	22239.19
810.755	22190.15
811.085	22147.44
811.414	22025.64
811.744	22032.64
812.073	21995.81
812.403	21835.36
812.732	21766.43
813.061	21861.8
813.39	21744.96
813.719	21640.79
814.049	21650.96
814.378	21558.08
814.707	21509.26
815.036	21440.34
815.365	21372.32
815.693	21243.06
816.022	21174.81
816.351	21182.49
816.68	21093
817.008	21127.35
817.337	20974.14
817.665	20865.89
817.994	20983.18
818.322	20893.24
818.651	20822.05
818.979	20745.67
819.307	20747.48
819.636	20721.49
819.964	20517.65
820.292	20610.08
820.62	20579.57
820.948	20614.37
821.276	20580.25
821.604	20535.05
821.932	20540.25
822.259	20604.43
822.587	20443.98
822.915	20388.84
823.243	20558.1
823.57	20528.95
823.898	20541.15
824.225	20378
824.553	20453.02
824.88	20458.67
825.207	20506.35
825.535	20489.63
825.862	20421.84
826.189	20370.54
826.516	20507.03
826.843	20457.32
827.17	20483.08
827.497	20485.56
827.824	20406.47
828.151	20514.49
828.478	20435.39
828.805	20380.93
829.131	20374.83
829.458	20427.03
829.785	20306.81
830.111	20345
830.438	20446.02
830.764	20309.75
831.09	20341.39
831.417	20210.09
831.743	20432.23
832.069	20314.95
832.395	20256.42
832.722	20291.22
833.048	20272.01
833.374	20227.72
833.7	20186.59
834.026	20188.4
834.351	20213.03
834.677	20130.09
835.003	20149.53
835.329	20126.02
835.654	20145.23
835.98	20013.03
836.306	20067.95
836.631	19974.62
836.956	20008.74
837.282	19927.84
837.607	19797.67
837.932	19838.12
838.258	19877.22
838.583	19743.89
838.908	19713.61
839.233	19679.93
839.558	19749.09
839.883	19725.81
840.208	19642.65
840.533	19562.88
840.858	19618.47
841.182	19648.52
841.507	19512.71
841.832	19427.51
842.156	19358.36
842.481	19394.74
842.805	19304.35
843.13	19274.75
843.454	19236.1
843.778	19192.26
844.103	19122.21
844.427	19051.48
844.751	19136.22
845.075	19030.91
845.399	18902.33
845.723	18825.49
846.047	18823.46
846.371	18705.5
846.695	18668.89
847.019	18604.93
847.343	18482.23
847.666	18361.33
847.99	18244.04
848.313	18304.83
848.637	18138.05
848.96	18054.67
849.284	18140.31
849.607	17995.23
849.931	17849.93
850.254	17836.59
850.577	17725.41
850.9	17597.96
851.223	17535.81
851.546	17558.86
851.869	17395.93
852.192	17435.7
852.515	17285.2
852.838	17249.72
853.161	17174.92
853.483	17133.11
853.806	17099.21
854.129	17070.29
854.451	16952.1
854.774	16947.8
855.096	16875.04
855.419	16800.01
855.741	16740.58
856.063	16669.17
856.385	16636.62
856.708	16597.76
857.03	16557.98
857.352	16445.9
857.674	16397.99
857.996	16413.13
858.318	16338.55
858.64	16266.69
858.961	16255.62
859.283	16161.38
859.605	16065.11
859.926	16173.59
860.248	16096.07
860.57	15964.33
860.891	16001.16
861.212	15882.07
861.534	15904.21
861.855	15857.89
862.176	15928.85
862.498	15811.56
862.819	15882.97
863.14	15756.42
863.461	15809.3
863.782	15697.89
864.103	15618.35
864.424	15628.29
864.745	15660.83
865.065	15590.1
865.386	15519.14
865.707	15464.9
866.027	15516.43
866.348	15463.77
866.668	15463.77
866.989	15364.57
867.309	15270.11
867.63	15323.66
867.95	15280.05
868.27	15187.4
868.59	15307.85
868.91	15233.72
869.23	15158.47
869.55	15080.51
869.87	15210
870.19	15085.71
870.51	15234.63
870.83	15043.67
871.15	14977.69
871.469	15049.55
871.789	15113.95
872.109	15018.36
872.428	14947.4
872.748	14894.52
873.067	15008.64
873.386	14936.56
873.706	14876.9
874.025	14820.18
874.344	14797.35
874.663	14781.76
874.982	14780.85
875.301	14757.35
875.62	14680.52
875.939	14636.45
876.258	14676
876.577	14564.36
876.896	14565.49
877.214	14500.18
877.533	14687.3
877.852	14525.95
878.17	14522.33
878.489	14476.46
878.807	14504.03
879.125	14428.32
879.444	14501.99
879.762	14454.76
880.08	14291.6
880.398	14241.66
880.716	14257.03
881.034	14285.5
881.352	14190.59
881.67	14112.62
881.988	14111.49
882.306	14259.51
882.624	14059.97
882.941	14012.29
883.259	14011.16
883.577	13986.75
883.894	13959.63
884.212	13895
884.529	13943.36
884.846	13829.69
885.164	13899.52
885.481	13839.64
885.798	13861.33
886.115	13594.9
886.432	13677.83
886.75	13699.75
887.067	13599.19
887.383	13562.81
887.7	13621.79
888.017	13600.09
888.334	13532.98
888.651	13404.85
888.967	13445.3
889.284	13349.25
889.6	13225.87
889.917	13263.38
890.233	13260.67
890.55	13171.86
890.866	13234.91
891.182	13217.51
891.498	13141.12
891.815	13055.48
892.131	12999.66
892.447	13057.74
892.763	12957.63
893.079	12938.64
893.395	12900.23
893.71	12903.62
894.026	12782.49
894.342	12765.77
894.657	12716.05
894.973	12618.2
895.289	12716.73
895.604	12634.02
895.92	12538.88
896.235	12524.42
896.55	12444.64
896.865	12426.34
897.181	12399.45
897.496	12440.35
897.811	12327.13
898.126	12284.42
898.441	12267.93
898.756	12198.32
899.071	12092.11
899.386	12158.78
899.7	12029.51
900.015	12045.56
900.33	11800.37
900.644	11837.88
900.959	11911.1
901.273	11869.07
901.588	11816.86
901.902	11720.82
902.216	11648.96
902.531	11678.34
902.845	11560.37
903.159	11512.92
903.473	11516.76
903.787	11382.98
904.101	11404.45
904.415	11460.49
904.729	11367.38
905.042	11258.46
905.356	11158.12
905.67	11255.98
905.984	11266.6
906.297	11146.37
906.611	11087.17
906.924	10989.77
907.237	11048.98
907.551	10924.23
907.864	10843.56
908.177	10904.8
908.491	10802.88
908.804	10761.07
909.117	10759.27
909.43	10564.69
909.743	10579.38
910.056	10580.74
910.368	10582.32
910.681	10524.92
910.994	10500.29
911.307	10406.51
911.619	10380.74
911.932	10383.68
912.244	10289.67
912.557	10252.84
912.869	10218.26
913.181	10125.16
913.494	10184.59
913.806	10069.79
914.118	10058.94
914.43	10019.62
914.742	10048.1
915.054	9864.83
915.366	9887.2
915.678	9817.14
915.99	9787.54
916.302	9723.36
916.613	9667.77
916.925	9632.97
917.236	9652.4
917.548	9573.08
917.859	9537.15
918.171	9481.56
918.482	9393.88
918.794	9391.62
919.105	9349.36
919.416	9369.02
919.727	9348.23
920.038	9279.53
920.349	9182.81
920.66	9188.46
920.971	9184.84
921.282	9067.11
921.593	9004.28
921.903	9043.83
922.214	8961.35
922.525	8899.43
922.835	8903.49
923.146	8849.03
923.456	8831.41
923.767	8791.86
924.077	8743.05
924.387	8733.78
924.697	8659.89
925.008	8631.86
925.318	8637.06
925.628	8561.81
925.938	8557.97
926.248	8498.99
926.558	8442.94
926.867	8392.1
927.177	8376.05
927.487	8323.4
927.796	8263.74
928.106	8253.12
928.416	8256.05
928.725	8158.2
929.034	8116.17
929.344	8126.57
929.653	8122.27
929.962	7960.47
930.271	8003.86
930.581	7912.79
930.89	7930.64
931.199	7866.23
931.508	7880.24
931.817	7852.67
932.125	7804.77
932.434	7779
932.743	7730.42
933.051	7627.82
933.36	7626.69
933.669	7638.9
933.977	7588.73
934.286	7564.55
934.594	7557.54
934.902	7460.82
935.21	7442.74
935.519	7436.19
935.827	7460.82
936.135	7290.66
936.443	7261.28
936.751	7273.93
937.059	7241.39
937.367	7211.11
937.674	7192.81
937.982	7139.25
938.29	7129.98
938.597	7068.29
938.905	7022.41
939.213	7050.89
939.52	6930.89
939.827	6994.62
940.135	6917.11
940.442	6905.58
940.749	6878.01
941.056	6831.91
941.363	6805.47
941.67	6818.13
941.977	6722.99
942.284	6645.25
942.591	6722.31
942.898	6625.81
943.205	6633.27
943.511	6592.37
943.818	6600.73
944.125	6493.16
944.431	6482.99
944.738	6489.09
945.044	6488.42
945.35	6439.6
945.657	6356.44
945.963	6377.91
946.269	6297.46
946.575	6310.34
946.881	6261.3
947.187	6259.5
947.493	6232.38
947.799	6191.93
948.105	6200.06
948.41	6098.82
948.716	6082.78
949.022	6090.24
949.327	6003.23
949.633	5993.74
949.938	6025.15
950.244	5993.51
950.549	5945.61
950.854	5894.31
951.16	5889.79
951.465	5858.6
951.77	5880.07
952.075	5795.78
952.38	5743.58
952.685	5779.28
952.99	5746.74
953.294	5684.6
953.599	5672.39
953.904	5702.22
954.209	5597.59
954.513	5644.15
954.818	5557.82
955.122	5559.63
955.426	5541.1
955.731	5515.56
956.035	5460.65
956.339	5501.55
956.643	5473.08
956.948	5429.91
957.252	5397.37
957.556	5352.18
957.86	5346.3
958.163	5358.5
958.467	5325.51
958.771	5316.7
959.075	5287.09
959.378	5224.5
959.682	5226.53
959.985	5210.71
960.289	5127.55
960.592	5151.5
960.896	5122.13
961.199	5113.54
961.502	5056.14
961.805	5027.44
962.108	4982.69
962.411	4959.87
962.714	4974.11
963.017	4950.83
963.32	4948.34
963.623	4895.46
963.926	4884.84
964.228	4864.05
964.531	4847.1
964.833	4819.08
965.136	4738.63
965.438	4796.71
965.741	4726.43
966.043	4736.15
966.345	4714
966.648	4662.7
966.95	4662.48
967.252	4607.11
967.554	4618.86
967.856	4590.84
968.158	4594.46
968.46	4584.74
968.761	4591.07
969.063	4494.57
969.365	4511.29
969.666	4466.78
969.968	4371.41
970.269	4417.74
970.571	4429.94
970.872	4351.52
971.174	4338.64
971.475	4352.88
971.776	4349.72
972.077	4332.09
972.378	4251.41
972.679	4308.59
972.98	4277.63
973.281	4268.14
973.582	4233.79
973.883	4168.48
974.183	4113.11
974.484	4188.82
974.785	4111.3
975.085	4086.22
975.386	4127.35
975.686	4093.23
975.986	4062.27
976.287	4067.46
976.587	4033.79
976.887	3987.92
977.187	4019.78
977.487	4001.93
977.787	3937.3
978.087	3934.36
978.387	3938.65
978.687	3944.76
978.987	3878.77
979.286	3905.66
979.586	3874.7
979.885	3813.91
980.185	3809.62
980.484	3786.12
980.784	3774.14
981.083	3784.76
981.382	3733.69
981.682	3712.9
981.981	3678.32
982.28	3651.66
982.579	3627.7
982.878	3664.99
983.177	3622.05
983.475	3622.5
983.774	3606.68
984.073	3596.74
984.372	3536.86
984.67	3542.73
984.969	3534.6
985.267	3523.52
985.566	3538.21
985.864	3478.1
986.162	3495.28
986.461	3450.3
986.759	3443.98
987.057	3412.11
987.355	3365.56
987.653	3393.13
987.951	3377.31
988.249	3386.13
988.547	3374.37
988.844	3317.43
989.142	3286.69
989.44	3284.43
989.737	3287.15
990.035	3246.02
990.332	3225
990.63	3232.68
990.927	3232.01
991.224	3192.23
991.521	3152.46
991.819	3158.34
992.116	3148.62
992.413	3115.62
992.71	3151.1
993.006	3112.23
993.303	3092.8
993.6	3071.78
993.897	3080.14
994.193	3029.07
994.49	3041.95
994.787	2992.46
995.083	2987.04
995.379	3002.41
995.676	2959.24
995.972	2954.27
996.268	2961.5
996.565	2893.71
996.861	2902.97
997.157	2895.29
997.453	2872.92
997.749	2865.01
998.044	2823.43
998.34	2847.16
998.636	2798.57
998.932	2821.17
999.227	2768.06
999.523	2767.84
999.818	2742.07
1000.114	2724.45
1000.409	2712.47
1000.704	2720.15
1001	2673.6
1001.295	2664.11
1001.59	2684.45
1001.885	2644.9
1002.18	2603.32
1002.475	2594.73
1002.77	2599.25
1003.065	2588.63
1003.359	2568.07
1003.654	2599.25
1003.949	2516.32
1004.243	2551.57
1004.538	2521.29
1004.832	2523.1
1005.127	2512.7
1005.421	2464.79
1005.715	2451.69
1006.009	2441.74
1006.304	2455.75
1006.598	2432.48
1006.892	2410.78
1007.186	2375.53
1007.48	2345.25
1007.773	2345.02
1008.067	2323.78
1008.361	2360.16
1008.655	2348.41
1008.948	2305.93
1009.242	2277.68
1009.535	2259.83
1009.829	2288.98
1010.122	2235.2
1010.415	2222.99
1010.708	2225.93
1011.001	2215.53
1011.295	2186.38
1011.588	2186.38
1011.881	2151.58
1012.173	2148.42
1012.466	2164.69
1012.759	2147.06
1013.052	2117.91
1013.344	2098.93
1013.637	2084.92
1013.93	2090.57
1014.222	2090.79
1014.514	2049.21
1014.807	2053.51
1015.099	2046.5
1015.391	2004.47
1015.683	2041.98
1015.976	1980.29
1016.268	1976.45
1016.56	1971.7
1016.851	1957.46
1017.143	1921.31
1017.435	1941.64
1017.727	1918.82
1018.018	1919.05
1018.31	1925.37
1018.602	1868.2
1018.893	1830.69
1019.185	1853.28
1019.476	1851.25
1019.767	1818.26
1020.058	1780.74
1020.35	1792.95
1020.641	1765.6
1020.932	1787.75
1021.223	1766.96
1021.514	1756.56
1021.804	1731.71
1022.095	1710.69
1022.386	1719.28
1022.677	1681.54
1022.967	1682.67
1023.258	1673.63
1023.548	1681.54
1023.839	1642.89
1024.129	1665.94
1024.419	1620.97
1024.709	1613.74
1025	1608.32
1025.29	1611.71
1025.58	1580.52
1025.87	1588.66
1026.16	1572.39
1026.449	1535.78
1026.739	1550.47
1027.029	1539.39
1027.319	1548.89
1027.608	1539.39
1027.898	1551.37
1028.187	1488.1
1028.477	1509.11
1028.766	1473.86
1029.055	1443.35
1029.344	1438.83
1029.634	1425.27
1029.923	1439.28
1030.212	1421.21
1030.501	1411.26
1030.79	1390.02
1031.078	1395.22
1031.367	1357.25
1031.656	1382.56
1031.945	1365.39
1032.233	1358.61
1032.522	1346.18
1032.81	1323.58
1033.099	1328.78
1033.387	1319.97
1033.675	1287.88
1033.963	1298.95
1034.251	1270.93
1034.54	1280.42
1034.828	1272.51
1035.116	1242.91
1035.403	1272.06
1035.691	1262.34
1035.979	1244.26
1036.267	1218.73
1036.554	1225.96
1036.842	1201.1
1037.129	1232.28
1037.417	1186.86
1037.704	1184.15
1037.992	1184.15
1038.279	1171.72
1038.566	1182.12
1038.853	1182.12
1039.14	1182.12
