Data from whiteboard_FLMS001491_00038.txt Node
Date: Wed Feb 08 11:26:17 GMT 2017
User: dcchb
Spectrometer: FLMS00149
Trigger mode: 0
Integration Time (sec): 2.000000E-2
Scans to average: 10
Electric dark correction enabled: true
Nonlinearity correction enabled: false
Boxcar width: 0
XAxis mode: Wavelengths
Number of Pixels in Spectrum: 2048
>>>>>Begin Spectral Data<<<<<
341.393	3.83
341.776	3.83
342.16	3.83
342.543	-49.5
342.927	-67.58
343.31	-63.29
343.693	-67.13
344.077	-58.54
344.46	-39.34
344.843	-51.54
345.226	-48.37
345.61	-48.15
345.993	-24.87
346.376	-13.8
346.759	10.83
347.142	25.3
347.525	51.74
347.908	64.16
348.291	69.36
348.674	73.43
349.057	120.21
349.44	120.21
349.823	131.28
350.206	183.26
350.588	249.7
350.971	257.83
351.354	258.06
351.737	272.52
352.119	284.05
352.502	299.41
352.884	347.77
353.267	329.02
353.65	329.47
354.032	348.9
354.414	354.1
354.797	352.07
355.179	362.46
355.562	359.98
355.944	379.41
356.326	389.35
356.709	372.86
357.091	388
357.473	400.2
357.855	401.33
358.238	397.94
358.62	400.43
359.002	408.11
359.384	383.93
359.766	403.14
360.148	413.99
360.53	396.59
360.912	398.62
361.294	394.55
361.676	378.73
362.057	380.54
362.439	398.17
362.821	379.64
363.203	385.74
363.584	402.01
363.966	395.68
364.348	394.55
364.729	368.79
365.111	379.64
365.493	397.49
365.874	378.06
366.256	363.14
366.637	398.39
367.019	397.72
367.4	410.6
367.781	378.06
368.163	389.35
368.544	411.5
368.925	385.29
369.306	378.51
369.688	383.48
370.069	402.69
370.45	384.83
370.831	407.88
371.212	384.38
371.593	394.1
371.974	383.25
372.355	407.21
372.736	416.25
373.117	401.33
373.498	406.3
373.879	417.15
374.26	394.1
374.641	404.5
375.021	399.75
375.402	434.32
375.783	430.03
376.163	443.14
376.544	442.01
376.925	444.49
377.305	412.86
377.686	444.95
378.066	420.99
378.447	432.97
378.827	416.47
379.208	445.85
379.588	431.61
379.968	451.05
380.349	447.43
380.729	447.88
381.109	461.67
381.489	453.53
381.87	466.19
382.25	468.9
382.63	486.07
383.01	484.27
383.39	467.77
383.77	491.95
384.15	488.56
384.53	496.92
384.91	487.43
385.29	493.31
385.67	515
386.049	519.75
386.429	536.69
386.809	519.29
387.189	538.5
387.568	527.2
387.948	528.11
388.328	535.11
388.707	528.79
389.087	552.06
389.466	563.13
389.846	582.12
390.225	554.55
390.605	566.07
390.984	595
391.363	594.09
391.743	620.99
392.122	596.81
392.501	618.27
392.881	614.66
393.26	647.43
393.639	642.68
394.018	639.74
394.397	663.92
394.776	666.41
395.155	650.36
395.534	692.4
395.913	697.59
396.292	705.05
396.671	706.41
397.05	720.87
397.429	721.55
397.808	737.37
398.186	748.67
398.565	738.5
398.944	770.14
399.323	754.32
399.701	752.96
400.08	774.2
400.458	780.76
400.837	815.78
401.215	818.72
401.594	817.82
401.972	865.27
402.351	851.49
402.729	860.98
403.107	889.45
403.486	913.86
403.864	919.96
404.242	903.24
404.62	962.45
404.999	992.73
405.377	978.94
405.755	990.69
406.133	1003.8
406.511	1035.44
406.889	1068.88
407.267	1074.76
407.645	1054.42
408.023	1085.83
408.401	1125.61
408.779	1128.54
409.156	1170.35
409.534	1162.44
409.912	1202.44
410.29	1235.21
410.667	1248.31
411.045	1291.7
411.422	1269.56
411.8	1320.86
412.178	1312.49
412.555	1347.75
412.933	1376.22
413.31	1409.44
413.687	1430.46
414.065	1418.71
414.442	1452.6
414.819	1496.67
415.197	1531.47
415.574	1577.12
415.951	1543.22
416.328	1546.61
416.705	1609.44
417.082	1608.76
417.46	1615.99
417.837	1637.46
418.214	1698.47
418.591	1691.69
418.967	1745.25
419.344	1744.12
419.721	1740.28
420.098	1772.59
420.475	1787.74
420.852	1814.85
421.228	1848.98
421.605	1859.37
421.982	1902.08
422.358	1919.71
422.735	1938.01
423.111	1946.15
423.488	1998.58
423.864	1979.14
424.241	2037.67
424.617	2046.94
424.994	2083.09
425.37	2074.28
425.746	2112.47
426.123	2145.24
426.499	2183.88
426.875	2238.12
427.251	2281.51
427.627	2309.3
428.003	2300.94
428.379	2334.39
428.756	2378.68
429.132	2418.68
429.507	2450.77
429.883	2482.18
430.259	2518.11
430.635	2545.91
431.011	2575.06
431.387	2634.04
431.763	2692.8
432.138	2702.51
432.514	2724.43
432.89	2753.13
433.265	2813.25
433.641	2868.84
434.016	2883.75
434.392	2951.32
434.767	2995.16
435.143	2993.58
435.518	3070.64
435.894	3147.47
436.269	3165.78
436.644	3187.02
437.02	3272.67
437.395	3219.34
437.77	3262.27
438.145	3333.46
438.52	3378.2
438.895	3429.5
439.271	3428.6
439.646	3519.44
440.021	3516.96
440.395	3558.08
440.77	3493.91
441.145	3558.76
441.52	3630.4
441.895	3672.66
442.27	3681.92
442.645	3707.01
443.019	3735.03
443.394	3784.07
443.769	3769.6
444.143	3819.32
444.518	3907.91
444.892	3908.13
445.267	3946.32
445.641	3994.01
446.016	4004.85
446.39	4003.04
446.764	4043.27
447.139	4061.57
447.513	4140.44
447.887	4106.09
448.262	4177.96
448.636	4182.02
449.01	4263.38
449.384	4307.22
449.758	4297.95
450.132	4413.88
450.506	4397.61
450.88	4430.6
451.254	4497.27
451.628	4502.69
452.002	4558.51
452.376	4620.43
452.75	4651.84
453.123	4724.83
453.497	4802.35
453.871	4868.11
454.244	4912.63
454.618	5008.22
454.992	5044.15
455.365	5106.29
455.739	5254.31
456.112	5261.99
456.486	5331.37
456.859	5351.48
457.232	5486.17
457.606	5465.38
457.979	5560.07
458.352	5699.95
458.725	5766.39
459.099	5815.88
459.472	5928.87
459.845	5982.65
460.218	6006.38
460.591	6068.98
460.964	6172.7
461.337	6258.58
461.71	6411.57
462.083	6492.02
462.456	6455.41
462.829	6520.04
463.201	6697.66
463.574	6676.42
463.947	6793.93
464.32	6941.5
464.692	6985.79
465.065	7036.86
465.438	7217.65
465.81	7273.92
466.183	7361.15
466.555	7588.26
466.928	7626.68
467.3	7587.81
467.672	7706.45
468.045	7962.71
468.417	7959.55
468.789	8065.99
469.161	8147.57
469.534	8323.61
469.906	8511.63
470.278	8520.89
470.65	8710.72
471.022	8797.72
471.394	8993.87
471.766	9122.23
472.138	9242.91
472.51	9380.98
472.882	9476.8
473.253	9616
473.625	9767.19
473.997	9997.92
474.369	10104.58
474.74	10173.5
475.112	10439.03
475.484	10555.19
475.855	10779.36
476.227	10888.29
476.598	11174.38
476.97	11277.43
477.341	11543.41
477.713	11729.85
478.084	11827.25
478.455	12172.1
478.827	12308.36
479.198	12664.29
479.569	12652.31
479.94	13008.01
480.311	13157.38
480.682	13379.07
481.053	13762.34
481.424	13961.2
481.795	14200.29
482.166	14345.15
482.537	14576.55
482.908	14854.96
483.279	15051.12
483.65	15383.31
484.021	15602.74
484.391	15935.16
484.762	15927.02
485.133	16059.45
485.503	16353
485.874	16794.8
486.244	16910.73
486.615	17211.06
486.985	17399.08
487.356	17715
487.726	17876.58
488.097	18314.31
488.467	18323.8
488.837	18700.74
489.207	18895.08
489.578	19219.82
489.948	19449.64
490.318	19691.22
490.688	19723.31
491.058	20078.55
491.428	20271.32
491.798	20457.98
492.168	21018.64
492.538	21008.02
492.908	21260.22
493.278	21645.97
493.648	21647.78
494.017	22004.61
494.387	22295.9
494.757	22467.64
495.126	22640.52
495.496	22911.02
495.866	22977.01
496.235	23253.39
496.605	23499.25
496.974	23570.89
497.344	23820.6
497.713	24003.87
498.082	24096.75
498.452	24480.7
498.821	24564.54
499.19	24675.95
499.559	24958.88
499.928	25109.38
500.298	25283.16
500.667	25411.52
501.036	25408.81
501.405	25827.33
501.774	25815.35
502.143	26063.26
502.512	26247.66
502.88	26348.45
503.249	26389.57
503.618	26682
503.987	26766.51
504.356	27045.38
504.724	27140.52
505.093	27265.03
505.462	27575.98
505.83	27638.58
506.199	28003.77
506.567	28358.56
506.936	28340.94
507.304	28701.15
507.672	28914.25
508.041	29031.99
508.409	29173.46
508.777	29362.83
509.145	29663.39
509.514	29738.64
509.882	30086.88
510.25	30158.97
510.618	30562.57
510.986	30435.34
511.354	30847.31
511.722	31175.44
512.09	31369.33
512.458	31392.83
512.826	31686.84
513.193	31913.05
513.561	31881.86
513.929	32252.92
514.297	32640.48
514.664	32744.89
515.032	32887.93
515.4	33157.31
515.767	33292.22
516.135	33533.79
516.502	33306
516.869	33972.43
517.237	34048.13
517.604	34123.83
517.972	34496.48
518.339	34663.48
518.706	34812.86
519.073	35069.12
519.44	35260.3
519.808	35735.77
520.175	35606.28
520.542	36111.8
520.909	36239.48
521.276	36459.82
521.643	36895.96
522.009	37069.29
522.376	37365.33
522.743	37603.06
523.11	38050.28
523.477	38440.11
523.843	38764.84
524.21	39087.09
524.577	39363.24
524.943	39507.87
525.31	39753.29
525.676	40303.11
526.043	40450.9
526.409	40636.21
526.776	41161.39
527.142	41124.1
527.508	41528.84
527.874	41596.41
528.241	41881.82
528.607	42115.71
528.973	42496.04
529.339	42587.34
529.705	43044.5
530.071	43231.17
530.437	43388.22
530.803	43518.39
531.169	43775.11
531.535	43838.61
531.901	43964.03
532.267	44141.42
532.632	44401.98
532.998	44445.14
533.364	44801.29
533.73	44751.35
534.095	45056.43
534.461	45299.59
534.826	45453.03
535.192	45493.48
535.557	45855.73
535.923	45878.55
536.288	46051.66
536.653	46196.74
537.019	46165.55
537.384	46382.27
537.749	46708.14
538.114	46891.86
538.479	46938.19
538.845	47249.82
539.21	47110.16
539.575	47282.81
539.94	47513.09
540.305	47654.33
540.67	47881.21
541.034	48132.05
541.399	48226.29
541.764	48335.66
542.129	48547.86
542.494	48613.4
542.858	48707.86
543.223	48845.48
543.587	49233.04
543.952	49183.33
544.316	49278.46
544.681	49394.85
545.045	49561.39
545.41	49763.2
545.774	49884.32
546.138	49898.56
546.503	50022.4
546.867	50044.32
547.231	50296.74
547.595	50484.08
547.959	50388.72
548.324	50417.42
548.688	50540.8
549.052	50659.44
549.416	50633.68
549.779	50721.82
550.143	50788.93
550.507	51037.74
550.871	51099.21
551.235	51024.63
551.599	51368.8
551.962	51338.52
552.326	51421.68
552.689	51610.15
553.053	51480.21
553.417	51612.64
553.78	51971.27
554.143	51823.03
554.507	52061.89
554.87	52119.97
555.234	52450.81
555.597	52206.52
555.96	52348.21
556.323	52599.96
556.686	52697.36
557.05	52900.97
557.413	53049.44
557.776	53085.6
558.139	53294.4
558.502	53440.16
558.865	53563.55
559.228	53716.09
559.59	53888.29
559.953	53982.3
560.316	54327.14
560.679	54222.51
561.041	54530.98
561.404	54678.32
561.767	54911.76
562.129	54789.05
562.492	55158.08
562.854	55086.67
563.217	55222.71
563.579	55327.12
563.941	55439.66
564.304	55595.13
564.666	55751.97
565.028	55823.38
565.39	55892.3
565.753	56072.41
566.115	56147.21
566.477	56255.23
566.839	56295.45
567.201	56481.44
567.563	56450.03
567.925	56668.33
568.287	56649.12
568.648	56650.7
569.01	56749.45
569.372	56971.82
569.734	56744.03
570.095	56920.75
570.457	57075.1
570.819	57021.54
571.18	57020.86
571.542	57184.7
571.903	57228.09
572.265	57335.65
572.626	57349.21
572.987	57384.47
573.349	57423.56
573.71	57613.61
574.071	57636.89
574.432	57612.26
574.794	57874.17
575.155	57833.95
575.516	57825.13
575.877	57915.07
576.238	58005.47
576.599	58088.63
576.96	58140.38
577.32	58182.64
577.681	58297.66
578.042	58310.54
578.403	58302.18
578.763	58510.31
579.124	58477.54
579.485	58561.16
579.845	58674.83
580.206	58762.28
580.566	58713.24
580.927	58738.1
581.287	58858.55
581.648	58763.41
582.008	58981.94
582.368	58992.33
582.728	59004.54
583.089	58998.43
583.449	59019.22
583.809	59101.26
584.169	59189.39
584.529	59062.61
584.889	59238.65
585.249	59063.52
585.609	59016.74
585.969	59164.98
586.329	59153.68
586.688	59145.1
587.048	59047.92
587.408	59024.65
587.768	59003.86
588.127	59077.53
588.487	58996.85
588.846	59190.97
589.206	58938.78
589.565	58993.91
589.925	59109.84
590.284	59030.52
590.643	58995.95
591.003	59059.68
591.362	59113.46
591.721	59032.33
592.08	58975.16
592.44	59080.69
592.799	59064.42
593.158	59086.79
593.517	59080.47
593.876	59100.58
594.235	59078.66
594.593	58944.65
594.952	59059.9
595.311	58978.77
595.67	59100.8
596.029	59202.5
596.387	59224.64
596.746	59216.73
597.104	59107.36
597.463	59135.15
597.822	59240.46
598.18	59231.65
598.538	59235.04
598.897	59386.22
599.255	59190.75
599.613	59543.73
599.972	59349.16
600.33	59444.75
600.688	59389.38
601.046	59501.47
601.404	59629.15
601.762	59557.97
602.12	59671.41
602.478	59644.52
602.836	59688.59
603.194	59577.85
603.552	59641.36
603.91	59576.27
604.268	59849.03
604.625	59734.46
604.983	59790.05
605.341	59741.92
605.698	59802.71
606.056	59846.32
606.413	59901.01
606.771	59970.39
607.128	59914.34
607.485	59778.98
607.843	59867.11
608.2	59994.11
608.557	59993.89
608.914	59949.37
609.272	60049.71
609.629	60100.78
609.986	60161.34
610.343	60023.49
610.7	60142.36
611.057	60013.1
611.414	60095.35
611.771	60059.88
612.127	60135.58
612.484	60131.06
612.841	60167.22
613.198	60082.25
613.554	60093.1
613.911	60218.52
614.267	60149.59
614.624	60097.16
614.98	60137.16
615.337	60283.82
615.693	60235.69
616.05	60157.95
616.406	60327.89
616.762	60164.51
617.118	60231.85
617.475	60183.26
617.831	60370.15
618.187	60291.96
618.543	60330.38
618.899	60468.23
619.255	60451.5
619.611	60343.26
619.967	60510.71
620.323	60517.49
620.678	60468
621.034	60442.46
621.39	60474.1
621.746	60416.48
622.101	60743.02
622.457	60563.14
622.812	60612.86
623.168	60665.28
623.523	60667.32
623.879	60724.49
624.234	60584.16
624.589	60745.06
624.945	60712.97
625.3	60805.39
625.655	60774.66
626.01	60823.02
626.365	60779.4
626.72	60785.96
627.075	60810.82
627.43	60799.29
627.785	60749.35
628.14	60805.84
628.495	60820.76
628.85	60813.53
629.205	60686.53
629.559	60772.85
629.914	60688.33
630.269	60677.03
630.623	60591.39
630.978	60531.95
631.332	60681.33
631.687	60663.48
632.041	60515
632.396	60584.83
632.75	60401.11
633.104	60484.72
633.459	60339.19
633.813	60367.66
634.167	60275.92
634.521	60291.51
634.875	60329.02
635.229	60167.67
635.583	60090.38
635.937	60052.42
636.291	60125.86
636.645	60063.27
636.999	59934
637.352	59935.36
637.706	59811.97
638.06	59935.81
638.413	59828.47
638.767	59704.4
639.121	59832.08
639.474	59627.8
639.828	59678.87
640.181	59702.37
640.534	59586.67
640.888	59595.03
641.241	59465.09
641.594	59532.21
641.947	59575.59
642.301	59472.77
642.654	59502.15
643.007	59551.41
643.36	59461.25
643.713	59419.21
644.066	59534.24
644.419	59294.02
644.771	59298.99
645.124	59093.12
645.477	58998.89
645.83	58923.86
646.182	58864.43
646.535	58680.25
646.888	58788.04
647.24	58599.35
647.593	58726.13
647.945	58757.08
648.298	58554.15
648.65	58633.02
649.002	58556.86
649.355	58708.5
649.707	58678.89
650.059	58833.92
650.411	59159.56
650.763	59112.1
651.115	59315.49
651.467	59236.85
651.819	59246.56
652.171	59135.38
652.523	59218.54
652.875	59181.03
653.227	59042.73
653.578	59174.7
653.93	59175.15
654.282	59025.1
654.633	58994.59
654.985	59036.63
655.337	59062.84
655.688	58951.2
656.039	59072.56
656.391	58857.87
656.742	58878.21
657.094	58858.1
657.445	58900.13
657.796	58827.59
658.147	58713.7
658.498	58730.19
658.849	58802.96
659.2	58643.19
659.551	58569.75
659.902	58619.91
660.253	58526.36
660.604	58576.75
660.955	58377.43
661.306	58466.02
661.656	58360.71
662.007	58332.24
662.358	58346.47
662.708	58306.7
663.059	58329.3
663.409	58108.51
663.76	58284.56
664.11	58230.77
664.461	58133.6
664.811	58194.61
665.161	58199.59
665.511	58068.29
665.862	58147.61
666.212	58113.49
666.562	58102.41
666.912	58047.5
667.262	58002.75
667.612	57986.94
667.962	57988.07
668.312	57866.94
668.662	57965.47
669.011	57932.93
669.361	57922.76
669.711	57941.29
670.06	58018.8
670.41	57827.17
670.76	57810.44
671.109	57996.2
671.459	57921.4
671.808	57912.81
672.157	57925.69
672.507	57769.09
672.856	57786.26
673.205	57872.36
673.554	58031.23
673.904	57907.62
674.253	58021.51
674.602	57997.1
674.951	57626.72
675.3	57559.6
675.649	57927.5
675.998	57885.02
676.346	57961.4
676.695	58054.28
677.044	57795.53
677.393	57894.06
677.741	58029.42
678.09	57967.28
678.438	57860.61
678.787	57887.5
679.135	57889.99
679.484	57784.23
679.832	57893.83
680.181	57690.9
680.529	57789.88
680.877	57650.22
681.225	57638.02
681.573	57737.22
681.922	57569.32
682.27	57476.89
682.618	57498.59
682.966	57445.48
683.314	57481.19
683.661	57326.39
684.009	57265.15
684.357	57145.15
684.705	57077.13
685.053	57108.77
685.4	56983.12
685.748	56891.82
686.095	56894.54
686.443	56768.89
686.79	56669.46
687.138	56681.66
687.485	56689.34
687.832	56528.22
688.18	56508.78
688.527	56330.03
688.874	56322.8
689.221	56229.92
689.568	56109.92
689.915	56010.72
690.262	56029.02
690.609	55938.63
690.956	55801.46
691.303	55772.76
691.65	55619.09
691.997	55612.99
692.344	55378.42
692.69	55346.1
693.037	55350.39
693.383	55121.93
693.73	55206.44
694.077	55016.62
694.423	54985.43
694.769	54947.02
695.116	54838.54
695.462	54692.33
695.808	54641.71
696.155	54720.58
696.501	54447.37
696.847	54533.02
697.193	54256.86
697.539	54384.09
697.885	54178.45
698.231	54101.84
698.577	54162.4
698.923	54133.03
699.269	53988.85
699.614	53834.73
699.96	53817.33
700.306	53910.66
700.651	53765.58
700.997	53628.41
701.342	53672.92
701.688	53556.09
702.033	53503.44
702.379	53512.48
702.724	53474.96
703.069	53499.14
703.415	53107.74
703.76	53213.73
704.105	53223.22
704.45	53154.29
704.795	52999.5
705.14	52961.53
705.485	52967.63
705.83	52878.82
706.175	52966.28
706.52	52860.97
706.865	52827.3
707.209	52793.85
707.554	52721.31
707.899	52631.6
708.243	52453.52
708.588	52443.58
708.932	52302.11
709.277	52264.37
709.621	52346.18
709.966	52111.38
710.31	52170.82
710.654	51910.94
710.998	51937.6
711.342	51917.94
711.687	51830.04
712.031	51635.01
712.375	51484.51
712.719	51546.43
713.063	51445.64
713.407	51614.67
713.75	51389.37
714.094	51243.61
714.438	51092.65
714.782	51163.84
715.125	50926.78
715.469	51027.12
715.812	50833.68
716.156	50613.8
716.499	50672.78
716.843	50495.38
717.186	50442.5
717.53	50558.88
717.873	50494.7
718.216	50352.79
718.559	50118.89
718.902	49783.54
719.246	49963.64
719.589	49783.54
719.932	49652.69
720.275	49640.71
720.617	49657.66
720.96	49654.05
721.303	49455.41
721.646	49401.4
721.989	49047.96
722.331	49216.54
722.674	49076.44
723.016	49110.78
723.359	48979.04
723.701	48912.6
724.044	48558.48
724.386	48471.93
724.729	48515.09
725.071	48471.25
725.413	48344.48
725.755	48428.09
726.097	48153.75
726.439	48028.1
726.782	47975
727.124	47982.23
727.465	47771.84
727.807	47811.61
728.149	47709.47
728.491	47656.81
728.833	47666.3
729.175	47526.19
729.516	47405.52
729.858	47315.8
730.199	47317.84
730.541	47235.13
730.882	47202.81
731.224	47345.18
731.565	46986.55
731.906	47099.54
732.248	47155.36
732.589	46878.98
732.93	46811.64
733.271	46955.14
733.612	46855.7
733.953	46871.3
734.294	46753.56
734.635	46720.11
734.976	46756.95
735.317	46497.29
735.658	46635.6
735.999	46550.17
736.339	46626.56
736.68	46518.99
737.021	46530.06
737.361	46264.98
737.702	46409.39
738.042	46375.04
738.383	46321.71
738.723	46241.93
739.063	46234.93
739.404	46283.97
739.744	46263.4
740.084	45994.48
740.424	46123.74
740.764	46054.14
741.104	46208.49
741.444	45826.35
741.784	45817.31
742.124	45938.89
742.464	45834.03
742.804	45820.93
743.143	45547.94
743.483	45648.5
743.823	45565.57
744.162	45316.08
744.502	45418.45
744.841	45326.93
745.181	45345.69
745.52	45340.49
745.86	45272.47
746.199	45093.49
746.538	45115.41
746.877	45149.99
747.216	45084.45
747.556	44842.87
747.895	44907.28
748.234	44691.01
748.573	44771.69
748.911	44489.89
749.25	44489.89
749.589	44383
749.928	44426.16
750.267	44357.46
750.605	44071.82
750.944	44063.01
751.283	43924.48
751.621	43939.4
751.96	43590.93
752.298	43598.16
752.636	43626.86
752.975	43398.17
753.313	43271.16
753.651	43466.64
753.989	43082.02
754.327	42995.24
754.666	42848.8
755.004	42843.38
755.342	42765.19
755.679	42637.06
756.017	42418.76
756.355	42500.11
756.693	42162.72
757.031	42316.39
757.368	42023.97
757.706	41966.11
758.044	41712.79
758.381	41706.46
758.719	41556.63
759.056	41603.19
759.394	41355.28
759.731	40926.59
760.068	41095.85
760.405	40976.99
760.743	40706.26
761.08	40802.53
761.417	40566.15
761.754	40510.56
762.091	40369.77
762.428	40235.54
762.765	40048.88
763.102	40017.46
763.438	39807.3
763.775	39615.22
764.112	39490.47
764.449	39431.72
764.785	39381.55
765.122	39168.9
765.458	39170.93
765.795	38970.26
766.131	38961
766.467	38822.47
766.804	38591.29
767.14	38406.89
767.476	38433.78
767.812	38337.28
768.148	38262.03
768.485	38175.03
768.821	37913.34
769.157	37919.67
769.492	37822.27
769.828	37812.78
770.164	37447.59
770.5	37468.83
770.836	37330.98
771.171	37103.64
771.507	37120.14
771.842	36870.65
772.178	36862.97
772.513	36809.41
772.849	36759.02
773.184	36507.73
773.519	36604
773.855	36421.4
774.19	36096.21
774.525	36184.12
774.86	36252.37
775.195	36071.58
775.53	35899.15
775.865	35731.48
776.2	35528.32
776.535	35307.53
776.87	35240.64
777.205	35063.92
777.539	34971.27
777.874	35013.98
778.209	34797.49
778.543	34819.64
778.878	34579.87
779.212	34562.24
779.547	34338.07
779.881	34356.14
780.215	34180.56
780.55	34145.75
780.884	33983.27
781.218	33886.78
781.552	33907.34
781.886	33527.92
782.22	33365.21
782.554	33277.3
782.888	32997.99
783.222	32948.27
783.556	32869.86
783.889	32792.57
784.223	32453.6
784.557	32513.93
784.89	32565.23
785.224	32329.53
785.557	32181.74
785.891	32165.47
786.224	32042.99
786.558	32046.6
786.891	31671.92
787.224	31385.15
787.557	31512.83
787.891	31326.62
788.224	31308.32
788.557	31252.27
788.89	31029.68
789.223	31205.04
789.556	30844.15
789.888	30732.51
790.221	30651.84
790.554	30415.01
790.887	30429.92
791.219	30251.39
791.552	30152.41
791.884	29921.01
792.217	30005.75
792.549	29796.26
792.882	29637.4
793.214	29415.26
793.546	29492.32
793.879	29242.38
794.211	29160.58
794.543	29163.51
794.875	29098.2
795.207	29171.42
795.539	28923.29
795.871	28857.08
796.203	28717.2
796.535	28539.35
796.867	28513.36
797.198	28351.78
797.53	28265.68
797.862	28011.45
798.193	28065.24
798.525	27967.39
798.856	28077.21
799.188	27623.44
799.519	27634.51
799.85	27550.67
800.182	27472.26
800.513	27518.36
800.844	27251.25
801.175	27315.2
801.506	27291.02
801.837	27200.63
802.168	27070.69
802.499	27025.94
802.83	26867.08
803.161	26812.84
803.491	26903.91
803.822	26758.15
804.153	26740.07
804.483	26455.79
804.814	26328.33
805.145	26343.7
805.475	26338.95
805.805	26195.23
806.136	26244.27
806.466	26190.94
806.796	26058.51
807.126	25962.02
807.457	25941
807.787	26003.14
808.117	25773.77
808.447	25774.22
808.777	25766.77
809.107	25761.79
809.436	25578.75
809.766	25592.08
810.096	25505.53
810.426	25346.21
810.755	25344.18
811.085	25325.2
811.414	25241.58
811.744	25070.06
812.073	25073.45
812.403	25149.38
812.732	24888.82
813.061	24979.67
813.39	24792.33
813.719	24655.61
814.049	24872.1
814.378	24630.3
814.707	24576.74
815.036	24567.02
815.365	24487.93
815.693	24277.99
816.022	24294.71
816.351	24197.32
816.68	24060.82
817.008	24170.2
817.337	24009.52
817.665	23916.19
817.994	23984.44
818.322	24049.3
818.651	23768.85
818.979	23740.83
819.307	23812.92
819.636	23705.8
819.964	23534.96
820.292	23522.98
820.62	23591
820.948	23464.45
821.276	23552.13
821.604	23461.06
821.932	23481.4
822.259	23521.85
822.587	23409.31
822.915	23387.62
823.243	23574.51
823.57	23305.36
823.898	23301.07
824.225	23387.85
824.553	23291.58
824.88	23401.63
825.207	23450.44
825.535	23190.56
825.862	23351.46
826.189	23191.01
826.516	23235.76
826.843	23334.97
827.17	23341.75
827.497	23214.29
827.824	23310.79
828.151	23186.49
828.478	23105.37
828.805	23164.57
829.131	23054.29
829.458	23145.82
829.785	23075.09
830.111	23071.92
830.438	23203.9
830.764	22972.26
831.09	23118.93
831.417	22956.44
831.743	22978.82
832.069	22988.76
832.395	22833.74
832.722	22990.12
833.048	22887.29
833.374	22862.44
833.7	22744.47
834.026	22759.61
834.351	22732.95
834.677	22840.06
835.003	22720.29
835.329	22668.77
835.654	22668.54
835.98	22581.09
836.306	22568.88
836.631	22506.06
836.956	22561.43
837.282	22537.02
837.607	22476.23
837.932	22318.95
838.258	22360.75
838.583	22309
838.908	22159.86
839.233	22298.83
839.558	22220.87
839.883	22206.63
840.208	22106.98
840.533	22079.86
840.858	22072.17
841.182	22118.27
841.507	22033.76
841.832	22024.72
842.156	21928.67
842.481	21865.4
842.805	21898.17
843.13	21801.67
843.454	21725.29
843.778	21606.65
844.103	21681.22
844.427	21673.09
844.751	21611.4
845.075	21543.83
845.399	21454.11
845.723	21382.25
846.047	21426.54
846.371	21257.96
846.695	21296.38
847.019	21123.5
847.343	20886.67
847.666	20997.63
847.99	20884.86
848.313	20856.61
848.637	20715.15
848.96	20641.48
849.284	20646.22
849.607	20561.71
849.931	20467.92
850.254	20394.25
850.577	20203.07
850.9	20099.57
851.223	20051.44
851.546	19971.89
851.869	19913.59
852.192	20032.68
852.515	19863.87
852.838	19749.3
853.161	19776.19
853.483	19667.04
853.806	19576.19
854.129	19461.17
854.451	19402.41
854.774	19253.49
855.096	19331.68
855.419	19321.06
855.741	19270.21
856.063	19209.88
856.385	19142.99
856.708	19086.94
857.03	18957.91
857.352	19025.47
857.674	18905.25
857.996	18811.92
858.318	18737.12
858.64	18833.39
858.961	18685.6
859.283	18576.67
859.605	18588.2
859.926	18518.82
860.248	18537.35
860.57	18424.36
860.891	18399.73
861.212	18274.99
861.534	18310.92
861.855	18264.14
862.176	18343.46
862.498	18235.21
862.819	18239.28
863.14	18119.28
863.461	18236.12
863.782	18120.64
864.103	18171.71
864.424	18082.9
864.745	18043.58
865.065	18013.75
865.386	17875.45
865.707	17898.05
866.027	17966.97
866.348	17835.22
866.668	17890.59
866.989	17691.5
867.309	17636.81
867.63	17642.91
867.95	17718.39
868.27	17516.81
868.59	17551.84
868.91	17569.02
869.23	17532.18
869.55	17470.26
869.87	17526.98
870.19	17478.62
870.51	17450.6
870.83	17506.87
871.15	17334.9
871.469	17334.9
871.789	17409.25
872.109	17308.91
872.428	17228.69
872.748	17259.87
873.067	17197.73
873.386	17283.83
873.706	17221.23
874.025	17105.52
874.344	16996.38
874.663	17067.79
874.982	16969.48
875.301	16924.74
875.62	16898.98
875.939	16752.54
876.258	16734.24
876.577	16727.23
876.896	16742.82
877.214	16650.4
877.533	16711.41
877.852	16605.65
878.17	16575.6
878.489	16525.43
878.807	16571.08
879.125	16392.78
879.444	16439.1
879.762	16419.89
880.08	16414.24
880.398	16308.94
880.716	16332.66
881.034	16247.92
881.352	16307.58
881.67	16200.24
881.988	16194.59
882.306	16129.73
882.624	16082.27
882.941	16082.95
883.259	15964.76
883.577	15916.63
883.894	15920.47
884.212	15864.88
884.529	15829.4
884.846	15818.78
885.164	15796.63
885.481	15658.33
885.798	15756.41
886.115	15703.98
886.432	15630.08
886.75	15603.19
887.067	15614.49
887.383	15602.06
887.7	15557.32
888.017	15514.83
888.334	15554.61
888.651	15376.98
888.967	15368.85
889.284	15325.68
889.6	15264.44
889.917	15223.31
890.233	15140.6
890.55	15044.11
890.866	15173.37
891.182	15063.77
891.498	14976.99
891.815	15013.6
892.131	14937.22
892.447	14793.27
892.763	14855.87
893.079	14828.75
893.395	14711.01
893.71	14727.96
894.026	14700.84
894.342	14633.5
894.657	14492.71
894.973	14573.16
895.289	14527.29
895.604	14523.22
895.92	14435.09
896.235	14295.66
896.55	14277.35
896.865	14304.47
897.181	14218.82
897.496	14216.56
897.811	14062.44
898.126	14030.13
898.441	14009.56
898.756	13972.95
899.071	13879.62
899.386	13874.42
899.7	13805.05
900.015	13757.59
900.33	13676.24
900.644	13660.87
900.959	13635.11
901.273	13610.93
901.588	13478.05
901.902	13484.38
902.216	13398.73
902.531	13506.98
902.845	13347.88
903.159	13186.98
903.473	13278.96
903.787	13202.12
904.101	13138.85
904.415	13143.6
904.729	13049.13
905.042	13001.23
905.356	12989.7
905.67	12954.45
905.984	12958.97
906.297	12913.77
906.611	12864.28
906.924	12812.98
907.237	12731.85
907.551	12652.99
907.864	12641.69
908.177	12673.55
908.491	12611.18
908.804	12523.5
909.117	12491.41
909.43	12344.75
909.743	12334.8
910.056	12315.59
910.368	12272.21
910.681	12203.96
910.994	12232.43
911.307	12227.91
911.619	12053.91
911.932	12131.64
912.244	11985.21
912.557	11996.96
912.869	11965.32
913.181	11767.59
913.494	11906.11
913.806	11759.9
914.118	11794.03
914.43	11747.47
914.742	11703.41
915.054	11553.81
915.366	11606.46
915.678	11517.42
915.99	11472
916.302	11359.24
916.613	11346.13
916.925	11290.31
917.236	11295.96
917.548	11180.26
917.859	11253.25
918.171	11135.29
918.482	11056.19
918.794	11029.53
919.105	10995.63
919.416	10856.88
919.727	10909.3
920.038	10878.34
920.349	10761.96
920.66	10746.82
920.971	10715.64
921.282	10691.91
921.593	10566.26
921.903	10570.56
922.214	10512.48
922.525	10505.02
922.835	10392.25
923.146	10360.17
923.456	10335.31
923.767	10314.97
924.077	10335.31
924.387	10164.92
924.697	10128.31
925.008	10101.42
925.318	10119.49
925.628	10092.6
925.938	10024.36
926.248	9958.37
926.558	9914.08
926.867	9831.14
927.177	9776.68
927.487	9746.17
927.796	9693.52
928.106	9676.34
928.416	9591.6
928.725	9527.64
929.034	9469.79
929.344	9559.96
929.653	9515.67
929.962	9424.6
930.271	9358.38
930.581	9349.57
930.89	9315.22
931.199	9232.96
931.508	9214.88
931.817	9192.51
932.125	9184.38
932.434	9116.81
932.743	9034.32
933.051	8988.22
933.36	8951.84
933.669	8870.71
933.977	8798.17
934.286	8842.69
934.594	8808.79
934.902	8805.4
935.21	8691.51
935.519	8707.33
935.827	8658.97
936.135	8587.56
936.443	8544.85
936.751	8524.28
937.059	8509.82
937.367	8495.58
937.674	8456.94
937.982	8454.9
938.29	8399.99
938.597	8343.72
938.905	8317.96
939.213	8278.86
939.52	8180.79
939.827	8195.7
940.135	8186.66
940.442	8165.87
940.749	8034.58
941.056	8143.95
941.363	8035.25
941.67	8060.56
941.977	7945.54
942.284	7907.57
942.591	7961.58
942.898	7878.42
943.205	7836.62
943.511	7727.47
943.818	7750.06
944.125	7667.81
944.431	7689.5
944.738	7630.52
945.044	7569.5
945.35	7494.48
945.657	7464.42
945.963	7497.42
946.269	7442.05
946.575	7422.62
946.881	7392.11
947.187	7393.92
947.493	7307.82
947.799	7240.02
948.105	7242.06
948.41	7208.84
948.716	7229.4
949.022	7146.92
949.327	7122.28
949.633	7075.96
949.938	7053.59
950.244	7042.29
950.549	6960.93
950.854	6933.14
951.16	6876.87
951.465	6843.2
951.77	6817.89
952.075	6794.84
952.38	6773.14
952.685	6763.65
952.99	6724.55
953.294	6699.47
953.599	6650.43
953.904	6659.7
954.209	6569.08
954.513	6653.37
954.818	6521.62
955.122	6502.19
955.426	6455.41
955.731	6445.47
956.035	6392.13
956.339	6374.06
956.643	6360.5
956.948	6316.43
957.252	6278.24
957.556	6254.74
957.86	6274.4
958.163	6262.42
958.467	6214.29
958.771	6250.67
959.075	6159.15
959.378	6125.25
959.682	6098.36
959.985	6047.51
960.289	6062.65
960.592	5998.47
960.896	5962.77
961.199	5965.93
961.502	5916.21
961.805	5893.84
962.108	5862.2
962.411	5881.87
962.714	5778.82
963.017	5788.99
963.32	5788.08
963.623	5756.67
963.926	5718.03
964.228	5679.16
964.531	5671.93
964.833	5605.49
965.136	5607.97
965.438	5605.26
965.741	5611.14
966.043	5562.1
966.345	5542.21
966.648	5538.15
966.95	5473.74
967.252	5418.37
967.554	5443.91
967.856	5423.35
968.158	5412.05
968.46	5364.82
968.761	5377.92
969.063	5345.61
969.365	5288.43
969.666	5286.85
969.968	5230.13
970.269	5268.77
970.571	5209.11
970.872	5144.94
971.174	5170.02
971.475	5148.1
971.776	5085.5
972.077	5098.16
972.378	5076.46
972.679	5030.81
972.98	5012.28
973.281	4971.61
973.582	4969.35
973.883	4940.65
974.183	4937.26
974.484	4899.29
974.785	4889.57
975.085	4931.16
975.386	4888.9
975.686	4801.89
975.986	4813.64
976.287	4780.88
976.587	4715.34
976.887	4746.08
977.187	4747.21
977.487	4675.57
977.787	4665.17
978.087	4608.9
978.387	4654.78
978.687	4600.77
978.987	4594.22
979.286	4525.29
979.586	4547.44
979.885	4520.77
980.185	4456.14
980.484	4478.96
980.784	4483.71
981.083	4486.42
981.382	4457.5
981.682	4407.1
981.981	4340.89
982.28	4333.21
982.579	4339.08
982.878	4368.91
983.177	4331.17
983.475	4272.42
983.774	4252.53
984.073	4214.34
984.372	4217.95
984.67	4178.18
984.969	4189.93
985.267	4172.08
985.566	4177.5
985.864	4082.59
986.162	4127.11
986.461	4129.59
986.759	4145.19
987.057	4030.16
987.355	3983.38
987.653	3968.02
987.951	3979.54
988.249	3930.73
988.547	3965.31
988.844	3940.45
989.142	3940.67
989.44	3926.89
989.737	3852.09
990.035	3875.14
990.332	3886.89
990.63	3856.16
990.927	3848.47
991.224	3834.46
991.521	3810.73
991.819	3781.13
992.116	3750.4
992.413	3791.07
992.71	3734.12
993.006	3694.13
993.303	3706.1
993.6	3682.15
993.897	3711.53
994.193	3656.61
994.49	3627.69
994.787	3589.5
995.083	3609.16
995.379	3596.28
995.676	3574.36
995.972	3550.4
996.268	3506.33
996.565	3549.05
996.861	3461.14
997.157	3459.1
997.453	3469.5
997.749	3423.85
998.044	3410.52
998.34	3422.04
998.636	3395.38
998.932	3392.44
999.227	3334.36
999.523	3379.78
999.818	3325.77
1000.114	3336.62
1000.409	3299.79
1000.704	3254.59
1001	3264.98
1001.295	3236.74
1001.59	3234.48
1001.885	3225.21
1002.18	3205.33
1002.475	3163.52
1002.77	3137.3
1003.065	3121.03
1003.359	3116.74
1003.654	3090.98
1003.949	3082.62
1004.243	3063.86
1004.538	3044.43
1004.832	3030.19
1005.127	2976.4
1005.421	2983.18
1005.715	2951.09
1006.009	2968.95
1006.304	2902.51
1006.598	2934.37
1006.892	2897.31
1007.186	2877.65
1007.48	2862.74
1007.773	2818.89
1008.067	2824.32
1008.361	2812.79
1008.655	2784.55
1008.948	2741.83
1009.242	2745.22
1009.535	2744.77
1009.829	2696.41
1010.122	2696.41
1010.415	2702.51
1010.708	2656.87
1011.001	2646.47
1011.295	2637.88
1011.588	2618.22
1011.881	2630.88
1012.173	2577.32
1012.466	2575.29
1012.759	2552.24
1013.052	2541.16
1013.344	2507.94
1013.637	2515.85
1013.93	2474.5
1014.222	2441.96
1014.514	2458
1014.807	2484.44
1015.099	2417.78
1015.391	2394.5
1015.683	2406.7
1015.976	2389.3
1016.268	2348.4
1016.56	2325.12
1016.851	2308.63
1017.143	2326.7
1017.435	2329.42
1017.727	2281.73
1018.018	2264.33
1018.31	2244.45
1018.602	2243.32
1018.893	2198.57
1019.185	2201.74
1019.476	2177.33
1019.767	2191.34
1020.058	2197.89
1020.35	2161.28
1020.641	2118.57
1020.932	2108.18
1021.223	2096.88
1021.514	2069.99
1021.804	2074.06
1022.095	2088.29
1022.386	2029.54
1022.677	2046.26
1022.967	2013.04
1023.258	2013.94
1023.548	1996.54
1023.839	1982.31
1024.129	1959.26
1024.419	1987.5
1024.709	1916.09
1025	1894.85
1025.29	1883.33
1025.58	1897.79
1025.87	1875.87
1026.16	1860.05
1026.449	1831.8
1026.739	1853.95
1027.029	1849.65
1027.319	1811.92
1027.608	1807.85
1027.898	1764.01
1028.187	1776.21
1028.477	1783.22
1028.766	1738.25
1029.055	1740.05
1029.344	1740.51
1029.634	1740.05
1029.923	1706.38
1030.212	1714.07
1030.501	1685.59
1030.79	1651.69
1031.078	1659.6
1031.367	1650.56
1031.656	1632.94
1031.945	1626.16
1032.233	1598.81
1032.522	1597.68
1032.81	1596.1
1033.099	1591.36
1033.387	1580.28
1033.675	1535.99
1033.963	1551.81
1034.251	1500.06
1034.54	1512.94
1034.828	1486.05
1035.116	1466.84
1035.403	1497.57
1035.691	1463
1035.979	1443.79
1036.267	1436.33
1036.554	1424.58
1036.842	1409.21
1037.129	1397.24
1037.417	1402.43
1037.704	1408.31
1037.992	1394.75
1038.279	1376.9
1038.566	1338.71
1038.853	1338.71
1039.14	1338.71
