Data from white_wall_FLMS001491_088.txt Node
Date: Tue Feb 07 11:06:03 GMT 2017
User: dcchb
Spectrometer: FLMS00149
Trigger mode: 0
Integration Time (sec): 2.000000E-2
Scans to average: 10
Electric dark correction enabled: true
Nonlinearity correction enabled: false
Boxcar width: 0
XAxis mode: Wavelengths
Number of Pixels in Spectrum: 2048
>>>>>Begin Spectral Data<<<<<
341.393	-12.73
341.776	-12.73
342.16	-12.73
342.543	-45.72
342.927	-59.96
343.31	-68.09
343.693	-71.03
344.077	-60.41
344.46	-57.92
344.843	-63.8
345.226	-42.56
345.61	-35.1
345.993	-12.95
346.376	-12.95
346.759	9.65
347.142	40.15
347.525	38.57
347.908	40.61
348.291	74.05
348.674	103.43
349.057	118.34
349.44	140.72
349.823	152.92
350.206	169.19
350.588	209.42
350.971	243.31
351.354	242.18
351.737	252.8
352.119	276.31
352.502	280.83
352.884	307.72
353.267	311.11
353.65	339.81
354.032	319.47
354.414	323.54
354.797	325.34
355.179	315.63
355.562	353.37
355.944	338.23
356.326	379.13
356.709	354.95
357.091	339.81
357.473	370.77
357.855	363.76
358.238	365.57
358.62	354.72
359.002	358.56
359.384	367.15
359.766	353.37
360.148	366.7
360.53	387.94
360.912	356.98
361.294	354.27
361.676	375.29
362.057	350.2
362.439	356.76
362.821	323.54
363.203	366.7
363.584	351.56
363.966	325.57
364.348	361.95
364.729	355.17
365.111	348.39
365.493	349.75
365.874	347.49
366.256	358.79
366.637	335.97
367.019	352.46
367.4	342.52
367.781	348.39
368.163	330.09
368.544	354.04
368.925	332.35
369.306	338.68
369.688	330.77
370.069	341.39
370.45	331.9
370.831	351.11
371.212	358.79
371.593	330.32
371.974	339.81
372.355	347.04
372.736	347.49
373.117	352.69
373.498	361.95
373.879	339.58
374.26	367.15
374.641	347.72
375.021	336.19
375.402	353.59
375.783	349.98
376.163	363.31
376.544	385.91
376.925	358.79
377.305	364.21
377.686	353.59
378.066	364.67
378.447	378.9
378.827	370.32
379.208	391.11
379.588	371.45
379.968	359.69
380.349	380.26
380.729	373.93
381.109	364.44
381.489	394.95
381.87	396.08
382.25	389.07
382.63	371.67
383.01	381.84
383.39	400.37
383.77	376.64
384.15	419.13
384.53	421.84
384.91	406.25
385.29	394.95
385.67	420.94
386.049	426.13
386.429	429.52
386.809	425.23
387.189	413.25
387.568	426.58
387.948	428.84
388.328	436.98
388.707	439.01
389.087	443.31
389.466	439.69
389.846	460.93
390.225	473.36
390.605	467.71
390.984	475.4
391.363	477.66
391.743	519.92
392.122	466.58
392.501	485.34
392.881	498
393.26	509.75
393.639	524.21
394.018	541.16
394.397	524.89
394.776	545.45
395.155	541.38
395.534	553.14
395.913	551.33
396.292	569.18
396.671	577.54
397.05	598.78
397.429	593.59
397.808	622.06
398.186	638.1
398.565	629.97
398.944	639.23
399.323	671.78
399.701	663.41
400.08	662.06
400.458	676.07
400.837	711.55
401.215	699.12
401.594	703.64
401.972	709.29
402.351	723.53
402.729	754.71
403.107	769.4
403.486	764.66
403.864	772.79
404.242	813.24
404.62	819.79
404.999	839
405.377	851.66
405.755	853.47
406.133	889.85
406.511	899.57
406.889	908.83
407.267	964.2
407.645	937.31
408.023	971.43
408.401	1001.48
408.779	1001.48
409.156	1032.67
409.534	1032.9
409.912	1042.84
410.29	1062.27
410.667	1092.1
411.045	1102.5
411.422	1137.75
411.8	1162.61
412.178	1187.47
412.555	1201.03
412.933	1210.97
413.31	1240.12
413.687	1258.43
414.065	1266.34
414.442	1281.7
414.819	1301.36
415.197	1322.83
415.574	1350.85
415.951	1355.37
416.328	1379.78
416.705	1387.01
417.082	1373.68
417.46	1381.14
417.837	1434.47
418.214	1453.45
418.591	1481.02
418.967	1482.6
419.344	1510.17
419.721	1514.69
420.098	1508.82
420.475	1556.27
420.852	1566.67
421.228	1591.98
421.605	1613.45
421.982	1615.03
422.358	1639.21
422.735	1668.36
423.111	1677.85
423.488	1658.87
423.864	1724.86
424.241	1726.89
424.617	1765.53
424.994	1784.97
425.37	1787.45
425.746	1765.08
426.123	1805.76
426.499	1850.73
426.875	1870.84
427.251	1883.27
427.627	1913.1
428.003	1926.66
428.379	1973.89
428.756	1991.52
429.132	2013.66
429.507	2042.59
429.883	2072.19
430.259	2092.76
430.635	2128.24
431.011	2131.85
431.387	2198.97
431.763	2257.95
432.138	2263.6
432.514	2306.31
432.89	2293.88
433.265	2382.01
433.641	2358.06
434.016	2405.06
434.392	2436.7
434.767	2513.54
435.143	2495.46
435.518	2519.64
435.894	2531.61
436.269	2586.98
436.644	2636.7
437.02	2737.94
437.395	2681.44
437.77	2712.85
438.145	2767.77
438.52	2791.04
438.895	2805.73
439.271	2827.65
439.646	2885.5
440.021	2917.59
440.395	2941.32
440.77	2901.55
441.145	2968.44
441.52	3027.87
441.895	3019.06
442.27	3093.86
442.645	3079.85
443.019	3100.64
443.394	3102.45
443.769	3152.84
444.143	3125.04
444.518	3174.08
444.892	3187.42
445.267	3235.1
445.641	3297.7
446.016	3245.49
446.39	3308.09
446.764	3354.42
447.139	3332.72
447.513	3388.77
447.887	3436.9
448.262	3411.37
448.636	3470.57
449.01	3527.97
449.384	3554.64
449.758	3535.66
450.132	3591.02
450.506	3636.9
450.88	3634.86
451.254	3619.72
451.628	3693.62
452.002	3769.77
452.376	3812.48
452.75	3825.37
453.123	3925.25
453.497	3934.74
453.871	3976.32
454.244	4105.13
454.618	4133.61
454.992	4125.02
455.365	4134.74
455.739	4275.98
456.112	4350.1
456.486	4339.02
456.859	4402.3
457.232	4476.65
457.606	4505.8
457.979	4518.91
458.352	4650.2
458.725	4715.96
459.099	4751.89
459.472	4849.52
459.845	4893.36
460.218	4908.73
460.591	4989.63
460.964	4994.15
461.337	5144.88
461.71	5253.12
462.083	5265.1
462.456	5268.72
462.829	5316.17
463.201	5420.58
463.574	5473.23
463.947	5545.77
464.32	5669.61
464.692	5736.5
465.065	5778.31
465.438	5826.89
465.81	5929.04
466.183	6023.95
466.555	6174
466.928	6180.33
467.3	6190.95
467.672	6303.27
468.045	6463.94
468.417	6487.67
468.789	6586.65
469.161	6623.26
469.534	6763.14
469.906	6915.23
470.278	6947.54
470.65	7028.22
471.022	7190.7
471.394	7306.18
471.766	7395.89
472.138	7502.78
472.51	7667.75
472.882	7740.74
473.253	7840.18
473.625	7954.75
473.997	8153.61
474.369	8219.37
474.74	8269.77
475.112	8494.4
475.484	8641.06
475.855	8779.59
476.227	8909.07
476.598	9104.77
476.97	9221.16
477.341	9469.96
477.713	9582.5
478.084	9581.37
478.455	9982.04
478.827	10010.06
479.198	10326.89
479.569	10326.44
479.94	10596.26
480.311	10773.43
480.682	10954.9
481.053	11224.72
481.424	11368.22
481.795	11527.99
482.166	11657.02
482.537	11911.71
482.908	12177.01
483.279	12351.02
483.65	12497.91
484.021	12758.69
484.391	12926.6
484.762	13056.99
485.133	13165.46
485.503	13351.22
485.874	13684.77
486.244	13830.75
486.615	14081.59
486.985	14275.03
487.356	14522.03
487.726	14645.19
488.097	14995.02
488.467	14988.69
488.837	15369.02
489.207	15456.25
489.578	15702.79
489.948	15864.15
490.318	16183.91
490.688	16192.95
491.058	16518.14
491.428	16668.87
491.798	16886.04
492.168	17235.86
492.538	17384.33
492.908	17502.97
493.278	17744.32
493.648	17802.4
494.017	18129.85
494.387	18279.45
494.757	18363.97
495.126	18624.3
495.496	18688.25
495.866	18889.15
496.235	19063.16
496.605	19241.91
496.974	19389.7
497.344	19605.74
497.713	19736.59
498.082	19786.53
498.452	20181.32
498.821	20197.82
499.19	20236.01
499.559	20617.92
499.928	20681.42
500.298	20880.96
500.667	21082.09
501.036	21099.71
501.405	21277.79
501.774	21335.64
502.143	21571.57
502.512	21717.55
502.88	22030.08
503.249	22040.25
503.618	22111.89
503.987	22419.45
504.356	22519.79
504.724	22627.36
505.093	22790.29
505.462	22913.23
505.83	23116.61
506.199	23277.28
506.567	23555.02
506.936	23695.58
507.304	23963.14
507.672	23963.37
508.041	24053.76
508.409	24312.74
508.777	24464.14
509.145	24655.1
509.514	24780.07
509.882	24930.57
510.25	25138.03
510.618	25294.41
510.986	25386.38
511.354	25641.06
511.722	25952.24
512.09	26208.51
512.458	26263.87
512.826	26539.34
513.193	26597.65
513.561	26790.19
513.929	27017.52
514.297	27253.45
514.664	27442.15
515.032	27569.6
515.4	27913.32
515.767	27918.29
516.135	28088.68
516.502	27993.32
516.869	28660.64
517.237	28601.21
517.604	28607.76
517.972	29006.4
518.339	29222.66
518.706	29360.29
519.073	29541.3
519.44	29665.82
519.808	30117.1
520.175	30008.86
520.542	30517.32
520.909	30646.58
521.276	30613.59
521.643	31030.53
522.009	31226
522.376	31520.23
522.743	31591.87
523.11	32050.16
523.477	32309.81
523.843	32468.68
524.21	32828.9
524.577	32920.87
524.943	33165.61
525.31	33333.06
525.676	33618.03
526.043	33943.22
526.409	34059.37
526.776	34365.35
527.142	34560.83
527.508	34762.86
527.874	34965.34
528.241	35132.56
528.607	35464.08
528.973	35636.96
529.339	35481.71
529.705	36034.69
530.071	36334.57
530.437	36416.37
530.803	36684.84
531.169	36928.68
531.535	36791.05
531.901	36965.06
532.267	37346.52
532.632	37500.19
532.998	37691.37
533.364	37797.81
533.73	37909.44
534.095	38320.73
534.461	38373.84
534.826	38504.68
535.192	38716.65
535.557	38995.06
535.923	38893.37
536.288	39114.61
536.653	39390.53
537.019	39279.12
537.384	39583.52
537.749	39742.16
538.114	39831.65
538.479	39948.48
538.845	40138.08
539.21	40065.32
539.575	40500.79
539.94	40596.15
540.305	40836.82
540.67	40703.72
541.034	40895.35
541.399	41282.01
541.764	41314.55
542.129	41564.03
542.494	41690.13
542.858	41766.29
543.223	41789.34
543.587	42090.12
543.952	42108.43
544.316	42408.76
544.681	42218.71
545.045	42678.58
545.41	42924.45
545.774	42912.02
546.138	43002.19
546.503	43169.87
546.867	43323.76
547.231	43651.89
547.595	43644.66
547.959	43821.15
548.324	43860.7
548.688	43929.85
549.052	44222.72
549.416	44452.77
549.779	44538.42
550.143	44503.17
550.507	44919.65
550.871	45023.38
551.235	45044.17
551.599	45494.1
551.962	45518.05
552.326	45585.17
552.689	45933.18
553.053	45793.53
553.417	45902.68
553.78	46620.4
554.143	46435.54
554.507	46669.66
554.87	46820.62
555.234	47216.77
555.597	47013.83
555.96	47274.62
556.323	47457.44
556.686	47520.26
557.05	47837.32
557.413	48041.83
557.776	48132.45
558.139	48421.26
558.502	48485.66
558.865	48657.41
559.228	48846.33
559.59	49034.35
559.953	49029.15
560.316	49442.47
560.679	49455.8
561.041	49677.27
561.404	49870.71
561.767	50136.92
562.129	49948.9
562.492	50444.03
562.854	50463.91
563.217	50421.65
563.579	50663.91
563.941	50907.97
564.304	51015.54
564.666	51285.36
565.028	51370.56
565.39	51418.92
565.753	51623.43
566.115	51626.37
566.477	51753.82
566.839	51840.83
567.201	52096.19
567.563	52116.3
567.925	52398.55
568.287	52464.31
568.648	52605.55
569.01	52644.65
569.372	52905.2
569.734	52797.86
570.095	53072.21
570.457	53173.67
570.819	53190.4
571.18	53277.85
571.542	53394.68
571.903	53474.68
572.265	53531.4
572.626	53665.64
572.987	53748.57
573.349	53837.61
573.71	53949.02
574.071	54025.85
574.432	54002.35
574.794	54265.85
575.155	54248.45
575.516	54203.02
575.877	54327.77
576.238	54315.79
576.599	54453.19
576.96	54449.12
577.32	54471.27
577.681	54552.62
578.042	54654.99
578.403	54672.16
578.763	54654.76
579.124	54741.31
579.485	54838.49
579.845	54941.99
580.206	54854.31
580.566	54836.45
580.927	54922.55
581.287	54991.48
581.648	54870.13
582.008	55085.49
582.368	55019.5
582.728	55085.26
583.089	55104.47
583.449	55118.25
583.809	55085.26
584.169	55159.38
584.529	55059.72
584.889	55365.71
585.249	55071.25
585.609	55120.06
585.969	55223.79
586.329	55153.28
586.688	55253.39
587.048	55183.34
587.408	55193.28
587.768	55195.77
588.127	55164.35
588.487	55168.2
588.846	55362.77
589.206	55194.41
589.565	55194.41
589.925	55362.99
590.284	55210.46
590.643	55346.5
591.003	55398.92
591.362	55490.45
591.721	55330.68
592.08	55301.53
592.44	55364.35
592.799	55359.38
593.158	55330.23
593.517	55426.72
593.876	55444.12
594.235	55406.38
594.593	55469.88
594.952	55447.06
595.311	55414.07
595.67	55468.75
596.029	55588.75
596.387	55618.35
596.746	55613.83
597.104	55528.41
597.463	55492.03
597.822	55623.33
598.18	55470.56
598.538	55532.48
598.897	55697.45
599.255	55531.12
599.613	55863.09
599.972	55763.89
600.33	55830.1
600.688	55682.99
601.046	55803.66
601.404	55838.24
601.762	55744
602.12	55918.01
602.478	55868.29
602.836	55889.99
603.194	55791.68
603.552	55766.6
603.91	55782.42
604.268	55883.43
604.625	55867.61
604.983	56021.51
605.341	55890.89
605.698	55956.2
606.056	56100.83
606.413	56086.59
606.771	56196.19
607.128	56151.45
607.485	56100.15
607.843	56135.18
608.2	56228.51
608.557	56267.38
608.914	56289.75
609.272	56364.32
609.629	56404.55
609.986	56498.1
610.343	56308.05
610.7	56571.78
611.057	56594.6
611.414	56466.92
611.771	56492.23
612.127	56626.01
612.484	56569.29
612.841	56649.06
613.198	56589.63
613.554	56636.41
613.911	56741.94
614.267	56746.23
614.624	56706.01
614.98	56740.81
615.337	56872.33
615.693	56773.8
616.05	56764.54
616.406	56927.92
616.762	56799.11
617.118	56824.2
617.475	56901.03
617.831	56972.67
618.187	56921.82
618.543	56950.52
618.899	57118.43
619.255	57152.78
619.611	57058.54
619.967	57214.24
620.323	57253.57
620.678	57086.56
621.034	57089.95
621.39	57040.69
621.746	57051.08
622.101	57371.08
622.457	57104.19
622.812	57181.25
623.168	57254.24
623.523	57176.96
623.879	57338.99
624.234	57143.51
624.589	57194.13
624.945	57277.75
625.3	57239.1
625.655	57247.01
626.01	57190.97
626.365	57277.07
626.72	57255.83
627.075	57234.81
627.43	57258.76
627.785	57110.07
628.14	57256.5
628.495	57169.73
628.85	57229.84
629.205	57159.33
629.559	57228.71
629.914	57068.03
630.269	57130.63
630.623	57114.59
630.978	57012.67
631.332	57176.51
631.687	57134.02
632.041	57026.9
632.396	57151.2
632.75	57029.39
633.104	57066.45
633.459	56882.73
633.813	56896.74
634.167	56870.52
634.521	56852.67
634.875	56855.16
635.229	56861.71
635.583	56732.9
635.937	56722.28
636.291	56692.45
636.645	56759.34
636.999	56659.91
637.352	56731.09
637.706	56582.62
638.06	56689.51
638.413	56610.87
638.767	56540.36
639.121	56569.29
639.474	56434.38
639.828	56498.33
640.181	56543.3
640.534	56482.96
640.888	56415.62
641.241	56289.75
641.594	56333.36
641.947	56374.49
642.301	56276.42
642.654	56310.09
643.007	56260.6
643.36	56240.94
643.713	56200.26
644.066	56346.02
644.419	56086.14
644.771	55932.24
645.124	55655.87
645.477	55633.95
645.83	55447.06
646.182	55326.16
646.535	55290.68
646.888	55328.42
647.24	55128.88
647.593	55326.61
647.945	55234.64
648.298	55083.23
648.65	55071.7
649.002	54957.81
649.355	55031.93
649.707	55030.12
650.059	55196.67
650.411	55452.93
650.763	55501.07
651.115	55783.77
651.467	55695.87
651.819	55577.9
652.171	55519.83
652.523	55528.19
652.875	55532.25
653.227	55338.59
653.578	55613.83
653.93	55410
654.282	55325.48
654.633	55279.38
654.985	55269.44
655.337	55321.86
655.688	55283.9
656.039	55380.85
656.391	55210.91
656.742	55209.33
657.094	55178.14
657.445	55298.14
657.796	55194.41
658.147	55235.54
658.498	55107.86
658.849	55219.95
659.2	55104.47
659.551	55108.76
659.902	55214.52
660.253	55108.31
660.604	55115.99
660.955	55041.87
661.306	55067.41
661.656	54999.16
662.007	55037.8
662.358	55024.25
662.708	54967.75
663.059	54972.72
663.409	54781.09
663.76	54963.46
664.11	54921.88
664.461	54978.6
664.811	54933.17
665.161	54921.65
665.511	54774.76
665.862	54789.22
666.212	54943.8
666.562	54933.17
666.912	54856.11
667.262	54838.94
667.612	54832.61
667.962	54845.49
668.312	54785.16
668.662	54956.45
669.011	54731.15
669.361	54732.5
669.711	54723.24
670.06	54686.4
670.41	54597.82
670.76	54553.75
671.109	54701.54
671.459	54614.54
671.808	54549.46
672.157	54550.59
672.507	54422.68
672.856	54434.2
673.205	54394.66
673.554	54427.88
673.904	54320.08
674.253	54543.13
674.602	54418.61
674.951	53934.56
675.3	53780.21
675.649	54270.59
675.998	54278.05
676.346	54283.47
676.695	54325.51
677.044	54082.12
677.393	54148.34
677.741	54238.73
678.09	53947.66
678.438	54013.65
678.787	54064.04
679.135	53989.24
679.484	53902.69
679.832	54037.15
680.181	53856.14
680.529	53967.55
680.877	53723.94
681.225	53791.51
681.573	53876.93
681.922	53640.1
682.27	53619.76
682.618	53677.84
682.966	53544.06
683.314	53528.92
683.661	53455.92
684.009	53271.75
684.357	53277.62
684.705	53273.1
685.053	53337.06
685.4	53190.62
685.748	53074.24
686.095	53007.12
686.443	52961.7
686.79	52852.55
687.138	52846.45
687.485	52797.64
687.832	52745.21
688.18	52752.89
688.527	52452.56
688.874	52487.81
689.221	52452.79
689.568	52365.11
689.915	52350.87
690.262	52270.65
690.609	52150.42
690.956	52168.28
691.303	52067.94
691.65	51852.58
691.997	51822.07
692.344	51669.08
692.69	51722.41
693.037	51582.75
693.383	51453.72
693.73	51578.91
694.077	51293.04
694.423	51227.96
694.769	51217.11
695.116	51101.64
695.462	51042.66
695.808	51041.98
696.155	51003.33
696.501	50757.46
696.847	50756.33
697.193	50547.75
697.539	50612.16
697.885	50430.92
698.231	50208.1
698.577	50252.85
698.923	50191.15
699.269	50058.05
699.614	49829.81
699.96	49742.35
700.306	49730.83
700.651	49661
700.997	49568.34
701.342	49524.95
701.688	49363.38
702.033	49292.64
702.379	49226.66
702.724	49003.39
703.069	49188.01
703.415	48710.96
703.76	48696.05
704.105	48636.16
704.45	48560.23
704.795	48406.57
705.14	48414.93
705.485	48280.92
705.83	48195.72
706.175	48210.87
706.52	48087.25
706.865	47997.09
707.209	48023.75
707.554	47836.19
707.899	47854.26
708.243	47747.37
708.588	47577.66
708.932	47346.93
709.277	47322.98
709.621	47333.6
709.966	47033.95
710.31	47112.36
710.654	46743.56
710.998	46852.26
711.342	46939.49
711.687	46705.82
712.031	46626.95
712.375	46564.58
712.719	46539.27
713.063	46568.42
713.407	46577.69
713.75	46220.63
714.094	46294.76
714.438	46052.96
714.782	46193.74
715.125	45939.96
715.469	45895.45
715.812	45809.8
716.156	45517.6
716.499	45690.03
716.843	45571.39
717.186	45340.88
717.53	45629.92
717.873	45489.13
718.216	45235.8
718.559	45151.96
718.902	44905.87
719.246	45099.31
719.589	44829.94
719.932	44737.74
720.275	44661.81
720.617	44622.03
720.96	44580.68
721.303	44563.96
721.646	44596.27
721.989	44295.94
722.331	44500.45
722.674	44354.24
723.016	44400.57
723.359	44160.12
723.701	44298.88
724.044	44069.28
724.386	43882.62
724.729	44036.96
725.071	43918.55
725.413	43910.41
725.755	43791.77
726.097	43659.35
726.439	43497.54
726.782	43493.25
727.124	43634.04
727.465	43326.93
727.807	43321.95
728.149	43394.72
728.491	43269.3
728.833	43263.42
729.175	42985.24
729.516	43076.99
729.858	42938.46
730.199	42966.48
730.541	42836.77
730.882	42685.59
731.224	42680.39
731.565	42607.85
731.906	42578.47
732.248	42493.73
732.589	42373.5
732.93	42237.91
733.271	42135.77
733.612	42251.02
733.953	42197.69
734.294	42069.33
734.635	41881.54
734.976	42019.16
735.317	41831.82
735.658	41792.73
735.999	41873.63
736.339	41803.58
736.68	41820.98
737.021	41540.53
737.361	41413.76
737.702	41669.79
738.042	41427.09
738.383	41421.21
738.723	41249.24
739.063	41317.26
739.404	41374.43
739.744	41158.4
740.084	41036.59
740.424	41127.44
740.764	41022.35
741.104	41099.64
741.444	40855.13
741.784	40597.05
742.124	40824.62
742.464	40722.7
742.804	40603.16
743.143	40572.87
743.483	40512.08
743.823	40302.6
744.162	40314.8
744.502	40385.08
744.841	40111.42
745.181	40326.1
745.52	40211.08
745.86	40159.33
746.199	40022.38
746.538	39966.11
746.877	40004.3
747.216	39978.31
747.556	39806.57
747.895	39920.24
748.234	39572.45
748.573	39537.87
748.911	39510.3
749.25	39599.11
749.589	39426.24
749.928	39334.71
750.267	39429.4
750.605	39166.58
750.944	39145.34
751.283	38917.1
751.621	39002.52
751.96	38783.32
752.298	38786.03
752.636	38922.52
752.975	38551.91
753.313	38523.89
753.651	38736.76
753.989	38440.73
754.327	38408.64
754.666	38163.9
755.004	38263.1
755.342	38275.31
755.679	38151.92
756.017	37904.47
756.355	38083.67
756.693	37716.68
757.031	37809.78
757.368	37586.29
757.706	37568.21
758.044	37425.84
758.381	37470.81
758.719	37314.2
759.056	37417.48
759.394	37127.77
759.731	36916.7
760.068	36880.54
760.405	36734.1
760.743	36636.93
761.08	36716.93
761.417	36469.25
761.754	36456.6
762.091	36401.68
762.428	36189.03
762.765	36039.43
763.102	36164.85
763.438	35914.92
763.775	35779.1
764.112	35858.65
764.449	35688.03
764.785	35476.51
765.122	35223.86
765.458	35266.8
765.795	35225.22
766.131	35177.54
766.467	35106.35
766.804	34977.31
767.14	34894.83
767.476	34774.38
767.812	34512.69
768.148	34565.57
768.485	34440.83
768.821	34226.15
769.157	34051.24
769.492	34170.33
769.828	33914.29
770.164	33697.8
770.5	33517.47
770.836	33462.55
771.171	33398.15
771.507	33270.92
771.842	33026.18
772.178	33124.48
772.513	32922.91
772.849	32868.9
773.184	32778.05
773.519	32839.29
773.855	32519.53
774.19	32529.24
774.525	32287.89
774.86	32263.94
775.195	32247.44
775.53	32267.56
775.865	31869.15
776.2	31715.48
776.535	31418.54
776.87	31592.32
777.205	31330.41
777.539	31205.66
777.874	31335.15
778.209	31000.24
778.543	30888.83
778.878	30750.31
779.212	30725
779.547	30502.63
779.881	30559.8
780.215	30369.07
780.55	30440.71
780.884	30069.87
781.218	30108.29
781.552	30019.48
781.886	29930.67
782.22	29786.26
782.554	29699.94
782.888	29412.72
783.222	29329.33
783.556	29270.35
783.889	29254.75
784.223	28902.22
784.557	28891.6
784.89	28960.75
785.224	28669.68
785.557	28720.53
785.891	28560.76
786.224	28466.3
786.558	28534.09
786.891	28261.79
787.224	28215.23
787.557	28123.03
787.891	27932.98
788.224	27786.09
788.557	27922.13
788.89	27711.07
789.223	27721.01
789.556	27616.38
789.888	27513.56
790.221	27280.79
790.554	27080.57
790.887	27158.54
791.219	26965.1
791.552	26963.97
791.884	26794.48
792.217	26743.18
792.549	26641.49
792.882	26545.67
793.214	26511.1
793.546	26474.49
793.879	26377.54
794.211	26120.82
794.543	26102.29
794.875	26017.78
795.207	26189.98
795.539	25969.87
795.871	25834.73
796.203	25740.5
796.535	25538.47
796.867	25578.92
797.198	25554.74
797.53	25504.57
797.862	25146.84
798.193	25263.9
798.525	25050.57
798.856	25074.75
799.188	24759.5
799.519	24828.88
799.85	24769.9
800.182	24762.67
800.513	24653.29
800.844	24457.14
801.175	24614.65
801.506	24524.03
801.837	24516.35
802.168	24383.24
802.499	24259.4
802.83	24100.76
803.161	23908.23
803.491	24054.44
803.822	23874.56
804.153	23854.9
804.483	23754.11
804.814	23703.03
805.145	23720.21
805.475	23636.82
805.805	23490.39
806.136	23423.95
806.466	23438.18
806.796	23259.88
807.126	23112.99
807.457	23145.76
807.787	23112.09
808.117	22963.17
808.447	22935.82
808.777	22976.73
809.107	22930.17
809.436	22725.89
809.766	22741.93
810.096	22653.8
810.426	22605.21
810.755	22635.27
811.085	22521.82
811.414	22475.95
811.744	22304.43
812.073	22241.6
812.403	22290.19
812.732	22162.51
813.061	22111.44
813.39	21892.69
813.719	22027.82
814.049	22053.36
814.378	22001.38
814.707	21839.58
815.036	21819.69
815.365	21833.03
815.693	21443.89
816.022	21588.06
816.351	21536.31
816.68	21269.43
817.008	21345.81
817.337	21201.63
817.665	21151.24
817.994	21401.17
818.322	21176.1
818.651	21075.31
818.979	20980.85
819.307	21090.22
819.636	21059.94
819.964	20965.03
820.292	21041.86
820.62	20984.24
820.948	20859.72
821.276	20909.21
821.604	20797.12
821.932	20953.5
822.259	20909.89
822.587	20765.03
822.915	20732.94
823.243	20855.88
823.57	20732.04
823.898	20883.67
824.225	20761.19
824.553	20725.26
824.88	20718.03
825.207	20840.96
825.535	20741.98
825.862	20683.45
826.189	20715.09
826.516	20748.08
826.843	20790.57
827.17	20699.27
827.497	20815.43
827.824	20746.95
828.151	20734.98
828.478	20671.02
828.805	20791.47
829.131	20575.66
829.458	20728.88
829.785	20595.77
830.111	20633.74
830.438	20776.78
830.764	20661.76
831.09	20727.97
831.417	20507.86
831.743	20626.05
832.069	20663.79
832.395	20485.27
832.722	20613.85
833.048	20426.96
833.374	20518.71
833.7	20486.17
834.026	20454.76
834.351	20523.91
834.677	20479.16
835.003	20454.98
835.329	20455.21
835.654	20304.03
835.98	20362.78
836.306	20385.83
836.631	20224.26
836.956	20411.82
837.282	20309
837.607	20160.98
837.932	20188.1
838.258	20067.65
838.583	20115.78
838.908	19981.1
839.233	19993.75
839.558	20052.06
839.883	19909.69
840.208	19879.86
840.533	19920.54
840.858	19847.54
841.182	19796.47
841.507	19777.49
841.832	19725.51
842.156	19625.18
842.481	19713.54
842.805	19611.62
843.13	19607.32
843.454	19422.24
843.778	19493.2
844.103	19391.06
844.427	19373.21
844.751	19356.93
845.075	19289.59
845.399	19149.48
845.723	19117.39
846.047	19111.97
846.371	18956.72
846.695	19002.14
847.019	18815.93
847.343	18751.75
847.666	18630.63
847.99	18555.37
848.313	18554.47
848.637	18418.43
848.96	18382.5
849.284	18383.4
849.607	18181.6
849.931	18149.73
850.254	17945.22
850.577	17988.61
850.9	17863.64
851.223	17857.09
851.546	17759.91
851.869	17660.93
852.192	17745
852.515	17516.98
852.838	17425.69
853.161	17493.48
853.483	17391.56
853.806	17249.42
854.129	17347.04
854.451	17267.72
854.774	17131
855.096	17055.3
855.419	17054.4
855.741	17019.14
856.063	16939.15
856.385	16799.94
856.708	16828.64
857.03	16755.87
857.352	16728.98
857.674	16692.15
857.996	16574.63
858.318	16505.03
858.64	16538.93
858.961	16466.84
859.283	16386.62
859.605	16296
859.926	16393.17
860.248	16333.96
860.57	16150.01
860.891	16298.94
861.212	16099.17
861.534	16130.8
861.855	16065.27
862.176	16131.93
862.498	16113.63
862.819	16121.54
863.14	15930.13
863.461	15924.26
863.782	15899.62
864.103	15807.88
864.424	15832.96
864.745	15838.83
865.065	15752.51
865.386	15637.94
865.707	15661.66
866.027	15639.29
866.348	15561.78
866.668	15611.27
866.989	15679.29
867.309	15521.33
867.63	15573.53
867.95	15452.18
868.27	15402.46
868.59	15426.87
868.91	15413.99
869.23	15375.34
869.55	15386.87
869.87	15354.1
870.19	15294.44
870.51	15320.43
870.83	15241.79
871.15	15191.85
871.469	15166.31
871.789	15235.69
872.109	15132.64
872.428	15048.57
872.748	15132.41
873.067	15077.05
873.386	15062.58
873.706	15049.93
874.025	14992.98
874.344	14870.05
874.663	14942.81
874.982	14898.97
875.301	14891.06
875.62	14824.85
875.939	14855.58
876.258	14829.6
876.577	14770.61
876.896	14795.92
877.214	14694.46
877.533	14727.9
877.852	14691.07
878.17	14677.28
878.489	14700.79
878.807	14654.46
879.125	14662.82
879.444	14644.52
879.762	14591.18
880.08	14529.49
880.398	14526.33
880.716	14522.03
881.034	14504.63
881.352	14415.6
881.67	14440.91
881.988	14399.32
882.306	14341.7
882.624	14276.84
882.941	14280.01
883.259	14294.92
883.577	14167.01
883.894	14219.44
884.212	14156.62
884.529	14106.23
884.846	14054.93
885.164	14125.89
885.481	13979.9
885.798	13963.18
886.115	13917.08
886.432	13884.76
886.75	13837.08
887.067	13828.94
887.383	13775.39
887.7	13782.84
888.017	13734.94
888.334	13752.56
888.651	13636.63
888.967	13632.79
889.284	13564.77
889.6	13485.45
889.917	13510.76
890.233	13457.65
890.55	13445.68
890.866	13407.26
891.182	13328.17
891.498	13329.3
891.815	13263.08
892.131	13114.39
892.447	13106.03
892.763	13063.31
893.079	13149.19
893.395	13078.91
893.71	13030.32
894.026	12980.61
894.342	12993.26
894.657	12846.82
894.973	12878.01
895.289	12859.7
895.604	12794.62
895.92	12726.15
896.235	12667.17
896.55	12739.03
896.865	12607.28
897.181	12606.83
897.496	12619.48
897.811	12519.15
898.126	12439.38
898.441	12441.64
898.756	12355.08
899.071	12306.72
899.386	12296.33
899.7	12291.36
900.015	12261.98
900.33	12135.88
900.644	12137.69
900.959	12187.41
901.273	12067.86
901.588	11972.72
901.902	11886.85
902.216	11854.98
902.531	11854.08
902.845	11824.48
903.159	11717.81
903.473	11678.04
903.787	11650.02
904.101	11571.15
904.415	11621.32
904.729	11605.73
905.042	11414.77
905.356	11464.03
905.67	11425.39
905.984	11383.58
906.297	11367.31
906.611	11231.05
906.924	11242.8
907.237	11165.96
907.551	11160.99
907.864	10990.15
908.177	11054.1
908.491	11038.96
908.804	10895.24
909.117	10876.71
909.43	10884.61
909.743	10707.22
910.056	10777.5
910.368	10749.93
910.681	10686.43
910.994	10636.03
911.307	10613.44
911.619	10479.43
911.932	10618.18
912.244	10428.36
912.557	10455.02
912.869	10383.61
913.181	10360.11
913.494	10347.91
913.806	10188.59
914.118	10183.16
914.43	10161.7
914.742	10106.1
915.054	10045.77
915.366	10016.62
915.678	10043.73
915.99	9926.9
916.302	9866.79
916.613	9819.56
916.925	9841.48
917.236	9826.34
917.548	9697.08
917.859	9697.08
918.171	9667.7
918.482	9567.36
918.794	9602.84
919.105	9496.63
919.416	9426.8
919.727	9432.22
920.038	9362.62
920.349	9335.5
920.66	9355.16
920.971	9305
921.282	9291.21
921.593	9294.15
921.903	9125.79
922.214	9115.4
922.525	9086.92
922.835	9049.86
923.146	8936.19
923.456	9038.56
923.767	8864.56
924.077	8942.52
924.387	8844.67
924.697	8783.43
925.008	8762.86
925.318	8709.98
925.628	8762.64
925.938	8679.93
926.248	8603.77
926.558	8618.91
926.867	8562.87
927.177	8557.22
927.487	8494.62
927.796	8407.84
928.106	8395.87
928.416	8346.6
928.725	8373.95
929.034	8253.5
929.344	8249.2
929.653	8217.34
929.962	8201.3
930.271	8098.02
930.581	8158.13
930.89	8001.75
931.199	7996.33
931.508	7999.72
931.817	7967.63
932.125	8021.19
932.434	7872.04
932.743	7844.24
933.051	7816.45
933.36	7759.95
933.669	7811.93
933.977	7773.51
934.286	7700.74
934.594	7665.04
934.902	7626.62
935.21	7576.23
935.519	7585.94
935.827	7501.43
936.135	7492.16
936.443	7384.59
936.751	7362.9
937.059	7350.7
937.367	7287.65
937.674	7289.68
937.982	7321.54
938.29	7296.01
938.597	7276.12
938.905	7249.68
939.213	7138.72
939.52	7107.77
939.827	7142.11
940.135	7066.18
940.442	7029.35
940.749	7054.89
941.056	6994.77
941.363	6908
941.67	6844.72
941.977	6808.79
942.284	6819.86
942.591	6862.35
942.898	6759.3
943.205	6789.81
943.511	6727.44
943.818	6689.7
944.125	6609.02
944.431	6625.52
944.738	6617.61
945.044	6571.06
945.35	6532.86
945.657	6484.5
945.963	6467.33
946.269	6479.31
946.575	6405.41
946.881	6373.1
947.187	6334.68
947.493	6339.42
947.799	6301.91
948.105	6275.47
948.41	6204.29
948.716	6238.86
949.022	6156.83
949.327	6183.5
949.633	6161.58
949.938	6056.72
950.244	6091.07
950.549	6024.4
950.854	6027.57
951.16	5970.39
951.465	5916.61
951.77	5954.8
952.075	5945.31
952.38	5831.19
952.685	5921.13
952.99	5762.94
953.294	5837.74
953.599	5791.87
953.904	5692.21
954.209	5720.23
954.513	5699.67
954.818	5690.4
955.122	5653.34
955.426	5598.88
955.731	5581.7
956.035	5598.2
956.339	5553.46
956.643	5558.2
956.948	5485.89
957.252	5467.81
957.556	5505.77
957.86	5418.77
958.163	5432.1
958.467	5355.04
958.771	5386.91
959.075	5350.07
959.378	5314.14
959.682	5304.2
959.985	5245.89
960.289	5233.92
960.592	5241.83
960.896	5178.32
961.199	5188.72
961.502	5134.48
961.805	5090.64
962.108	5070.76
962.411	5065.11
962.714	5036.86
963.017	5026.24
963.32	5052.23
963.623	4966.58
963.926	4970.65
964.228	4924.77
964.531	4931.33
964.833	4936.07
965.136	4889.74
965.438	4894.26
965.741	4830.08
966.043	4786.7
966.345	4779.24
966.648	4755.06
966.95	4765.45
967.252	4751.22
967.554	4717.09
967.856	4656.3
968.158	4633.93
968.46	4673.93
968.761	4610.66
969.063	4626.7
969.365	4640.03
969.666	4527.27
969.968	4529.98
970.269	4478.46
970.571	4504.44
970.872	4497.21
971.174	4422.64
971.475	4446.82
971.776	4406.14
972.077	4416.31
972.378	4422.86
972.679	4430.77
972.98	4352.81
973.281	4341.74
973.582	4295.64
973.883	4278.01
974.183	4276.2
974.484	4266.94
974.785	4256.54
975.085	4242.98
975.386	4154.62
975.686	4132.48
975.986	4150.55
976.287	4131.35
976.587	4120.27
976.887	4119.14
977.187	4123.66
977.487	4059.48
977.787	4087.05
978.087	4028.75
978.387	4012.03
978.687	4007.73
978.987	3963.89
979.286	3961.41
979.586	3935.19
979.885	3938.81
980.185	3892.93
980.484	3836.66
980.784	3877.12
981.083	3855.2
981.382	3829.89
981.682	3839.38
981.981	3795.08
982.28	3773.84
982.579	3711.02
982.878	3768.87
983.177	3747.85
983.475	3703.33
983.774	3674.64
984.073	3678.02
984.372	3645.71
984.67	3643.45
984.969	3635.77
985.267	3608.87
985.566	3617.46
985.864	3615.43
986.162	3599.83
986.461	3536.56
986.759	3503.57
987.057	3505.15
987.355	3493.17
987.653	3455.66
987.951	3438.71
988.249	3401.42
988.547	3445.94
988.844	3431.03
989.142	3389.9
989.44	3356
989.737	3359.39
990.035	3346.06
990.332	3319.16
990.63	3320.52
990.927	3320.97
991.224	3280.52
991.521	3252.27
991.819	3263.57
992.116	3230.13
992.413	3202.78
992.71	3181.54
993.006	3198.26
993.303	3187.64
993.6	3185.83
993.897	3156.23
994.193	3151.71
994.49	3090.7
994.787	3085.27
995.083	3047.53
995.379	3052.73
995.676	3029.91
995.972	3000.3
996.268	3023.13
996.565	3010.7
996.861	3009.57
997.157	2937.93
997.453	2947.65
997.749	2934.99
998.044	2882.34
998.34	2877.37
998.636	2895.67
998.932	2854.54
999.227	2859.06
999.523	2840.53
999.818	2822.91
1000.114	2781.78
1000.409	2790.14
1000.704	2807.99
1001	2755.56
1001.295	2729.12
1001.59	2722.57
1001.885	2723.7
1002.18	2681.89
1002.475	2685.06
1002.77	2651.16
1003.065	2635.34
1003.359	2649.35
1003.654	2623.59
1003.949	2580.65
1004.243	2582.69
1004.538	2587.66
1004.832	2607.32
1005.127	2553.76
1005.421	2546.76
1005.715	2513.76
1006.009	2518.96
1006.304	2537.49
1006.598	2497.26
1006.892	2484.38
1007.186	2442.58
1007.48	2467.44
1007.773	2461.11
1008.067	2424.5
1008.361	2405.74
1008.655	2382.24
1008.948	2375.69
1009.242	2335.24
1009.535	2335.46
1009.829	2301.56
1010.122	2273.99
1010.415	2309.25
1010.708	2319.42
1011.001	2261.11
1011.295	2226.99
1011.588	2248.68
1011.881	2224.05
1012.173	2224.28
1012.466	2192.19
1012.759	2185.18
1013.052	2186.09
1013.344	2189.7
1013.637	2127.56
1013.93	2149.25
1014.222	2125.98
1014.514	2123.04
1014.807	2112.42
1015.099	2077.61
1015.391	2083.72
1015.683	2034.9
1015.976	2063.15
1016.268	2038.52
1016.56	2039.65
1016.851	2003.72
1017.143	2020.67
1017.435	1998.52
1017.727	1984.28
1018.018	1957.84
1018.31	1963.49
1018.602	1945.87
1018.893	1905.19
1019.185	1892.99
1019.476	1927.56
1019.767	1890.95
1020.058	1823.16
1020.35	1854.8
1020.641	1832.88
1020.932	1836.94
1021.223	1793.33
1021.514	1827
1021.804	1784.06
1022.095	1788.81
1022.386	1769.6
1022.677	1736.61
1022.967	1721.47
1023.258	1753.1
1023.548	1698.87
1023.839	1707.68
1024.129	1694.57
1024.419	1676.5
1024.709	1667.68
1025	1638.08
1025.29	1637.85
1025.58	1603.28
1025.87	1589.04
1026.16	1630.62
1026.449	1576.84
1026.739	1556.27
1027.029	1565.09
1027.319	1557.85
1027.608	1545.88
1027.898	1533.22
1028.187	1507.01
1028.477	1532.32
1028.766	1509.72
1029.055	1482.6
1029.344	1490.74
1029.634	1495.94
1029.923	1469.72
1030.212	1450.74
1030.501	1449.83
1030.79	1428.59
1031.078	1419.1
1031.367	1402.6
1031.656	1407.35
1031.945	1391.08
1032.233	1374.36
1032.522	1360.12
1032.81	1370.29
1033.099	1380.23
1033.387	1349.72
1033.675	1343.4
1033.963	1312.66
1034.251	1291.65
1034.54	1326
1034.828	1313.12
1035.116	1299.56
1035.403	1287.81
1035.691	1262.04
1035.979	1256.39
1036.267	1258.65
1036.554	1245.55
1036.842	1245.32
1037.129	1229.95
1037.417	1210.97
1037.704	1213.46
1037.992	1219.56
1038.279	1195.15
1038.566	1180.92
1038.853	1180.92
1039.14	1180.92
