Data from white_wall_FLMS001491_094.txt Node
Date: Tue Feb 07 11:06:16 GMT 2017
User: dcchb
Spectrometer: FLMS00149
Trigger mode: 0
Integration Time (sec): 2.000000E-2
Scans to average: 10
Electric dark correction enabled: true
Nonlinearity correction enabled: false
Boxcar width: 0
XAxis mode: Wavelengths
Number of Pixels in Spectrum: 2048
>>>>>Begin Spectral Data<<<<<
341.393	-16.21
341.776	-16.21
342.16	-16.21
342.543	-62.54
342.927	-50.56
343.31	-79.49
343.693	-71.58
344.077	-55.54
344.46	-58.02
344.843	-52.15
345.226	-53.28
345.61	-28.42
345.993	-10.79
346.376	9.77
346.759	7.51
347.142	38.02
347.525	35.31
347.908	48.19
348.291	57.91
348.674	88.42
349.057	124.12
349.44	135.42
349.823	143.78
350.206	167.28
350.588	212.93
350.971	245.93
351.354	265.59
351.737	263.55
352.119	254.74
352.502	288.64
352.884	310.1
353.267	322.53
353.65	291.8
354.032	341.29
354.414	306.94
354.797	326.83
355.179	362.08
355.562	338.8
355.944	344
356.326	367.28
356.709	357.79
357.091	372.93
357.473	371.35
357.855	367.96
358.238	387.39
358.62	363.44
359.002	347.62
359.384	360.5
359.766	368.86
360.148	371.35
360.53	351.23
360.912	363.21
361.294	364.11
361.676	344.68
362.057	359.14
362.439	370.89
362.821	348.97
363.203	353.95
363.584	338.35
363.966	350.78
364.348	350.1
364.729	363.89
365.111	355.98
365.493	357.34
365.874	332.03
366.256	352.14
366.637	358.24
367.019	337.22
367.4	355.08
367.781	348.52
368.163	346.04
368.544	366.6
368.925	342.19
369.306	370.67
369.688	318.01
370.069	329.99
370.45	353.72
370.831	339.71
371.212	358.01
371.593	347.62
371.974	345.13
372.355	346.94
372.736	344
373.117	356.66
373.498	340.84
373.879	353.72
374.26	356.21
374.641	359.37
375.021	330.22
375.402	375.64
375.783	379.71
376.163	361.18
376.544	335.41
376.925	358.01
377.305	367.73
377.686	365.7
378.066	375.64
378.447	359.14
378.827	385.13
379.208	355.08
379.588	362.31
379.968	378.35
380.349	368.63
380.729	395.53
381.109	377.22
381.489	390.1
381.87	383.78
382.25	386.94
382.63	397.56
383.01	393.94
383.39	383.1
383.77	398.01
384.15	399.82
384.53	405.47
384.91	417.9
385.29	421.51
385.67	411.8
386.049	424.68
386.429	423.77
386.809	422.87
387.189	420.61
387.568	433.94
387.948	433.27
388.328	444.56
388.707	441.4
389.087	443.89
389.466	459.25
389.846	454.73
390.225	459.03
390.605	456.09
390.984	474.17
391.363	484.56
391.743	488.63
392.122	497.9
392.501	511.46
392.881	506.71
393.26	529.99
393.639	520.04
394.018	534.51
394.397	550.32
394.776	556.65
395.155	554.17
395.534	563.88
395.913	566.37
396.292	566.6
396.671	589.65
397.05	596.65
397.429	620.15
397.808	607.05
398.186	621.51
398.565	638.23
398.944	660.15
399.323	651.11
399.701	672.58
400.08	693.6
400.458	675.74
400.837	702.41
401.215	707.16
401.594	733.82
401.972	741.51
402.351	749.42
402.729	756.87
403.107	764.56
403.486	776.99
403.864	821.96
404.242	810.88
404.62	807.27
404.999	850.43
405.377	876.19
405.755	858.79
406.133	885.91
406.511	898.79
406.889	941.27
407.267	946.92
407.645	966.81
408.023	965.23
408.401	995.06
408.779	1032.35
409.156	1036.64
409.534	1031.22
409.912	1074.83
410.29	1096.07
410.667	1119.58
411.045	1144.66
411.422	1164.55
411.8	1146.47
412.178	1213.81
412.555	1201.83
412.933	1201.61
413.31	1268.05
413.687	1284.09
414.065	1272.11
414.442	1296.75
414.819	1336.74
415.197	1318.44
415.574	1367.93
415.951	1383.52
416.328	1398.66
416.705	1426.46
417.082	1415.84
417.46	1436.63
417.837	1447.48
418.214	1460.58
418.591	1508.27
418.967	1494.71
419.344	1506.01
419.721	1552.56
420.098	1525.44
420.475	1562.28
420.852	1589.17
421.228	1600.69
421.605	1624.65
421.982	1661.26
422.358	1646.79
422.735	1684.98
423.111	1675.04
423.488	1709.84
423.864	1728.37
424.241	1751.87
424.617	1762.27
424.994	1775.38
425.37	1797.07
425.746	1803.62
426.123	1853.12
426.499	1852.44
426.875	1870.74
427.251	1923.17
427.627	1943.06
428.003	1983.96
428.379	2053.11
428.756	2033.9
429.132	2063.96
429.507	2105.76
429.883	2115.03
430.259	2169.49
430.635	2178.3
431.011	2210.62
431.387	2229.15
431.763	2278.87
432.138	2285.87
432.514	2322.93
432.89	2363.16
433.265	2421.46
433.641	2408.35
434.016	2473.66
434.392	2489.26
434.767	2527
435.143	2519.76
435.518	2586.88
435.894	2585.3
436.269	2610.61
436.644	2691.06
437.02	2688.57
437.395	2708.01
437.77	2732.19
438.145	2828.46
438.52	2792.75
438.895	2865.52
439.271	2832.07
439.646	2932.63
440.021	2931.5
440.395	2964.95
440.77	2952.75
441.145	2993.88
441.52	3040.2
441.895	3051.95
442.27	3101.44
442.645	3122.91
443.019	3160.2
443.394	3149.13
443.769	3164.49
444.143	3141.44
444.518	3282
444.892	3240.2
445.267	3273.19
445.641	3348.67
446.016	3310.48
446.39	3328.33
446.764	3396.13
447.139	3412.62
447.513	3429.34
447.887	3439.97
448.262	3467.31
448.636	3534.65
449.01	3540.3
449.384	3577.14
449.758	3609.45
450.132	3653.29
450.506	3655.78
450.88	3677.47
451.254	3675.89
451.628	3692.16
452.002	3820.3
452.376	3855.32
452.75	3834.31
453.123	3917.24
453.497	3985.94
453.871	4046.96
454.244	4102.1
454.618	4095.99
454.992	4207.18
455.365	4199.95
455.739	4296.89
456.112	4393.84
456.486	4370.79
456.859	4429.54
457.232	4517.68
457.606	4491.46
457.979	4595.19
458.352	4657.34
458.725	4702.98
459.099	4781.85
459.472	4881.51
459.845	4903.88
460.218	4926.25
460.591	5019.36
460.964	5029.53
461.337	5156.98
461.71	5267.49
462.083	5318.79
462.456	5300.48
462.829	5351.33
463.201	5479.69
463.574	5468.39
463.947	5563.75
464.32	5681.04
464.692	5781.83
465.065	5808.27
465.438	5930.97
465.81	5987.47
466.183	5994.02
466.555	6168.26
466.928	6255.03
467.3	6240.57
467.672	6382.94
468.045	6547.68
468.417	6554.91
468.789	6601.24
469.161	6701.58
469.534	6808.01
469.906	6986.31
470.278	7063.15
470.65	7058.4
471.022	7204.39
471.394	7377.72
471.766	7458.84
472.138	7540.42
472.51	7745.84
472.882	7779.29
473.253	7925.95
473.625	8094.08
473.997	8200.74
474.369	8313.28
474.74	8404.58
475.112	8597.57
475.484	8718.92
475.855	8858.35
476.227	8920.5
476.598	9210.21
476.97	9246.59
477.341	9437.55
477.713	9639.35
478.084	9683.64
478.455	9939.46
478.827	10021.26
479.198	10372.21
479.569	10381.93
479.94	10694.24
480.311	10844.97
480.682	11034.79
481.053	11304.39
481.424	11473.43
481.795	11553.65
482.166	11772.4
482.537	11904.6
482.908	12220.07
483.279	12325.83
483.65	12571.93
484.021	12842.88
484.391	12942.54
484.762	13123.55
485.133	13288.52
485.503	13385.24
485.874	13750.2
486.244	13876.08
486.615	14101.83
486.985	14295.5
487.356	14604.87
487.726	14712.66
488.097	15059.32
488.467	15108.59
488.837	15412.08
489.207	15659.08
489.578	15799.87
489.948	16005.74
490.318	16213.42
490.688	16271.95
491.058	16705.15
491.428	16819.95
491.798	16988.99
492.168	17262.65
492.538	17327.51
492.908	17696.31
493.278	17783.32
493.648	17991.9
494.017	18096.76
494.387	18261.05
494.757	18521.15
495.126	18685.67
495.496	18757.53
495.866	19004.3
496.235	19183.51
496.605	19318.42
496.974	19612.2
497.344	19696.49
497.713	19813.77
498.082	19910.49
498.452	20186.19
498.821	20229.58
499.19	20396.36
499.559	20756.35
499.928	20757.48
500.298	20907.53
500.667	21181.65
501.036	21071.37
501.405	21481.75
501.774	21465.93
502.143	21733.04
502.512	21796.77
502.88	22013.71
503.249	22059.36
503.618	22287.83
503.987	22337.32
504.356	22566.24
504.724	22651.89
505.093	22878.78
505.462	23023.41
505.83	23130.52
506.199	23502.94
506.567	23740
506.936	23591.07
507.304	24022.7
507.672	24069.03
508.041	24209.36
508.409	24349.47
508.777	24621.56
509.145	24818.84
509.514	24901.1
509.882	25121.88
510.25	25234.87
510.618	25309.45
510.986	25538.59
511.354	25871.24
511.722	26123.21
512.09	26352.13
512.458	26249.31
512.826	26500.6
513.193	26652.24
513.561	26757.32
513.929	27052.68
514.297	27410.64
514.664	27620.12
515.032	27664.64
515.4	27874.35
515.767	28012.2
516.135	28282.02
516.502	28207.9
516.869	28649.7
517.237	28872.97
517.604	28783.03
517.972	29157.93
518.339	29374.65
518.706	29375.1
519.073	29616.68
519.44	29786.17
519.808	30154.29
520.175	30141.86
520.542	30511.8
520.909	30767.84
521.276	30674.28
521.643	31212.57
522.009	31436.52
522.376	31496.4
522.743	31864.76
523.11	32123.73
523.477	32472.2
523.843	32672.64
524.21	32952.64
524.577	33202.12
524.943	33239.86
525.31	33397.14
525.676	33837.36
526.043	34030.8
526.409	34304.01
526.776	34584.23
527.142	34616.77
527.508	34849.31
527.874	35195.29
528.241	35362.06
528.607	35444.1
528.973	35869.85
529.339	35859.23
529.705	36278.88
530.071	36396.39
530.437	36633.44
530.803	36872.53
531.169	37025.52
531.535	36963.38
531.901	37223.48
532.267	37459.18
532.632	37633.19
532.998	37728.56
533.364	37972.84
533.73	38237.24
534.095	38510.46
534.461	38596.1
534.826	38714.07
535.192	38937.79
535.557	39209.42
535.923	39123.32
536.288	39325.8
536.653	39557.66
537.019	39411.45
537.384	39781.84
537.749	40001.94
538.114	39948.61
538.479	40095.05
538.845	40368.71
539.21	40359.45
539.575	40465.66
539.94	40671.98
540.305	40900.68
540.67	40877.85
541.034	41137.51
541.399	41297.05
541.764	41545.18
542.129	41550.83
542.494	41674.67
542.858	41911.04
543.223	41953.76
543.587	42235.56
543.952	42176.57
544.316	42399.85
544.681	42482.56
545.045	42713.51
545.41	42915.31
545.774	43026.5
546.138	43051.13
546.503	43341.52
546.867	43317.34
547.231	43787.15
547.595	43930.88
547.959	43835.51
548.324	43933.36
548.688	44339.91
549.052	44370.64
549.416	44435.27
549.779	44480.24
550.143	44766.34
550.507	44990.96
550.871	45117.06
551.235	45167.23
551.599	45576.03
551.962	45536.49
552.326	45810.15
552.689	45961.79
553.053	45877.04
553.417	46059.86
553.78	46636.12
554.143	46487.2
554.507	46729.9
554.87	46946.62
555.234	47382.31
555.597	47145.26
555.96	47479.03
556.323	47543.67
556.686	47626.15
557.05	47939.36
557.413	48025.01
557.776	48091.45
558.139	48466.58
558.502	48580.47
558.865	48658.44
559.228	49012.78
559.59	49061.82
559.953	49124.41
560.316	49511.07
560.679	49567.11
561.041	49851.85
561.404	49857.28
561.767	50167.55
562.129	50192.41
562.492	50593.08
562.854	50601.44
563.217	50598.05
563.579	50859.51
563.941	50935.89
564.304	51068.77
564.666	51280.29
565.028	51503.79
565.39	51582.2
565.753	51733.84
566.115	51793.5
566.477	51951.01
566.839	52006.37
567.201	52258.57
567.563	52199.59
567.925	52378.57
568.287	52536.08
568.648	52553.48
569.01	52792.79
569.372	52836.41
569.734	52843.41
570.095	53134.48
570.457	53267.13
570.819	53325.89
571.18	53273.23
571.542	53416.51
571.903	53502.6
572.265	53541.25
572.626	53677.97
572.987	53738.76
573.349	53887.68
573.71	53961.12
574.071	54028.69
574.432	54155.24
574.794	54314.79
575.155	54223.04
575.516	54203.15
575.877	54411.73
576.238	54370.83
576.599	54610.82
576.96	54600.2
577.32	54571.28
577.681	54711.39
578.042	54759.07
578.403	54732.4
578.763	54737.6
579.124	54812.85
579.485	54934.66
579.845	54978.27
580.206	54948.44
580.566	55001.55
580.927	54956.8
581.287	55108.66
581.648	55062.11
582.008	55181.43
582.368	55165.39
582.728	55229.79
583.089	55142.79
583.449	55126.06
583.809	55174.2
584.169	55244.93
584.529	55182.56
584.889	55390.46
585.249	55180.98
585.609	55217.59
585.969	55269.56
586.329	55240.64
586.688	55312.27
587.048	55343.91
587.408	55298.94
587.768	55307.98
588.127	55217.36
588.487	55336.68
588.846	55486.51
589.206	55321.09
589.565	55338.94
589.925	55388.66
590.284	55332.84
590.643	55348.43
591.003	55457.58
591.362	55499.39
591.721	55401.76
592.08	55495.77
592.44	55546.84
592.799	55572.38
593.158	55474.76
593.517	55451.71
593.876	55513.63
594.235	55466.85
594.593	55562.44
594.952	55496.45
595.311	55522.44
595.67	55586.84
596.029	55649.89
596.387	55638.37
596.746	55774.18
597.104	55589.1
597.463	55574.41
597.822	55727.86
598.18	55606.05
598.538	55585.71
598.897	55756.78
599.255	55556.56
599.613	55962.65
599.972	55709.78
600.33	55781.87
600.688	55725.6
601.046	55830
601.404	55919.49
601.762	55842.43
602.12	55948.42
602.478	55926.04
602.836	55931.92
603.194	55799.49
603.552	55986.16
603.91	55820.96
604.268	56018.02
604.625	55933.95
604.983	56034.74
605.341	55890.11
605.698	56151.8
606.056	56107.51
606.413	56132.14
606.771	56199.48
607.128	56168.98
607.485	56111.8
607.843	56128.98
608.2	56237.67
608.557	56327.61
608.914	56238.8
609.272	56344.34
609.629	56376.43
609.986	56497.33
610.343	56375.98
610.7	56603.54
611.057	56488.06
611.414	56491.45
611.771	56535.97
612.127	56618.68
612.484	56635.86
612.841	56697.55
613.198	56581.85
613.554	56573.71
613.911	56818.22
614.267	56709.98
614.624	56801.73
614.98	56818.22
615.337	56914.49
615.693	56819.13
616.05	56868.39
616.406	56938.22
616.762	56823.2
617.118	56864.78
617.475	56851.67
617.831	56976.41
618.187	56979.58
618.543	57060.7
618.899	57180.02
619.255	57163.3
619.611	57068.84
619.967	57233.13
620.323	57269.06
620.678	57133.02
621.034	57087.37
621.39	57119.91
621.746	57081.27
622.101	57387.47
622.457	57204.88
622.812	57210.98
623.168	57280.36
623.523	57279.45
623.879	57425.21
624.234	57199.46
624.589	57257.99
624.945	57274.71
625.3	57212.56
625.655	57284.2
626.01	57226.8
626.365	57343.63
626.72	57355.84
627.075	57261.38
627.43	57263.41
627.785	57141.15
628.14	57217.31
628.495	57262.96
628.85	57285.33
629.205	57107.93
629.559	57377.98
629.914	57185.22
630.269	57186.12
630.623	57112.45
630.978	57074.49
631.332	57147.25
631.687	57202.85
632.041	57127.82
632.396	57148.84
632.75	57023.87
633.104	57004.89
633.459	56852.57
633.813	56951.55
634.167	56971.44
634.521	56952.23
634.875	56967.6
635.229	56872.23
635.583	56810.99
635.937	56861.84
636.291	56809.64
636.645	56758.56
636.999	56690.32
637.352	56803.08
637.706	56619.58
638.06	56742.29
638.413	56634.05
638.767	56508.63
639.121	56586.37
639.474	56468.85
639.828	56494.62
640.181	56539.59
640.534	56467.05
640.888	56406.48
641.241	56322.19
641.594	56392.47
641.947	56391.12
642.301	56274.28
642.654	56362.87
643.007	56278.8
643.36	56266.15
643.713	56183.66
644.066	56344.79
644.419	56122.65
644.771	55997.68
645.124	55712.49
645.477	55629.78
645.83	55467.75
646.182	55386.4
646.535	55284.03
646.888	55369.22
647.24	55191.37
647.593	55371.03
647.945	55293.97
648.298	55163.13
648.65	55168.55
649.002	55105.27
649.355	55206.97
649.707	55090.36
650.059	55202.45
650.411	55495.09
650.763	55599.5
651.115	55762.88
651.467	55663.23
651.819	55703.68
652.171	55609.44
652.523	55566.05
652.875	55580.29
653.227	55466.17
653.578	55698.03
653.93	55586.84
654.282	55411.71
654.633	55351.14
654.985	55362.22
655.337	55412.84
655.688	55364.02
656.039	55465.26
656.391	55181.66
656.742	55229.34
657.094	55192.05
657.445	55357.47
657.796	55215.55
658.147	55240.64
658.498	55201.32
658.849	55219.62
659.2	55218.27
659.551	55111.83
659.902	55164.26
660.253	55163.13
660.604	55121.54
660.955	55034.32
661.306	55073.64
661.656	55033.19
662.007	55017.37
662.358	55049
662.708	54960.19
663.059	54997.03
663.409	54859.63
663.76	54910.03
664.11	54961.78
664.461	54967.42
664.811	54884.94
665.161	54935.34
665.511	54872.29
665.862	54920.65
666.212	54969.01
666.562	54909.57
666.912	54855.56
667.262	54887.43
667.612	54856.47
667.962	54833.64
668.312	54685.62
668.662	54802.23
669.011	54674.1
669.361	54704.61
669.711	54657.6
670.06	54693.76
670.41	54570.83
670.76	54603.59
671.109	54628.9
671.459	54599.52
671.808	54451.73
672.157	54607.43
672.507	54398.17
672.856	54432.98
673.205	54545.51
673.554	54553.88
673.904	54426.65
674.253	54547.32
674.602	54390.72
674.951	53989.15
675.3	53833.67
675.649	54343.03
675.998	54350.72
676.346	54300.32
676.695	54395.24
677.044	54088.8
677.393	54250.16
677.741	54267.1
678.09	54158.86
678.438	54065.53
678.787	54189.37
679.135	54124.74
679.484	53945.98
679.832	53992.31
680.181	53873.44
680.529	53953.89
680.877	53848.36
681.225	53817.4
681.573	53895.81
681.922	53870.96
682.27	53702.83
682.618	53779.21
682.966	53525.65
683.314	53530.4
683.661	53495.37
684.009	53371.31
684.357	53383.06
684.705	53321.14
685.053	53267.13
685.4	53229.84
685.748	53178.09
686.095	53064.88
686.443	52994.14
686.79	52936.97
687.138	52922.51
687.485	52913.69
687.832	52780.36
688.18	52773.81
688.527	52529.75
688.874	52539.47
689.221	52481.84
689.568	52366.82
689.915	52340.38
690.262	52297.66
690.609	52113.71
690.956	52131.57
691.303	52040.5
691.65	51846.38
691.997	51984.45
692.344	51750.11
692.69	51679.6
693.037	51710.11
693.383	51356.45
693.73	51573.39
694.077	51350.12
694.423	51391.25
694.769	51261.31
695.116	51203.91
695.462	51103.8
695.808	50937.7
696.155	51021.54
696.501	50707.65
696.847	50785.84
697.193	50562.79
697.539	50687.54
697.885	50484.6
698.231	50386.3
698.577	50264.27
698.923	50228.11
699.269	50040.77
699.614	49897.05
699.96	49831.51
700.306	49908.12
700.651	49590.39
700.997	49498.19
701.342	49445.31
701.688	49398.98
702.033	49348.14
702.379	49210.06
702.724	49111.08
703.069	49085.09
703.415	48777.76
703.76	48892.78
704.105	48843.07
704.45	48688.72
704.795	48555.84
705.14	48413.25
705.485	48368.05
705.83	48139.81
706.175	48311.55
706.52	48111.79
706.865	48055.29
707.209	47974.84
707.554	47899.81
707.899	47887.16
708.243	47688.75
708.588	47656.66
708.932	47369.43
709.277	47371.47
709.621	47421.41
709.966	47225.48
710.31	47208.53
710.654	46842.44
710.998	46869.78
711.342	46950.46
711.687	46817.36
712.031	46601.99
712.375	46563.35
712.719	46658.94
713.063	46489.68
713.407	46555.22
713.75	46299.63
714.094	46352.96
714.438	46152.29
714.782	46235.45
715.125	46006.3
715.469	46086.75
715.812	45930.83
716.156	45510.05
716.499	45679.31
716.843	45766.76
717.186	45589.37
717.53	45715.92
717.873	45501.23
718.216	45338.75
718.559	45289.94
718.902	45073.45
719.246	45217.85
719.589	45103.5
719.932	44864.41
720.275	44753.23
720.617	44803.4
720.96	44844.3
721.303	44799.1
721.646	44691.31
721.989	44407.48
722.331	44588.04
722.674	44390.08
723.016	44399.57
723.359	44286.12
723.701	44407.7
724.044	44110.99
724.386	43819.24
724.729	44226.69
725.071	43922.74
725.413	43929.3
725.755	43791.9
726.097	43687.95
726.439	43520.72
726.782	43545.58
727.124	43731.79
727.465	43476.43
727.807	43470.78
728.149	43419.25
728.491	43283.44
728.833	43326.37
729.175	43122.76
729.516	42888.87
729.858	42787.86
730.199	43011.35
730.541	42925.93
730.882	42826.73
731.224	42838.93
731.565	42624.92
731.906	42685.26
732.248	42582.44
732.589	42428.32
732.93	42374.99
733.271	42404.14
733.612	42256.57
733.953	42307.87
734.294	42021.78
734.635	41992.85
734.976	42104.94
735.317	42063.58
735.658	41937.03
735.999	41946.3
736.339	41911.72
736.68	41767.32
737.021	41692.75
737.361	41659.07
737.702	41789.24
738.042	41569.36
738.383	41328.91
738.723	41605.29
739.063	41288.24
739.404	41438.74
739.744	41281.68
740.084	41013.44
740.424	41210.27
740.764	41246.88
741.104	41306.77
741.444	40983.39
741.784	40863.39
742.124	40979.32
742.464	40794.69
742.804	40634.02
743.143	40748.36
743.483	40657.74
743.823	40481.48
744.162	40437.86
744.502	40504.53
744.841	40316.96
745.181	40395.38
745.52	40155.61
745.86	40376.85
746.199	40265.89
746.538	40195.84
746.877	40162.84
747.216	40215.72
747.556	40002.85
747.895	40005.33
748.234	39884.88
748.573	39618.68
748.911	39709.07
749.25	39781.16
749.589	39632.91
749.928	39577.77
750.267	39500.94
750.605	39471.79
750.944	39402.18
751.283	39207.61
751.621	39224.11
751.96	39003.55
752.298	38995.42
752.636	38954.74
752.975	38852.59
753.313	38666.16
753.651	38787.29
753.989	38496.45
754.327	38560.85
754.666	38340.97
755.004	38341.87
755.342	38334.87
755.679	38316.56
756.017	37989.79
756.355	38043.8
756.693	37859.85
757.031	37910.02
757.368	37704.83
757.706	37583.02
758.044	37500.99
758.381	37496.92
758.719	37378.28
759.056	37481.78
759.394	37197.95
759.731	36941.46
760.068	37011.74
760.405	36841.8
760.743	36826.21
761.08	36785.98
761.417	36641.13
761.754	36702.59
762.091	36450.62
762.428	36342.38
762.765	36087.02
763.102	36305.32
763.438	35989.84
763.775	35782.39
764.112	35746.46
764.449	35702.17
764.785	35617.88
765.122	35367.71
765.458	35290.2
765.795	35264.89
766.131	35208.4
766.467	35020.6
766.804	34951.91
767.14	34729.99
767.476	34765.02
767.812	34521.41
768.148	34596.43
768.485	34333.17
768.821	34130.91
769.157	34256.78
769.492	34036.9
769.828	33996.68
770.164	33649.12
770.5	33730.24
770.836	33598.95
771.171	33450.7
771.507	33440.08
771.842	33177.94
772.178	32996.48
772.513	33095.91
772.849	32928.91
773.184	32849.59
773.519	32814.56
773.855	32642.36
774.19	32503.61
774.525	32364.86
774.86	32390.62
775.195	32250.96
775.53	32083.28
775.865	31900.69
776.2	31793.8
776.535	31612.33
776.87	31661.14
777.205	31595.84
777.539	31240.37
777.874	31205.11
778.209	31016.87
778.543	31018.68
778.878	30715.86
779.212	30891
779.547	30602.42
779.881	30710.66
780.215	30277.9
780.55	30510.67
780.884	30245.14
781.218	30178.47
781.552	30123.56
781.886	29984.13
782.22	29790.69
782.554	29584.14
782.888	29518.15
783.222	29316.57
783.556	29356.12
783.889	29114.09
784.223	29072.06
784.557	29061.21
784.89	29008.79
785.224	28739.87
785.557	28638.17
785.891	28699.87
786.224	28558.85
786.558	28449.93
786.891	28107.11
787.224	28148.92
787.557	28009.26
787.891	28155.02
788.224	27968.36
788.557	27845.88
788.89	27876.84
789.223	27714.58
789.556	27499.67
789.888	27479.56
790.221	27245.67
790.554	27194.14
790.887	27337.19
791.219	27056.29
791.552	27064.43
791.884	26846.36
792.217	26840.25
792.549	26714.16
792.882	26565.01
793.214	26525.46
793.546	26396.65
793.879	26302.19
794.211	26158.01
794.543	26164.11
794.875	26154.62
795.207	26101.29
795.539	25988.53
795.871	26032.82
796.203	25728.65
796.535	25613.85
796.867	25577.01
797.198	25639.38
797.53	25450.23
797.862	25253.4
798.193	25325.72
798.525	25153.52
798.856	25205.04
799.188	24861.55
799.519	24911.27
799.85	24769.8
800.182	24784.49
800.513	24722.57
800.844	24522.35
801.175	24651.61
801.506	24530.71
801.837	24329.81
802.168	24361.45
802.499	24291.4
802.83	24192.87
803.161	24161.68
803.491	23981.8
803.822	24002.82
804.153	23929.82
804.483	23823.61
804.814	23614.58
805.145	23633.56
805.475	23665.65
805.805	23561.02
806.136	23498.42
806.466	23441.47
806.796	23482.15
807.126	23190.18
807.457	23166.45
807.787	23278.09
808.117	23153.35
808.447	22972.79
808.777	23073.35
809.107	22955.61
809.436	22865.67
809.766	22680.59
810.096	22719.69
810.426	22660.03
810.755	22592.68
811.085	22543.64
811.414	22508.17
811.744	22347.27
812.073	22229.3
812.403	22306.81
812.732	22183.43
813.061	22264.33
813.39	22053.49
813.719	22001.51
814.049	22105.69
814.378	21959.93
814.707	21891.91
815.036	21859.37
815.365	21757.22
815.693	21585.48
816.022	21587.96
816.351	21452.6
816.68	21409.89
817.008	21474.07
817.337	21320.85
817.665	21289.21
817.994	21339.61
818.322	21245.15
818.651	21205.15
818.979	21040.63
819.307	21076.56
819.636	21005.15
819.964	20924.25
820.292	20967.19
820.62	21006.51
820.948	20949.11
821.276	20990.92
821.604	20855.33
821.932	20885.38
822.259	20910.02
822.587	20944.59
822.915	20778.49
823.243	20879.51
823.57	20718.38
823.898	20739.4
824.225	20745.95
824.553	20644.94
824.88	20729.68
825.207	20896.23
825.535	20776.46
825.862	20853.97
826.189	20633.19
826.516	20704.37
826.843	20875.44
827.17	20805.84
827.497	20778.49
827.824	20813.75
828.151	20787.53
828.478	20737.59
828.805	20714.99
829.131	20741.43
829.458	20585.96
829.785	20684.26
830.111	20743.47
830.438	20841.09
830.764	20600.19
831.09	20714.09
831.417	20519.74
831.743	20679.29
832.069	20589.35
832.395	20611.49
832.722	20632.51
833.048	20478.84
833.374	20572.85
833.7	20546.41
834.026	20542.79
834.351	20590.48
834.677	20497.37
835.003	20544.15
835.329	20533.75
835.654	20464.6
835.98	20404.04
836.306	20468.44
836.631	20295.57
836.956	20363.14
837.282	20277.49
837.607	20192.97
837.932	20148
838.258	20154.33
838.583	20155.23
838.908	19998.4
839.233	20012.86
839.558	20035.46
839.883	19928.12
840.208	19968.8
840.533	19896.03
840.858	19899.19
841.182	19938.06
841.507	19800.44
841.832	19731.06
842.156	19697.39
842.481	19777.16
842.805	19621.69
843.13	19491.75
843.454	19579.65
843.778	19465.53
844.103	19482.93
844.427	19430.51
844.751	19382.37
845.075	19310.06
845.399	19235.71
845.723	19112.77
846.047	19124.75
846.371	18962.95
846.695	18971.08
847.019	18849.73
847.343	18779.22
847.666	18574.48
847.99	18688.15
848.313	18499.68
848.637	18416.75
848.96	18412
849.284	18386.01
849.607	18221.5
849.931	18230.76
850.254	18042.75
850.577	17959.13
850.9	17887.95
851.223	17941.28
851.546	17842.07
851.869	17649.54
852.192	17822.41
852.515	17601.18
852.838	17469.88
853.161	17512.14
853.483	17379.03
853.806	17340.62
854.129	17311.24
854.451	17281.86
854.774	17159.38
855.096	17042.77
855.419	17035.99
855.741	17046.16
856.063	16888.43
856.385	16950.57
856.708	16862.21
857.03	16739.28
857.352	16861.99
857.674	16731.37
857.996	16646.85
858.318	16508.1
858.64	16460.41
858.961	16569.56
859.283	16498.83
859.605	16327.08
859.926	16375.67
860.248	16297.48
860.57	16270.82
860.891	16245.28
861.212	16153.3
861.534	16105.62
861.855	16055.91
862.176	16049.13
862.498	16003.93
862.819	15972.07
863.14	15926.42
863.461	15928
863.782	15938.85
864.103	15984.04
864.424	15857.94
864.745	15977.94
865.065	15774.56
865.386	15707.89
865.707	15670.6
866.027	15721
866.348	15601.91
866.668	15618.4
866.989	15631.96
867.309	15590.61
867.63	15612.3
867.95	15512.87
868.27	15429.93
868.59	15383.61
868.91	15349.94
869.23	15422.93
869.55	15205.31
869.87	15398.07
870.19	15338.86
870.51	15382.93
870.83	15393.1
871.15	15226.77
871.469	15199.43
871.789	15195.59
872.109	15136.83
872.428	15092.32
872.748	15086.44
873.067	15096.16
873.386	15196.95
873.706	15027.01
874.025	14990.62
874.344	15034.01
874.663	14996.27
874.982	14867.46
875.301	14946.1
875.62	14869.04
875.939	14894.13
876.258	14819.1
876.577	14743.62
876.896	14765.77
877.214	14659.78
877.533	14729.84
877.852	14716.28
878.17	14655.72
878.489	14673.34
878.807	14692.78
879.125	14650.74
879.444	14544.98
879.762	14581.37
880.08	14512.44
880.398	14480.13
880.716	14472.9
881.034	14435.84
881.352	14474.25
881.67	14364.2
881.988	14345.89
882.306	14332.34
882.624	14243.75
882.941	14301.38
883.259	14184.77
883.577	14115.39
883.894	14154.03
884.212	14117.65
884.529	14093.7
884.846	14058.44
885.164	14047.82
885.481	13975.96
885.798	14029.29
886.115	13826.36
886.432	13871.56
886.75	13809.41
887.067	13852.57
887.383	13745.68
887.7	13787.49
888.017	13707.72
888.334	13761.73
888.651	13699.58
888.967	13615.29
889.284	13515.86
889.6	13505.69
889.917	13370.1
890.233	13544.11
890.55	13442.19
890.866	13491.45
891.182	13342.98
891.498	13334.17
891.815	13247.62
892.131	13190.22
892.447	13276.09
892.763	13154.06
893.079	13135.3
893.395	13085.59
893.71	13110.67
894.026	13030.45
894.342	12958.36
894.657	12967.4
894.973	12789.32
895.289	12857.12
895.604	12780.29
895.92	12676.33
896.235	12639.95
896.55	12650.8
896.865	12613.06
897.181	12619.84
897.496	12524.92
897.811	12488.32
898.126	12483.57
898.441	12419.39
898.756	12331.94
899.071	12225.05
899.386	12331.94
899.7	12199.74
900.015	12145.27
900.33	12093.75
900.644	12116.12
900.959	12135.56
901.273	12080.64
901.588	11985.96
901.902	11857.82
902.216	11848.11
902.531	11837.26
902.845	11779.41
903.159	11719.97
903.473	11731.27
903.787	11602.24
904.101	11606.98
904.415	11571.73
904.729	11592.75
905.042	11433.43
905.356	11408.57
905.67	11371.73
905.984	11392.07
906.297	11296.93
906.611	11254.45
906.924	11239.08
907.237	11203.15
907.551	11117.73
907.864	11159.99
908.177	11002.03
908.491	11037.28
908.804	11000.45
909.117	10917.28
909.43	10759.32
909.743	10819.21
910.056	10760.9
910.368	10727.91
910.681	10639.1
910.994	10653.56
911.307	10630.06
911.619	10523.85
911.932	10616.95
912.244	10462.38
912.557	10426.22
912.869	10410.63
913.181	10365.66
913.494	10291.31
913.806	10252.89
914.118	10171.99
914.43	10126.34
914.742	10123.41
915.054	10050.19
915.366	9967.03
915.678	10012.22
915.99	9953.69
916.302	9803.87
916.613	9800.25
916.925	9768.16
917.236	9815.84
917.548	9717.32
917.859	9749.4
918.171	9616.53
918.482	9596.41
918.794	9601.84
919.105	9608.62
919.416	9448.62
919.727	9464.67
920.038	9415.63
920.349	9317.33
920.66	9351
920.971	9341.28
921.282	9278.68
921.593	9235.52
921.903	9125.69
922.214	9078.24
922.525	9104.22
922.835	9084.11
923.146	9017.9
923.456	8950.56
923.767	8903.33
924.077	8939.93
924.387	8840.05
924.697	8801.18
925.008	8823.55
925.318	8784.91
925.628	8770.45
925.938	8696.33
926.248	8567.74
926.558	8576.55
926.867	8578.59
927.177	8599.15
927.487	8508.31
927.796	8380.85
928.106	8411.13
928.416	8363.68
928.725	8388.76
929.034	8308.99
929.344	8318.93
929.653	8251.82
929.962	8179.73
930.271	8195.32
930.581	8163.23
930.89	8082.1
931.199	8055.44
931.508	8060.64
931.817	8046.4
932.125	7984.25
932.434	7958.94
932.743	7845.73
933.051	7866.52
933.36	7789.46
933.669	7734.54
933.977	7687.54
934.286	7717.59
934.594	7700.19
934.902	7645.73
935.21	7571.61
935.519	7527.99
935.827	7516.47
936.135	7434.66
936.443	7447.32
936.751	7316.7
937.059	7369.81
937.367	7364.61
937.674	7314.89
937.982	7261.33
938.29	7289.58
938.597	7248
938.905	7087.78
939.213	7135.01
939.52	7073.99
939.827	7128.91
940.135	7053.2
940.442	7045.52
940.749	6946.54
941.056	6977.27
941.363	6901.34
941.67	6866.32
941.977	6835.36
942.284	6857.05
942.591	6821.8
942.898	6802.82
943.205	6800.78
943.511	6708.35
943.818	6692.31
944.125	6659.09
944.431	6608.47
944.738	6638.3
945.044	6617.96
945.35	6555.14
945.657	6504.07
945.963	6476.04
946.269	6402.37
946.575	6429.49
946.881	6360.34
947.187	6390.62
947.493	6332.09
947.799	6299.78
948.105	6267.24
948.41	6210.97
948.716	6216.62
949.022	6133.91
949.327	6150.4
949.633	6087.35
949.938	6087.58
950.244	6097.3
950.549	6099.33
950.854	6060.91
951.16	6006
951.465	5987.24
951.77	5930.07
952.075	5947.24
952.38	5877.64
952.685	5906.12
952.99	5827.02
953.294	5791.77
953.599	5790.86
953.904	5771.43
954.209	5740.92
954.513	5744.76
954.818	5665.67
955.122	5696.86
955.426	5704.99
955.731	5613.24
956.035	5570.31
956.339	5575.73
956.643	5561.04
956.948	5567.37
957.252	5522.17
957.556	5505.67
957.86	5495.73
958.163	5455.96
958.467	5457.09
958.771	5392.23
959.075	5400.59
959.378	5334.38
959.682	5324.44
959.985	5269.75
960.289	5274.27
960.592	5265.23
960.896	5205.34
961.199	5157.21
961.502	5127.83
961.805	5121.73
962.108	5112.92
962.411	5108.4
962.714	5071.34
963.017	5019.36
963.32	5078.34
963.623	4987.5
963.926	5037.66
964.228	4936.88
964.531	5001.51
964.833	4904.33
965.136	4849.65
965.438	4912.7
965.741	4858.23
966.043	4791.34
966.345	4785.69
966.648	4762.42
966.95	4745.02
967.252	4683.1
967.554	4689.65
967.856	4692.59
968.158	4678.58
968.46	4630.67
968.761	4568.3
969.063	4596.77
969.365	4586.15
969.666	4540.28
969.968	4491.24
970.269	4501.18
970.571	4490.33
970.872	4468.87
971.174	4453.95
971.475	4426.38
971.776	4466.15
972.077	4393.16
972.378	4391.13
972.679	4403.33
972.98	4324.69
973.281	4332.82
973.582	4303.67
973.883	4269.55
974.183	4276.78
974.484	4290.79
974.785	4271.36
975.085	4196.56
975.386	4231.58
975.686	4188.65
975.986	4154.07
976.287	4124.02
976.587	4115.65
976.887	4115.88
977.187	4130.57
977.487	4090.34
977.787	4061.42
978.087	4068.65
978.387	4012.83
978.687	3993.17
978.987	3987.52
979.286	3968.09
979.586	3918.6
979.885	3934.64
980.185	3905.94
980.484	3879.05
980.784	3901.65
981.083	3828.2
981.382	3867.75
981.682	3841.76
981.981	3797.7
982.28	3775.1
982.579	3743.46
982.878	3787.75
983.177	3719.28
983.475	3710.69
983.774	3706.17
984.073	3703.24
984.372	3645.16
984.67	3620.53
984.969	3648.77
985.267	3632.73
985.566	3599.96
985.864	3578.95
986.162	3568.55
986.461	3524.26
986.759	3528.55
987.057	3483.35
987.355	3504.82
987.653	3461.43
987.951	3444.26
988.249	3455.33
988.547	3407.42
988.844	3432.96
989.142	3406.07
989.44	3371.04
989.737	3358.16
990.035	3354.09
990.332	3355.9
990.63	3345.96
990.927	3312.29
991.224	3294.43
991.521	3311.61
991.819	3241.55
992.116	3251.04
992.413	3216.7
992.71	3215.57
993.006	3156.58
993.303	3173.31
993.6	3174.21
993.897	3149.58
994.193	3131.27
994.49	3097.83
994.787	3094.66
995.083	3062.12
995.379	3099.86
995.676	3005.85
995.972	3037.72
996.268	3010.15
996.565	3002.24
996.861	2978.06
997.157	2943.48
997.453	2942.8
997.749	2929.02
998.044	2908.23
998.34	2895.35
998.636	2886.53
998.932	2901.45
999.227	2828.91
999.523	2826.87
999.818	2843.6
1000.114	2808.12
1000.409	2788.68
1000.704	2755.92
1001	2751.4
1001.295	2760.66
1001.59	2735.58
1001.885	2705.07
1002.18	2683.38
1002.475	2716.6
1002.77	2689.7
1003.065	2687.67
1003.359	2681.79
1003.654	2637.73
1003.949	2652.19
1004.243	2616.48
1004.538	2587.33
1004.832	2569.25
1005.127	2569.71
1005.421	2526.77
1005.715	2489.26
1006.009	2519.09
1006.304	2482.03
1006.598	2453.1
1006.892	2504.4
1007.186	2456.26
1007.48	2440.22
1007.773	2431.4
1008.067	2382.59
1008.361	2377.85
1008.655	2388.02
1008.948	2378.07
1009.242	2356.38
1009.535	2372.42
1009.829	2345.53
1010.122	2295.36
1010.415	2306.89
1010.708	2263.05
1011.001	2253.56
1011.295	2264.86
1011.588	2202.48
1011.881	2237.96
1012.173	2194.12
1012.466	2213.11
1012.759	2192.77
1013.052	2180.11
1013.344	2171.3
1013.637	2157.97
1013.93	2127.91
1014.222	2102.6
1014.514	2102.83
1014.807	2101.47
1015.099	2110.96
1015.391	2047.23
1015.683	2044.3
1015.976	2074.58
1016.268	2078.87
1016.56	2042.26
1016.851	1992.09
1017.143	2007.69
1017.435	2004.98
1017.727	1966.33
1018.018	1971.76
1018.31	1943.51
1018.602	1939.44
1018.893	1936.28
1019.185	1882.27
1019.476	1889.5
1019.767	1857.18
1020.058	1851.08
1020.35	1838.2
1020.641	1827.13
1020.932	1827.58
1021.223	1803.4
1021.514	1815.15
1021.804	1776.96
1022.095	1788.48
1022.386	1757.75
1022.677	1734.47
1022.967	1730.63
1023.258	1745.55
1023.548	1698.54
1023.839	1740.12
1024.129	1705.55
1024.419	1669.62
1024.709	1661.71
1025	1649.73
1025.29	1656.06
1025.58	1623.97
1025.87	1631.2
1026.16	1611.54
1026.449	1596.17
1026.739	1606.34
1027.029	1594.59
1027.319	1550.07
1027.608	1539.68
1027.898	1540.35
1028.187	1546
1028.477	1508.94
1028.766	1481.37
1029.055	1489.96
1029.344	1462.84
1029.634	1511.2
1029.923	1463.97
1030.212	1453.35
1030.501	1456.74
1030.79	1451.09
1031.078	1401.15
1031.367	1397.08
1031.656	1415.39
1031.945	1393.92
1032.233	1364.31
1032.522	1368.61
1032.81	1350.98
1033.099	1363.86
1033.387	1387.59
1033.675	1365.67
1033.963	1336.97
1034.251	1337.2
1034.54	1296.97
1034.828	1302.85
1035.116	1309.85
1035.403	1290.64
1035.691	1257.65
1035.979	1278.89
1036.267	1281.83
1036.554	1239.12
1036.842	1255.62
1037.129	1218.56
1037.417	1210.87
1037.704	1194.38
1037.992	1226.46
1038.279	1177.2
1038.566	1190.99
1038.853	1190.99
1039.14	1190.99
