Data from whiteboard_FLMS001491_00060.txt Node
Date: Wed Feb 08 11:27:07 GMT 2017
User: dcchb
Spectrometer: FLMS00149
Trigger mode: 0
Integration Time (sec): 2.000000E-2
Scans to average: 10
Electric dark correction enabled: true
Nonlinearity correction enabled: false
Boxcar width: 0
XAxis mode: Wavelengths
Number of Pixels in Spectrum: 2048
>>>>>Begin Spectral Data<<<<<
341.393	7.99
341.776	7.99
342.16	7.99
342.543	-54.6
342.927	-73.59
343.31	-59.12
343.693	-67.03
344.077	-72.46
344.46	-58.22
344.843	-51.21
345.226	-63.42
345.61	-32.46
345.993	-23.19
346.376	-13.47
346.759	11.61
347.142	31.5
347.525	52.74
347.908	77.82
348.291	73.53
348.674	85.73
349.057	107.65
349.44	137.48
349.823	149.01
350.206	183.36
350.588	201.66
350.971	211.38
351.354	242.56
351.737	269.91
352.119	262.45
352.502	292.28
352.884	308.78
353.267	309.68
353.65	313.3
354.032	332.28
354.414	316.91
354.797	353.3
355.179	350.58
355.562	347.65
355.944	337.93
356.326	344.26
356.709	358.49
357.091	387.42
357.473	362.11
357.855	363.69
358.238	363.92
358.62	347.42
359.002	362.11
359.384	365.27
359.766	374.31
360.148	358.49
360.53	361.21
360.912	387.42
361.294	349.45
361.676	380.41
362.057	348.32
362.439	341.77
362.821	360.75
363.203	352.84
363.584	364.59
363.966	356.69
364.348	362.56
364.729	352.17
365.111	341.77
365.493	378.61
365.874	354.65
366.256	363.24
366.637	339.06
367.019	361.43
367.4	365.95
367.781	345.84
368.163	363.24
368.544	354.43
368.925	358.49
369.306	355.78
369.688	364.82
370.069	361.88
370.45	360.53
370.831	377.48
371.212	365.5
371.593	351.26
371.974	365.05
372.355	350.36
372.736	365.95
373.117	370.02
373.498	331.38
373.879	363.24
374.26	388.1
374.641	377.7
375.021	365.5
375.402	371.6
375.783	361.66
376.163	398.72
376.544	386.97
376.925	394.88
377.305	375.67
377.686	387.65
378.066	400.07
378.447	409.34
378.827	397.14
379.208	387.87
379.588	390.13
379.968	393.97
380.349	402.56
380.729	408.89
381.109	402.11
381.489	397.36
381.87	415.89
382.25	416.34
382.63	432.62
383.01	442.78
383.39	421.77
383.77	423.35
384.15	451.37
384.53	436.01
384.91	413.18
385.29	445.04
385.67	442.11
386.049	463.58
386.429	461.32
386.809	455.89
387.189	474.65
387.568	480.98
387.948	484.82
388.328	490.92
388.707	478.94
389.087	496.57
389.466	504.93
389.846	513.74
390.225	527.75
390.605	487.08
390.984	518.94
391.363	515.55
391.743	529.34
392.122	525.49
392.501	561.43
392.881	538.15
393.26	581.09
393.639	570.01
394.018	546.74
394.397	568.88
394.776	582.67
395.155	565.27
395.534	609.56
395.913	621.76
396.292	627.41
396.671	632.38
397.05	624.48
397.429	631.48
397.808	645.94
398.186	652.27
398.565	662.21
398.944	662.44
399.323	689.11
399.701	694.76
400.08	718.94
400.458	715.77
400.837	726.62
401.215	747.86
401.594	764.81
401.972	762.1
402.351	782.89
402.729	771.14
403.107	813.17
403.486	805.04
403.864	837.12
404.242	837.35
404.62	870.8
404.999	858.59
405.377	874.19
405.755	909.44
406.133	921.64
406.511	936.33
406.889	966.84
407.267	961.64
407.645	965.71
408.023	1004.35
408.401	1022.43
408.779	1045.03
409.156	1069.21
409.534	1081.19
409.912	1091.81
410.29	1120.73
410.667	1133.39
411.045	1149.89
411.422	1159.38
411.8	1210.9
412.178	1211.35
412.555	1260.84
412.933	1300.62
413.31	1285.7
413.687	1311.91
414.065	1381.97
414.442	1351.24
414.819	1368.86
415.197	1435.98
415.574	1424.45
415.951	1458.13
416.328	1479.37
416.705	1481.4
417.082	1507.62
417.46	1543.32
417.837	1573.38
418.214	1576.31
418.591	1595.52
418.967	1618.8
419.344	1626.93
419.721	1621.96
420.098	1678.01
420.475	1683.66
420.852	1723.2
421.228	1716.42
421.605	1730.89
421.982	1736.99
422.358	1794.84
422.735	1812.92
423.111	1838.23
423.488	1850.21
423.864	1902.41
424.241	1913.03
424.617	1925.46
424.994	1959.36
425.37	1951.45
425.746	1949.19
426.123	2020.6
426.499	1990.54
426.875	2029.64
427.251	2094.27
427.627	2155.06
428.003	2157.54
428.379	2207.48
428.756	2191.44
429.132	2241.38
429.507	2280.7
429.883	2336.52
430.259	2332
430.635	2374.03
431.011	2407.93
431.387	2493.13
431.763	2523.63
432.138	2532
432.514	2547.14
432.89	2565.67
433.265	2631.43
433.641	2705.55
434.016	2685.44
434.392	2741.03
434.767	2805.21
435.143	2800.46
435.518	2839.33
435.894	2870.52
436.269	2922.04
436.644	2957.97
437.02	2987.8
437.395	3009.05
437.77	3037.29
438.145	3087.46
438.52	3116.61
438.895	3171.75
439.271	3192.77
439.646	3231.41
440.021	3251.52
440.395	3307.79
440.77	3275.7
441.145	3332.43
441.52	3322.48
441.895	3379.2
442.27	3428.7
442.645	3377.4
443.019	3462.82
443.394	3475.93
443.769	3505.3
444.143	3511.63
444.518	3585.98
444.892	3583.95
445.267	3634.11
445.641	3642.7
446.016	3693.77
446.39	3719.08
446.764	3742.36
447.139	3747.56
447.513	3780.78
447.887	3822.81
448.262	3807.67
448.636	3910.26
449.01	3901.45
449.384	3955.23
449.758	4016.48
450.132	4022.58
450.506	4071.84
450.88	4102.8
451.254	4105.74
451.628	4166.53
452.002	4214.21
452.376	4286.98
452.75	4316.58
453.123	4394.55
453.497	4432.96
453.871	4473.41
454.244	4561.32
454.618	4608.33
454.992	4638.38
455.365	4661.66
455.739	4765.84
456.112	4810.81
456.486	4853.29
456.859	4922.67
457.232	4979.39
457.606	5008.54
457.979	5102.32
458.352	5190
458.725	5260.06
459.099	5262.77
459.472	5392.49
459.845	5480.84
460.218	5523.33
460.591	5544.8
460.964	5561.07
461.337	5714.74
461.71	5769.88
462.083	5862.98
462.456	5916.31
462.829	5921.28
463.201	6069.53
463.574	6059.59
463.947	6123.99
464.32	6246.93
464.692	6369.18
465.065	6398.11
465.438	6538.67
465.81	6651.89
466.183	6706.58
466.555	6854.14
466.928	6877.87
467.3	6891.2
467.672	7038.54
468.045	7209.61
468.417	7241.7
468.789	7324.19
469.161	7414.81
469.534	7513.79
469.906	7666.78
470.278	7765.76
470.65	7828.13
471.022	8047.78
471.394	8151.28
471.766	8205.52
472.138	8339.53
472.51	8559.18
472.882	8617.26
473.253	8726.41
473.625	8888.66
473.997	9141.31
474.369	9064.48
474.74	9239.62
475.112	9397.8
475.484	9643
475.855	9709.66
476.227	9777
476.598	10077.79
476.97	10194.62
477.341	10440.04
477.713	10515.06
478.084	10654.27
478.455	10882.28
478.827	11021.04
479.198	11439.33
479.569	11412.21
479.94	11714.13
480.311	11756.39
480.682	12044.74
481.053	12352.75
481.424	12458.97
481.795	12631.62
482.166	12844.72
482.537	13034.32
482.908	13321.99
483.279	13411.48
483.65	13777.8
484.021	14013.73
484.391	14154.74
484.762	14259.6
485.133	14364.9
485.503	14545.24
485.874	14835.63
486.244	15041.05
486.615	15343.64
486.985	15484.2
487.356	15822.49
487.726	15926.22
488.097	16281.92
488.467	16321.24
488.837	16682.81
489.207	16970.49
489.578	17104.95
489.948	17320.08
490.318	17542
490.688	17649.79
491.058	17970.91
491.428	18290.68
491.798	18465.59
492.168	18825.13
492.538	18907.38
492.908	19107.38
493.278	19331.55
493.648	19420.14
494.017	19662.62
494.387	19848.6
494.757	20010.18
495.126	20173.11
495.496	20298.31
495.866	20486.78
496.235	20738.07
496.605	20938.07
496.974	20950.49
497.344	21286.08
497.713	21401.56
498.082	21517.71
498.452	21736.24
498.821	21711.83
499.19	21917.25
499.559	22153.85
499.928	22300.06
500.298	22508.87
500.667	22662.77
501.036	22659.83
501.405	22871.12
501.774	22968.75
502.143	23170.77
502.512	23232.92
502.88	23489.41
503.249	23444.67
503.618	23588.17
503.987	23813.92
504.356	24011.66
504.724	24153.35
505.093	24158.55
505.462	24448.48
505.83	24457.07
506.199	24834.23
506.567	25135.7
506.936	25002.59
507.304	25359.87
507.672	25442.13
508.041	25555.35
508.409	25799.18
508.777	26032.39
509.145	26283.69
509.514	26286.17
509.882	26556.22
510.25	26572.72
510.618	26912.6
510.986	26942.2
511.354	27328.18
511.722	27451.57
512.09	27742.63
512.458	27830.54
512.826	28078.67
513.193	28221.49
513.561	28293.8
513.929	28668.71
514.297	28835.94
514.664	28964.52
515.032	29150.05
515.4	29455.58
515.767	29469.14
516.135	29753.88
516.502	29645.41
516.869	30227.54
517.237	30354.77
517.604	30411.26
517.972	30666.4
518.339	30975.77
518.706	31018.93
519.073	31216.89
519.44	31343.67
519.808	31875.63
520.175	31944.56
520.542	32254.38
520.909	32467.71
521.276	32333.47
521.643	32668.6
522.009	32937.75
522.376	33283.05
522.743	33479.88
523.11	33709.93
523.477	34005.07
523.843	34276.47
524.21	34584.49
524.577	34777.93
524.943	35112.38
525.31	35205.71
525.676	35578.58
526.043	35698.13
526.409	35894.28
526.776	36353.25
527.142	36409.52
527.508	36626.92
527.874	36882.05
528.241	36939.23
528.607	37164.31
528.973	37553.9
529.339	37457.86
529.705	37888.58
530.071	38052.87
530.437	38391.39
530.803	38521.11
531.169	38744.6
531.535	38779.4
531.901	38890.14
532.267	39072.5
532.632	39401.53
532.998	39541.42
533.364	39596.11
533.73	39842.43
534.095	40256.2
534.461	40262.3
534.826	40432.47
535.192	40676.98
535.557	40937.31
535.923	40901.16
536.288	41024.09
536.653	41268.15
537.019	41261.6
537.384	41644.41
537.749	41719.44
538.114	41919.89
538.479	42064.29
538.845	42170.5
539.21	42261.35
539.575	42434.45
539.94	42636.93
540.305	42987.2
540.67	42926.64
541.034	43015
541.399	43154.43
541.764	43560.3
542.129	43640.29
542.494	43663.12
542.858	43989.66
543.223	44064.01
543.587	44388.75
543.952	44232.59
544.316	44456.77
544.681	44406.6
545.045	44854.27
545.41	44964.1
545.774	45049.52
546.138	45179.24
546.503	45275.28
546.867	45344.43
547.231	45782.16
547.595	45771.99
547.959	45804.98
548.324	45932.89
548.688	46114.13
549.052	46123.84
549.416	46231.64
549.779	46326.1
550.143	46475.02
550.507	46614.68
550.871	46731.96
551.235	46701
551.599	46920.66
551.962	47042.24
552.326	47136.92
552.689	47412.85
553.053	47181.44
553.417	47260.99
553.78	47719.73
554.143	47500.76
554.507	47742.78
554.87	47928.99
555.234	48291.24
555.597	48200.85
555.96	48255.99
556.323	48354.29
556.686	48509.54
557.05	48705.92
557.413	48829.99
557.776	48918.57
558.139	49191.11
558.502	49211.22
558.865	49257.55
559.228	49634.03
559.59	49597.42
559.953	49805.55
560.316	50199.22
560.679	50169.61
561.041	50357.63
561.404	50541.81
561.767	50667.68
562.129	50658.41
562.492	51045.52
562.854	51005.3
563.217	51138.63
563.579	51281.22
563.941	51491.39
564.304	51732.28
564.666	51864.48
565.028	51880.98
565.39	51987.19
565.753	52203.01
566.115	52303.12
566.477	52506.05
566.839	52598.02
567.201	52834.85
567.563	52904.68
567.925	53057.9
568.287	53089.99
568.648	53108.74
569.01	53364.78
569.372	53600.94
569.734	53370.43
570.095	53594.83
570.457	53751.67
570.819	53844.54
571.18	53866.01
571.542	54042.73
571.903	54129.96
572.265	54229.85
572.626	54296.74
572.987	54313.68
573.349	54451.08
573.71	54583.06
574.071	54691.98
574.432	54739.44
574.794	54870.51
575.155	54818.76
575.516	54765.65
575.877	55054.68
576.238	55060.11
576.599	55218.29
576.96	55199.54
577.32	55127.45
577.681	55246.09
578.042	55298.97
578.403	55277.5
578.763	55331.96
579.124	55387.55
579.485	55493.31
579.845	55522.92
580.206	55488.8
580.566	55452.64
580.927	55600.2
581.287	55608.79
581.648	55500.32
582.008	55602.69
582.368	55641.56
582.728	55711.61
583.089	55580.32
583.449	55644.27
583.809	55655.8
584.169	55641.56
584.529	55628.68
584.889	55704.61
585.249	55616.25
585.609	55642.69
585.969	55763.59
586.329	55582.35
586.688	55654.21
587.048	55730.14
587.408	55621
587.768	55582.13
588.127	55506.42
588.487	55526.31
588.846	55723.82
589.206	55562.24
589.565	55587.55
589.925	55680.65
590.284	55616.02
590.643	55659.41
591.003	55735.34
591.362	55726.08
591.721	55633.65
592.08	55704.61
592.44	55779.64
592.799	55771.73
593.158	55764.95
593.517	55773.99
593.876	55775.12
594.235	55703.93
594.593	55675.68
594.952	55853.98
595.311	55778.28
595.67	55743.48
596.029	55861.21
596.387	55919.74
596.746	56032.28
597.104	55878.62
597.463	55836.13
597.822	56054.43
598.18	55996.8
598.538	56003.13
598.897	56112.06
599.255	56024.6
599.613	56392.27
599.972	56201.09
600.33	56301.2
600.688	56204.03
601.046	56289.45
601.404	56392.05
601.762	56442.67
602.12	56498.49
602.478	56470.24
602.836	56491.93
603.194	56306.63
603.552	56453.29
603.91	56369.68
604.268	56477.7
604.625	56398.15
604.983	56570.12
605.341	56423.46
605.698	56503.91
606.056	56568.31
606.413	56654.19
606.771	56696.67
607.128	56678.59
607.485	56599.73
607.843	56604.25
608.2	56747.52
608.557	56885.14
608.914	56731.93
609.272	56835.65
609.629	56844.24
609.986	56950.23
610.343	56795.88
610.7	57004.69
611.057	56970.56
611.414	56852.6
611.771	56902.32
612.127	57067.74
612.484	56973.5
612.841	57055.08
613.198	56947.29
613.554	56931.02
613.911	57099.6
614.267	57050.11
614.624	57004.46
614.98	57054.86
615.337	57199.71
615.693	57162.2
616.05	57091.24
616.406	57186.6
616.762	57123.33
617.118	57099.6
617.475	57027.51
617.831	57094.63
618.187	57072.03
618.543	57120.39
618.899	57276.77
619.255	57188.41
619.611	57152.25
619.967	57272.25
620.323	57261.63
620.678	57202.2
621.034	57084.91
621.39	57055.31
621.746	57039.26
622.101	57314.51
622.457	57106.61
622.812	57064.35
623.168	57077.91
623.523	57148.41
623.879	57201.97
624.234	57053.05
624.589	57157.9
624.945	57143.67
625.3	57098.7
625.655	57112.03
626.01	57154.29
626.365	57242.2
626.72	57096.44
627.075	57081.3
627.43	57096.21
627.785	57057.57
628.14	57124.91
628.495	57117.45
628.85	56999.49
629.205	56953.84
629.559	57069.54
629.914	56957.68
630.269	56992.71
630.623	56925.37
630.978	56905.93
631.332	57025.25
631.687	57052.82
632.041	56839.72
632.396	56983.45
632.75	56792.26
633.104	56969.89
633.459	56844.92
633.813	56753.17
634.167	56872.49
634.521	56837.23
634.875	56879.72
635.229	56832.94
635.583	56783.22
635.937	56732.83
636.291	56683.34
636.645	56773.96
636.999	56657.35
637.352	56812.6
637.706	56705.71
638.06	56768.31
638.413	56702.77
638.767	56596.34
639.121	56601.99
639.474	56590.69
639.828	56507.3
640.181	56526.73
640.534	56493.29
640.888	56484.93
641.241	56343.24
641.594	56449
641.947	56550.24
642.301	56459.17
642.654	56500.75
643.007	56481.09
643.36	56392.5
643.713	56353.41
644.066	56414.87
644.419	56228.89
644.771	55977.37
645.124	55843.14
645.477	55769.92
645.83	55533.31
646.182	55439.53
646.535	55315.69
646.888	55382.13
647.24	55162.02
647.593	55359.53
647.945	55228.69
648.298	55178.52
648.65	55033.44
649.002	54968.13
649.355	55035.47
649.707	55008.58
650.059	55175.81
650.411	55419.42
650.763	55439.08
651.115	55646.76
651.467	55589.58
651.819	55469.59
652.171	55430.49
652.523	55422.36
652.875	55266.43
653.227	55262.13
653.578	55420.77
653.93	55382.58
654.282	55133.55
654.633	55110.73
654.985	55063.04
655.337	55163.83
655.688	55056.04
656.039	55159.99
656.391	54930.39
656.742	55014.46
657.094	54932.2
657.445	55041.8
657.796	55026.21
658.147	54877.51
658.498	54822.82
658.849	54939.66
659.2	54837.74
659.551	54743.73
659.902	54757.29
660.253	54706.44
660.604	54803.39
660.955	54625.32
661.306	54693.11
661.656	54567.69
662.007	54649.27
662.358	54639.55
662.708	54594.81
663.059	54494.92
663.409	54441.59
663.76	54553.9
664.11	54532.21
664.461	54541.48
664.811	54574.02
665.161	54490.63
665.511	54428.94
665.862	54426.68
666.212	54496.05
666.562	54437.3
666.912	54379.67
667.262	54407.69
667.612	54321.14
667.962	54325.21
668.312	54274.82
668.662	54428.03
669.011	54265.1
669.361	54299
669.711	54270.3
670.06	54187.81
670.41	54185.78
670.76	54090.64
671.109	54125.67
671.459	54075.27
671.808	53981.72
672.157	54105.33
672.507	53898.1
672.856	53863.08
673.205	53843.64
673.554	54000.02
673.904	53964.32
674.253	54071.66
674.602	53998.66
674.951	53447.49
675.3	53297.67
675.649	53816.75
675.998	53650.2
676.346	53715.51
676.695	53802.06
677.044	53624.21
677.393	53716.19
677.741	53713.02
678.09	53647.71
678.438	53651.78
678.787	53653.59
679.135	53692.91
679.484	53513.71
679.832	53660.14
680.181	53389.42
680.529	53503.54
680.877	53415.18
681.225	53405.91
681.573	53577.43
681.922	53299.25
682.27	53153.49
682.618	53195.75
682.966	53207.95
683.314	53221.96
683.661	53189.87
684.009	53062.42
684.357	53025.36
684.705	53060.16
685.053	53053.38
685.4	53004.34
685.748	52833.5
686.095	52846.38
686.443	52818.36
686.79	52754.86
687.138	52691.35
687.485	52803.44
687.832	52496.11
688.18	52598.25
688.527	52494.52
688.874	52419.72
689.221	52355.09
689.568	52435.99
689.915	52309.9
690.262	52211.82
690.609	52109
690.956	52037.81
691.303	52010.92
691.65	51824.71
691.997	51800.3
692.344	51609.12
692.69	51566.19
693.037	51545.62
693.383	51268.57
693.73	51437.83
694.077	51074.67
694.423	51092.98
694.769	50976.82
695.116	50943.38
695.462	50792.2
695.808	50669.03
696.155	50735.25
696.501	50421.81
696.847	50401.47
697.193	50278.31
697.539	50290.29
697.885	49979.79
698.231	49866.12
698.577	49831.09
698.923	49662.73
699.269	49392.68
699.614	49323.31
699.96	49101.62
700.306	49126.48
700.651	48868.63
700.997	48844.68
701.342	48586.83
701.688	48648.3
702.033	48548.64
702.379	48454.4
702.724	48226.84
703.069	48364.69
703.415	47950.01
703.76	47848.09
704.105	47708.89
704.45	47630.02
704.795	47487.65
705.14	47361.1
705.485	47343.02
705.83	47097.6
706.175	47112.07
706.52	47023.26
706.865	46857.84
707.209	46778.74
707.554	46649.48
707.899	46769.93
708.243	46478.86
708.588	46410.39
708.932	46019.67
709.277	46148.7
709.621	46020.57
709.966	45906.67
710.31	45876.62
710.654	45530.64
710.998	45669.39
711.342	45616.06
711.687	45351.66
712.031	45213.36
712.375	45061.72
712.719	45200.48
713.063	45040.71
713.407	45183.53
713.75	44763.2
714.094	44868.74
714.438	44773.37
714.782	44880.49
715.125	44627.61
715.469	44689.31
715.812	44392.36
716.156	44222.65
716.499	44287.73
716.843	44316.89
717.186	44014.97
717.53	44210
717.873	44139.49
718.216	44228.98
718.559	43951.47
718.902	43692.72
719.246	43831.7
719.589	43738.6
719.932	43520.52
720.275	43506.96
720.617	43509.9
720.96	43453.18
721.303	43466.29
721.646	43454.54
721.989	43155.33
722.331	43480.75
722.674	43085.73
723.016	43155.56
723.359	43102.68
723.701	43121.21
724.044	42883.25
724.386	42694.1
724.729	42995.34
725.071	42786.76
725.413	42744.05
725.755	42654.1
726.097	42707.21
726.439	42476.03
726.782	42523.71
727.124	42526.88
727.465	42228.58
727.807	42199.88
728.149	42153.1
728.491	42053.22
728.833	42088.02
729.175	41949.04
729.516	41823.62
729.858	41857.97
730.199	41815.93
730.541	41828.36
730.882	41657.97
731.224	41791.3
731.565	41487.13
731.906	41575.94
732.248	41534.59
732.589	41379.56
732.93	41274.25
733.271	41258.66
733.612	41342.73
733.953	41268.15
734.294	41147.7
734.635	41201.26
734.976	41022.06
735.317	40960.59
735.658	40813.02
735.999	40830.2
736.339	40574.61
736.68	40773.48
737.021	40598.34
737.361	40360.15
737.702	40664.55
738.042	40441.73
738.383	40420.04
738.723	40461.17
739.063	40239.93
739.404	40294.39
739.744	40082.65
740.084	40002.65
740.424	40091.46
740.764	39909.77
741.104	39945.48
741.444	39633.62
741.784	39582.09
742.124	39656.44
742.464	39586.16
742.804	39484.7
743.143	39558.37
743.483	39590.68
743.823	39215.78
744.162	39237.7
744.502	39251.48
744.841	39036.57
745.181	39223.91
745.52	38914.09
745.86	39115.21
746.199	38893.07
746.538	38754.09
746.877	38804.94
747.216	38774.43
747.556	38596.58
747.895	38621.89
748.234	38320.66
748.573	38216.71
748.911	38216.48
749.25	38228.68
749.589	38113.21
749.928	38115.24
750.267	37899.43
750.605	37926.77
750.944	37742.37
751.283	37685.87
751.621	37574.46
751.96	37417.63
752.298	37315.04
752.636	37363.85
752.975	37051.99
753.313	36914.82
753.651	37080.69
753.989	36776.07
754.327	36736.97
754.666	36633.02
755.004	36586.92
755.342	36471.44
755.679	36311.45
756.017	36196.42
756.355	36235.97
756.693	36032.81
757.031	36114.84
757.368	35778.58
757.706	35748.98
758.044	35603.89
758.381	35524.57
758.719	35268.08
759.056	35471.02
759.394	35196.67
759.731	35005.49
760.068	34966.85
760.405	34833.52
760.743	34705.39
761.08	34645.73
761.417	34549.91
761.754	34494.32
762.091	34262.01
762.428	34219.07
762.765	34031.96
763.102	33919.42
763.438	33916.48
763.775	33823.38
764.112	33793.32
764.449	33727.79
764.785	33520.56
765.122	33287.8
765.458	33276.27
765.795	33199.21
766.131	33033.34
766.467	32913.57
766.804	32881.71
767.14	32588.61
767.476	32592.9
767.812	32452.34
768.148	32472.45
768.485	32380.48
768.821	32095.74
769.157	32148.39
769.492	32024.55
769.828	31871.34
770.164	31562.64
770.5	31571.23
770.836	31445.36
771.171	31304.8
771.507	31351.58
771.842	31025.94
772.178	31184.8
772.513	30971.25
772.849	30944.81
773.184	30791.14
773.519	30775.77
773.855	30696.45
774.19	30472.28
774.525	30339.17
774.86	30385.5
775.195	30404.26
775.53	30226.63
775.865	30157.03
776.2	29869.58
776.535	29755.69
776.87	29682.69
777.205	29562.47
777.539	29496.71
777.874	29524.28
778.209	29282.7
778.543	29284.96
778.878	29040.68
779.212	29055.59
779.547	28913.45
779.881	29016.5
780.215	28894.01
780.55	28898.31
780.884	28654.92
781.218	28390.07
781.552	28489.96
781.886	28318.44
782.22	28166.58
782.554	28280.25
782.888	27992.57
783.222	28014.94
783.556	27763.87
783.889	27731.78
784.223	27483.43
784.557	27453.6
784.89	27591.22
785.224	27318.91
785.557	27257.22
785.891	27134.06
786.224	27150.56
786.558	27098.36
786.891	26848.64
787.224	26686.16
787.557	26584.92
787.891	26649.55
788.224	26624.92
788.557	26549.44
788.89	26522.55
789.223	26260.41
789.556	26117.59
789.888	26069
790.221	25860.2
790.554	25664.27
790.887	25750.59
791.219	25769.35
791.552	25645.96
791.884	25596.93
792.217	25561.9
792.549	25402.81
792.882	25163.94
793.214	25029.71
793.546	25109.71
793.879	25014.34
794.211	24867.45
794.543	25005.3
794.875	24921.92
795.207	24908.13
795.539	24728.25
795.871	24766.21
796.203	24544.52
796.535	24319.22
796.867	24405.09
797.198	24268.15
797.53	24244.65
797.862	24153.57
798.193	24188.15
798.525	23911.32
798.856	24002.84
799.188	23692.57
799.519	23660.03
799.85	23599.92
800.182	23468.85
800.513	23483.08
800.844	23229.08
801.175	23265.01
801.506	23216.2
801.837	23005.58
802.168	23016.65
802.499	23016.88
802.83	22896.21
803.161	22781.18
803.491	22702.99
803.822	22755.19
804.153	22517.91
804.483	22378.03
804.814	22300.52
805.145	22233.4
805.475	22330.35
805.805	22185.49
806.136	22085.61
806.466	22068.43
806.796	22085.83
807.126	21955.44
807.457	21845.84
807.787	21845.61
808.117	21704.6
808.447	21710.25
808.777	21653.98
809.107	21600.65
809.436	21548.67
809.766	21514.1
810.096	21364.04
810.426	21302.12
810.755	21225.06
811.085	21226.19
811.414	21108.91
811.744	20893.09
812.073	20926.54
812.403	20953.88
812.732	20798.41
813.061	20772.65
813.39	20553.22
813.719	20515.03
814.049	20699.43
814.378	20450.62
814.707	20402.03
815.036	20411.07
815.365	20215.6
815.693	20160.46
816.022	20052.44
816.351	19960.69
816.68	19865.55
817.008	20022.38
817.337	19897.19
817.665	19713.24
817.994	19816.29
818.322	19795.72
818.651	19563.19
818.979	19500.81
819.307	19587.37
819.636	19464.43
819.964	19295.62
820.292	19357.09
820.62	19331.78
820.948	19369.97
821.276	19331.1
821.604	19322.06
821.932	19308.96
822.259	19193.25
822.587	19138.56
822.915	19119.36
823.243	19225.57
823.57	19088.4
823.898	19180.82
824.225	19014.95
824.553	18927.27
824.88	19017.89
825.207	19172.01
825.535	19088.17
825.862	18996.2
826.189	18866.48
826.516	19073.48
826.843	19102.18
827.17	19042.75
827.497	19044.33
827.824	19040.71
828.151	19072.8
828.478	18921.4
828.805	18941.73
829.131	18911.68
829.458	18885.01
829.785	18766.14
830.111	18870.78
830.438	19037.1
830.764	18890.89
831.09	18965.46
831.417	18739.03
831.743	18802.98
832.069	18777.67
832.395	18752.81
832.722	18835.75
833.048	18637.33
833.374	18739.03
833.7	18723.43
834.026	18778.12
834.351	18762.98
834.677	18792.58
835.003	18782.42
835.329	18733.83
835.654	18640.5
835.98	18596.66
836.306	18680.05
836.631	18593.72
836.956	18529.54
837.282	18642.53
837.607	18509.2
837.932	18466.49
838.258	18484.34
838.583	18524.12
838.908	18395.31
839.233	18445.93
839.558	18407.06
839.883	18330.68
840.208	18351.92
840.533	18455.87
840.858	18406.15
841.182	18330.22
841.507	18277.12
841.832	18228.76
842.156	18176.1
842.481	18208.65
842.805	18151.7
843.13	18082.77
843.454	18143.34
843.778	18034.64
844.103	18019.27
844.427	17934.08
844.751	18048.88
845.075	17984.02
845.399	17830.12
845.723	17776.34
846.047	17758.94
846.371	17772.27
846.695	17680.52
847.019	17572.5
847.343	17434.65
847.666	17354.66
847.99	17221.78
848.313	17399.85
848.637	17337.71
848.96	17278.05
849.284	17206.41
849.607	16998.28
849.931	17048.45
850.254	16880.32
850.577	16853.65
850.9	16961.45
851.223	16785.41
851.546	16678.06
851.869	16628.57
852.192	16609.37
852.515	16475.13
852.838	16403.27
853.161	16564.62
853.483	16346.32
853.806	16241.92
854.129	16250.28
854.451	16171.86
854.774	16004.18
855.096	15946.78
855.419	16039.44
855.741	16015.26
856.063	15843.96
856.385	15821.14
856.708	15798.54
857.03	15655.27
857.352	15756.73
857.674	15657.53
857.996	15643.74
858.318	15533.69
858.64	15596.74
858.961	15412.79
859.283	15392.45
859.605	15366.46
859.926	15370.75
860.248	15322.17
860.57	15262.06
860.891	15312.68
861.212	15111.33
861.534	15158.1
861.855	15201.04
862.176	15135.28
862.498	15111.1
862.819	15083.3
863.14	14973.93
863.461	14989.07
863.782	14901.61
864.103	14892.57
864.424	14864.55
864.745	14875.63
865.065	14867.26
865.386	14697.78
865.707	14764.67
866.027	14744.56
866.348	14773.71
866.668	14761.96
866.989	14695.74
867.309	14564.45
867.63	14534.84
867.95	14481.29
868.27	14404.9
868.59	14489.2
868.91	14401.51
869.23	14348.63
869.55	14322.42
869.87	14424.79
870.19	14413.72
870.51	14341.85
870.83	14314.74
871.15	14244.68
871.469	14219.6
871.789	14159.94
872.109	14140.73
872.428	14102.76
872.748	14178.92
873.067	14120.17
873.386	14165.59
873.706	14002.88
874.025	13929.21
874.344	13846.5
874.663	13934.41
874.982	13943.9
875.301	13801.76
875.62	13803.11
875.939	13805.6
876.258	13781.64
876.577	13710.01
876.896	13693.96
877.214	13616.45
877.533	13682.44
877.852	13603.12
878.17	13680.18
878.489	13636.56
878.807	13586.85
879.125	13580.74
879.444	13566.96
879.762	13471.82
880.08	13479.73
880.398	13331.71
880.716	13397.47
881.034	13328.77
881.352	13382.78
881.67	13263.69
881.988	13312.96
882.306	13236.8
882.624	13098.72
882.941	12992.29
883.259	13019.18
883.577	13136.46
883.894	13039.74
884.212	13024.6
884.529	13084.94
884.846	12948.9
885.164	12988.22
885.481	12884.49
885.798	12859.41
886.115	12756.36
886.432	12676.81
886.75	12702.35
887.067	12700.54
887.383	12612.86
887.7	12650.37
888.017	12579.19
888.334	12587.32
888.651	12501.9
888.967	12537.61
889.284	12465.75
889.6	12430.94
889.917	12328.12
890.233	12336.26
890.55	12249.03
890.866	12317.5
891.182	12188.69
891.498	12174.23
891.815	12119.54
892.131	12026.21
892.447	11978.75
892.763	11978.53
893.079	11976.72
893.395	11914.12
893.71	11881.13
894.026	11915.93
894.342	11797.97
894.657	11670.74
894.973	11730.17
895.289	11658.31
895.604	11670.51
895.92	11571.76
896.235	11524.3
896.55	11492.21
896.865	11458.54
897.181	11391.2
897.496	11395.27
897.811	11302.16
898.126	11256.51
898.441	11154.37
898.756	11131.54
899.071	11125.89
899.386	11157.53
899.7	11008.61
900.015	10917.09
900.33	10892.91
900.644	10939.23
900.959	10903.98
901.273	10811.1
901.588	10767.49
901.902	10717.54
902.216	10687.71
902.531	10641.39
902.845	10599.35
903.159	10590.77
903.473	10474.16
903.787	10472.8
904.101	10437.1
904.415	10433.03
904.729	10443.65
905.042	10320.27
905.356	10279.59
905.67	10314.16
905.984	10253.83
906.297	10289.08
906.611	10118.69
906.924	10087.5
907.237	9998.69
907.551	9950.78
907.864	10004.79
908.177	9993.49
908.491	9894.51
908.804	9963.89
909.117	9816.78
909.43	9758.47
909.743	9735.65
910.056	9779.04
910.368	9669.44
910.681	9618.81
910.994	9578.14
911.307	9580.85
911.619	9543.56
911.932	9543.11
912.244	9443.68
912.557	9408.42
912.869	9318.71
913.181	9304.25
913.494	9393.06
913.806	9220.18
914.118	9213.63
914.43	9174.31
914.742	9177.7
915.054	9132.27
915.366	9156.68
915.678	9048.66
915.99	8963.01
916.302	8949
916.613	8939.06
916.925	8937.93
917.236	8912.84
917.548	8798.27
917.859	8801.44
918.171	8770.93
918.482	8697.48
918.794	8641.44
919.105	8633.3
919.416	8637.15
919.727	8598.95
920.038	8536.58
920.349	8499.3
920.66	8459.52
920.971	8475.12
921.282	8529.58
921.593	8377.72
921.903	8396.25
922.214	8358.74
922.525	8363.93
922.835	8341.33
923.146	8249.13
923.456	8281.22
923.767	8179.53
924.077	8222.24
924.387	8185.41
924.697	8117.39
925.008	8146.31
925.318	8102.92
925.628	8056.82
925.938	8062.47
926.248	7947.22
926.558	7887.79
926.867	7892.76
927.177	7866.54
927.487	7800.78
927.796	7770.73
928.106	7811.86
928.416	7763.04
928.725	7754.68
929.034	7649.6
929.344	7662.03
929.653	7679.2
929.962	7663.39
930.271	7547
930.581	7626.1
930.89	7535.48
931.199	7463.84
931.508	7537.29
931.817	7469.72
932.125	7439.66
932.434	7470.17
932.743	7368.25
933.051	7375.03
933.36	7316.05
933.669	7294.58
933.977	7267.46
934.286	7222.27
934.594	7209.39
934.902	7177.3
935.21	7154.02
935.519	7139.56
935.827	7116.73
936.135	7048.71
936.443	6961.26
936.751	6989.51
937.059	7010.3
937.367	6916.29
937.674	6924.2
937.982	6859.11
938.29	6880.13
938.597	6898.66
938.905	6763.07
939.213	6754.48
939.52	6716.52
939.827	6740.25
940.135	6648.95
940.442	6634.49
940.749	6653.92
941.056	6644.66
941.363	6593.13
941.67	6523.08
941.977	6469.97
942.284	6446.24
942.591	6453.7
942.898	6436.07
943.205	6486.92
943.511	6392.46
943.818	6384.1
944.125	6313.82
944.431	6270.88
944.738	6245.12
945.044	6224.55
945.35	6201.73
945.657	6139.81
945.963	6154.95
946.269	6107.95
946.575	6101.39
946.881	6085.57
947.187	6017.78
947.493	6007.61
947.799	5980.72
948.105	5983.43
948.41	5898.46
948.716	5895.75
949.022	5801.06
949.327	5836.54
949.633	5740.95
949.938	5787.05
950.244	5708.64
950.549	5662.31
950.854	5644.23
951.16	5625.7
951.465	5599.26
951.77	5603.33
952.075	5548.41
952.38	5544.8
952.685	5524.01
952.99	5505.25
953.294	5397.46
953.599	5434.74
953.904	5428.42
954.209	5349.77
954.513	5312.94
954.818	5307.52
955.122	5255.31
955.426	5274.52
955.731	5210.57
956.035	5204.47
956.339	5131.02
956.643	5175.09
956.948	5133.51
957.252	5067.07
957.556	5075.21
957.86	5040.63
958.163	5059.61
958.467	4989.11
958.771	4981.65
959.075	4962.44
959.378	4964.25
959.682	4908.2
959.985	4907.53
960.289	4806.96
960.592	4808.55
960.896	4818.26
961.199	4792.95
961.502	4738.72
961.805	4718.6
962.108	4696.01
962.411	4639.74
962.714	4669.57
963.017	4639.74
963.32	4639.74
963.623	4604.71
963.926	4613.97
964.228	4492.17
964.531	4547.54
964.833	4533.07
965.136	4449.91
965.438	4440.42
965.741	4384.15
966.043	4404.49
966.345	4420.99
966.648	4336.92
966.95	4325.39
967.252	4263.7
967.554	4279.52
967.856	4310.03
968.158	4229.35
968.46	4220.76
968.761	4195
969.063	4188.9
969.365	4127.21
969.666	4133.54
969.968	4121.56
970.269	4110.49
970.571	4040.66
970.872	4053.99
971.174	4024.61
971.475	4036.14
971.776	4008.79
972.077	3980.09
972.378	3952.75
972.679	3917.04
972.98	3932.64
973.281	3935.12
973.582	3925.41
973.883	3907.33
974.183	3827.33
974.484	3835.01
974.785	3801.11
975.085	3788.46
975.386	3845.63
975.686	3719.99
975.986	3741.91
976.287	3703.49
976.587	3674.56
976.887	3694.9
977.187	3682.02
977.487	3668.46
977.787	3614.45
978.087	3621.23
978.387	3637.96
978.687	3596.6
978.987	3546.43
979.286	3559.77
979.586	3514.57
979.885	3514.57
980.185	3515.7
980.484	3492.87
980.784	3465.08
981.083	3412.88
981.382	3397.51
981.682	3378.53
981.981	3343.95
982.28	3396.83
982.579	3342.82
982.878	3361.58
983.177	3299.66
983.475	3337.4
983.774	3252.65
984.073	3324.97
984.372	3273.22
984.67	3282.94
984.969	3234.12
985.267	3220.57
985.566	3236.38
985.864	3195.48
986.162	3189.38
986.461	3165.43
986.759	3165.88
987.057	3090.17
987.355	3117.06
987.653	3086.78
987.951	3092.88
988.249	3072.32
988.547	3070.06
988.844	3034.81
989.142	3032.77
989.44	3007.46
989.737	3001.14
990.035	2964.53
990.332	2967.69
990.63	2951.87
990.927	2947.8
991.224	2931.53
991.521	2909.84
991.819	2921.36
992.116	2887.24
992.413	2889.73
992.71	2875.49
993.006	2889.95
993.303	2885.21
993.6	2865.32
993.897	2842.5
994.193	2817.64
994.49	2812.21
994.787	2762.95
995.083	2753.01
995.379	2761.82
995.676	2745.55
995.972	2736.51
996.268	2730.18
996.565	2715.49
996.861	2722.73
997.157	2720.47
997.453	2652.67
997.749	2671.2
998.044	2671.2
998.34	2632.56
998.636	2644.99
998.932	2652.9
999.227	2587.81
999.523	2587.59
999.818	2537.42
1000.114	2562.5
1000.409	2504.43
1000.704	2535.39
1001	2524.09
1001.295	2523.86
1001.59	2479.57
1001.885	2499.68
1002.18	2441.38
1002.475	2456.29
1002.77	2444.31
1003.065	2393.47
1003.359	2444.54
1003.654	2369.97
1003.949	2387.82
1004.243	2383.75
1004.538	2337.65
1004.832	2331.55
1005.127	2315.96
1005.421	2293.13
1005.715	2298.33
1006.009	2284.77
1006.304	2261.95
1006.598	2287.48
1006.892	2255.39
1007.186	2251.1
1007.48	2263.53
1007.773	2196.19
1008.067	2206.81
1008.361	2196.64
1008.655	2180.14
1008.948	2185.11
1009.242	2167.94
1009.535	2159.12
1009.829	2130.2
1010.122	2125.9
1010.415	2107.37
1010.708	2087.94
1011.001	2077.09
1011.295	2058.56
1011.588	2061.95
1011.881	2077.54
1012.173	2054.49
1012.466	2052.91
1012.759	2035.29
1013.052	2019.92
1013.344	1981.5
1013.637	2016.3
1013.93	1957.1
1014.222	1974.27
1014.514	1972.46
1014.807	1925.01
1015.099	1923.88
1015.391	1901.5
1015.683	1899.47
1015.976	1916.19
1016.268	1878.23
1016.56	1858.57
1016.851	1861.5
1017.143	1849.75
1017.435	1835.06
1017.727	1821.51
1018.018	1817.21
1018.31	1773.15
1018.602	1782.18
1018.893	1804.78
1019.185	1781.05
1019.476	1744.9
1019.767	1744.22
1020.058	1747.38
1020.35	1724.33
1020.641	1721.62
1020.932	1696.31
1021.223	1694.5
1021.514	1685.24
1021.804	1655.63
1022.095	1682.07
1022.386	1645.24
1022.677	1641.4
1022.967	1621.06
1023.258	1634.84
1023.548	1591.91
1023.839	1594.17
1024.129	1623.32
1024.419	1577.44
1024.709	1567.05
1025	1576.54
1025.29	1541.97
1025.58	1531.57
1025.87	1549.2
1026.16	1530.44
1026.449	1497.22
1026.739	1528.41
1027.029	1497.9
1027.319	1481.63
1027.608	1458.13
1027.898	1437.11
1028.187	1464.45
1028.477	1460.16
1028.766	1435.3
1029.055	1396.88
1029.344	1410.22
1029.634	1405.25
1029.923	1421.29
1030.212	1392.82
1030.501	1396.43
1030.79	1379.48
1031.078	1363.21
1031.367	1348.52
1031.656	1336.32
1031.945	1321.86
1032.233	1317.34
1032.522	1320.05
1032.81	1327.96
1033.099	1292.71
1033.387	1286.83
1033.675	1274.85
1033.963	1282.54
1034.251	1273.05
1034.54	1270.56
1034.828	1234.63
1035.116	1203.67
1035.403	1229.2
1035.691	1240.5
1035.979	1221.07
1036.267	1195.99
1036.554	1176.33
1036.842	1171.35
1037.129	1169.09
1037.417	1153.73
1037.704	1157.12
1037.992	1145.14
1038.279	1145.14
1038.566	1134.52
1038.853	1134.52
1039.14	1134.52
