Data from whiteboard_FLMS001491_00001.txt Node
Date: Wed Feb 08 11:24:54 GMT 2017
User: dcchb
Spectrometer: FLMS00149
Trigger mode: 0
Integration Time (sec): 2.000000E-2
Scans to average: 10
Electric dark correction enabled: true
Nonlinearity correction enabled: false
Boxcar width: 0
XAxis mode: Wavelengths
Number of Pixels in Spectrum: 2048
>>>>>Begin Spectral Data<<<<<
341.393	-22.61
341.776	-22.61
342.16	-22.61
342.543	-81.59
342.927	-73.68
343.31	-71.65
343.693	-66.45
344.077	-89.05
344.46	-68.94
344.843	-48.6
345.226	-35.95
345.61	-32.78
345.993	-7.7
346.376	-3.63
346.759	17.61
347.142	41.34
347.525	42.47
347.908	68.68
348.291	66.2
348.674	104.16
349.057	84.28
349.44	104.16
349.823	136.48
350.206	150.26
350.588	213.99
350.971	229.36
351.354	241.56
351.737	269.81
352.119	275.46
352.502	289.24
352.884	303.25
353.267	305.29
353.65	323.82
354.032	317.72
354.414	359.52
354.797	352.74
355.179	363.14
355.562	341.9
355.944	361.56
356.326	369.24
356.709	356.59
357.091	359.98
357.473	361.33
357.855	385.51
358.238	363.14
358.62	382.35
359.002	381.44
359.384	400.2
359.766	355.68
360.148	369.92
360.53	373.31
360.912	367.21
361.294	372.86
361.676	367.89
362.057	383.48
362.439	368.34
362.821	364.27
363.203	370.15
363.584	374.89
363.966	365.63
364.348	383.03
364.729	373.54
365.111	346.42
365.493	369.92
365.874	375.34
366.256	365.63
366.637	380.09
367.019	365.85
367.4	361.56
367.781	365.17
368.163	383.7
368.544	370.37
368.925	351.39
369.306	392.52
369.688	373.08
370.069	370.6
370.45	358.39
370.831	382.8
371.212	365.17
371.593	378.06
371.974	379.41
372.355	386.87
372.736	392.52
373.117	371.5
373.498	377.15
373.879	384.16
374.26	380.99
374.641	377.15
375.021	378.51
375.402	399.52
375.783	390.03
376.163	409.92
376.544	396.59
376.925	394.33
377.305	394.78
377.686	411.5
378.066	409.92
378.447	431.84
378.827	415.57
379.208	428.68
379.588	418.96
379.968	425.51
380.349	440.43
380.729	432.52
381.109	448.34
381.489	447.21
381.87	456.25
382.25	454.89
382.63	451.95
383.01	475.45
383.39	432.74
383.77	458.73
384.15	463.48
384.53	465.28
384.91	486.53
385.29	489.24
385.67	467.09
386.049	486.3
386.429	495.11
386.809	505.74
387.189	503.93
387.568	494.66
387.948	492.4
388.328	515.68
388.707	545.96
389.087	531.05
389.466	540.31
389.846	524.72
390.225	550.25
390.605	534.89
390.984	568.78
391.363	565.62
391.743	563.59
392.122	584.83
392.501	602.68
392.881	579.41
393.26	638.84
393.639	599.29
394.018	606.98
394.397	651.95
394.776	628.22
395.155	642.91
395.534	636.81
395.913	636.81
396.292	676.8
396.671	672.96
397.05	673.64
397.429	683.13
397.808	699.85
398.186	712.74
398.565	709.35
398.944	724.94
399.323	712.51
399.701	749.34
400.08	766.75
400.458	762.68
400.837	782.34
401.215	781.43
401.594	801.09
401.972	805.16
402.351	804.03
402.729	807.2
403.107	827.53
403.486	867.53
403.864	878.83
404.242	892.17
404.62	900.75
404.999	947.31
405.377	915.44
405.755	950.92
406.133	964.71
406.511	964.25
406.889	994.76
407.267	1004.48
407.645	1028.89
408.023	1061.43
408.401	1056.91
408.779	1098.26
409.156	1095.1
409.534	1107.53
409.912	1178.26
410.29	1165.83
410.667	1202.21
411.045	1219.16
411.422	1209.67
411.8	1248.99
412.178	1281.08
412.555	1298.48
412.933	1311.36
413.31	1377.8
413.687	1355.2
414.065	1389.78
414.442	1390.01
414.819	1420.06
415.197	1450.8
415.574	1472.04
415.951	1491.02
416.328	1497.12
416.705	1528.08
417.082	1551.81
417.46	1541.87
417.837	1576.44
418.214	1572.83
418.591	1611.92
418.967	1644.91
419.344	1685.14
419.721	1701.64
420.098	1701.86
420.475	1720.17
420.852	1720.84
421.228	1766.27
421.605	1777.11
421.982	1827.51
422.358	1832.03
422.735	1864.8
423.111	1843.78
423.488	1885.13
423.864	1905.25
424.241	1938.01
424.617	1958.13
424.994	1975.98
425.37	2028.18
425.746	2002.65
426.123	2079.93
426.499	2052.14
426.875	2060.04
427.251	2126.26
427.627	2187.27
428.003	2227.5
428.379	2234.96
428.756	2258.68
429.132	2312.02
429.507	2337.33
429.883	2368.29
430.259	2400.37
430.635	2444.89
431.011	2454.16
431.387	2508.39
431.763	2585.91
432.138	2600.82
432.514	2598.56
432.89	2646.47
433.265	2712.91
433.641	2714.26
434.016	2768.05
434.392	2822.06
434.767	2832
435.143	2850.98
435.518	2885.11
435.894	2962.17
436.269	3037.87
436.644	3017.99
437.02	3044.43
437.395	3048.95
437.77	3129.17
438.145	3181.6
438.52	3162.16
438.895	3257.3
439.271	3257.75
439.646	3346.79
440.021	3351.31
440.395	3373.68
440.77	3342.5
441.145	3403.74
441.52	3495.49
441.895	3471.53
442.27	3546.11
442.645	3557.63
443.019	3622.26
443.394	3611.87
443.769	3644.86
444.143	3634.69
444.518	3689.61
444.892	3672.21
445.267	3730.06
445.641	3756.95
446.016	3809.6
446.39	3878.08
446.764	3910.17
447.139	3855.03
447.513	3915.59
447.887	3947.23
448.262	4020.67
448.636	3981.58
449.01	4005.08
449.384	4073.55
449.758	4139.76
450.132	4236.48
450.506	4186.99
450.88	4241.91
451.254	4199.88
451.628	4345.41
452.002	4379.98
452.376	4408.68
452.75	4429.25
453.123	4513.54
453.497	4564.39
453.871	4633.54
454.244	4743.36
454.618	4706.08
454.992	4800.76
455.365	4850.25
455.739	4960.31
456.112	4961.66
456.486	5045.95
456.859	5071.04
457.232	5231.49
457.606	5244.14
457.979	5310.13
458.352	5416.79
458.725	5506.73
459.099	5509.9
459.472	5643.23
459.845	5662.89
460.218	5763.68
460.591	5826.73
460.964	5861.3
461.337	6000.05
461.71	6065.14
462.083	6171.58
462.456	6159.15
462.829	6172.7
463.201	6323.89
463.574	6355.75
463.947	6446.14
464.32	6628.51
464.692	6653.37
465.065	6709.87
465.438	6804.78
465.81	6940.59
466.183	6966.13
466.555	7152.79
466.928	7136.97
467.3	7202.96
467.672	7338.1
468.045	7482.05
468.417	7537.19
468.789	7545.55
469.161	7767.92
469.534	7843.85
469.906	8088.13
470.278	8098.98
470.65	8214.01
471.022	8376.26
471.394	8554.79
471.766	8649.25
472.138	8729.25
472.51	8969.69
472.882	9118.62
473.253	9238.84
473.625	9368.33
473.997	9645.61
474.369	9628.21
474.74	9743.01
475.112	9952.04
475.484	10135.76
475.855	10250.11
476.227	10378.7
476.598	10689.2
476.97	10741.4
477.341	11022.29
477.713	11214.83
478.084	11232.46
478.455	11515.39
478.827	11676.52
479.198	12060.01
479.569	12053.23
479.94	12378.87
480.311	12537.51
480.682	12782.47
481.053	13017.27
481.424	13208.45
481.795	13347.88
482.166	13601.89
482.537	13729.57
482.908	14115.77
483.279	14204.81
483.65	14485.03
484.021	14776.55
484.391	14941.97
484.762	15097.67
485.133	15239.36
485.503	15554.38
485.874	15774.49
486.244	15957.31
486.615	16256.28
486.985	16445.88
487.356	16778.75
487.726	16920.67
488.097	17341.45
488.467	17389.59
488.837	17666.64
489.207	17992.06
489.578	18253.29
489.948	18494.41
490.318	18787.06
490.688	18720.4
491.058	19099.14
491.428	19453.03
491.798	19599.24
492.168	20034.71
492.538	20119.68
492.908	20387.92
493.278	20559.9
493.648	20727.58
494.017	21073.56
494.387	21092.09
494.757	21320.56
495.126	21676.48
495.496	21734.33
495.866	21861.11
496.235	22123.47
496.605	22326.4
496.974	22504.48
497.344	22597.58
497.713	22799.39
498.082	22923.9
498.452	23159.15
498.821	23330.67
499.19	23278.02
499.559	23679.14
499.928	23848.62
500.298	24001.16
500.667	24167.49
501.036	24178.79
501.405	24391.21
501.774	24497.42
502.143	24783.97
502.512	24766.57
502.88	24994.13
503.249	25055.6
503.618	25227.35
503.987	25330.39
504.356	25542.82
504.724	25714.56
505.093	25880.21
505.462	25905.75
505.83	26118.85
506.199	26371.72
506.567	26794.08
506.936	26754.31
507.304	27119.05
507.672	27277.23
508.041	27338.93
508.409	27656.21
508.777	27736.88
509.145	28049.19
509.514	28149.75
509.882	28416.87
510.25	28382.97
510.618	28827.02
510.986	28936.63
511.354	29368.25
511.722	29526.67
512.09	29743.84
512.458	29723.05
512.826	30259.08
513.193	30191.96
513.561	30440.32
513.929	30822.9
514.297	31068.32
514.664	31256.79
515.032	31373.17
515.4	31763.44
515.767	31775.87
516.135	32157.11
516.502	32046.37
516.869	32555.06
517.237	32837.31
517.604	32616.98
517.972	33046.57
518.339	33228.26
518.706	33287.02
519.073	33473.46
519.44	33697.18
519.808	34017.17
520.175	34117.51
520.542	34440.21
520.909	34573.31
521.276	34582.35
521.643	35090.59
522.009	35294.65
522.376	35326.51
522.743	35675.66
523.11	35968.53
523.477	36176.21
523.843	36390.67
524.21	36774.84
524.577	37095.96
524.943	37156.07
525.31	37359.91
525.676	37775.04
526.043	37916.95
526.409	38187.46
526.776	38426.32
527.142	38562.36
527.508	38980.43
527.874	39312.62
528.241	39373.41
528.607	39648.21
528.973	39964.36
529.339	40084.58
529.705	40560.73
530.071	40726.6
530.437	40852.02
530.803	41323.42
531.169	41537.42
531.535	41475.51
531.901	41804.54
532.267	42065.77
532.632	42409.72
532.998	42564.52
533.364	42793.66
533.73	43040.44
534.095	43310.71
534.461	43551.84
534.826	43653.98
535.192	43790.47
535.557	44231.82
535.923	44122.22
536.288	44380.97
536.653	44620.06
537.019	44588.19
537.384	44783.67
537.749	45044.23
538.114	45061.63
538.479	45051.91
538.845	45440.82
539.21	45324.9
539.575	45535.29
539.94	45577.32
540.305	45845.11
540.67	45841.04
541.034	46181.6
541.399	46167.13
541.764	46297.75
542.129	46421.36
542.494	46442.38
542.858	46478.54
543.223	46483.51
543.587	46722.6
543.952	46547.46
544.316	46840.56
544.681	46881.01
545.045	47015.7
545.41	47126.88
545.774	47204.85
546.138	47283.49
546.503	47389.7
546.867	47315.13
547.231	47742.23
547.595	47635.12
547.959	47827.43
548.324	47922.34
548.688	48109.68
549.052	48169.57
549.416	48224.93
549.779	48406.62
550.143	48524.13
550.507	48835.31
550.871	48902.2
551.235	48947.17
551.599	49230.33
551.962	49388.29
552.326	49487.95
552.689	49757.1
553.053	49570.21
553.417	49753.48
553.78	50122.74
554.143	50090.19
554.507	50322.05
554.87	50504.87
555.234	50865.54
555.597	50692.44
555.96	50877.07
556.323	51025.76
556.686	51125.87
557.05	51400.22
557.413	51491.74
557.776	51562.02
558.139	51883.59
558.502	52031.84
558.865	52126.75
559.228	52355.67
559.59	52412.17
559.953	52491.94
560.316	52876.56
560.679	52820.97
561.041	53013.51
561.404	53164.46
561.767	53355.42
562.129	53275.65
562.492	53558.35
562.854	53601.51
563.217	53514.28
563.579	53738.91
563.941	53906.14
564.304	53935.06
564.666	53986.36
565.028	54035.85
565.39	54179.8
565.753	54278.33
566.115	54343.64
566.477	54478.1
566.839	54539.79
567.201	54693.46
567.563	54621.15
567.925	54798.09
568.287	54826.34
568.648	54857.98
569.01	55052.1
569.372	55148.37
569.734	55081.7
570.095	55289.38
570.457	55307.23
570.819	55403.05
571.18	55388.36
571.542	55560.78
571.903	55511.29
572.265	55700.67
572.626	55763.72
572.987	55764.4
573.349	55858.63
573.71	55983.6
574.071	56114.22
574.432	56046.42
574.794	56340.88
575.155	56406.19
575.516	56301.56
575.877	56400.54
576.238	56461.78
576.599	56613.19
576.96	56610.02
577.32	56687.08
577.681	56685.5
578.042	56822.9
578.403	56897.25
578.763	56869.9
579.124	57017.24
579.485	57108.99
579.845	57175.21
580.206	57202.55
580.566	57203.91
580.927	57283.9
581.287	57356.9
581.648	57269.67
582.008	57437.12
582.368	57400.28
582.728	57491.13
583.089	57421.75
583.449	57460.4
583.809	57526.16
584.169	57610.22
584.529	57568.42
584.889	57795.3
585.249	57588.75
585.609	57553.73
585.969	57773.38
586.329	57635.98
586.688	57681.18
587.048	57630.11
587.408	57614.97
587.768	57680.96
588.127	57602.99
588.487	57573.16
588.846	57730.22
589.206	57566.61
589.565	57558.47
589.925	57680.73
590.284	57620.62
590.643	57608.41
591.003	57680.73
591.362	57699.26
591.721	57616.32
592.08	57621.97
592.44	57742.65
592.799	57643.44
593.158	57656.55
593.517	57658.36
593.876	57622.2
594.235	57564.35
594.593	57647.28
594.952	57593.5
595.311	57510.11
595.67	57527.74
596.029	57680.28
596.387	57722.99
596.746	57725.93
597.104	57494.29
597.463	57566.16
597.822	57681.41
598.18	57567.06
598.538	57550.34
598.897	57696.1
599.255	57548.76
599.613	57915.98
599.972	57810.9
600.33	57820.84
600.688	57738.13
601.046	57802.53
601.404	57854.96
601.762	57824.45
602.12	57943.77
602.478	58009.08
602.836	57994.17
603.194	57813.61
603.552	57890.67
603.91	57825.81
604.268	57975.41
604.625	57951.23
604.983	58014.51
605.341	57932.02
605.698	58072.36
606.056	58166.59
606.413	58071.23
606.771	58173.15
607.128	58190.77
607.485	58164.78
607.843	58171.56
608.2	58350.09
608.557	58372.91
608.914	58408.62
609.272	58580.82
609.629	58589.63
609.986	58622.4
610.343	58474.38
610.7	58720.02
611.057	58674.6
611.414	58664.21
611.771	58781.49
612.127	58882.05
612.484	58788.04
612.841	58851.09
613.198	58761.38
613.554	58838.21
613.911	58948.27
614.267	58926.35
614.624	58961.15
614.98	59026.91
615.337	59093.57
615.693	58996.63
616.05	58994.37
616.406	59105.55
616.762	59022.84
617.118	58977.64
617.475	58995.72
617.831	59055.61
618.187	59165.66
618.543	59150.75
618.899	59196.85
619.255	59116.17
619.611	59066.91
619.967	59136.51
620.323	59183.06
620.678	59071.43
621.034	59017.19
621.39	59047.02
621.746	59063.29
622.101	59282.49
622.457	59014.93
622.812	59030.75
623.168	59078.21
623.523	59059.9
623.879	59144.65
624.234	58916.63
624.589	59066.91
624.945	59139.22
625.3	59069.17
625.655	58996.63
626.01	58995.5
626.365	59004.54
626.72	58992.11
627.075	58928.38
627.43	58926.57
627.785	58842.05
628.14	58934.03
628.495	58982.39
628.85	58890.64
629.205	58819.23
629.559	58936.74
629.914	58767.25
630.269	58821.94
630.623	58789.4
630.978	58729.74
631.332	58867.82
631.687	58797.08
632.041	58794.6
632.396	58756.63
632.75	58683.19
633.104	58703.75
633.459	58662.17
633.813	58646.58
634.167	58572.01
634.521	58548.5
634.875	58625.11
635.229	58628.27
635.583	58425.12
635.937	58522.97
636.291	58428.96
636.645	58490.88
636.999	58446.36
637.352	58468.96
637.706	58393.48
638.06	58483.42
638.413	58435.51
638.767	58355.51
639.121	58455.62
639.474	58273.26
639.828	58290.66
640.181	58327.49
640.534	58349.64
640.888	58214.5
641.241	58133.15
641.594	58174.73
641.947	58258.12
642.301	58164.11
642.654	58136.99
643.007	58136.54
643.36	58120.04
643.713	58081.62
644.066	58193.26
644.419	57960.72
644.771	57917.79
645.124	57644.8
645.477	57577.91
645.83	57457.01
646.182	57302.89
646.535	57146.05
646.888	57224.47
647.24	57000.97
647.593	57117.35
647.945	57069.45
648.298	56989.67
648.65	56920.3
649.002	56799.85
649.355	56928.21
649.707	56980.86
650.059	57062.67
650.411	57391.25
650.763	57370.23
651.115	57536.78
651.467	57461.3
651.819	57472.6
652.171	57298.59
652.523	57286.39
652.875	57338.37
653.227	57179.05
653.578	57368.65
653.93	57297.69
654.282	57122.33
654.633	57039.16
654.985	57146.05
655.337	57096.11
655.688	57068.77
656.039	57179.95
656.391	56940.86
656.742	56957.81
657.094	56963.46
657.445	57007.75
657.796	56926.62
658.147	56831.71
658.498	56875.1
658.849	56811.6
659.2	56900.18
659.551	56750.36
659.902	56769.11
660.253	56685.95
660.604	56883.01
660.955	56607.99
661.306	56750.13
661.656	56638.5
662.007	56670.36
662.358	56644.82
662.708	56687.99
663.059	56614.54
663.409	56354.44
663.76	56626.75
664.11	56630.14
664.461	56603.02
664.811	56513.75
665.161	56548.1
665.511	56492.96
665.862	56575.9
666.212	56584.94
666.562	56537.48
666.912	56508.56
667.262	56500.2
667.612	56517.37
667.962	56520.99
668.312	56450.7
668.662	56509.91
669.011	56457.26
669.361	56418.84
669.711	56449.58
670.06	56496.58
670.41	56371.16
670.76	56366.19
671.109	56460.65
671.459	56360.31
671.808	56304.27
672.157	56415.68
672.507	56163.48
672.856	56314.21
673.205	56288.9
673.554	56379.75
673.904	56261.33
674.253	56379.29
674.602	56290.94
674.951	55853.21
675.3	55744.28
675.649	56199.41
675.998	56148.79
676.346	56176.81
676.695	56141.33
677.044	55962.13
677.393	56111.28
677.741	56088
678.09	56050.26
678.438	55885.75
678.787	56030.38
679.135	55907.22
679.484	55820.44
679.832	56005.52
680.181	55676.49
680.529	55732.76
680.877	55667.45
681.225	55605.08
681.573	55791.51
681.922	55531.63
682.27	55489.83
682.618	55509.49
682.966	55476.04
683.314	55426.1
683.661	55262.26
684.009	55182.26
684.357	55182.49
684.705	55112.66
685.053	55117.63
685.4	54958.99
685.748	54893.46
686.095	54846
686.443	54868.37
686.79	54769.85
687.138	54795.61
687.485	54663.86
687.832	54605.33
688.18	54588.83
688.527	54370.08
688.874	54377.31
689.221	54328.05
689.568	54242.85
689.915	54115.17
690.262	54156.75
690.609	54100.71
690.956	53933.48
691.303	53961.05
691.65	53776.65
691.997	53721.06
692.344	53536.21
692.69	53534.4
693.037	53501.18
693.383	53290.79
693.73	53482.42
694.077	53213.73
694.423	53174.41
694.769	53017.57
695.116	53041.98
695.462	52982.55
695.808	52929.89
696.155	52844.25
696.501	52605.83
696.847	52614.65
697.193	52361.32
697.539	52574.87
697.885	52268.44
698.231	52221.21
698.577	52185.28
698.923	52076.81
699.269	51978.73
699.614	51843.14
699.96	51794.78
700.306	51734.67
700.651	51600.66
700.997	51531.29
701.342	51482.93
701.688	51444.96
702.033	51447.45
702.379	51289.71
702.724	51166.1
703.069	51286.55
703.415	50988.93
703.76	50872.09
704.105	50928.59
704.45	50748.71
704.795	50654.25
705.14	50514.14
705.485	50510.75
705.83	50385.55
706.175	50409.96
706.52	50258.55
706.865	50219.46
707.209	50032.57
707.554	50030.76
707.899	50080.93
708.243	49953.7
708.588	49896.98
708.932	49669.64
709.277	49536.99
709.621	49663.54
709.966	49365.24
710.31	49520.94
710.654	49078.92
710.998	49121.63
711.342	49185.81
711.687	49012.48
712.031	48872.6
712.375	48761.64
712.719	48734.07
713.063	48762.32
713.407	48866.72
713.75	48699.04
714.094	48691.13
714.438	48468.54
714.782	48475.1
715.125	48199.85
715.469	48271.94
715.812	48171.15
716.156	47985.16
716.499	47972.96
716.843	48026.29
717.186	47550.15
717.53	47816.36
717.873	47706.53
718.216	47610.26
718.559	47372.75
718.902	47219.76
719.246	47329.36
719.589	47229.03
719.932	47018.64
720.275	47057.73
720.617	46969.6
720.96	46847.34
721.303	46953.1
721.646	46864.97
721.989	46647.35
722.331	46838.3
722.674	46734.58
723.016	46701.58
723.359	46457.3
723.701	46504.07
724.044	46322.16
724.386	46156.74
724.729	46122.84
725.071	46005.78
725.413	45969.17
725.755	46008.27
726.097	45751.78
726.439	45662.06
726.782	45676.3
727.124	45749.74
727.465	45561.73
727.807	45381.39
728.149	45312.69
728.491	45319.02
728.833	45243.77
729.175	45034.06
729.516	44915.64
729.858	44912.25
730.199	45065.24
730.541	44802.88
730.882	44843.1
731.224	44824.57
731.565	44522.88
731.906	44454.41
732.248	44497.12
732.589	44174.19
732.93	44013.74
733.271	44066.85
733.612	44069.34
733.953	44089.9
734.294	43864.37
734.635	43816.46
734.976	43892.17
735.317	43644.71
735.658	43628.67
735.999	43518.39
736.339	43539.41
736.68	43581.89
737.021	43361.33
737.361	43237.49
737.702	43412.63
738.042	43240.2
738.383	43093.09
738.723	43094.22
739.063	43006.54
739.404	43042.47
739.744	42722.7
740.084	42654.01
740.424	42700.78
740.764	42543.05
741.104	42766.32
741.444	42550.05
741.784	42216.28
742.124	42487.68
742.464	42224.64
742.804	42155.26
743.143	42246.78
743.483	42149.84
743.823	41946.45
744.162	41913.23
744.502	41859.9
744.841	41869.62
745.181	41986.9
745.52	41688.83
745.86	41772.22
746.199	41685.9
746.538	41520.7
746.877	41732.22
747.216	41621.94
747.556	41356.19
747.895	41544.2
748.234	41318.45
748.573	41200.94
748.911	41120.49
749.25	41126.59
749.589	40955.07
749.928	41044.78
750.267	41072.8
750.605	40940.83
750.944	40950.1
751.283	40668.3
751.621	40924.56
751.96	40535.64
752.298	40516.43
752.636	40420.17
752.975	40212.94
753.313	40176.78
753.651	40335.65
753.989	40147.63
754.327	40160.96
754.666	39798.04
755.004	39998.48
755.342	39876
755.679	39747.42
756.017	39595.55
756.355	39703.57
756.693	39401.66
757.031	39594.88
757.368	39301.33
757.706	39262.68
758.044	39132.74
758.381	39259.29
758.719	39056.59
759.056	38928.68
759.394	38883.03
759.731	38470.84
760.068	38493.44
760.405	38560.33
760.743	38338.64
761.08	38402.59
761.417	38107.23
761.754	38060.45
762.091	37968.93
762.428	37817.75
762.765	37559.45
763.102	37579.11
763.438	37441.94
763.775	37199.69
764.112	37367.14
764.449	37201.04
764.785	37129.86
765.122	36882.41
765.458	36743.2
765.795	36782.3
766.131	36788.62
766.467	36455.3
766.804	36326.04
767.14	36011.24
767.476	36272.93
767.812	35895.99
768.148	36023.67
768.485	35690.8
768.821	35534.19
769.157	35496.68
769.492	35312.28
769.828	35262.11
770.164	35089.91
770.5	34868
770.836	34962
771.171	34691.05
771.507	34600.66
771.842	34329.03
772.178	34340.55
772.513	34091.97
772.849	33987.34
773.184	33892.88
773.519	33957.29
773.855	33693.11
774.19	33610.63
774.525	33318.43
774.86	33437.52
775.195	33268.04
775.53	33009.97
775.865	32890.42
776.2	32722.06
776.535	32422.64
776.87	32517.32
777.205	32329.53
777.539	32175.86
777.874	32120.72
778.209	31890.22
778.543	31836.66
778.878	31737.23
779.212	31692.94
779.547	31399.16
779.881	31614.3
780.215	31261.08
780.55	31398.71
780.884	31126.85
781.218	30952.39
781.552	30869.46
781.886	30686.86
782.22	30577.03
782.554	30363.48
782.888	30175.24
783.222	30050.5
783.556	29986.09
783.889	29864.29
784.223	29716.49
784.557	29651.86
784.89	29672.43
785.224	29439.89
785.557	29328.93
785.891	29245.09
786.224	29151.08
786.558	29161.03
786.891	28839.45
787.224	28629.29
787.557	28734.82
787.891	28649.63
788.224	28575.73
788.557	28545.22
788.89	28399.24
789.223	28392.69
789.556	28112.47
789.888	28125.12
790.221	27954.51
790.554	27797.67
790.887	27790.44
791.219	27647.17
791.552	27654.4
791.884	27373.05
792.217	27296.67
792.549	27194.75
792.882	27053.51
793.214	26959.5
793.546	27131.48
793.879	26791.37
794.211	26671.6
794.543	26846.51
794.875	26753.63
795.207	26814.65
795.539	26566.74
795.871	26513.86
796.203	26229.8
796.535	26234.78
796.867	26158.17
797.198	26013.99
797.53	25985.97
797.862	25891.96
798.193	25899.64
798.525	25788.69
798.856	25710.04
799.188	25527.22
799.519	25368.58
799.85	25202.94
800.182	25300.11
800.513	25319.09
800.844	25050.63
801.175	25146.44
801.506	25123.39
801.837	25010.18
802.168	24908.48
802.499	24897.64
802.83	24834.14
803.161	24745.78
803.491	24734.25
803.822	24796.85
804.153	24588.27
804.483	24466.01
804.814	24202.06
805.145	24287.71
805.475	24301.27
805.805	24141.5
806.136	24149.18
806.466	24075.74
806.796	24076.41
807.126	23935.18
807.457	23846.82
807.787	23980.15
808.117	23874.61
808.447	23731.79
808.777	23781.51
809.107	23840.49
809.436	23650.66
809.766	23657.44
810.096	23480.72
810.426	23502.64
810.755	23382.65
811.085	23407.96
811.414	23332.93
811.744	23114.63
812.073	23148.76
812.403	23203.44
812.732	23040.06
813.061	22901.08
813.39	22866.05
813.719	22895.2
814.049	22931.36
814.378	22712.38
814.707	22670.35
815.036	22708.54
815.365	22588.77
815.693	22472.39
816.022	22339.96
816.351	22395.56
816.68	22231.49
817.008	22313.3
817.337	22097.03
817.665	21909.69
817.994	22056.36
818.322	22128.22
818.651	21864.04
818.979	21857.94
819.307	21956.24
819.636	21850.03
819.964	21671.28
820.292	21714.67
820.62	21759.64
820.948	21624.95
821.276	21692.07
821.604	21614.33
821.932	21729.81
822.259	21653.65
822.587	21650.72
822.915	21531.62
823.243	21498.86
823.57	21477.61
823.898	21474.22
824.225	21414.11
824.553	21376.82
824.88	21378.86
825.207	21509.25
825.535	21525.3
825.862	21562.81
826.189	21374.79
826.516	21469.03
826.843	21456.14
827.17	21545.18
827.497	21464.05
827.824	21408.69
828.151	21395.81
828.478	21378.86
828.805	21453.21
829.131	21330.5
829.458	21465.64
829.785	21214.12
830.111	21162.14
830.438	21288.24
830.764	21212.08
831.09	21136.61
831.417	21091.63
831.743	21219.77
832.069	21162.37
832.395	21076.72
832.722	21177.51
833.048	20991.98
833.374	21034.69
833.7	20918.08
834.026	20971.19
834.351	20998.3
834.677	20847.8
835.003	20782.26
835.329	20802.38
835.654	20896.84
835.98	20742.72
836.306	20804.64
836.631	20648.93
836.956	20737.07
837.282	20600.8
837.607	20504.98
837.932	20479.22
838.258	20382.95
838.583	20436.51
838.908	20326.68
839.233	20329.85
839.558	20279.68
839.883	20153.35
840.208	20191.09
840.533	20114.71
840.858	20021.15
841.182	20131.89
841.507	20077.42
841.832	19934.15
842.156	19961.04
842.481	19968.05
842.805	19787.26
843.13	19724.44
843.454	19719.24
843.778	19742.97
844.103	19625.01
844.427	19625.68
844.751	19535.52
845.075	19515.18
845.399	19497.33
845.723	19333.49
846.047	19402.19
846.371	19130.56
846.695	19292.13
847.019	18992.71
847.343	18996.1
847.666	18801.3
847.99	18812.37
848.313	18697.8
848.637	18684.92
848.96	18645.6
849.284	18470.46
849.607	18317.24
849.931	18300.52
850.254	18312.95
850.577	18263.23
850.9	18099.85
851.223	18040.19
851.546	17994.09
851.869	17873.41
852.192	17957.03
852.515	17817.82
852.838	17764.94
853.161	17754.55
853.483	17660.76
853.806	17586.19
854.129	17557.94
854.451	17395.01
854.774	17460.32
855.096	17415.12
855.419	17410.6
855.741	17272.53
856.063	17194.11
856.385	17143.94
856.708	17136.48
857.03	17170.83
857.352	17229.59
857.674	17107.56
857.996	17054.9
858.318	16936.26
858.64	16877.96
858.961	16813.1
859.283	16844.29
859.605	16726.33
859.926	16696.04
860.248	16730.39
860.57	16651.98
860.891	16693.11
861.212	16559.1
861.534	16493.56
861.855	16489.27
862.176	16563.62
862.498	16423.28
862.819	16444.07
863.14	16499.44
863.461	16439.78
863.782	16354.81
864.103	16386.22
864.424	16288.15
864.745	16276.17
865.065	16232.55
865.386	16181.71
865.707	16130.64
866.027	16224.19
866.348	16140.8
866.668	16174.25
866.989	16028.04
867.309	15963.41
867.63	15963.63
867.95	16069.39
868.27	15956.18
868.59	15993.92
868.91	16012.67
869.23	15953.92
869.55	15991.66
869.87	15986.01
870.19	15884.31
870.51	15915.73
870.83	16051.77
871.15	15897.19
871.469	15868.27
871.789	15902.39
872.109	15897.42
872.428	15755.73
872.748	15807.93
873.067	15724.09
873.386	15780.14
873.706	15684.77
874.025	15598.22
874.344	15591.21
874.663	15628.95
874.982	15656.75
875.301	15580.59
875.62	15524.1
875.939	15461.05
876.258	15453.14
876.577	15422.86
876.896	15492.46
877.214	15369.98
877.533	15352.35
877.852	15362.97
878.17	15361.62
878.489	15354.16
878.807	15300.15
879.125	15252.69
879.444	15217.21
879.762	15064.45
880.08	15147.84
880.398	15067.61
880.716	15049.31
881.034	14919.59
881.352	14975.41
881.67	14873.04
881.988	14973.83
882.306	14937.67
882.624	14857.9
882.941	14786.04
883.259	14792.37
883.577	14723.67
883.894	14685.48
884.212	14646.83
884.529	14620.17
884.846	14585.59
885.164	14458.59
885.481	14440.28
885.798	14508.98
886.115	14328.2
886.432	14238.71
886.75	14255.66
887.067	14346.28
887.383	14136.56
887.7	14161.2
888.017	14009.11
888.334	14176.79
888.651	14093.17
888.967	14080.52
889.284	13950.13
889.6	13837.59
889.917	13817.25
890.233	13786.97
890.55	13732.05
890.866	13824.93
891.182	13654.32
891.498	13623.58
891.815	13560.31
892.131	13567.76
892.447	13447.32
892.763	13360.31
893.079	13377.04
893.395	13268.79
893.71	13312.4
894.026	13224.95
894.342	13247.55
894.657	13237.15
894.973	13106.53
895.289	13089.36
895.604	13064.28
895.92	12923.94
896.235	12843.72
896.55	12903.83
896.865	12785.86
897.181	12748.58
897.496	12767.79
897.811	12697.96
898.126	12663.83
898.441	12576.83
898.756	12538.19
899.071	12472.2
899.386	12463.39
899.7	12399.89
900.015	12249.16
900.33	12149.27
900.644	12170.97
900.959	12175.26
901.273	12014.13
901.588	12013
901.902	12025.43
902.216	12013.68
902.531	11899.11
902.845	11832.9
903.159	11755.83
903.473	11766.46
903.787	11711.99
904.101	11721.03
904.415	11704.54
904.729	11678.55
905.042	11571.43
905.356	11582.28
905.67	11477.42
905.984	11489.4
906.297	11444.66
906.611	11338.44
906.924	11246.02
907.237	11297.32
907.551	11191.33
907.864	11182.29
908.177	11137.77
908.491	11053.93
908.804	11052.12
909.117	10911.34
909.43	10909.53
909.743	10881.06
910.056	10776.43
910.368	10760.61
910.681	10699.59
910.994	10704.34
911.307	10630.21
911.619	10586.83
911.932	10608.52
912.244	10536.43
912.557	10417.34
912.869	10429.32
913.181	10315.87
913.494	10414.85
913.806	10329.43
914.118	10261.41
914.43	10200.17
914.742	10199.94
915.054	10202.66
915.366	10116.78
915.678	10049.44
915.99	10062.09
916.302	10010.34
916.613	9914.53
916.925	9895.54
917.236	9901.87
917.548	9857.58
917.859	9879.27
918.171	9806.51
918.482	9737.81
918.794	9741.2
919.105	9725.15
919.416	9677.02
919.727	9617.59
920.038	9625.04
920.349	9541.66
920.66	9509.79
920.971	9496.46
921.282	9468.21
921.593	9412.39
921.903	9300.08
922.214	9364.94
922.525	9307.31
922.835	9238.61
923.146	9177.82
923.456	9268.22
923.767	9243.81
924.077	9155.9
924.387	9148.67
924.697	9066.87
925.008	9044.27
925.318	8944.84
925.628	8964.5
925.938	8945.74
926.248	8845.18
926.558	8865.52
926.867	8842.01
927.177	8807.21
927.487	8677.05
927.796	8651.74
928.106	8658.06
928.416	8641.34
928.725	8635.47
929.034	8522.47
929.344	8539.2
929.653	8506.43
929.962	8471.63
930.271	8418.52
930.581	8344.4
930.89	8312.31
931.199	8292.42
931.508	8263.5
931.817	8269.15
932.125	8186.44
932.434	8215.14
932.743	8079.32
933.051	8104.41
933.36	8021.02
933.669	8048.81
933.977	7960.45
934.286	7988.93
934.594	7974.01
934.902	7858.76
935.21	7844.3
935.519	7793.23
935.827	7795.94
936.135	7740.35
936.443	7665.1
936.751	7730.63
937.059	7681.59
937.367	7607.24
937.674	7631.2
937.982	7594.36
938.29	7508.94
938.597	7564.76
938.905	7492.9
939.213	7425.78
939.52	7449.73
939.827	7419.68
940.135	7342.84
940.442	7402.96
940.749	7282.73
941.056	7331.77
941.363	7297.65
941.67	7277.53
941.977	7153.24
942.284	7103.08
942.591	7072.34
942.898	7022.63
943.205	7056.3
943.511	6996.64
943.818	6993.7
944.125	6953.48
944.431	6969.29
944.738	6970.65
945.044	6832.57
945.35	6842.74
945.657	6862.86
945.963	6828.73
946.269	6763.42
946.575	6779.92
946.881	6711.45
947.187	6702.41
947.493	6619.92
947.799	6618.34
948.105	6544.9
948.41	6517.1
948.716	6518.68
949.022	6530.66
949.327	6491.11
949.633	6534.5
949.938	6451.12
950.244	6424.45
950.549	6371.8
950.854	6305.58
951.16	6353.04
951.465	6282.31
951.77	6281.63
952.075	6269.2
952.38	6212.48
952.685	6245.02
952.99	6122.99
953.294	6118.92
953.599	6074.63
953.904	6041.86
954.209	6031.01
954.513	6027.85
954.818	5999.6
955.122	5984.24
955.426	5859.04
955.731	5889.77
956.035	5866.72
956.339	5788.31
956.643	5780.17
956.948	5720.74
957.252	5713.28
957.556	5681.19
957.86	5645.94
958.163	5604.36
958.467	5619.27
958.771	5559.39
959.075	5584.7
959.378	5494.98
959.682	5485.27
959.985	5518.48
960.289	5387.41
960.592	5360.97
960.896	5329.79
961.199	5327.08
961.502	5283.69
961.805	5313.07
962.108	5259.73
962.411	5281.65
962.714	5196.23
963.017	5205.95
963.32	5175.22
963.623	5125.27
963.926	5130.25
964.228	5093.64
964.531	5094.77
964.833	5037.14
965.136	4996.01
965.438	4986.3
965.741	4945.62
966.043	4947.65
966.345	4942.68
966.648	4858.84
966.95	4922.34
967.252	4853.19
967.554	4801.89
967.856	4862.46
968.158	4803.93
968.46	4803.93
968.761	4763.7
969.063	4689.81
969.365	4690.71
969.666	4633.99
969.968	4628.34
970.269	4629.02
970.571	4608.9
970.872	4609.81
971.174	4572.3
971.475	4545.86
971.776	4459.53
972.077	4510.15
972.378	4466.54
972.679	4448.68
972.98	4474.67
973.281	4460.89
973.582	4428.8
973.883	4397.61
974.183	4337.05
974.484	4384.73
974.785	4337.05
975.085	4305.64
975.386	4318.74
975.686	4260.89
975.986	4298.4
976.287	4243.94
976.587	4238.52
976.887	4195.36
977.187	4162.81
977.487	4202.81
977.787	4173.66
978.087	4127.11
978.387	4112.65
978.687	4118.52
978.987	4099.99
979.286	4058.64
979.586	4024.06
979.885	3999.65
980.185	3959.66
980.484	3935.02
980.784	3921.24
981.083	3878.98
981.382	3921.24
981.682	3911.97
981.981	3903.16
982.28	3851.41
982.579	3862.03
982.878	3830.62
983.177	3768.7
983.475	3777.51
983.774	3745.2
984.073	3747.23
984.372	3668.59
984.67	3672.66
984.969	3644.86
985.267	3679.89
985.566	3615.26
985.864	3565.77
986.162	3570.51
986.461	3555.6
986.759	3583.17
987.057	3512.66
987.355	3554.92
987.653	3510.18
987.951	3515.6
988.249	3463.17
988.547	3482.15
988.844	3427.47
989.142	3410.29
989.44	3422.49
989.737	3392.44
990.035	3351.31
990.332	3351.31
990.63	3334.81
990.927	3307.92
991.224	3294.14
991.521	3298.66
991.819	3227.47
992.116	3272.67
992.413	3218.88
992.71	3201.71
993.006	3218.88
993.303	3173.91
993.6	3222.05
993.897	3130.98
994.193	3175.72
994.49	3114.71
994.787	3118.55
995.083	3120.81
995.379	3092.79
995.676	3057.98
995.972	3072.9
996.268	3034.26
996.565	3050.98
996.861	3043.75
997.157	2982.73
997.453	3020.92
997.749	3020.25
998.044	2955.84
998.34	2968.04
998.636	2970.98
998.932	2931.21
999.227	2946.8
999.523	2878.55
999.818	2931.21
1000.114	2868.16
1000.409	2863.41
1000.704	2852.34
1001	2861.61
1001.295	2856.18
1001.59	2823.64
1001.885	2799.23
1002.18	2790.87
1002.475	2765.56
1002.77	2787.48
1003.065	2721.04
1003.359	2745.45
1003.654	2761.5
1003.949	2741.83
1004.243	2745.68
1004.538	2683.53
1004.832	2687.37
1005.127	2661.61
1005.421	2678.11
1005.715	2648.96
1006.009	2589.97
1006.304	2585.68
1006.598	2565.34
1006.892	2618
1007.186	2546.59
1007.48	2555.62
1007.773	2481.28
1008.067	2544.78
1008.361	2490.32
1008.655	2488.28
1008.948	2493.25
1009.242	2530.54
1009.535	2471.11
1009.829	2419.58
1010.122	2430.43
1010.415	2411.22
1010.708	2401.5
1011.001	2405.12
1011.295	2359.02
1011.588	2341.17
1011.881	2364.22
1012.173	2322.18
1012.466	2302.07
1012.759	2287.16
1013.052	2314.05
1013.344	2293.71
1013.637	2238.35
1013.93	2261.4
1014.222	2246.03
1014.514	2207.39
1014.807	2182.75
1015.099	2178.69
1015.391	2199.7
1015.683	2162.19
1015.976	2133.26
1016.268	2108.86
1016.56	2145.69
1016.851	2117.67
1017.143	2114.28
1017.435	2053.72
1017.727	2035.86
1018.018	2031.8
1018.31	2034.06
1018.602	2029.54
1018.893	1986.15
1019.185	1988.41
1019.476	1999.03
1019.767	2001.52
1020.058	1945.25
1020.35	1942.31
1020.641	1936.88
1020.932	1915.64
1021.223	1922.65
1021.514	1891.91
1021.804	1902.31
1022.095	1880.39
1022.386	1867.73
1022.677	1843.1
1022.967	1806.72
1023.258	1805.81
1023.548	1763.56
1023.839	1784.57
1024.129	1753.61
1024.419	1773.27
1024.709	1768.75
1025	1754.52
1025.29	1722.43
1025.58	1693.05
1025.87	1678.81
1026.16	1689.88
1026.449	1713.16
1026.739	1666.61
1027.029	1664.12
1027.319	1648.98
1027.608	1658.93
1027.898	1639.94
1028.187	1586.16
1028.477	1590.68
1028.766	1591.58
1029.055	1597.23
1029.344	1555.65
1029.634	1551.13
1029.923	1555.65
1030.212	1541.64
1030.501	1529.21
1030.79	1505.71
1031.078	1542.09
1031.367	1472.04
1031.656	1498.48
1031.945	1488.99
1032.233	1469.55
1032.522	1457.12
1032.81	1463.68
1033.099	1424.58
1033.387	1447.18
1033.675	1437.24
1033.963	1425.94
1034.251	1401.76
1034.54	1375.77
1034.828	1369.89
1035.116	1340.06
1035.403	1356.56
1035.691	1340.74
1035.979	1332.15
1036.267	1331.93
1036.554	1326.96
1036.842	1272.04
1037.129	1286.51
1037.417	1296.67
1037.704	1266.62
1037.992	1254.19
1038.279	1288.31
1038.566	1257.13
1038.853	1257.13
1039.14	1257.13
