Data from white_steel_sheet_FLMS001491_082.txt Node
Date: Tue Feb 07 10:58:36 GMT 2017
User: dcchb
Spectrometer: FLMS00149
Trigger mode: 0
Integration Time (sec): 2.000000E-2
Scans to average: 10
Electric dark correction enabled: true
Nonlinearity correction enabled: false
Boxcar width: 0
XAxis mode: Wavelengths
Number of Pixels in Spectrum: 2048
>>>>>Begin Spectral Data<<<<<
341.393	3.7
341.776	3.7
342.16	3.7
342.543	-63.42
342.927	-66.81
343.31	-53.02
343.693	-87.14
344.077	-69.29
344.46	-66.13
344.843	-33.36
345.226	-50.76
345.61	-32.91
345.993	-11.89
346.376	-9.18
346.759	11.16
347.142	28.11
347.525	43.02
347.908	53.42
348.291	68.11
348.674	87.77
349.057	122.12
349.44	136.13
349.823	146.75
350.206	166.86
350.588	203.24
350.971	221.77
351.354	250.7
351.737	260.42
352.119	245.73
352.502	250.25
352.884	266.29
353.267	284.82
353.65	297.03
354.032	313.97
354.414	315.78
354.797	334.09
355.179	330.25
355.562	310.36
355.944	328.44
356.326	345.16
356.709	322.11
357.091	346.29
357.473	335.44
357.855	357.82
358.238	332.96
358.62	333.18
359.002	361.43
359.384	353.52
359.766	351.49
360.148	352.84
360.53	344.93
360.912	350.36
361.294	346.29
361.676	355.56
362.057	346.97
362.439	351.04
362.821	346.06
363.203	353.52
363.584	334.54
363.966	349.45
364.348	345.61
364.729	337.7
365.111	336.8
365.493	343.8
365.874	344.26
366.256	320.08
366.637	343.8
367.019	329.12
367.4	322.34
367.781	322.11
368.163	350.58
368.544	327.31
368.925	332.73
369.306	323.92
369.688	334.77
370.069	332.96
370.45	336.57
370.831	337.93
371.212	325.5
371.593	333.41
371.974	338.38
372.355	330.25
372.736	332.96
373.117	353.97
373.498	348.1
373.879	339.96
374.26	344.26
374.641	348.55
375.021	339.96
375.402	345.16
375.783	353.52
376.163	347.65
376.544	362.79
376.925	343.58
377.305	358.27
377.686	360.3
378.066	356.91
378.447	365.95
378.827	373.86
379.208	364.37
379.588	356.01
379.968	351.71
380.349	364.82
380.729	370.92
381.109	359.85
381.489	362.79
381.87	370.92
382.25	349.23
382.63	358.72
383.01	372.96
383.39	366.18
383.77	392.39
384.15	377.93
384.53	400.07
384.91	353.97
385.29	391.49
385.67	367.76
386.049	402.11
386.429	394.42
386.809	385.16
387.189	414.54
387.568	404.37
387.948	407.76
388.328	432.16
388.707	421.77
389.087	404.59
389.466	435.78
389.846	422.9
390.225	438.49
390.605	430.13
390.984	447.53
391.363	443.24
391.743	434.2
392.122	441.88
392.501	446.63
392.881	440.75
393.26	458.38
393.639	449.34
394.018	484.37
394.397	478.49
394.776	479.39
395.155	475.33
395.534	491.6
395.913	507.64
396.292	515.33
396.671	509
397.05	508.77
397.429	515.33
397.808	526.17
398.186	531.37
398.565	548.32
398.944	562.1
399.323	535.89
399.701	566.17
400.08	562.33
400.458	565.72
400.837	585.61
401.215	579.28
401.594	592.84
401.972	599.39
402.351	605.04
402.729	621.76
403.107	630.8
403.486	615.21
403.864	640.97
404.242	674.19
404.62	642.55
404.999	677.36
405.377	669.22
405.755	678.94
406.133	695.21
406.511	696.11
406.889	735.43
407.267	741.53
407.645	734.53
408.023	757.35
408.401	778.6
408.779	787.41
409.156	809.1
409.534	784.02
409.912	796.9
410.29	819.72
410.667	845.71
411.045	868.76
411.422	860.85
411.8	887.07
412.178	921.42
412.555	913.96
412.933	892.49
413.31	925.48
413.687	936.11
414.065	954.86
414.442	955.31
414.819	977.46
415.197	992.6
415.574	994.18
415.951	1032.37
416.328	1010
416.705	1031.47
417.082	1031.47
417.46	1057.01
417.837	1069.89
418.214	1060.4
418.591	1099.94
418.967	1086.84
419.344	1120.51
419.721	1151.24
420.098	1123.9
420.475	1148.3
420.852	1182.2
421.228	1141.75
421.605	1160.28
421.982	1191.01
422.358	1203.67
422.735	1225.82
423.111	1256.77
423.488	1249.09
423.864	1266.49
424.241	1260.84
424.617	1312.37
424.994	1287.96
425.37	1300.39
425.746	1308.52
426.123	1361.86
426.499	1342.42
426.875	1362.76
427.251	1380.16
427.627	1398.92
428.003	1466.94
428.379	1443.66
428.756	1464.68
429.132	1481.85
429.507	1495.86
429.883	1500.84
430.259	1549.2
430.635	1569.76
431.011	1534.06
431.387	1591.68
431.763	1624.67
432.138	1622.64
432.514	1638.91
432.89	1673.71
433.265	1710.1
433.641	1731.34
434.016	1743.99
434.392	1775.63
434.767	1815.63
435.143	1860.37
435.518	1846.14
435.894	1851.34
436.269	1870.54
436.644	1877.78
437.02	1928.85
437.395	1919.13
437.77	1950.09
438.145	1977.89
438.52	1990.54
438.895	1992.57
439.271	2016.08
439.646	2097.66
440.021	2101.05
440.395	2073.7
440.77	2079.8
441.145	2131.78
441.52	2142.63
441.895	2120.03
442.27	2204.09
442.645	2186.24
443.019	2208.61
443.394	2204.55
443.769	2248.61
444.143	2200.7
444.518	2266.47
444.892	2280.25
445.267	2292.68
445.641	2341.49
446.016	2387.82
446.39	2379.46
446.764	2423.07
447.139	2414.48
447.513	2421.94
447.887	2430.76
448.262	2446.57
448.636	2459.46
449.01	2504.65
449.384	2519.79
449.758	2528.61
450.132	2569.06
450.506	2592.11
450.88	2602.73
451.254	2611.54
451.628	2646.34
452.002	2668.94
452.376	2700.8
452.75	2734.48
453.123	2739.45
453.497	2775.38
453.871	2805.43
454.244	2866.45
454.618	2880.01
454.992	2934.92
455.365	2986.67
455.739	3069.83
456.112	3052.66
456.486	3072.09
456.859	3104.64
457.232	3170.4
457.606	3158.42
457.979	3184.63
458.352	3267.12
458.725	3321.13
459.099	3289.49
459.472	3381.24
459.845	3418.75
460.218	3417.62
460.591	3473.67
460.964	3446.32
461.337	3579.65
461.71	3624.85
462.083	3664.62
462.456	3676.82
462.829	3702.36
463.201	3770.16
463.574	3779.87
463.947	3807.44
464.32	3916.59
464.692	3950.26
465.065	3929.47
465.438	4021.9
465.81	4028.91
466.183	4120.65
466.555	4184.83
466.928	4201.56
467.3	4257.6
467.672	4328.78
468.045	4400.87
468.417	4464.83
468.789	4461.21
469.161	4510.7
469.534	4637.02
469.906	4675.44
470.278	4770.58
470.65	4804.93
471.022	4882.44
471.394	4979.16
471.766	4998.82
472.138	5105.71
472.51	5097.8
472.882	5214.86
473.253	5288.08
473.625	5401.52
473.997	5479.26
474.369	5486.49
474.74	5592.03
475.112	5669.54
475.484	5828.18
475.855	5852.36
476.227	5903.66
476.598	6045.8
476.97	6118.34
477.341	6275.17
477.713	6354.27
478.084	6452.34
478.455	6560.36
478.827	6619.35
479.198	6855.5
479.569	6863.41
479.94	7000.58
480.311	7107.24
480.682	7226.79
481.053	7421.36
481.424	7568.47
481.795	7611.64
482.166	7743.61
482.537	7803.27
482.908	7986.09
483.279	8041.91
483.65	8227.21
484.021	8375.91
484.391	8519.18
484.762	8565.51
485.133	8657.71
485.503	8790.36
485.874	8945.61
486.244	9078.72
486.615	9219.28
486.985	9330.69
487.356	9480.97
487.726	9585.6
488.097	9768.19
488.467	9777.45
488.837	10036.43
489.207	10176.09
489.578	10309.64
489.948	10400.04
490.318	10451.34
490.688	10594.38
491.058	10716.41
491.428	10856.3
491.798	10992.79
492.168	11187.81
492.538	11281.14
492.908	11400.24
493.278	11575.15
493.648	11589.38
494.017	11713.22
494.387	11877.96
494.757	11962.71
495.126	12076.6
495.496	12147.11
495.866	12198.41
496.235	12404.28
496.605	12486.08
496.974	12591.17
497.344	12762.01
497.713	12757.49
498.082	12949.12
498.452	12971.95
498.821	13121.55
499.19	13192.51
499.559	13301.88
499.928	13380.3
500.298	13526.06
500.667	13644.47
501.036	13627.98
501.405	13798.14
501.774	13782.77
502.143	13932.15
502.512	14013.28
502.88	14166.49
503.249	14183.21
503.618	14349.31
503.987	14418.01
504.356	14498.69
504.724	14590.44
505.093	14715.18
505.462	14682.86
505.83	14870.88
506.199	15039.69
506.567	15208.95
506.936	15216.18
507.304	15434.48
507.672	15451.43
508.041	15547.47
508.409	15660.69
508.777	15782.27
509.145	15870.4
509.514	15957.18
509.882	16156.5
510.25	16167.8
510.618	16330.05
510.986	16387.9
511.354	16620.89
511.722	16702.7
512.09	16931.39
512.458	16942.46
512.826	16946.31
513.193	17153.31
513.561	17116.24
513.929	17319.18
514.297	17517.82
514.664	17722.1
515.032	17771.82
515.4	17969.1
515.767	18004.36
516.135	18050.68
516.502	18042.32
516.869	18371.13
517.237	18452.25
517.604	18510.33
517.972	18691.57
518.339	18883.66
518.706	18998
519.073	19093.82
519.44	19135.63
519.808	19474.6
520.175	19458.78
520.542	19738.1
520.909	19794.37
521.276	19843.18
521.643	20043.17
522.009	20239.55
522.376	20303.05
522.743	20576.94
523.11	20723.83
523.477	20967.44
523.843	21115.24
524.21	21298.06
524.577	21427.32
524.943	21575.34
525.31	21610.59
525.676	21912.95
526.043	22155.89
526.409	22177.81
526.776	22355.2
527.142	22427.52
527.508	22639.72
527.874	22775.76
528.241	22946.15
528.607	23036.77
528.973	23162.19
529.339	23301.84
529.705	23481.05
530.071	23679.01
530.437	23791.32
530.803	24021.15
531.169	24142.5
531.535	24079.9
531.901	24309.95
532.267	24404.19
532.632	24599.44
532.998	24637.63
533.364	24780.68
533.73	24839.43
534.095	25108.35
534.461	25161.01
534.826	25215.92
535.192	25386.08
535.557	25600.32
535.923	25612.29
536.288	25720.31
536.653	25884.38
537.019	25799.63
537.384	25940.65
537.749	26072.62
538.114	26256.34
538.479	26238.49
538.845	26468.54
539.21	26416.34
539.575	26689.78
539.94	26580.18
540.305	26826.05
540.67	26753.05
541.034	26952.14
541.399	27137.45
541.764	27087.73
542.129	27365.47
542.494	27275.53
542.858	27469.19
543.223	27398.46
543.587	27809.52
543.952	27637.78
544.316	27857.66
544.681	27857.21
545.045	27978.78
545.41	28126.12
545.774	28175.39
546.138	28295.61
546.503	28323.41
546.867	28324.76
547.231	28644.3
547.595	28665.32
547.959	28774.02
548.324	28836.16
548.688	28936.73
549.052	29150.5
549.416	29130.62
549.779	29105.99
550.143	29215.81
550.507	29569.7
550.871	29685.63
551.235	29563.6
551.599	29862.58
551.962	29720.89
552.326	29986.64
552.689	30125.62
553.053	29875.68
553.417	30108.67
553.78	30557.93
554.143	30429.12
554.507	30581.2
554.87	30711.37
555.234	31034.07
555.597	30988.42
555.96	31083.56
556.323	31244.23
556.686	31173.73
557.05	31504.34
557.413	31558.35
557.776	31530.78
558.139	31735.07
558.502	31860.72
558.865	31951.11
559.228	32289.18
559.59	32352.23
559.953	32509.96
560.316	32659.11
560.679	32713.35
561.041	32904.76
561.404	33187.91
561.767	33205.77
562.129	33212.09
562.492	33612.08
562.854	33529.37
563.217	33578.18
563.579	33799.42
563.941	33912.19
564.304	34040.32
564.666	34205.74
565.028	34270.82
565.39	34455.68
565.753	34492.74
566.115	34901.99
566.477	34935.21
566.839	34955.55
567.201	35261.08
567.563	35265.82
567.925	35435.31
568.287	35394.63
568.648	35451.36
569.01	35786.49
569.372	35977.44
569.734	35883.21
570.095	36112.13
570.457	36425.12
570.819	36339.92
571.18	36442.52
571.542	36550.31
571.903	36576.75
572.265	36760.02
572.626	36855.16
572.987	36885.67
573.349	36934.71
573.71	37105.55
574.071	37220.58
574.432	37347.35
574.794	37450.85
575.155	37565.42
575.516	37409.95
575.877	37660.34
576.238	37779.66
576.599	37918.86
576.96	37798.41
577.32	37763.39
577.681	37904.4
578.042	37998.86
578.403	38053.55
578.763	38051.74
579.124	38051.06
579.485	38279.76
579.845	38270.72
580.206	38256.93
580.566	38243.37
580.927	38424.16
581.287	38418.28
581.648	38350.26
582.008	38643.14
582.368	38438.85
582.728	38530.15
583.089	38510.26
583.449	38430.94
583.809	38449.02
584.169	38586.19
584.529	38500.77
584.889	38872.51
585.249	38579.86
585.609	38428
585.969	38779.86
586.329	38653.53
586.688	38738.05
587.048	38651.95
587.408	38494.21
587.768	38556.59
588.127	38651.05
588.487	38594.55
588.846	38746.41
589.206	38547.32
589.565	38509.58
589.925	38765.39
590.284	38591.39
590.643	38639.97
591.003	38871.83
591.362	38760.87
591.721	38867.54
592.08	38733.98
592.44	38676.36
592.799	38796.35
593.158	38676.13
593.517	38738.5
593.876	38717.26
594.235	38745.28
594.593	38744.38
594.952	38940.98
595.311	38712.51
595.67	38824.15
596.029	39059.4
596.387	39025.05
596.746	39012.84
597.104	38812.85
597.463	38844.26
597.822	39049
598.18	38875.67
598.538	38871.61
598.897	39029.79
599.255	38755.68
599.613	39405.83
599.972	39023.69
600.33	39077.02
600.688	38857.59
601.046	39105.05
601.404	39211.03
601.762	39123.58
602.12	39312.05
602.478	39344.59
602.836	39114.99
603.194	38917.25
603.552	39120.64
603.91	38880.87
604.268	39108.89
604.625	38982.34
604.983	39167.64
605.341	39093.75
605.698	39166.96
606.056	39446.73
606.413	39370.12
606.771	39362.44
607.128	39465.94
607.485	39275.89
607.843	39272.5
608.2	39525.37
608.557	39560.17
608.914	39509.55
609.272	39626.84
609.629	39826.16
609.986	39884.23
610.343	39691.02
610.7	39978.24
611.057	39917.45
611.414	39826.61
611.771	39859.83
612.127	39984.12
612.484	40014.4
612.841	40293.94
613.198	39929.66
613.554	39975.3
613.911	40256.43
614.267	40276.77
614.624	40225.24
614.98	40303.43
615.337	40462.52
615.693	40314.05
616.05	40334.62
616.406	40353.37
616.762	40520.38
617.118	40352.7
617.475	40401.06
617.831	40612.8
618.187	40640.37
618.543	40583.65
618.899	40867.94
619.255	40792.68
619.611	40796.3
619.967	41056.41
620.323	40960.59
620.678	40728.28
621.034	40815.06
621.39	40834.49
621.746	40719.01
622.101	41153.8
622.457	40839.69
622.812	40888.95
623.168	41005.56
623.523	40898.22
623.879	41039.46
624.234	40855.28
624.589	40943.87
624.945	41013.24
625.3	40956.52
625.655	41024.32
626.01	41029.29
626.365	41089.17
626.72	40888.73
627.075	40862.74
627.43	40872
627.785	40811.22
628.14	40950.65
628.495	40944.77
628.85	40883.08
629.205	40706.36
629.559	40938.44
629.914	40724.66
630.269	40782.97
630.623	40639.02
630.978	40650.32
631.332	40856.19
631.687	40712.23
632.041	40544.33
632.396	40620.03
632.75	40440.15
633.104	40610.09
633.459	40357.44
633.813	40332.36
634.167	40294.84
634.521	40303.21
634.875	40388.4
635.229	40288.97
635.583	40176.88
635.937	40106.37
636.291	40174.85
636.645	40122.42
636.999	39996.55
637.352	39968.75
637.706	39760.17
638.06	39874.52
638.413	39686.95
638.767	39629.55
639.121	39708.87
639.474	39425.94
639.828	39562.66
640.181	39532.38
640.534	39574.64
640.888	39534.64
641.241	39324.7
641.594	39361.54
641.947	39422.55
642.301	39257.81
642.654	39368.09
643.007	39333.29
643.36	39285.61
643.713	39129.45
644.066	39318.15
644.419	39074.09
644.771	38718.61
645.124	38508.9
645.477	38260.55
645.83	38051.97
646.182	37810.84
646.535	37943.95
646.888	37975.36
647.24	37845.19
647.593	38104.85
647.945	37946.88
648.298	37748.7
648.65	37639.77
649.002	37548.25
649.355	37653.56
649.707	37487.46
650.059	37577.85
650.411	38045.41
650.763	38135.81
651.115	38526.3
651.467	38407.21
651.819	38284.95
652.171	38249.02
652.523	38112.98
652.875	38293.09
653.227	38104.39
653.578	38322.24
653.93	38127.22
654.282	37992.08
654.633	37906.66
654.985	37915.47
655.337	37935.36
655.688	37964.28
656.039	37998.41
656.391	37682.26
656.742	37752.31
657.094	37722.71
657.445	37827.79
657.796	37668.47
658.147	37728.36
658.498	37618.76
658.849	37718.64
659.2	37678.87
659.551	37425.99
659.902	37647.68
660.253	37529.04
660.604	37547.12
660.955	37246.56
661.306	37448.59
661.656	37383.06
662.007	37333.11
662.358	37265.32
662.708	37150.52
663.059	37087.25
663.409	36854.48
663.76	37035.72
664.11	36969.96
664.461	37097.41
664.811	36879.57
665.161	36897.19
665.511	36791.66
665.862	36626.69
666.212	36793.47
666.562	36575.39
666.912	36562.97
667.262	36477.54
667.612	36344.44
667.962	36283.65
668.312	36187.61
668.662	36329.3
669.011	36256.76
669.361	36034.39
669.711	35879.14
670.06	35904.9
670.41	35749.88
670.76	35652.48
671.109	35812.02
671.459	35554.4
671.808	35524.35
672.157	35389.66
672.507	35367.06
672.856	35249.78
673.205	35221.98
673.554	35342.21
673.904	35121.2
674.253	35289.78
674.602	35218.14
674.951	34553.3
675.3	34405.06
675.649	34932.5
675.998	34886.63
676.346	34989.22
676.695	34951.26
677.044	34813.63
677.393	34883.24
677.741	34825.61
678.09	34618.61
678.438	34644.37
678.787	34728.89
679.135	34694.54
679.484	34408.45
679.832	34672.39
680.181	34427.88
680.529	34595.11
680.877	34342.23
681.225	34430.37
681.573	34659.74
681.922	34382.46
682.27	34392.63
682.618	34509.23
682.966	34502.45
683.314	34593.98
683.661	34478.5
684.009	34187.43
684.357	34301.33
684.705	34317.15
685.053	34378.62
685.4	34396.47
685.748	34333.87
686.095	34210.94
686.443	34077.38
686.79	34266.75
687.138	34269.92
687.485	34333.65
687.832	34266.3
688.18	34276.25
688.527	34226.76
688.874	34209.13
689.221	34257.72
689.568	34146.98
689.915	34087.1
690.262	34105.4
690.609	34045.52
690.956	33890.95
691.303	33973.88
691.65	33835.13
691.997	33877.39
692.344	33618.18
692.69	33628.58
693.037	33691.63
693.383	33432.43
693.73	33643.95
694.077	33417.51
694.423	33584.96
694.769	33274.46
695.116	33371.86
695.462	33418.42
695.808	33204.18
696.155	33344.52
696.501	33056.62
696.847	33181.59
697.193	32976.62
697.539	33040.12
697.885	32735.04
698.231	32752.44
698.577	32737.76
698.923	32749.05
699.269	32575.73
699.614	32419.57
699.96	32410.08
700.306	32394.71
700.651	32295.73
700.997	32233.36
701.342	32110.43
701.688	32114.72
702.033	32058.22
702.379	31976.87
702.724	31891.68
703.069	31914.5
703.415	31504.57
703.76	31659.14
704.105	31578.69
704.45	31490.33
704.795	31277
705.14	31303.44
705.485	31198.36
705.83	31119.72
706.175	31105.26
706.52	31055.99
706.865	31105.26
707.209	30988.2
707.554	30746.85
707.899	30844.7
708.243	30653.29
708.588	30646.51
708.932	30453.52
709.277	30483.58
709.621	30573.07
709.966	30422.56
710.31	30460.07
710.654	30194.55
710.998	30140.76
711.342	30246.75
711.687	30103.7
712.031	29835.46
712.375	29903.25
712.719	30104.6
713.063	29784.16
713.407	29884.95
713.75	29750.94
714.094	29715.46
714.438	29670.72
714.782	29641.79
715.125	29417.16
715.469	29566.09
715.812	29332.19
716.156	29215.59
716.499	29262.82
716.843	29383.94
717.186	29072.09
717.53	29285.42
717.873	29208.36
718.216	29029.6
718.559	28980.34
718.902	28708.93
719.246	28975.59
719.589	28720.01
719.932	28669.16
720.275	28752.78
720.617	28546.45
720.96	28604.76
721.303	28446.12
721.646	28515.49
721.989	28348.27
722.331	28457.42
722.674	28324.76
723.016	28326.8
723.359	28217.65
723.701	28278.66
724.044	27998.44
724.386	27923.64
724.729	28115.28
725.071	27972.23
725.413	27964.32
725.755	27959.58
726.097	27927.03
726.439	27749.41
726.782	27746.93
727.124	27898.56
727.465	27589.87
727.807	27658.57
728.149	27575.86
728.491	27527.27
728.833	27550.77
729.175	27524.56
729.516	27298.12
729.858	27258.58
730.199	27338.57
730.541	27356.88
730.882	27343.32
731.224	27320.95
731.565	27095.64
731.906	27110.11
732.248	27077.56
732.589	26931.81
732.93	26884.35
733.271	26953.27
733.612	26893.39
733.953	26855.65
734.294	26712.83
734.635	26771.81
734.976	26755.54
735.317	26643.68
735.658	26728.42
735.999	26608.88
736.339	26650.01
736.68	26531.14
737.021	26487.07
737.361	26381.99
737.702	26466.51
738.042	26466.73
738.383	26319.62
738.723	26470.35
739.063	26200.98
739.404	26266.51
739.744	26141.09
740.084	26228.32
740.424	26163.24
740.764	26051.38
741.104	26152.62
741.444	26010.93
741.784	25960.53
742.124	25902.23
742.464	25896.58
742.804	25946.07
743.143	25725.96
743.483	25760.09
743.823	25625.17
744.162	25614.1
744.502	25718.05
744.841	25527.1
745.181	25574.55
745.52	25541.56
745.86	25456.14
746.199	25431.05
746.538	25393.32
746.877	25479.41
747.216	25216.37
747.556	25312.64
747.895	25304.5
748.234	25207.78
748.573	25149.93
748.911	25109.48
749.25	25006.88
749.589	25002.82
749.928	24931.86
750.267	24949.03
750.605	24905.19
750.944	24913.33
751.283	24817.06
751.621	24780.68
751.96	24734.8
752.298	24552.21
752.636	24611.19
752.975	24481.93
753.313	24456.39
753.651	24379.78
753.989	24335.26
754.327	24358.54
754.666	24173.46
755.004	24153.8
755.342	24234.93
755.679	24208.26
756.017	23903.19
756.355	24149.28
756.693	23930.53
757.031	23924.65
757.368	23808.27
757.706	23783.41
758.044	23729.18
758.381	23658.67
758.719	23666.36
759.056	23594.27
759.394	23513.59
759.731	23350.88
760.068	23366.7
760.405	23328.51
760.743	23133.49
761.08	23205.35
761.417	23028.41
761.754	23046.03
762.091	22881.52
762.428	22807.39
762.765	22794.74
763.102	22725.81
763.438	22568.76
763.775	22517.23
764.112	22611.24
764.449	22554.29
764.785	22424.58
765.122	22251.93
765.458	22103.23
765.795	22194.3
766.131	21980.98
766.467	22067.08
766.804	21863.46
767.14	21883.8
767.476	21806.74
767.812	21707.31
768.148	21634.77
768.485	21594.55
768.821	21607.2
769.157	21452.4
769.492	21342.12
769.828	21304.84
770.164	21150.26
770.5	21110.26
770.836	21108.68
771.171	20916.14
771.507	20885.64
771.842	20828.92
772.178	20771.52
772.513	20675.25
772.849	20596.61
773.184	20480.68
773.519	20529.04
773.855	20346.22
774.19	20293.79
774.525	20205.66
774.86	20227.8
775.195	20209.95
775.53	20114.81
775.865	19900.35
776.2	19828.04
776.535	19775.61
776.87	19739.45
777.205	19700.81
777.539	19573.13
777.874	19641.15
778.209	19500.14
778.543	19384.43
778.878	19246.58
779.212	19235.29
779.547	19106.93
779.881	19122.07
780.215	19018.79
780.55	19000.94
780.884	18905.58
781.218	18874.16
781.552	18877.1
781.886	18680.5
782.22	18721.4
782.554	18622.65
782.888	18478.69
783.222	18360.05
783.556	18237.8
783.889	18285.93
784.223	18075.09
784.557	18095.65
784.89	18177.69
785.224	17993.51
785.557	17901.53
785.891	17920.29
786.224	17897.47
786.558	17793.97
786.891	17649.79
787.224	17643.24
787.557	17594.65
787.891	17512.17
788.224	17455.9
788.557	17437.82
788.89	17286.86
789.223	17348.78
789.556	17215
789.888	17131.84
790.221	17067.88
790.554	16990.15
790.887	16968.45
791.219	16951.28
791.552	16858.62
791.884	16739.31
792.217	16722.58
792.549	16612.3
792.882	16445.08
793.214	16414.34
793.546	16527.79
793.879	16367.11
794.211	16249.38
794.543	16346.1
794.875	16328.69
795.207	16292.31
795.539	16133.67
795.871	16156.95
796.203	16030.62
796.535	15917.86
796.867	15905.2
797.198	15868.14
797.53	15848.03
797.862	15715.15
798.193	15749.05
798.525	15640.35
798.856	15705.89
799.188	15440.13
799.519	15474.48
799.85	15297.76
800.182	15337.99
800.513	15410.3
800.844	15245.33
801.175	15305.67
801.506	15300.93
801.837	15154.94
802.168	15191.1
802.499	15000.82
802.83	15046.02
803.161	15005.79
803.491	14936.19
803.822	14887.6
804.153	14797.44
804.483	14681.05
804.814	14731.67
805.145	14620.94
805.475	14635.86
805.805	14531.45
806.136	14587.95
806.466	14530.55
806.796	14485.13
807.126	14472.92
807.457	14417.78
807.787	14435.86
808.117	14354.51
808.447	14270.22
808.777	14353.15
809.107	14203.1
809.436	14136.44
809.766	14181.41
810.096	14171.01
810.426	14059.83
810.755	14049.43
811.085	14021.19
811.414	14009.66
811.744	13843.11
812.073	13806.28
812.403	13854.86
812.732	13758.82
813.061	13756.56
813.39	13651.7
813.719	13644.47
814.049	13724.24
814.378	13598.6
814.707	13520.86
815.036	13587.07
815.365	13477.24
815.693	13389.79
816.022	13417.13
816.351	13379.17
816.68	13250.81
817.008	13298.72
817.337	13130.59
817.665	13192.28
817.994	13172.62
818.322	13211.71
818.651	13146.41
818.979	13048.1
819.307	13129.01
819.636	13000.65
819.964	13013.3
820.292	13045.17
820.62	13025.05
820.948	12959.74
821.276	12987.09
821.604	12973.98
821.932	13024.15
822.259	12948.22
822.587	12981.21
822.915	12896.02
823.243	12938.95
823.57	12919.97
823.898	12916.58
824.225	12895.56
824.553	12903.7
824.88	12870.03
825.207	12923.13
825.535	12881.33
825.862	12879.52
826.189	12858.28
826.516	12926.75
826.843	12940.08
827.17	12930.37
827.497	12823.48
827.824	12963.81
828.151	12884.94
828.478	12904.38
828.805	12922.68
829.131	12839.3
829.458	12754.1
829.785	12794.78
830.111	12766.53
830.438	12868.22
830.764	12787.32
831.09	12844.72
831.417	12723.82
831.743	12855.79
832.069	12806.98
832.395	12770.82
832.722	12766.08
833.048	12723.82
833.374	12777.38
833.7	12730.37
834.026	12708
834.351	12733.08
834.677	12737.15
835.003	12744.83
835.329	12679.75
835.654	12726.53
835.98	12627.1
836.306	12637.04
836.631	12599.75
836.956	12506.87
837.282	12604.05
837.607	12505.29
837.932	12446.09
838.258	12484.73
838.583	12496.25
838.908	12498.97
839.233	12411.74
839.558	12377.61
839.883	12401.34
840.208	12372.64
840.533	12304.17
840.858	12359.53
841.182	12349.14
841.507	12316.15
841.832	12211.29
842.156	12169.03
842.481	12178.3
842.805	12217.84
843.13	12115.25
843.454	12013.55
843.778	12009.03
844.103	12026.89
844.427	11970.84
844.751	12002.03
845.075	11967
845.399	11990.28
845.723	11790.96
846.047	11888.13
846.371	11721.13
846.695	11772.2
847.019	11569.5
847.343	11633.45
847.666	11585.54
847.99	11571.98
848.313	11632.32
848.637	11403.85
848.96	11399.56
849.284	11411.99
849.607	11337.19
849.931	11268.26
850.254	11207.93
850.577	11105.1
850.9	11052.9
851.223	11105.1
851.546	11106.91
851.869	10944.66
852.192	11030.98
852.515	10866.24
852.838	10843.19
853.161	10882.28
853.483	10748.05
853.806	10753.02
854.129	10671.44
854.451	10666.02
854.774	10608.17
855.096	10551.45
855.419	10565.91
855.741	10519.58
856.063	10509.41
856.385	10462.86
856.708	10424.44
857.03	10408.62
857.352	10376.54
857.674	10333.15
857.996	10206.14
858.318	10255.41
858.64	10215.41
858.961	10235.52
859.283	10137.22
859.605	10114.85
859.926	10182.19
860.248	10116.88
860.57	10066.49
860.891	10069.2
861.212	10055.64
861.534	9987.39
861.855	9983.33
862.176	9957.56
862.498	9991.91
862.819	9987.62
863.14	9927.51
863.461	9874.63
863.782	9865.36
864.103	9870.11
864.424	9818.13
864.745	9860.16
865.065	9781.07
865.386	9781.07
865.707	9742.88
866.027	9747.17
866.348	9656.55
866.668	9748.75
866.989	9618.81
867.309	9636.44
867.63	9669.44
867.95	9645.48
868.27	9571.58
868.59	9599.38
868.91	9595.31
869.23	9543.34
869.55	9537.46
869.87	9532.26
870.19	9510.12
870.51	9452.72
870.83	9499.27
871.15	9479.16
871.469	9486.39
871.789	9420.18
872.109	9441.19
872.428	9428.99
872.748	9380.4
873.067	9397.8
873.386	9403
873.706	9385.6
874.025	9325.49
874.344	9299.95
874.663	9308.09
874.982	9229.22
875.301	9253.85
875.62	9217.47
875.939	9223.35
876.258	9146.74
876.577	9149.67
876.896	9169.34
877.214	9106.96
877.533	9128.21
877.852	9115.33
878.17	9101.99
878.489	9130.47
878.807	9141.09
879.125	9095.44
879.444	9106.74
879.762	9029
880.08	9048.43
880.398	9014.31
880.716	9056.34
881.034	8944.48
881.352	8965.72
881.67	8870.13
881.988	8944.48
882.306	8862.68
882.624	8889.57
882.941	8798.5
883.259	8773.64
883.577	8852.73
883.894	8725.96
884.212	8794.43
884.529	8789.23
884.846	8686.18
885.164	8761.44
885.481	8689.12
885.798	8759.18
886.115	8626.07
886.432	8602.12
886.75	8625.85
887.067	8577.94
887.383	8537.04
887.7	8545.62
888.017	8447.32
888.334	8471.95
888.651	8475.79
888.967	8427.89
889.284	8425.63
889.6	8377.27
889.917	8405.29
890.233	8393.99
890.55	8336.81
890.866	8325.52
891.182	8261.11
891.498	8222.02
891.815	8230.38
892.131	8165.75
892.447	8193.54
892.763	8168.68
893.079	8135.69
893.395	8135.69
893.71	8074.9
894.026	8057.95
894.342	8077.16
894.657	7963.04
894.973	7959.65
895.289	7975.47
895.604	7957.16
895.92	7919.88
896.235	7922.81
896.55	7908.13
896.865	7836.26
897.181	7830.39
897.496	7830.16
897.811	7754.68
898.126	7702.93
898.441	7777.96
898.756	7706.32
899.071	7678.53
899.386	7659.54
899.7	7577.06
900.015	7640.79
900.33	7525.31
900.644	7573.9
900.959	7549.26
901.273	7414.81
901.588	7446.44
901.902	7348.82
902.216	7378.87
902.531	7361.25
902.845	7358.08
903.159	7314.02
903.473	7255.26
903.787	7264.07
904.101	7202.83
904.415	7146.79
904.729	7144.08
905.042	7126.23
905.356	7056.85
905.67	7053.91
905.984	7068.37
906.297	7007.81
906.611	6963.07
906.924	6987.7
907.237	6908.38
907.551	6895.27
907.864	6862.5
908.177	6888.72
908.491	6837.42
908.804	6795.61
909.117	6778.44
909.43	6740.47
909.743	6748.16
910.056	6683.98
910.368	6678.55
910.681	6629.51
910.994	6602.85
911.307	6597.88
911.619	6512.68
911.932	6578.22
912.244	6504.77
912.557	6440.37
912.869	6461.38
913.181	6406.47
913.494	6431.1
913.806	6362.63
914.118	6375.51
914.43	6344.32
914.742	6361.05
915.054	6291.22
915.366	6243.99
915.678	6283.31
915.99	6226.36
916.302	6209.86
916.613	6138.68
916.925	6142.75
917.236	6132.35
917.548	6090.55
917.859	6145.69
918.171	6003.77
918.482	6047.16
918.794	5975.75
919.105	5973.71
919.416	5918.57
919.727	5911.57
920.038	5892.59
920.349	5863.66
920.66	5858.69
920.971	5804.9
921.282	5830.44
921.593	5749.76
921.903	5739.82
922.214	5694.85
922.525	5665.92
922.835	5678.81
923.146	5635.87
923.456	5635.64
923.767	5592.71
924.077	5567.17
924.387	5545.93
924.697	5498.02
925.008	5502.09
925.318	5444.46
925.628	5496.44
925.938	5407.63
926.248	5382.77
926.558	5326.5
926.867	5371.92
927.177	5277.46
927.487	5288.53
927.796	5300.28
928.106	5232.26
928.416	5255.09
928.725	5247.86
929.034	5225.26
929.344	5181.19
929.653	5173.28
929.962	5090.35
930.271	5120.85
930.581	5035.21
930.89	5045.83
931.199	4994.98
931.508	5034.75
931.817	5010.57
932.125	5003.12
932.434	4987.75
932.743	4914.76
933.051	4901.88
933.36	4864.14
933.669	4866.4
933.977	4817.13
934.286	4854.19
934.594	4806.06
934.902	4764.25
935.21	4809.9
935.519	4727.19
935.827	4818.72
936.135	4689
936.443	4685.16
936.751	4664.59
937.059	4621.21
937.367	4609
937.674	4635.22
937.982	4626.18
938.29	4601.09
938.597	4588.89
938.905	4510.25
939.213	4506.63
939.52	4486.75
939.827	4547.76
940.135	4477.93
940.442	4454.66
940.749	4417.37
941.056	4435.22
941.363	4352.74
941.67	4346.64
941.977	4353.42
942.284	4302.12
942.591	4281.78
942.898	4252.4
943.205	4266.19
943.511	4274.77
943.818	4250.37
944.125	4181.44
944.431	4147.32
944.738	4152.74
945.044	4218.96
945.35	4124.04
945.657	4124.95
945.963	4087.21
946.269	4085.85
946.575	4078.17
946.881	4060.32
947.187	4038.4
947.493	4021.45
947.799	4041.33
948.105	4003.82
948.41	3915.69
948.716	3952.52
949.022	3938.96
949.327	3922.92
949.633	3891.73
949.938	3898.51
950.244	3892.64
950.549	3832.98
950.854	3818.52
951.16	3797.5
951.465	3781.68
951.77	3783.04
952.075	3741.68
952.38	3758.86
952.685	3731.29
952.99	3699.2
953.294	3703.72
953.599	3677.5
953.904	3624.85
954.209	3658.52
954.513	3612.19
954.818	3647.67
955.122	3634.34
955.426	3577.62
955.731	3562.25
956.035	3535.36
956.339	3541.46
956.643	3562.25
956.948	3516.38
957.252	3436.83
957.556	3483.83
957.86	3467.79
958.163	3458.3
958.467	3418.53
958.771	3395.48
959.075	3422.14
959.378	3374.23
959.682	3378.98
959.985	3357.74
960.289	3348.25
960.592	3324.52
960.896	3309.38
961.199	3324.07
961.502	3299.66
961.805	3244.97
962.108	3272.99
962.411	3244.29
962.714	3248.81
963.017	3223.05
963.32	3237.06
963.623	3171.53
963.926	3192.09
964.228	3165.88
964.531	3143.73
964.833	3174.46
965.136	3094.92
965.438	3097.86
965.741	3076.61
966.043	3093.79
966.345	3068.25
966.648	3043.39
966.95	3079.1
967.252	3049.27
967.554	3069.38
967.856	3000.01
968.158	2953.23
968.46	3003.17
968.761	2944.19
969.063	2945.32
969.365	2950.74
969.666	2948.93
969.968	2923.85
970.269	2899.9
970.571	2876.17
970.872	2881.59
971.174	2844.53
971.475	2885.88
971.776	2844.3
972.077	2857.64
972.378	2809.73
972.679	2816.51
972.98	2784.87
973.281	2788.03
973.582	2755.94
973.883	2780.12
974.183	2724.31
974.484	2734.02
974.785	2722.5
975.085	2690.86
975.386	2713.46
975.686	2676.4
975.986	2707.36
976.287	2615.84
976.587	2639.79
976.887	2627.59
977.187	2629.17
977.487	2598.66
977.787	2653.35
978.087	2576.97
978.387	2576.51
978.687	2552.33
978.987	2579.68
979.286	2534.48
979.586	2541.03
979.885	2539.68
980.185	2491.77
980.484	2475.27
980.784	2498.1
981.083	2492
981.382	2480.7
981.682	2464.65
981.981	2430.08
982.28	2439.79
982.579	2393.47
982.878	2413.58
983.177	2412.22
983.475	2370.42
983.774	2397.99
984.073	2344.43
984.372	2304.66
984.67	2347.37
984.969	2327.71
985.267	2341.04
985.566	2313.7
985.864	2322.28
986.162	2305.11
986.461	2305.79
986.759	2277.76
987.057	2279.57
987.355	2238.67
987.653	2250.2
987.951	2287.48
988.249	2216.52
988.547	2218.33
988.844	2212.68
989.142	2224.89
989.44	2165.68
989.737	2193.93
990.035	2163.19
990.332	2137.66
990.63	2138.33
990.927	2156.19
991.224	2131.55
991.521	2136.53
991.819	2116.87
992.116	2106.92
992.413	2105.79
992.71	2078
993.006	2080.71
993.303	2086.13
993.6	2054.04
993.897	2049.97
994.193	2022.18
994.49	2005.23
994.787	2014.95
995.083	2005.23
995.379	2003.87
995.676	2009.3
995.972	1960.49
996.268	1954.16
996.565	1936.08
996.861	1934.5
997.157	1928.62
997.453	1942.86
997.749	1920.26
998.044	1891.11
998.34	1883.88
998.636	1867.38
998.932	1877.1
999.227	1906.93
999.523	1868.51
999.818	1867.38
1000.114	1833.26
1000.409	1822.41
1000.704	1798.23
1001	1835.97
1001.295	1778.34
1001.59	1805.91
1001.885	1798.91
1002.18	1782.41
1002.475	1766.37
1002.77	1777.21
1003.065	1733.37
1003.359	1729.08
1003.654	1736.76
1003.949	1714.84
1004.243	1690.66
1004.538	1701.28
1004.832	1704.67
1005.127	1683.66
1005.421	1701.28
1005.715	1656.99
1006.009	1611.57
1006.304	1644.56
1006.598	1633.94
1006.892	1636.65
1007.186	1613.15
1007.48	1623.09
1007.773	1599.36
1008.067	1599.59
1008.361	1591.46
1008.655	1577.9
1008.948	1585.81
1009.242	1565.24
1009.535	1551.91
1009.829	1537.45
1010.122	1524.79
1010.415	1515.53
1010.708	1532.25
1011.001	1505.81
1011.295	1497.22
1011.588	1494.06
1011.881	1499.71
1012.173	1475.98
1012.466	1449.76
1012.759	1475.53
1013.052	1452.7
1013.344	1454.28
1013.637	1447.96
1013.93	1437.34
1014.222	1426.26
1014.514	1391.69
1014.807	1424.23
1015.099	1393.27
1015.391	1352.14
1015.683	1352.37
1015.976	1353.95
1016.268	1384
1016.56	1353.95
1016.851	1354.4
1017.143	1339.03
1017.435	1321.18
1017.727	1295.19
1018.018	1302.88
1018.31	1316.89
1018.602	1306.27
1018.893	1289.99
1019.185	1279.83
1019.476	1284.34
1019.767	1297.23
1020.058	1249.32
1020.35	1233.95
1020.641	1231.69
1020.932	1252.71
1021.223	1241.63
1021.514	1228.98
1021.804	1216.55
1022.095	1211.35
1022.386	1204.12
1022.677	1172.26
1022.967	1190.34
1023.258	1149.43
1023.548	1152.82
1023.839	1146.5
1024.129	1148.98
1024.419	1127.74
1024.709	1120.73
1025	1141.07
1025.29	1099.94
1025.58	1122.32
1025.87	1112.6
1026.16	1090.68
1026.449	1096.78
1026.739	1088.64
1027.029	1069.89
1027.319	1066.05
1027.608	1078.02
1027.898	1060.4
1028.187	1058.59
1028.477	1037.35
1028.766	1053.16
1029.055	1028.31
1029.344	1033.05
1029.634	1030.57
1029.923	1037.35
1030.212	1003.45
1030.501	1005.26
1030.79	991.02
1031.078	977.23
1031.367	995.54
1031.656	960.29
1031.945	984.24
1032.233	963.22
1032.522	945.82
1032.81	958.48
1033.099	934.3
1033.387	980.85
1033.675	935.65
1033.963	923.22
1034.251	951.92
1034.54	916.9
1034.828	919.83
1035.116	919.38
1035.403	909.89
1035.691	905.15
1035.979	887.29
1036.267	870.12
1036.554	871.25
1036.842	869.21
1037.129	892.94
1037.417	910.34
1037.704	877.58
1037.992	844.81
1038.279	856.33
1038.566	839.61
1038.853	839.61
1039.14	839.61
