Data from white_poster_card_FLMS001491_00007.txt Node
Date: Wed Feb 08 11:50:57 GMT 2017
User: dcchb
Spectrometer: FLMS00149
Trigger mode: 0
Integration Time (sec): 2.000000E-2
Scans to average: 10
Electric dark correction enabled: true
Nonlinearity correction enabled: false
Boxcar width: 0
XAxis mode: Wavelengths
Number of Pixels in Spectrum: 2048
>>>>>Begin Spectral Data<<<<<
341.393	-16.75
341.776	-16.75
342.16	-16.75
342.543	-61.27
342.927	-60.14
343.31	-58.78
343.693	-69.86
344.077	-66.02
344.46	-74.15
344.843	-51.55
345.226	-40.03
345.61	-30.31
345.993	-25.79
346.376	-8.62
346.759	4.27
347.142	24.83
347.525	36.81
347.908	70.03
348.291	99.18
348.674	84.94
349.057	105.05
349.44	114.55
349.823	157.03
350.206	189.12
350.588	195.45
350.971	229.57
351.354	238.38
351.737	238.84
352.119	256.46
352.502	266.41
352.884	274.54
353.267	268.44
353.65	292.85
354.032	306.18
354.414	313.86
354.797	324.48
355.179	317.7
355.562	314.77
355.944	342.11
356.326	328.55
356.709	332.17
357.091	353.86
357.473	353.86
357.855	355.89
358.238	348.44
358.62	333.3
359.002	343.24
359.384	346.18
359.766	334.65
360.148	335.1
360.53	373.75
360.912	340.98
361.294	350.47
361.676	329
362.057	360.19
362.439	340.53
362.821	330.81
363.203	347.76
363.584	358.83
363.966	344.14
364.348	351.37
364.729	322.45
365.111	323.13
365.493	320.19
365.874	323.81
366.256	329.91
366.637	331.94
367.019	325.39
367.4	320.19
367.781	326.06
368.163	325.16
368.544	345.95
368.925	316.57
369.306	335.1
369.688	323.81
370.069	317.03
370.45	315.44
370.831	348.21
371.212	345.05
371.593	325.84
371.974	316.35
372.355	328.1
372.736	320.19
373.117	324.48
373.498	327.65
373.879	329.68
374.26	337.82
374.641	344.6
375.021	329.68
375.402	339.85
375.783	350.7
376.163	339.62
376.544	338.49
376.925	359.96
377.305	357.7
377.686	353.63
378.066	343.24
378.447	346.86
378.827	350.25
379.208	357.7
379.588	362.67
379.968	339.62
380.349	358.83
380.729	352.05
381.109	354.76
381.489	372.17
381.87	349.12
382.25	359.96
382.63	349.34
383.01	365.61
383.39	364.93
383.77	368.78
384.15	358.38
384.53	367.19
384.91	376.23
385.29	364.71
385.67	382.11
386.049	378.72
386.429	375.33
386.809	370.36
387.189	392.73
387.568	384.37
387.948	397.02
388.328	385.05
388.707	414.88
389.087	366.97
389.466	389.57
389.846	390.47
390.225	407.19
390.605	406.29
390.984	410.36
391.363	406.74
391.743	413.29
392.122	415.1
392.501	406.51
392.881	421.43
393.26	415.33
393.639	415.55
394.018	434.99
394.397	443.8
394.776	411.71
395.155	444.93
395.534	452.62
395.913	450.81
396.292	446.74
396.671	456.23
397.05	450.13
397.429	446.97
397.808	436.8
398.186	464.37
398.565	470.69
398.944	467.08
399.323	455.78
399.701	465.72
400.08	458.72
400.458	495.78
400.837	474.08
401.215	482.9
401.594	489.45
401.972	478.83
402.351	497.36
402.729	497.81
403.107	495.33
403.486	523.12
403.864	515.66
404.242	512.5
404.62	534.42
404.999	513.63
405.377	495.33
405.755	518.38
406.133	546.17
406.511	533.74
406.889	587.98
407.267	555.66
407.645	573.29
408.023	590.46
408.401	567.64
408.779	567.19
409.156	632.72
409.534	630.01
409.912	646.96
410.29	663.46
410.667	663.68
411.045	655.32
411.422	681.08
411.8	697.58
412.178	694.19
412.555	714.76
412.933	721.08
413.31	764.7
413.687	744.58
414.065	763.34
414.442	800.18
414.819	830.01
415.197	845.83
415.574	840.4
415.951	844.24
416.328	879.04
416.705	888.54
417.082	909.33
417.46	926.5
417.837	931.25
418.214	941.87
418.591	983.67
418.967	972.15
419.344	1009.66
419.721	1018.02
420.098	1026.61
420.475	1067.74
420.852	1074.75
421.228	1083.56
421.605	1107.51
421.982	1086.72
422.358	1131.69
422.735	1138.02
423.111	1166.72
423.488	1190
423.864	1194.29
424.241	1219.83
424.617	1220.73
424.994	1212.14
425.37	1239.04
425.746	1294.63
426.123	1290.33
426.499	1319.49
426.875	1311.12
427.251	1347.28
427.627	1365.59
428.003	1366.94
428.379	1415.08
428.756	1443.55
429.132	1461.18
429.507	1471.8
429.883	1488.97
430.259	1515.86
430.635	1531.68
431.011	1540.72
431.387	1564
431.763	1624.56
432.138	1645.13
432.514	1674.96
432.89	1673.83
433.265	1731
433.641	1716.08
434.016	1731.9
434.392	1781.85
434.767	1802.18
435.143	1803.31
435.518	1815.74
435.894	1857.32
436.269	1870.21
436.644	1917.89
437.02	1911.33
437.395	1928.51
437.77	1994.5
438.145	1983.2
438.52	2005.12
438.895	2001.73
439.271	2066.81
439.646	2077.66
440.021	2107.03
440.395	2112.68
440.77	2088.5
441.145	2130.31
441.52	2149.75
441.895	2117.66
442.27	2163.08
442.645	2156.75
443.019	2193.81
443.394	2196.3
443.769	2189.52
444.143	2250.53
444.518	2274.94
444.892	2243.75
445.267	2284.66
445.641	2316.97
446.016	2300.02
446.39	2348.16
446.764	2330.31
447.139	2368.95
447.513	2383.86
447.887	2395.84
448.262	2441.26
448.636	2395.84
449.01	2428.16
449.384	2488.04
449.758	2453.92
450.132	2503.41
450.506	2513.8
450.88	2526.91
451.254	2559.9
451.628	2573.92
452.002	2596.06
452.376	2592.45
452.75	2602.62
453.123	2664.08
453.497	2710.86
453.871	2674.03
454.244	2764.19
454.618	2776.4
454.992	2828.37
455.365	2832.89
455.739	2898.2
456.112	2928.03
456.486	2929.39
456.859	2956.73
457.232	3030.4
457.606	3009.16
457.979	3039.89
458.352	3114.47
458.725	3138.65
459.099	3145.65
459.472	3252.54
459.845	3220.45
460.218	3315.82
460.591	3296.38
460.964	3368.47
461.337	3445.3
461.71	3488.92
462.083	3484.4
462.456	3532.53
462.829	3498.86
463.201	3600.78
463.574	3626.77
463.947	3657.73
464.32	3730.95
464.692	3757.61
465.065	3768.91
465.438	3834
465.81	3894.56
466.183	3884.39
466.555	4038.06
466.928	4072.63
467.3	4046.19
467.672	4093.42
468.045	4196.7
468.417	4251.61
468.789	4282.57
469.161	4303.59
469.534	4357.37
469.906	4407.31
470.278	4495.67
470.65	4565.05
471.022	4659.96
471.394	4727.98
471.766	4781.31
472.138	4781.31
472.51	4876.91
472.882	4900.18
473.253	5040.07
473.625	5068.99
473.997	5191.47
474.369	5221.53
474.74	5271.7
475.112	5378.14
475.484	5506.49
475.855	5593.05
476.227	5617.9
476.598	5758.46
476.97	5788.29
477.341	5878.69
477.713	6012.7
478.084	6050.66
478.455	6204.78
478.827	6289.07
479.198	6406.81
479.569	6449.75
479.94	6569.29
480.311	6625.79
480.682	6794.37
481.053	6927.02
481.424	7102.16
481.795	7119.56
482.166	7293.34
482.537	7298.76
482.908	7462.37
483.279	7650.17
483.65	7727.23
484.021	7783.5
484.391	7904.4
484.762	7983.94
485.133	8057.39
485.503	8230.94
485.874	8381.67
486.244	8442.69
486.615	8651.04
486.985	8717.03
487.356	8871.38
487.726	8900.75
488.097	9142.1
488.467	9119.28
488.837	9352.04
489.207	9425.26
489.578	9590.91
489.948	9656.22
490.318	9809.43
490.688	9849.43
491.058	9943.21
491.428	10090.55
491.798	10240.83
492.168	10481.96
492.538	10517.21
492.908	10607.83
493.278	10705.9
493.648	10747.26
494.017	10992.45
494.387	11003.07
494.757	11124.2
495.126	11259.56
495.496	11300.92
495.866	11311.76
496.235	11467.69
496.605	11606.9
496.974	11646.67
497.344	11817.51
497.713	11930.96
498.082	11985.87
498.452	12059.99
498.821	12101.12
499.19	12190.61
499.559	12370.95
499.928	12451.85
500.298	12497.95
500.667	12639.41
501.036	12638.96
501.405	12813.65
501.774	12852.29
502.143	12973.87
502.512	13019.29
502.88	13143.81
503.249	13132.96
503.618	13225.61
503.987	13303.8
504.356	13407.53
504.724	13512.61
505.093	13577.69
505.462	13652.27
505.83	13770.68
506.199	13851.36
506.567	14024.91
506.936	14030.34
507.304	14198.69
507.672	14264.68
508.041	14337.9
508.409	14459.48
508.777	14628.06
509.145	14737.89
509.514	14704.67
509.882	14835.51
510.25	14936.3
510.618	15078.67
510.986	15166.8
511.354	15252.23
511.722	15445.89
512.09	15541.94
512.458	15574.25
512.826	15745.32
513.193	15805.43
513.561	15814.25
513.929	16065.31
514.297	16136.5
514.664	16271.18
515.032	16336.27
515.4	16490.84
515.767	16577.61
516.135	16676.14
516.502	16590.5
516.869	16977.38
517.237	17019.41
517.604	17079.75
517.972	17224.15
518.339	17334.43
518.706	17480.64
519.073	17546.86
519.44	17692.39
519.808	17938.48
520.175	17919.27
520.542	18141.87
520.909	18180.74
521.276	18200.85
521.643	18407.4
522.009	18614.85
522.376	18722.64
522.743	18874.28
523.11	19011.9
523.477	19223.65
523.843	19352.46
524.21	19483.53
524.577	19749.51
524.943	19744.09
525.31	19972.78
525.676	20052.33
526.043	20270.85
526.409	20370.74
526.776	20537.96
527.142	20654.12
527.508	20751.74
527.874	20969.14
528.241	21046.88
528.607	21142.92
528.973	21307.66
529.339	21297.26
529.705	21608.44
530.071	21724.15
530.437	21846.18
530.803	22033.06
531.169	22132.27
531.535	22104.7
531.901	22251.82
532.267	22431.92
532.632	22666.04
532.998	22631.69
533.364	22827.39
533.73	22833.04
534.095	23087.73
534.461	23146.93
534.826	23278
535.192	23342.86
535.557	23533.59
535.923	23505.12
536.288	23599.58
536.653	23627.37
537.019	23733.81
537.384	23822.85
537.749	24055.61
538.114	24090.19
538.479	23960.92
538.845	24290.86
539.21	24175.38
539.575	24368.82
539.94	24427.13
540.305	24729.49
540.67	24623.28
541.034	24729.27
541.399	24949.6
541.764	24933.1
542.129	24907.57
542.494	25101.91
542.858	25195.24
543.223	25330.38
543.587	25357.05
543.952	25408.12
544.316	25605.4
544.681	25579.86
545.045	25646.98
545.41	25839.07
545.774	25838.39
546.138	25917.93
546.503	25990.25
546.867	26063.92
547.231	26242.45
547.595	26317.47
547.959	26420.52
548.324	26493.06
548.688	26524.7
549.052	26598.59
549.416	26790.45
549.779	26651.47
550.143	26925.82
550.507	27008.3
550.871	27180.95
551.235	27144.12
551.599	27280.61
551.962	27449.42
552.326	27494.39
552.689	27690.32
553.053	27573.48
553.417	27694.38
553.78	28029.29
554.143	27972.12
554.507	28170.53
554.87	28325.33
555.234	28668.37
555.597	28394.93
555.96	28547.7
556.323	28697.97
556.686	28824.98
557.05	28865.43
557.413	29027.68
557.776	29113.78
558.139	29278.98
558.502	29293.44
558.865	29559.42
559.228	29492.76
559.59	29651.62
559.953	29885.06
560.316	30164.38
560.679	30174.55
561.041	30375.67
561.404	30379.74
561.767	30686.85
562.129	30645.27
562.492	30987.18
562.854	30955.77
563.217	31029.21
563.579	31105.14
563.941	31471.01
564.304	31494.74
564.666	31688.18
565.028	31720.95
565.39	31920.49
565.753	32214.49
566.115	32093.37
566.477	32286.81
566.839	32439.12
567.201	32444.09
567.563	32594.82
567.925	32822.16
568.287	32767.25
568.648	33040.68
569.01	33204.07
569.372	33362.71
569.734	33254.69
570.095	33425.99
570.457	33650.84
570.819	33692.87
571.18	33708.46
571.542	33886.31
571.903	33931.96
572.265	34079.75
572.626	34315.68
572.987	34271.39
573.349	34344.15
573.71	34596.12
574.071	34673.18
574.432	34659.85
574.794	34863.01
575.155	34899.62
575.516	34876.34
575.877	35000.63
576.238	35121.08
576.599	35147.97
576.96	35219.61
577.32	35304.81
577.681	35468.42
578.042	35523.78
578.403	35404.24
578.763	35627.06
579.124	35608.3
579.485	35707.28
579.845	35894.4
580.206	35834.51
580.566	35817.11
580.927	35896.2
581.287	36038.57
581.648	35786.6
582.008	36083.77
582.368	36105.69
582.728	36128.74
583.089	36059.81
583.449	35983.43
583.809	36242.63
584.169	36242.86
584.529	36101.4
584.889	36355.17
585.249	36130.55
585.609	36123.54
585.969	36430.43
586.329	36160.6
586.688	36219.81
587.048	36237.44
587.408	36177.55
587.768	36244.44
588.127	36046.48
588.487	36112.24
588.846	36326.93
589.206	36005.35
589.565	36169.42
589.925	36386.59
590.284	36348.39
590.643	36323.31
591.003	36355.85
591.362	36518.33
591.721	36345.91
592.08	36361.28
592.44	36605.79
592.799	36487.83
593.158	36418
593.517	36506.81
593.876	36399.01
594.235	36370.09
594.593	36380.71
594.952	36541.16
595.311	36402.63
595.67	36500.71
596.029	36607.37
596.387	36694.15
596.746	36704.54
597.104	36555.62
597.463	36441.95
597.822	36735.95
598.18	36599.91
598.538	36597.88
598.897	36833.58
599.255	36610.76
599.613	37065.89
599.972	36907.25
600.33	36861.83
600.688	36792.9
601.046	36862.28
601.404	37111.54
601.762	37053.01
602.12	37147.7
602.478	37292.78
602.836	37113.57
603.194	36934.82
603.552	37074.7
603.91	36892.56
604.268	37180.69
604.625	37068.6
604.983	37234.25
605.341	37228.15
605.698	37210.74
606.056	37455.48
606.413	37266.11
606.771	37486.67
607.128	37506.56
607.485	37365.32
607.843	37362.83
608.2	37718.3
608.557	37762.37
608.914	37624.29
609.272	37684.86
609.629	37753.1
609.986	37953.78
610.343	37695.03
610.7	38010.5
611.057	37923.72
611.414	37805.98
611.771	37957.17
612.127	38079.2
612.484	37984.96
612.841	38020.89
613.198	38094.11
613.554	38177.95
613.911	38367.32
614.267	38155.58
614.624	38207.78
614.98	38354.44
615.337	38375.46
615.693	38366.19
616.05	38376.82
616.406	38648.45
616.762	38428.79
617.118	38473.76
617.475	38435.57
617.831	38571.84
618.187	38491.62
618.543	38537.72
618.899	38793.98
619.255	38692.29
619.611	38612.06
619.967	38720.08
620.323	38907.2
620.678	38697.03
621.034	38604.83
621.39	38674.89
621.746	38636.24
622.101	39112.39
622.457	38813.64
622.812	38783.58
623.168	38909.68
623.523	38817.03
623.879	38876.69
624.234	38611.61
624.589	38809.35
624.945	38934.09
625.3	38767.09
625.655	38823.36
626.01	38951.26
626.365	38857.48
626.72	38859.06
627.075	38772.96
627.43	38885.28
627.785	38647.09
628.14	38760.08
628.495	38828.56
628.85	38720.54
629.205	38591.27
629.559	38818.84
629.914	38617.94
630.269	38505.85
630.623	38558.28
630.978	38392.63
631.332	38520.99
631.687	38526.64
632.041	38319.42
632.396	38658.16
632.75	38354.9
633.104	38340.88
633.459	38160.55
633.813	38199.42
634.167	38240.1
634.521	38183.6
634.875	38219.08
635.229	38148.57
635.583	37959.88
635.937	37969.14
636.291	38001.23
636.645	37905.42
636.999	37744.06
637.352	37933.44
637.706	37594.69
638.06	37754.69
638.413	37721.92
638.767	37657.74
639.121	37777.51
639.474	37436.95
639.828	37499.32
640.181	37538.87
640.534	37564.41
640.888	37429.04
641.241	37240.8
641.594	37312.66
641.947	37422.04
642.301	37243.51
642.654	37340.01
643.007	37336.84
643.36	37096.17
643.713	37092.1
644.066	37227.24
644.419	36921.03
644.771	36886.46
645.124	36387.94
645.477	36421.61
645.83	36258.91
646.182	36001.51
646.535	35965.13
646.888	35922.64
647.24	35603.1
647.593	35794.74
647.945	35822.53
648.298	35550.45
648.65	35545.25
649.002	35358.14
649.355	35657.11
649.707	35476.1
650.059	35634.52
650.411	35891.91
650.763	35996.77
651.115	36363.99
651.467	36203.77
651.819	36182.07
652.171	35952.02
652.523	35991.57
652.875	36003.77
653.227	36034.05
653.578	36143.2
653.93	36047.61
654.282	35823.89
654.633	35793.61
654.985	35825.47
655.337	35816.66
655.688	35876.54
656.039	35950.66
656.391	35581.18
656.742	35755.87
657.094	35615.98
657.445	35680.62
657.796	35702.54
658.147	35600.84
658.498	35490.34
658.849	35594.29
659.2	35441.07
659.551	35403.11
659.902	35522.2
660.253	35468.42
660.604	35520.39
660.955	35230.23
661.306	35458.02
661.656	35306.84
662.007	35281.08
662.358	35342.32
662.708	35297.57
663.059	35229.1
663.409	35075.21
663.76	35247.63
664.11	35256.22
664.461	35366.5
664.811	35268.2
665.161	35276.56
665.511	35189.33
665.862	35144.81
666.212	35395.43
666.562	35281.3
666.912	35266.39
667.262	35213.28
667.612	35241.98
667.962	35129.9
668.312	35208.09
668.662	35208.76
669.011	35133.74
669.361	34966.28
669.711	34953.18
670.06	34935.78
670.41	34838.38
670.76	34792.5
671.109	34871.15
671.459	34942.78
671.808	34892.84
672.157	34880.41
672.507	34699.17
672.856	34646.07
673.205	34734.2
673.554	34794.31
673.904	34606.29
674.253	34860.98
674.602	34524.04
674.951	34190.94
675.3	33955.01
675.649	34454.89
675.998	34460.53
676.346	34486.3
676.695	34530.59
677.044	34271.84
677.393	34419.86
677.741	34447.2
678.09	34295.79
678.438	34147.77
678.787	34361.33
679.135	34149.81
679.484	34006.99
679.832	34244.95
680.181	33970.83
680.529	34122.69
680.877	34066.42
681.225	33891.06
681.573	34058.06
681.922	33911.4
682.27	33789.14
682.618	33801.79
682.966	33663.72
683.314	33847.9
683.661	33498.75
684.009	33379.89
684.357	33525.42
684.705	33398.42
685.053	33493.55
685.4	33395.25
685.748	33163.62
686.095	33163.62
686.443	32920.91
686.79	33084.07
687.138	32983.51
687.485	32983.96
687.832	32922.27
688.18	32925.89
688.527	32756.85
688.874	32736.74
689.221	32571.09
689.568	32426.92
689.915	32417.65
690.262	32367.71
690.609	32233.02
690.956	32233.93
691.303	32143.76
691.65	32125.91
691.997	32084.1
692.344	31731.34
692.69	31760.94
693.037	31826.71
693.383	31519.59
693.73	31806.37
694.077	31516.88
694.423	31442.53
694.769	31410.22
695.116	31283.22
695.462	31269.43
695.808	31057.23
696.155	31174.75
696.501	30943.79
696.847	30938.59
697.193	30741.54
697.539	30778.15
697.885	30489.79
698.231	30509.23
698.577	30514.42
698.923	30283.02
699.269	30292.28
699.614	30117.6
699.96	30109.46
700.306	30168.67
700.651	29903.37
700.997	29836.48
701.342	29789.02
701.688	29724.39
702.033	29577.5
702.379	29643.49
702.724	29528.91
703.069	29542.92
703.415	29164.63
703.76	29309.26
704.105	29352.87
704.45	29170.73
704.795	29004.41
705.14	29011.19
705.485	28982.03
705.83	28808.03
706.175	28780.23
706.52	28688.48
706.865	28537.75
707.209	28552.22
707.554	28498.88
707.899	28452.1
708.243	28375.04
708.588	28332.56
708.932	28102.96
709.277	28144.54
709.621	28111.1
709.966	27940.25
710.31	27987.03
710.654	27809.41
710.998	27810.31
711.342	27787.49
711.687	27700.94
712.031	27626.36
712.375	27567.61
712.719	27523.99
713.063	27529.19
713.407	27492.13
713.75	27418.23
714.094	27393.6
714.438	27281.74
714.782	27211.91
715.125	27127.85
715.469	27169.88
715.812	26892.15
716.156	26878.59
716.499	26837.68
716.843	26816.22
717.186	26746.16
717.53	26925.59
717.873	26730.57
718.216	26666.84
718.559	26669.55
718.902	26458.49
719.246	26547.75
719.589	26408.54
719.932	26387.53
720.275	26399.73
720.617	26229.56
720.96	26239.96
721.303	26282.44
721.646	26083.58
721.989	25935.11
722.331	26084.26
722.674	26022.56
723.016	26033.19
723.359	25947.31
723.701	25995.22
724.044	25810.59
724.386	25463.93
724.729	25799.75
725.071	25616.93
725.413	25675.68
725.755	25605.63
726.097	25411.28
726.439	25385.74
726.782	25329.02
727.124	25535.57
727.465	25316.59
727.807	25358.4
728.149	25376.71
728.491	25206.99
728.833	25184.39
729.175	25077.96
729.516	25119.31
729.858	24938.98
730.199	25153.43
730.541	24935.14
730.882	24874.12
731.224	24945.76
731.565	24744.63
731.906	24870.73
732.248	24817.85
732.589	24603.62
732.93	24569.27
733.271	24599.55
733.612	24651.75
733.953	24584.64
734.294	24436.17
734.635	24465.09
734.976	24475.03
735.317	24349.39
735.658	24270.97
735.999	24279.56
736.339	24260.8
736.68	24287.47
737.021	24197.53
737.361	24128.83
737.702	24174.48
738.042	24123.63
738.383	24101.48
738.723	24041.83
739.063	23948.72
739.404	24014.26
739.744	23950.3
740.084	23880.25
740.424	23930.42
740.764	23748.73
741.104	23932.45
741.444	23612.23
741.784	23609.29
742.124	23727.03
742.464	23584.44
742.804	23547.15
743.143	23475.06
743.483	23519.81
743.823	23360.04
744.162	23361.17
744.502	23420.82
744.841	23292.69
745.181	23430.09
745.52	23262.18
745.86	23214.28
746.199	23283.88
746.538	23173.37
746.877	23206.37
747.216	23126.6
747.556	23092.25
747.895	23114.39
748.234	22999.37
748.573	22972.02
748.911	22899.03
749.25	22852.25
749.589	22649.32
749.928	22779.49
750.267	22713.5
750.605	22622.2
750.944	22626.95
751.283	22483.22
751.621	22560.51
751.96	22315.54
752.298	22440.29
752.636	22486.61
752.975	22300.18
753.313	22307.63
753.651	22383.56
753.989	22219.5
754.327	22112.84
754.666	22033.52
755.004	22168.88
755.342	22120.52
755.679	22039.62
756.017	21880.75
756.355	21917.59
756.693	21909
757.031	21933.18
757.368	21783.81
757.706	21648.44
758.044	21593.75
758.381	21569.12
758.719	21496.36
759.056	21537.03
759.394	21418.84
759.731	21246.64
760.068	21329.58
760.405	21240.77
760.743	21004.62
761.08	21067.67
761.417	20923.26
761.754	20950.16
762.091	20935.47
762.428	20759.43
762.765	20629.71
763.102	20744.74
763.438	20584.29
763.775	20489.6
764.112	20513.1
764.449	20547.45
764.785	20448.93
765.122	20340.23
765.458	20250.51
765.795	20195.82
766.131	20170.29
766.467	20030.18
766.804	19985.89
767.14	19936.62
767.476	19893.91
767.812	19716.29
768.148	19818.21
768.485	19587.25
768.821	19589.06
769.157	19489.63
769.492	19476.97
769.828	19429.97
770.164	19231.78
770.5	19300.93
770.836	19145.68
771.171	19053.71
771.507	19103.65
771.842	18879.93
772.178	18901.85
772.513	18939.59
772.849	18820.04
773.184	18665.92
773.519	18739.59
773.855	18571.23
774.19	18514.29
774.525	18548.41
774.86	18484.91
775.195	18435.19
775.53	18318.81
775.865	18169.89
776.2	18150.45
776.535	17982.1
776.87	17932.83
777.205	17966.28
777.539	17863.46
777.874	17890.57
778.209	17702.78
778.543	17699.17
778.878	17498.27
779.212	17595.67
779.547	17466.86
779.881	17493.52
780.215	17335.56
780.55	17375.56
780.884	17271.38
781.218	17177.37
781.552	17202.68
781.886	17053.31
782.22	16958.4
782.554	16963.37
782.888	16775.8
783.222	16715.24
783.556	16745.52
783.889	16658.74
784.223	16593.43
784.557	16536.94
784.89	16474.11
785.224	16392.31
785.557	16358.64
785.891	16294.68
786.224	16269.15
786.558	16292.2
786.891	16166.55
787.224	16042.49
787.557	15999.55
787.891	15926.11
788.224	15981.47
788.557	15869.16
788.89	15751.42
789.223	15878.42
789.556	15624.87
789.888	15625.32
790.221	15523.41
790.554	15529.28
790.887	15486.8
791.219	15423.52
791.552	15427.81
791.884	15217.2
792.217	15296.29
792.549	15281.6
792.882	15143.98
793.214	14968.84
793.546	15136.75
793.879	15029.86
794.211	14950.54
794.543	14952.8
794.875	14907.15
795.207	14943.08
795.539	14812.92
795.871	14735.86
796.203	14675.29
796.535	14601.4
796.867	14628.74
797.198	14535.41
797.53	14509.87
797.862	14424
798.193	14419.93
798.525	14328.41
798.856	14426.71
799.188	14195.76
799.519	14086.38
799.85	14071.92
800.182	14152.59
800.513	14034.86
800.844	13914.18
801.175	14006.38
801.506	13908.31
801.837	13850.68
802.168	13835.99
802.499	13760.97
802.83	13709.44
803.161	13684.81
803.491	13599.16
803.822	13642.32
804.153	13529.79
804.483	13497.92
804.814	13417.92
805.145	13435.78
805.475	13454.53
805.805	13419.73
806.136	13358.04
806.466	13378.38
806.796	13367.76
807.126	13271.71
807.457	13223.13
807.787	13156.46
808.117	13119.85
808.447	13031.95
808.777	13033.98
809.107	13060.87
809.436	13021.32
809.766	12955.79
810.096	12960.53
810.426	12907.2
810.755	12848.22
811.085	12786.53
811.414	12808.9
811.744	12761.9
812.073	12788.34
812.403	12724.83
812.732	12642.13
813.061	12644.84
813.39	12491.62
813.719	12495.91
814.049	12530.49
814.378	12541.79
814.707	12450.72
815.036	12345.86
815.365	12379.08
815.693	12331.17
816.022	12276.49
816.351	12279.87
816.68	12214.79
817.008	12232.64
817.337	12112.87
817.665	12092.31
817.994	12040.56
818.322	12059.99
818.651	12023.61
818.979	11977.28
819.307	12004.4
819.636	11862.48
819.964	11892.77
820.292	11935.48
820.62	11941.13
820.948	11830.17
821.276	11903.61
821.604	11904.97
821.932	11895.48
822.259	11922.37
822.587	11850.73
822.915	11799.89
823.243	11847.8
823.57	11827.91
823.898	11767.35
824.225	11828.14
824.553	11789.94
824.88	11796.5
825.207	11882.82
825.535	11812.32
825.862	11888.7
826.189	11766.22
826.516	11861.13
826.843	11882.15
827.17	11791.53
827.497	11869.04
827.824	11794.24
828.151	11790.85
828.478	11742.04
828.805	11797.4
829.131	11807.57
829.458	11743.84
829.785	11711.53
830.111	11690.06
830.438	11773.45
830.764	11770.06
831.09	11672.21
831.417	11730.74
831.743	11760.79
832.069	11683.28
832.395	11659.55
832.722	11718.08
833.048	11671.76
833.374	11622.49
833.7	11617.97
834.026	11662.49
834.351	11664.98
834.677	11638.99
835.003	11590.18
835.329	11583.85
835.654	11582.72
835.98	11563.74
836.306	11634.69
836.631	11500.46
836.956	11601.25
837.282	11546.56
837.607	11445.09
837.932	11402.16
838.258	11501.59
838.583	11408.94
838.908	11418.88
839.233	11423.4
839.558	11385.44
839.883	11363.74
840.208	11240.81
840.533	11240.58
840.858	11262.5
841.182	11234.03
841.507	11250.52
841.832	11111.09
842.156	11146.57
842.481	11197.87
842.805	11185.21
843.13	11140.02
843.454	11027.03
843.778	11053.01
844.103	10991.1
844.427	11002.39
844.751	11013.02
845.075	10982.73
845.399	10925.79
845.723	10913.36
846.047	10880.36
846.371	10774.15
846.695	10789.97
847.019	10708.62
847.343	10693.7
847.666	10600.82
847.99	10589.75
848.313	10552.69
848.637	10507.04
848.96	10487.61
849.284	10517.66
849.607	10436.31
849.931	10348.85
850.254	10304.79
850.577	10215.52
850.9	10167.84
851.223	10179.59
851.546	10119.48
851.869	10008.3
852.192	10055.3
852.515	9957.68
852.838	9992.48
853.161	9992.93
853.483	9889.88
853.806	9823.67
854.129	9830.45
854.451	9867.96
854.774	9764.69
855.096	9704.8
855.419	9726.04
855.741	9698.25
856.063	9649.21
856.385	9574.86
856.708	9559.49
857.03	9510.46
857.352	9513.62
857.674	9519.72
857.996	9430.68
858.318	9376.22
858.64	9435.2
858.961	9469.78
859.283	9392.49
859.605	9317.92
859.926	9316.11
860.248	9297.58
860.57	9262.33
860.891	9282.89
861.212	9187.98
861.534	9159.05
861.855	9189.33
862.176	9196.34
862.498	9189.11
862.819	9149.34
863.14	9125.83
863.461	9061.43
863.782	9061.65
864.103	9080.64
864.424	9006.29
864.745	9049.9
865.065	8947.53
865.386	8961.77
865.707	8948.21
866.027	8962.45
866.348	8945.05
866.668	8917.25
866.989	8928.32
867.309	8846.07
867.63	8923.35
867.95	8846.74
868.27	8818.27
868.59	8886.97
868.91	8786.86
869.23	8751.38
869.55	8777.14
869.87	8821.43
870.19	8683.81
870.51	8791.15
870.83	8801.32
871.15	8727.65
871.469	8703.7
871.789	8630.93
872.109	8639.29
872.428	8685.85
872.748	8632.74
873.067	8614.21
873.386	8575.34
873.706	8552.06
874.025	8590.48
874.344	8550.48
874.663	8527.21
874.982	8573.31
875.301	8503.25
875.62	8453.53
875.939	8509.13
876.258	8498.96
876.577	8348.45
876.896	8399.3
877.214	8414.67
877.533	8420.32
877.852	8433.65
878.17	8416.25
878.489	8411.95
878.807	8302.35
879.125	8372.18
879.444	8335.57
879.762	8309.58
880.08	8279.98
880.398	8286.76
880.716	8292.18
881.034	8214.9
881.352	8230.94
881.67	8178.51
881.988	8205.63
882.306	8161.57
882.624	8196.59
882.941	8160.44
883.259	8145.75
883.577	8086.99
883.894	8067.33
884.212	8076.6
884.529	8105.75
884.846	8030.72
885.164	8013.77
885.481	7975.36
885.798	8040.89
886.115	7899.43
886.432	7934.9
886.75	7964.73
887.067	7904.17
887.383	7879.76
887.7	7934.23
888.017	7857.17
888.334	7835.25
888.651	7834.79
888.967	7831.63
889.284	7824.4
889.6	7760.45
889.917	7641.13
890.233	7702.14
890.55	7644.97
890.866	7653.78
891.182	7618.08
891.498	7550.96
891.815	7605.87
892.131	7528.59
892.447	7521.13
892.763	7479.1
893.079	7490.62
893.395	7482.71
893.71	7401.81
894.026	7446.56
894.342	7416.5
894.657	7328.14
894.973	7304.41
895.289	7313.23
895.604	7333.34
895.92	7296.96
896.235	7186.9
896.55	7207.47
896.865	7244.53
897.181	7147.35
897.496	7135.6
897.811	7147.13
898.126	7124.98
898.441	7094.7
898.756	7025.55
899.071	7056.74
899.386	7075.27
899.7	6997.75
900.015	6936.06
900.33	6879.56
900.644	6838.89
900.959	6936.74
901.273	6855.38
901.588	6823.52
901.902	6752.79
902.216	6774.48
902.531	6774.93
902.845	6755.5
903.159	6680.47
903.473	6662.4
903.787	6635.96
904.101	6626.69
904.415	6622.4
904.729	6562.51
905.042	6546.69
905.356	6519.12
905.67	6494.04
905.984	6502.63
906.297	6494.49
906.611	6486.58
906.924	6430.76
907.237	6359.35
907.551	6314.38
907.864	6345.57
908.177	6358.22
908.491	6328.17
908.804	6297.89
909.117	6258.56
909.43	6202.29
909.743	6171.33
910.056	6141.51
910.368	6131.56
910.681	6092.92
910.994	6086.37
911.307	6081.62
911.619	6041.39
911.932	6007.72
912.244	5967.27
912.557	6007.5
912.869	5976.76
913.181	5952.81
913.494	5907.61
913.806	5873.94
914.118	5857.67
914.43	5805.69
914.742	5772.48
915.054	5788.75
915.366	5779.71
915.678	5757.11
915.99	5776.09
916.302	5675.3
916.613	5677.34
916.925	5652.03
917.236	5644.12
917.548	5598.47
917.859	5591.92
918.171	5484.57
918.482	5577.9
918.794	5506.49
919.105	5517.79
919.416	5409.32
919.727	5487.74
920.038	5455.42
920.349	5430.11
920.66	5418.13
920.971	5426.27
921.282	5353.96
921.593	5324.13
921.903	5313.28
922.214	5301.98
922.525	5251.59
922.835	5188.31
923.146	5180.63
923.456	5206.16
923.767	5171.36
924.077	5140.85
924.387	5154.64
924.697	5120.52
925.008	5097.92
925.318	5038.94
925.628	5073.96
925.938	5077.35
926.248	4987.19
926.558	4983.8
926.867	4965.94
927.177	4932.5
927.487	4923.46
927.796	4897.02
928.106	4865.38
928.416	4900.41
928.725	4823.57
929.034	4818.6
929.344	4820.18
929.653	4785.38
929.962	4694.99
930.271	4676.91
930.581	4733.86
930.89	4674.88
931.199	4645.95
931.508	4637.14
931.817	4647.31
932.125	4617.48
932.434	4575.9
932.743	4569.8
933.051	4559.4
933.36	4555.33
933.669	4539.97
933.977	4484.15
934.286	4476.24
934.594	4494.77
934.902	4415.22
935.21	4414.54
935.519	4412.51
935.827	4373.64
936.135	4418.39
936.443	4329.35
936.751	4297.71
937.059	4349.01
937.367	4305.62
937.674	4272.4
937.982	4273.76
938.29	4230.59
938.597	4269.46
938.905	4173.65
939.213	4177.49
939.52	4167.09
939.827	4191.5
940.135	4127.77
940.442	4095.01
940.749	4095.68
941.056	4135.68
941.363	4038.96
941.67	4040.54
941.977	3995.8
942.284	4011.39
942.591	4004.16
942.898	3994.44
943.205	4012.75
943.511	3972.07
943.818	3965.07
944.125	3867.89
944.431	3885.29
944.738	3885.52
945.044	3862.7
945.35	3836.26
945.657	3819.08
945.963	3823.15
946.269	3806.88
946.575	3804.62
946.881	3754.68
947.187	3786.99
947.493	3773.66
947.799	3730.95
948.105	3699.54
948.41	3683.26
948.716	3699.31
949.022	3701.34
949.327	3672.64
949.633	3593.78
949.938	3641.23
950.244	3607.33
950.549	3592.42
950.854	3564.62
951.16	3522.37
951.465	3551.29
951.77	3544.29
952.075	3481.01
952.38	3473.1
952.685	3495.93
952.99	3410.73
953.294	3446.43
953.599	3432.2
953.904	3430.16
954.209	3425.42
954.513	3417.28
954.818	3431.75
955.122	3360.56
955.426	3339.32
955.731	3334.35
956.035	3358.98
956.339	3319.21
956.643	3328.92
956.948	3262.71
957.252	3277.85
957.556	3292.99
957.86	3248.93
958.163	3247.57
958.467	3194.24
958.771	3204.41
959.075	3197.85
959.378	3176.61
959.682	3157.85
959.985	3155.37
960.289	3158.08
960.592	3108.82
960.896	3132.09
961.199	3095.26
961.502	3072.89
961.805	3101.81
962.108	3046.67
962.411	3059.33
962.714	3043.96
963.017	3041.7
963.32	3008.03
963.623	2988.14
963.926	3011.87
964.228	2949.05
964.531	2948.59
964.833	2981.81
965.136	2885.32
965.438	2906.11
965.741	2926.67
966.043	2924.87
966.345	2916.28
966.648	2858.43
966.95	2868.37
967.252	2838.32
967.554	2861.37
967.856	2813.23
968.158	2803.51
968.46	2799.22
968.761	2807.58
969.063	2748.6
969.365	2793.8
969.666	2744.53
969.968	2717.19
970.269	2708.15
970.571	2695.72
970.872	2697.75
971.174	2681.94
971.475	2664.76
971.776	2661.37
972.077	2700.24
972.378	2657.3
972.679	2662.5
972.98	2634.03
973.281	2595.84
973.582	2602.62
973.883	2593.8
974.183	2560.36
974.484	2622.05
974.785	2584.99
975.085	2522.39
975.386	2546.8
975.686	2532.33
975.986	2501.37
976.287	2549.06
976.587	2483.52
976.887	2485.33
977.187	2436.29
977.487	2466.57
977.787	2463.41
978.087	2452.79
978.387	2433.35
978.687	2434.26
978.987	2412.11
979.286	2409.85
979.586	2423.41
979.885	2408.27
980.185	2346.58
980.484	2338.67
980.784	2371.89
981.083	2313.81
981.382	2332.57
981.682	2339.57
981.981	2307.26
982.28	2318.55
982.579	2303.64
982.878	2336.86
983.177	2270.42
983.475	2273.81
983.774	2244.43
984.073	2250.76
984.372	2233.59
984.67	2240.36
984.969	2214.6
985.267	2223.19
985.566	2205.79
985.864	2173.25
986.162	2200.82
986.461	2145.45
986.759	2161.5
987.057	2139.58
987.355	2158.56
987.653	2141.84
987.951	2123.76
988.249	2127.37
988.547	2067.71
988.844	2099.58
989.142	2089.86
989.44	2070.88
989.737	2048.28
990.035	2080.14
990.332	2052.8
990.63	2067.26
990.927	2019.13
991.224	2009.64
991.521	2028.17
991.819	1979.35
992.116	1994.04
992.413	1982.74
992.71	1973.25
993.006	1965.12
993.303	1999.24
993.6	1962.86
993.897	1961.28
994.193	1918.11
994.49	1938.23
994.787	1931.9
995.083	1896.19
995.379	1914.95
995.676	1860.94
995.972	1896.19
996.268	1868.85
996.565	1859.36
996.861	1873.59
997.157	1843.31
997.453	1823.43
997.749	1813.26
998.044	1824.56
998.34	1823.43
998.636	1805.57
998.932	1767.16
999.227	1769.42
999.523	1750.66
999.818	1753.15
1000.114	1758.34
1000.409	1740.94
1000.704	1737.78
1001	1757.67
1001.295	1741.17
1001.59	1712.47
1001.885	1698.91
1002.18	1724.45
1002.475	1678.8
1002.77	1677.89
1003.065	1661.85
1003.359	1671.11
1003.654	1667.27
1003.949	1620.72
1004.243	1637.44
1004.538	1640.15
1004.832	1630.89
1005.127	1630.89
1005.421	1596.99
1005.715	1604.9
1006.009	1589.99
1006.304	1570.78
1006.598	1587.27
1006.892	1559.7
1007.186	1567.61
1007.48	1540.72
1007.773	1550.67
1008.067	1524.68
1008.361	1507.5
1008.655	1520.16
1008.948	1532.13
1009.242	1494.17
1009.535	1458.46
1009.829	1484.9
1010.122	1462.98
1010.415	1456.43
1010.708	1437.67
1011.001	1417.56
1011.295	1438.13
1011.588	1427.28
1011.881	1442.19
1012.173	1439.48
1012.466	1394.74
1012.759	1408.97
1013.052	1380.5
1013.344	1369.2
1013.637	1385.47
1013.93	1377.79
1014.222	1381.4
1014.514	1335.3
1014.807	1356.77
1015.099	1343.67
1015.391	1335.53
1015.683	1294.85
1015.976	1349.09
1016.268	1308.86
1016.56	1302.31
1016.851	1330.11
1017.143	1294.85
1017.435	1289.88
1017.727	1262.76
1018.018	1272.48
1018.31	1254.18
1018.602	1237.23
1018.893	1233.61
1019.185	1254.63
1019.476	1235.65
1019.767	1228.87
1020.058	1215.53
1020.35	1185.7
1020.641	1215.08
1020.932	1198.36
1021.223	1181.41
1021.514	1190.9
1021.804	1179.6
1022.095	1158.59
1022.386	1166.27
1022.677	1146.38
1022.967	1142.09
1023.258	1154.52
1023.548	1110.23
1023.839	1118.13
1024.129	1118.81
1024.419	1106.84
1024.709	1105.25
1025	1107.74
1025.29	1113.39
1025.58	1068.19
1025.87	1071.13
1026.16	1072.49
1026.449	1081.98
1026.739	1035.88
1027.029	1027.74
1027.319	1028.87
1027.608	1049.44
1027.898	1044.01
1028.187	1013.73
1028.477	1021.41
1028.766	1018.25
1029.055	993.39
1029.344	979.83
1029.634	1007.63
1029.923	1021.19
1030.212	989.1
1030.501	988.19
1030.79	973.05
1031.078	955.88
1031.367	933.28
1031.656	938.25
1031.945	946.61
1032.233	967.86
1032.522	945.48
1032.81	918.37
1033.099	908.65
1033.387	914.07
1033.675	935.09
1033.963	900.97
1034.251	901.87
1034.54	882.21
1034.828	888.76
1035.116	861.64
1035.403	884.24
1035.691	869.33
1035.979	890.8
1036.267	870.91
1036.554	845.15
1036.842	859.38
1037.129	852.38
1037.417	830.68
1037.704	865.49
1037.992	825.49
1038.279	846.05
1038.566	824.36
1038.853	824.36
1039.14	824.36
