Data from whiteboard_FLMS001491_00082.txt Node
Date: Wed Feb 08 11:28:28 GMT 2017
User: dcchb
Spectrometer: FLMS00149
Trigger mode: 0
Integration Time (sec): 2.000000E-2
Scans to average: 10
Electric dark correction enabled: true
Nonlinearity correction enabled: false
Boxcar width: 0
XAxis mode: Wavelengths
Number of Pixels in Spectrum: 2048
>>>>>Begin Spectral Data<<<<<
341.393	4.82
341.776	4.82
342.16	4.82
342.543	-72.02
342.927	-53.94
343.31	-68.85
343.693	-83.99
344.077	-81.51
344.46	-58.68
344.843	-62.98
345.226	-61.4
345.61	-31.57
345.993	-0.38
346.376	-2.42
346.759	26.28
347.142	18.6
347.525	49.33
347.908	59.28
348.291	76.68
348.674	103.34
349.057	118.26
349.44	118.26
349.823	148.32
350.206	157.35
350.588	211.82
350.971	216.79
351.354	242.1
351.737	270.8
352.119	292.04
352.502	279.61
352.884	304.24
353.267	311.47
353.65	300.63
354.032	337.91
354.414	339.95
354.797	354.41
355.179	351.02
355.562	356.9
355.944	345.82
356.326	358.71
356.709	344.02
357.091	351.7
357.473	373.85
357.855	365.94
358.238	385.15
358.62	379.72
359.002	370
359.384	364.81
359.766	362.09
360.148	380.63
360.53	361.64
360.912	392.6
361.294	377.69
361.676	346.5
362.057	374.3
362.439	358.48
362.821	365.03
363.203	358.25
363.584	361.42
363.966	352.15
364.348	357.8
364.729	342.43
365.111	355.32
365.493	355.54
365.874	364.35
366.256	388.76
366.637	340.17
367.019	370.91
367.4	369.55
367.781	355.09
368.163	345.6
368.544	369.78
368.925	343.34
369.306	369.78
369.688	386.5
370.069	367.52
370.45	345.82
370.831	354.86
371.212	349.67
371.593	335.88
371.974	349.89
372.355	360.29
372.736	374.52
373.117	370.91
373.498	365.94
373.879	379.95
374.26	357.58
374.641	386.73
375.021	369.55
375.402	370.68
375.783	380.17
376.163	399.38
376.544	377.24
376.925	402.32
377.305	388.53
377.686	408.2
378.066	392.6
378.447	385.15
378.827	403.45
379.208	375.43
379.588	393.28
379.968	403
380.349	412.49
380.729	397.35
381.109	407.74
381.489	409.1
381.87	405.03
382.25	399.38
382.63	412.26
383.01	420.17
383.39	423.79
383.77	426.95
384.15	428.53
384.53	437.35
384.91	455.65
385.29	416.1
385.67	424.69
386.049	453.39
386.429	446.16
386.809	446.16
387.189	448.42
387.568	464.01
387.948	475.76
388.328	454.07
388.707	500.17
389.087	468.53
389.466	481.87
389.846	487.29
390.225	495.2
390.605	499.49
390.984	507.85
391.363	494.07
391.743	543.11
392.122	514.86
392.501	538.81
392.881	550.79
393.26	529.77
393.639	557.8
394.018	562.54
394.397	539.04
394.776	565.93
395.155	583.56
395.534	551.24
395.913	585.37
396.292	575.87
396.671	599.38
397.05	609.55
397.429	626.27
397.808	633.73
398.186	656.32
398.565	652.93
398.944	641.64
399.323	689.77
399.701	647.74
400.08	677.11
400.458	712.37
400.837	715.76
401.215	719.83
401.594	705.81
401.972	735.19
402.351	757.79
402.729	752.14
403.107	770.45
403.486	801.41
403.864	806.6
404.242	817.9
404.62	842.31
404.999	851.12
405.377	868.75
405.755	899.48
406.133	906.94
406.511	918.46
406.889	938.58
407.267	966.37
407.645	987.84
408.023	1014.73
408.401	1004.34
408.779	1043.43
409.156	1051.79
409.534	1063.09
409.912	1085.24
410.29	1127.95
410.667	1138.8
411.045	1171.57
411.422	1177.67
411.8	1214.5
412.178	1235.29
412.555	1256.31
412.933	1287.72
413.31	1289.53
413.687	1319.36
414.065	1343.76
414.442	1347.83
414.819	1375.18
415.197	1407.49
415.574	1418.79
415.951	1452.69
416.328	1470.31
416.705	1465.12
417.082	1505.79
417.46	1516.19
417.837	1550.99
418.214	1530.43
418.591	1604.55
418.967	1558.45
419.344	1623.3
419.721	1650.42
420.098	1654.72
420.475	1706.01
420.852	1718.67
421.228	1734.94
421.605	1768.84
421.982	1758.67
422.358	1746.24
422.735	1800.02
423.111	1817.88
423.488	1875.95
423.864	1843.86
424.241	1887.48
424.617	1940.58
424.994	1933.13
425.37	1968.83
425.746	1992.33
426.123	2012.9
426.499	2011.32
426.875	2043.86
427.251	2084.99
427.627	2104.87
428.003	2169.05
428.379	2186.45
428.756	2204.98
429.132	2214.02
429.507	2273.46
429.883	2306.68
430.259	2320.91
430.635	2348.26
431.011	2380.35
431.387	2450.85
431.763	2491.53
432.138	2463.06
432.514	2516.39
432.89	2536.28
433.265	2579.44
433.641	2673.67
434.016	2668.93
434.392	2679.32
434.767	2784.4
435.143	2760.45
435.518	2830.73
435.894	2823.73
436.269	2856.72
436.644	2932.87
437.02	2955.02
437.395	2935.13
437.77	3001.12
438.145	3033.89
438.52	3092.87
438.895	3118.63
439.271	3098.97
439.646	3169.25
440.021	3219.65
440.395	3211.96
440.77	3235.01
441.145	3253.54
441.52	3299.87
441.895	3293.32
442.27	3352.75
442.645	3373.32
443.019	3392.75
443.394	3396.59
443.769	3418.51
444.143	3437.04
444.518	3509.36
444.892	3539.19
445.267	3575.12
445.641	3594.1
446.016	3616.92
446.39	3670.48
446.764	3606.98
447.139	3679.75
447.513	3681.1
447.887	3715
448.262	3730.59
448.636	3786.41
449.01	3858.05
449.384	3820.31
449.758	3866.64
450.132	3907.54
450.506	3957.93
450.88	4032.51
451.254	4006.52
451.628	4076.12
452.002	4111.37
452.376	4146.18
452.75	4201.99
453.123	4196.8
453.497	4291.03
453.871	4321.76
454.244	4434.53
454.618	4452.61
454.992	4515.21
455.365	4526.73
455.739	4607.86
456.112	4694.41
456.486	4767.85
456.859	4745.03
457.232	4888.98
457.606	4842.88
457.979	4987.06
458.352	5069.32
458.725	5100.05
459.099	5089.88
459.472	5234.51
459.845	5312.47
460.218	5288.97
460.591	5397.67
460.964	5348.18
461.337	5572.58
461.71	5597.66
462.083	5690.09
462.456	5689.19
462.829	5754.04
463.201	5889.41
463.574	5865.45
463.947	5986.81
464.32	6125.56
464.692	6152.23
465.065	6196.97
465.438	6261.15
465.81	6395.16
466.183	6448.26
466.555	6577.75
466.928	6610.29
467.3	6645.32
467.672	6761.02
468.045	6973.67
468.417	6989.72
468.789	7000.79
469.161	7072.65
469.534	7283.49
469.906	7366.2
470.278	7455.69
470.65	7549.48
471.022	7640.32
471.394	7786.76
471.766	7866.76
472.138	7964.83
472.51	8142.68
472.882	8252.06
473.253	8341.32
473.625	8489.56
473.997	8690.92
474.369	8729.56
474.74	8835.54
475.112	9034.64
475.484	9129.1
475.855	9332.25
476.227	9392.14
476.598	9603.21
476.97	9737.67
477.341	9942.63
477.713	10084.55
478.084	10152.57
478.455	10428.27
478.827	10484.31
479.198	10848.15
479.569	10854.47
479.94	11139.89
480.311	11275.48
480.682	11550.05
481.053	11720.44
481.424	11981.9
481.795	12094.67
482.166	12284.27
482.537	12379.18
482.908	12622.11
483.279	12779.85
483.65	13023.23
484.021	13320.17
484.391	13543.44
484.762	13555.19
485.133	13747.28
485.503	13844.45
485.874	14180.71
486.244	14323.54
486.615	14606.24
486.985	14820.92
487.356	15080.58
487.726	15202.16
488.097	15484.41
488.467	15576.61
488.837	15886.43
489.207	16037.62
489.578	16282.81
489.948	16410.71
490.318	16674.43
490.688	16718.5
491.058	17005.5
491.428	17284.14
491.798	17360.74
492.168	17770.9
492.538	17860.39
492.908	18058.13
493.278	18125.02
493.648	18187.39
494.017	18521.39
494.387	18661.05
494.757	18795.06
495.126	19038.67
495.496	19110.3
495.866	19231.2
496.235	19553.23
496.605	19681.81
496.974	19717.74
497.344	19949.15
497.713	20103.04
498.082	20187.79
498.452	20320.21
498.821	20438.18
499.19	20555.69
499.559	20870.26
499.928	20989.58
500.298	21115.45
500.667	21329.45
501.036	21280.64
501.405	21565.61
501.774	21574.19
502.143	21814.86
502.512	21921.08
502.88	22090.79
503.249	22105.25
503.618	22402.42
503.987	22424.57
504.356	22666.14
504.724	22683.32
505.093	22862.75
505.462	23061.84
505.83	23128.28
506.199	23351.1
506.567	23661.6
506.936	23640.13
507.304	23876.73
507.672	23977.07
508.041	24092.77
508.409	24154.01
508.777	24484.62
509.145	24634.23
509.514	24667.22
509.882	24932.3
510.25	25090.26
510.618	25212.06
510.986	25327.09
511.354	25481.43
511.722	25683.24
512.09	25945.6
512.458	25925.94
512.826	26164.35
513.193	26354.63
513.561	26451.8
513.929	26701.29
514.297	26917.78
514.664	27068.06
515.032	27224.67
515.4	27383.98
515.767	27552.57
516.135	27876.4
516.502	27657.2
516.869	28125.21
517.237	28349.38
517.604	28246.11
517.972	28706.66
518.339	28810.84
518.706	28981
519.073	29061
519.44	29418.51
519.808	29745.73
520.175	29633.64
520.542	30048.55
520.909	30175.55
521.276	30222.33
521.643	30586.84
522.009	30783.67
522.376	30966.26
522.743	31191.57
523.11	31445.8
523.477	31874.94
523.843	31832.68
524.21	32177.53
524.577	32582.72
524.943	32554.47
525.31	32755.37
525.676	33061.57
526.043	33203.27
526.409	33432.19
526.776	33687.09
527.142	33880.99
527.508	33962.57
527.874	34175.67
528.241	34397.58
528.607	34650.23
528.973	34939.04
529.339	34822.66
529.705	35282.53
530.071	35578.34
530.437	35670.32
530.803	35995.28
531.169	36270.53
531.535	36087.26
531.901	36261.26
532.267	36530.86
532.632	36913.22
532.998	36957.52
533.364	37184.63
533.73	37368.13
534.095	37604.05
534.461	37722.47
534.826	37889.47
535.192	37919.53
535.557	38183.02
535.923	38238.39
536.288	38371.72
536.653	38664.82
537.019	38616.68
537.384	38945.04
537.749	38878.82
538.114	39138.02
538.479	39195.88
538.845	39469.09
539.21	39415.98
539.575	39599.03
539.94	39703.89
540.305	40095.06
540.67	39910.43
541.034	40046.48
541.399	40313.13
541.764	40388.16
542.129	40626.35
542.494	40577.31
542.858	40668.83
543.223	40826.34
543.587	41044.64
543.952	40996.28
544.316	41302.49
544.681	41346.55
545.045	41471.75
545.41	41600.33
545.774	41888.69
546.138	41832.19
546.503	42039.42
546.867	41954.45
547.231	42499.52
547.595	42409.58
547.959	42585.62
548.324	42683.24
548.688	42925.27
549.052	42896.8
549.416	43184.92
549.779	43272.38
550.143	43375.88
550.507	43525.71
550.871	43749.65
551.235	43750.78
551.599	44042.98
551.962	44146.71
552.326	44230.77
552.689	44612.46
553.053	44209.76
553.417	44478.22
553.78	44939
554.143	44812.9
554.507	45102.16
554.87	45164.08
555.234	45694.24
555.597	45358.65
555.96	45535.6
556.323	45830.28
556.686	45778.08
557.05	46175.58
557.413	46272.98
557.776	46333.54
558.139	46490.83
558.502	46663.93
558.865	46734.89
559.228	47039.74
559.59	47099.4
559.953	47145.05
560.316	47605.82
560.679	47561.08
561.041	47834.75
561.404	47967.17
561.767	48290.78
562.129	48177.33
562.492	48482.86
562.854	48545.91
563.217	48650.32
563.579	48765.34
563.941	48981.16
564.304	49164.65
564.666	49446.23
565.028	49410.07
565.39	49492.55
565.753	49801.47
566.115	49801.7
566.477	49999.43
566.839	50124.63
567.201	50436.26
567.563	50395.13
567.925	50668.12
568.287	50793.76
568.648	50793.76
569.01	51042.12
569.372	51206.86
569.734	51139.97
570.095	51332.28
570.457	51513.52
570.819	51460.86
571.18	51616.79
571.542	51805.49
571.903	51805.94
572.265	51980.4
572.626	52044.35
572.987	52082.54
573.349	52130.68
573.71	52247.06
574.071	52254.06
574.432	52444.34
574.794	52718.01
575.155	52614.05
575.516	52536.54
575.877	52701.06
576.238	52853.6
576.599	52915.97
576.96	52962.75
577.32	53000.48
577.681	53117.54
578.042	53268.5
578.403	53167.03
578.763	53260.82
579.124	53278.67
579.485	53430.76
579.845	53466.69
580.206	53392.11
580.566	53391.66
580.927	53446.12
581.287	53505.1
581.648	53461.72
582.008	53690.41
582.368	53499.91
582.728	53657.19
583.089	53551.66
583.449	53622.39
583.809	53636.63
584.169	53734.02
584.529	53607.7
584.889	53854.25
585.249	53652.22
585.609	53599.34
585.969	53811.99
586.329	53722.5
586.688	53744.42
587.048	53746.45
587.408	53793.46
587.768	53717.53
588.127	53725.44
588.487	53664.2
588.846	53864.87
589.206	53646.34
589.565	53688.38
589.925	53815.6
590.284	53763.63
590.643	53830.52
591.003	53915.26
591.362	53992.55
591.721	53896.05
592.08	53883.4
592.44	53958.88
592.799	53957.52
593.158	53946.45
593.517	53917.3
593.876	53885.66
594.235	53901.93
594.593	53914.81
594.952	53938.77
595.311	53864.64
595.67	53933.57
596.029	54089.5
596.387	54112.32
596.746	54168.36
597.104	54029.61
597.463	53941.25
597.822	54098.31
598.18	54053.34
598.538	54064.19
598.897	54239.1
599.255	54044.75
599.613	54431.41
599.972	54271.64
600.33	54268.02
600.688	54254.24
601.046	54343.5
601.404	54407
601.762	54268.25
602.12	54448.81
602.478	54441.13
602.836	54407.68
603.194	54301.47
603.552	54396.83
603.91	54284.29
604.268	54426.89
604.625	54346.21
604.983	54492.65
605.341	54202.49
605.698	54483.84
606.056	54414.91
606.413	54436.83
606.771	54493.55
607.128	54503.72
607.485	54414.46
607.843	54447.68
608.2	54597.73
608.557	54667.79
608.914	54572.42
609.272	54723.6
609.629	54785.3
609.986	54805.18
610.343	54646.77
610.7	54901.68
611.057	54777.61
611.414	54782.58
611.771	54816.03
612.127	54982.58
612.484	54910.94
612.841	54949.81
613.198	54923.37
613.554	54925.18
613.911	55038.4
614.267	55033.2
614.624	54943.71
614.98	55118.62
615.337	55209.47
615.693	55133.54
616.05	55132.86
616.406	55356.81
616.762	55200.65
617.118	55202.23
617.475	55230.03
617.831	55351.61
618.187	55338.95
618.543	55382.12
618.899	55442.45
619.255	55387.54
619.611	55402
619.967	55480.65
620.323	55456.47
620.678	55381.89
621.034	55195.68
621.39	55399.29
621.746	55247.21
622.101	55587.99
622.457	55301.89
622.812	55354.55
623.168	55420.31
623.523	55448.78
623.879	55475.22
624.234	55287.43
624.589	55320.2
624.945	55461.21
625.3	55359.07
625.655	55329.01
626.01	55383.02
626.365	55469.35
626.72	55300.54
627.075	55317.94
627.43	55246.75
627.785	55168.79
628.14	55234.78
628.495	55279.52
628.85	55224.38
629.205	55096.02
629.559	55243.59
629.914	55086.76
630.269	55110.49
630.623	55064.84
630.978	54955.24
631.332	55120.2
631.687	55098.96
632.041	55051.05
632.396	55006.53
632.75	54903.26
633.104	54931.51
633.459	54777.84
633.813	54816.03
634.167	54933.54
634.521	54792.08
634.875	54862.13
635.229	54824.84
635.583	54636.83
635.937	54704.85
636.291	54571.74
636.645	54593.66
636.999	54609.93
637.352	54705.07
637.706	54424.85
638.06	54628.46
638.413	54579.88
638.767	54429.15
639.121	54494.91
639.474	54397.28
639.828	54337.85
640.181	54386.44
640.534	54419.66
640.888	54289.72
641.241	54083.39
641.594	54201.81
641.947	54245.42
642.301	54171.75
642.654	54091.98
643.007	54089.04
643.36	54043.4
643.713	54090.63
644.066	54227.57
644.419	53882.5
644.771	53718.21
645.124	53378.78
645.477	53268.73
645.83	53121.16
646.182	52962.97
646.535	52891.79
646.888	53096.08
647.24	52846.36
647.593	53080.48
647.945	52936.76
648.298	52747.61
648.65	52669.87
649.002	52589.87
649.355	52638.01
649.707	52674.62
650.059	52691.11
650.411	53062.86
650.763	53078.67
651.115	53340.81
651.467	53219.24
651.819	53278.22
652.171	53119.35
652.523	53060.14
652.875	53173.14
653.227	52931.79
653.578	53141.95
653.93	53052.01
654.282	53016.3
654.633	52885.91
654.985	52926.36
655.337	52950.99
655.688	52835.29
656.039	52928.4
656.391	52678.46
656.742	52790.09
657.094	52774.73
657.445	52807.27
657.796	52707.61
658.147	52633.94
658.498	52608.63
658.849	52693.37
659.2	52624.45
659.551	52471.91
659.902	52612.25
660.253	52573.83
660.604	52588.52
660.955	52365.02
661.306	52432.36
661.656	52460.39
662.007	52454.06
662.358	52518.01
662.708	52426.94
663.059	52421.29
663.409	52171.58
663.76	52452.48
664.11	52490.22
664.461	52420.61
664.811	52440.5
665.161	52358.24
665.511	52232.82
665.862	52284.8
666.212	52367.96
666.562	52289.77
666.912	52247.06
667.262	52227.4
667.612	52279.37
667.962	52182.43
668.312	52232.14
668.662	52253.39
669.011	52240.73
669.361	52129.77
669.711	52108.76
670.06	52038.02
670.41	51887.75
670.76	51903.34
671.109	51986.05
671.459	51902.89
671.808	51830.12
672.157	51966.84
672.507	51729.33
672.856	51717.81
673.205	51769.1
673.554	51774.53
673.904	51682.78
674.253	51814.98
674.602	51629
674.951	51156.01
675.3	50932.74
675.649	51502.67
675.998	51333.86
676.346	51397.59
676.695	51457.47
677.044	51146.75
677.393	51282.11
677.741	51287.31
678.09	51274.65
678.438	51179.74
678.787	51139.74
679.135	51162.57
679.484	51001.44
679.832	51109.24
680.181	50886.19
680.529	51050.48
680.877	50893.2
681.225	50764.16
681.573	50843.48
681.922	50561.9
682.27	50544.96
682.618	50655.01
682.966	50425.19
683.314	50468.8
683.661	50437.16
684.009	50280.78
684.357	50205.53
684.705	50080.34
685.053	50276.71
685.4	50086.89
685.748	49854.8
686.095	49891.64
686.443	49802.15
686.79	49783.85
687.138	49931.41
687.485	49718.09
687.832	49681.93
688.18	49514.7
688.527	49522.61
688.874	49393.8
689.221	49337.76
689.568	49167.82
689.915	49006.92
690.262	49029.52
690.609	48942.06
690.956	48795.17
691.303	48801.27
691.65	48521.28
691.997	48570.54
692.344	48369.87
692.69	48260.27
693.037	48436.76
693.383	48061.86
693.73	48145.47
694.077	47864.8
694.423	47897.79
694.769	47759.04
695.116	47604.47
695.462	47578.48
695.808	47439.95
696.155	47541.42
696.501	47208.77
696.847	47204.71
697.193	46882.68
697.539	47053.52
697.885	46845.17
698.231	46586.42
698.577	46649.24
698.923	46627.77
699.269	46292.86
699.614	46151.4
699.96	46056.71
700.306	46126.77
700.651	45772.65
700.997	45740.34
701.342	45738.3
701.688	45583.05
702.033	45537.18
702.379	45352.32
702.724	45180.13
703.069	45334.92
703.415	44780.59
703.76	44958.44
704.105	44796.86
704.45	44629.86
704.795	44550.76
705.14	44508.28
705.485	44321.62
705.83	44216.76
706.175	44231.68
706.52	44118.91
706.865	43935.64
707.209	43864.23
707.554	43762.08
707.899	43897.22
708.243	43565.25
708.588	43456.78
708.932	43254.53
709.277	43290.23
709.621	43281.64
709.966	43018.37
710.31	43113.97
710.654	42577.93
710.998	42889.56
711.342	42787.19
711.687	42707.2
712.031	42397.6
712.375	42358.5
712.719	42362.35
713.063	42246.42
713.407	42495.9
713.75	42146.99
714.094	42007.55
714.438	41904.28
714.782	42026.76
715.125	41745.87
715.469	41697.28
715.812	41462.48
716.156	41205.77
716.499	41381.36
716.843	41391.52
717.186	41077.41
717.53	41242.83
717.873	41197.41
718.216	41163.96
718.559	41006.22
718.902	40546.58
719.246	40683.97
719.589	40599.68
719.932	40394.49
720.275	40349.52
720.617	40343.42
720.96	40278.11
721.303	40275.62
721.646	40305
721.989	40077.89
722.331	40143.87
722.674	39957.21
723.016	39904.33
723.359	39971.45
723.701	39906.14
724.044	39622.76
724.386	39410.79
724.729	39546.38
725.071	39512.7
725.413	39425.47
725.755	39321.52
726.097	39196.33
726.439	38932.61
726.782	39097.57
727.124	39106.39
727.465	38926.96
727.807	38827.3
728.149	38745.04
728.491	38714.98
728.833	38765.6
729.175	38540.3
729.516	38527.65
729.858	38415.33
730.199	38450.13
730.541	38363.13
730.882	38263.92
731.224	38238.39
731.565	38058.5
731.906	38070.48
732.248	38105.96
732.589	37846.76
732.93	37781.22
733.271	37820.55
733.612	37786.42
733.953	37848.57
734.294	37710.27
734.635	37439.31
734.976	37638.4
735.317	37486.32
735.658	37374.91
735.999	37374.23
736.339	37332.87
736.68	37298.3
737.021	37142.14
737.361	37015.37
737.702	37163.39
738.042	36986.89
738.383	36858.99
738.723	37009.72
739.063	36747.35
739.404	36844.98
739.744	36613.57
740.084	36577.64
740.424	36591.88
740.764	36549.62
741.104	36715.49
741.444	36404.31
741.784	36266.46
742.124	36279.57
742.464	36244.32
742.804	36286.12
743.143	36089.97
743.483	36090.42
743.823	35867.6
744.162	35853.59
744.502	35833.25
744.841	35703.54
745.181	35867.15
745.52	35583.77
745.86	35637.78
746.199	35422.19
746.538	35476.43
746.877	35475.97
747.216	35445.01
747.556	35284.11
747.895	35174.96
748.234	35115.08
748.573	35082.31
748.911	34869.89
749.25	34989.89
749.589	34705.6
749.928	34825.6
750.267	34871.92
750.605	34618.82
750.944	34530.24
751.283	34492.05
751.621	34521.42
751.96	34200.53
752.298	34277.81
752.636	34241.2
752.975	34038.27
753.313	33877.6
753.651	33956.24
753.989	33821.1
754.327	33731.84
754.666	33559.87
755.004	33510.6
755.342	33545.63
755.679	33342.24
756.017	33110.61
756.355	33312.42
756.693	33020.9
757.031	33254.34
757.368	32902.93
757.706	32839.21
758.044	32705.43
758.381	32768.93
758.719	32687.12
759.056	32546.56
759.394	32538.42
759.731	32282.84
760.068	32295.04
760.405	31951.09
760.743	31919.68
761.08	32045.78
761.417	31818.44
761.754	31879.91
762.091	31802.85
762.428	31610.76
762.765	31380.26
763.102	31532.35
763.438	31304.78
763.775	31218.46
764.112	31306.14
764.449	31291.68
764.785	31036.32
765.122	30763.78
765.458	30762.2
765.795	30651.92
766.131	30576.89
766.467	30484.69
766.804	30376.9
767.14	30246.96
767.476	30125.38
767.812	30067.08
768.148	30124.48
768.485	29786.41
768.821	29696.46
769.157	29563.36
769.492	29569.46
769.828	29510.26
770.164	29393.2
770.5	29307.32
770.836	29178.74
771.171	28993.88
771.507	29052.41
771.842	28767
772.178	28855.13
772.513	28745.76
772.849	28545.31
773.184	28423.28
773.519	28443.16
773.855	28231.87
774.19	28167.47
774.525	28051.54
774.86	28126.11
775.195	28076.17
775.53	27849.51
775.865	27662.85
776.2	27502.85
776.535	27375.62
776.87	27383.53
777.205	27260.6
777.539	27092.69
777.874	27153.93
778.209	26948.97
778.543	26901.06
778.878	26734.06
779.212	26753.49
779.547	26522.54
779.881	26571.12
780.215	26264.69
780.55	26324.35
780.884	26281.87
781.218	26164.81
781.552	26157.8
781.886	25919.39
782.22	25848.2
782.554	25626.29
782.888	25518.27
783.222	25410.7
783.556	25240.08
783.889	25102.24
784.223	25110.6
784.557	24964.16
784.89	24974.56
785.224	24869.25
785.557	24704.51
785.891	24696.6
786.224	24499.54
786.558	24572.98
786.891	24189.27
787.224	24077.18
787.557	24031.08
787.891	24044.64
788.224	24018.2
788.557	23932.32
788.89	23936.62
789.223	23821.14
789.556	23598.09
789.888	23538.21
790.221	23504.99
790.554	23347.03
790.887	23265.9
791.219	23194.49
791.552	23028.39
791.884	23076.07
792.217	22934.61
792.549	22816.42
792.882	22682.41
793.214	22668.63
793.546	22732.35
793.879	22517.67
794.211	22408.52
794.543	22466.37
794.875	22302.08
795.207	22432.25
795.539	22215.98
795.871	22134.63
796.203	22047.63
796.535	21883.11
796.867	21911.36
797.198	21830.91
797.53	21812.83
797.862	21604.02
798.193	21690.35
798.525	21602.44
798.856	21629.11
799.188	21355.22
799.519	21236.8
799.85	21190.25
800.182	21231.83
800.513	21053.53
800.844	20927.2
801.175	21044.04
801.506	21058.5
801.837	20879.07
802.168	20703.03
802.499	20712.29
802.83	20656.02
803.161	20574.9
803.491	20560.21
803.822	20463.71
804.153	20397.95
804.483	20342.59
804.814	20112.08
805.145	20145.3
805.475	20151.63
805.805	20051.97
806.136	19981.92
806.466	20037.96
806.796	19948.25
807.126	19810.4
807.457	19790.06
807.787	19789.38
808.117	19686.11
808.447	19558.88
808.777	19592.1
809.107	19559.33
809.436	19407.02
809.766	19452.44
810.096	19353.69
810.426	19340.13
810.755	19355.04
811.085	19248.83
811.414	19187.36
811.744	19046.35
812.073	18998.22
812.403	19051.1
812.732	18936.97
813.061	18975.16
813.39	18831.21
813.719	18732.69
814.049	18827.6
814.378	18857.43
814.707	18599.36
815.036	18624.67
815.365	18504.67
815.693	18327.72
816.022	18417.67
816.351	18378.8
816.68	18223.09
817.008	18316.2
817.337	18175.64
817.665	18134.06
817.994	18129.31
818.322	18150.78
818.651	18033.72
818.979	17830.34
819.307	18113.04
819.636	17918.24
819.964	17761.64
820.292	17807.74
820.62	17805.25
820.948	17797.34
821.276	17809.77
821.604	17714.18
821.932	17711.47
822.259	17689.32
822.587	17624.92
822.915	17542.43
823.243	17647.29
823.57	17588.31
823.898	17678.7
824.225	17580.63
824.553	17618.59
824.88	17566.39
825.207	17665.59
825.535	17515.32
825.862	17626.05
826.189	17511.47
826.516	17694.07
826.843	17586.5
827.17	17615.65
827.497	17578.37
827.824	17566.39
828.151	17544.24
828.478	17501.08
828.805	17629.44
829.131	17506.28
829.458	17520.51
829.785	17493.4
830.111	17453.85
830.438	17495.43
830.764	17480.06
831.09	17533.62
831.417	17382.21
831.743	17468.76
832.069	17415.66
832.395	17388.31
832.722	17436.9
833.048	17372.95
833.374	17364.36
833.7	17177.47
834.026	17313.51
834.351	17355.55
834.677	17364.81
835.003	17373.17
835.329	17229.67
835.654	17267.19
835.98	17104.71
836.306	17195.78
836.631	17141.99
836.956	17225.61
837.282	17118.04
837.607	17035.55
837.932	17013.86
838.258	16995.33
838.583	16942.45
838.908	16874.43
839.233	16924.6
839.558	16818.61
839.883	16809.57
840.208	16793.3
840.533	16708.11
840.858	16716.24
841.182	16762.12
841.507	16658.16
841.832	16654.55
842.156	16629.46
842.481	16552.4
842.805	16482.58
843.13	16477.6
843.454	16346.53
843.778	16332.52
844.103	16312.41
844.427	16255.69
844.751	16310.6
845.075	16134.34
845.399	16205.75
845.723	16026.99
846.047	15997.84
846.371	15929.6
846.695	15892.31
847.019	15835.59
847.343	15748.81
847.666	15618.19
847.99	15617.74
848.313	15669.49
848.637	15540.9
848.96	15454.58
849.284	15465.88
849.607	15348.59
849.931	15235.38
850.254	15241.03
850.577	15111.09
850.9	15056.17
851.223	15080.8
851.546	15009.17
851.869	14839
852.192	14879.45
852.515	14705.67
852.838	14673.13
853.161	14686.46
853.483	14641.72
853.806	14459.58
854.129	14507.94
854.451	14461.84
854.774	14465.23
855.096	14397.66
855.419	14324.67
855.741	14281.05
856.063	14200.15
856.385	14278.11
856.708	14134.84
857.03	14152.24
857.352	14095.07
857.674	14062.53
857.996	14014.17
858.318	13865.02
858.64	13869.54
858.961	13830.22
859.283	13761.06
859.605	13658.92
859.926	13780.73
860.248	13684.46
860.57	13711.8
860.891	13664.8
861.212	13643.78
861.534	13616.66
861.855	13535.99
862.176	13592.71
862.498	13544.12
862.819	13448.3
863.14	13366.72
863.461	13398.81
863.782	13342.54
864.103	13296.67
864.424	13281.3
864.745	13332.83
865.065	13285.15
865.386	13223.9
865.707	13168.31
866.027	13243.79
866.348	13164.24
866.668	13245.6
866.989	13077.24
867.309	13033.4
867.63	13051.7
867.95	12966.06
868.27	12898.49
868.59	12903.69
868.91	12912.95
869.23	12927.41
869.55	12885.61
869.87	12910.24
870.19	12879.51
870.51	12824.59
870.83	12844.7
871.15	12643.58
871.469	12752.96
871.789	12764.48
872.109	12722.9
872.428	12697.82
872.748	12630.02
873.067	12634.31
873.386	12699.17
873.706	12613.3
874.025	12568.33
874.344	12553.86
874.663	12528.33
874.982	12499.4
875.301	12439.97
875.62	12425.51
875.939	12404.26
876.258	12442.91
876.577	12384.15
876.896	12371.5
877.214	12234.55
877.533	12296.02
877.852	12271.16
878.17	12247.21
878.489	12195.46
878.807	12218.96
879.125	12107.77
879.444	12197.49
879.762	12176.47
880.08	12173.99
880.398	12155.46
880.716	12087.21
881.034	12029.81
881.352	12072.07
881.67	11984.61
881.988	12004.73
882.306	11977.38
882.624	11908.46
882.941	11834.34
883.259	11822.13
883.577	11750.27
883.894	11767.9
884.212	11733.32
884.529	11720.67
884.846	11677.73
885.164	11673.66
885.481	11638.63
885.798	11689.25
886.115	11586.66
886.432	11563.61
886.75	11472.54
887.067	11489.94
887.383	11457.17
887.7	11558.64
888.017	11404.29
888.334	11381.47
888.651	11302.15
888.967	11272.54
889.284	11295.59
889.6	11240.45
889.917	11115.03
890.233	11166.78
890.55	11181.02
890.866	11197.74
891.182	11055.6
891.498	11039.33
891.815	10979.67
892.131	10953.68
892.447	10933.12
892.763	10956.62
893.079	10938.99
893.395	10854.25
893.71	10808.37
894.026	10740.81
894.342	10722.5
894.657	10701.26
894.973	10662.39
895.289	10637.53
895.604	10638.89
895.92	10495.61
896.235	10459.68
896.55	10391.66
896.865	10443.19
897.181	10389.63
897.496	10450.87
897.811	10358.89
898.126	10296.98
898.441	10257.88
898.756	10209.07
899.071	10141.27
899.386	10147.83
899.7	10122.06
900.015	10023.76
900.33	10031.45
900.644	9981.5
900.959	10011.11
901.273	9918
901.588	9846.37
901.902	9817.21
902.216	9794.84
902.531	9771.34
902.845	9708.97
903.159	9625.13
903.473	9633.94
903.787	9620.83
904.101	9599.14
904.415	9577.9
904.729	9490.44
905.042	9431.01
905.356	9440.95
905.67	9461.52
905.984	9464.23
906.297	9391.91
906.611	9260.84
906.924	9294.52
907.237	9303.33
907.551	9262.88
907.864	9099.27
908.177	9147.63
908.491	9098.36
908.804	9066.27
909.117	9024.47
909.43	9025.6
909.743	8913.28
910.056	8966.61
910.368	8862.44
910.681	8819.95
910.994	8821.08
911.307	8810.91
911.619	8697.24
911.932	8721.42
912.244	8610.69
912.557	8605.72
912.869	8620.41
913.181	8556.68
913.494	8535.21
913.806	8505.61
914.118	8444.82
914.43	8372.28
914.742	8380.19
915.054	8270.59
915.366	8343.58
915.678	8283.92
915.99	8217.71
916.302	8197.6
916.613	8153.98
916.925	8119.41
917.236	8081.44
917.548	8097.94
917.859	8069.69
918.171	8006.41
918.482	7924.83
918.794	7903.14
919.105	7911.05
919.416	7833.99
919.727	7751.28
920.038	7777.95
920.349	7673.32
920.66	7680.55
920.971	7655.01
921.282	7633.32
921.593	7583.6
921.903	7538.86
922.214	7484.17
922.525	7463.15
922.835	7434.23
923.146	7362.81
923.456	7424.06
923.767	7391.51
924.077	7284.62
924.387	7257.96
924.697	7238.98
925.008	7257.51
925.318	7220.45
925.628	7124.86
925.938	7131.86
926.248	7125.08
926.558	7014.8
926.867	7025.87
927.177	6992.43
927.487	6942.71
927.796	6928.93
928.106	6948.59
928.416	6856.84
928.725	6845.31
929.034	6796.5
929.344	6788.14
929.653	6749.72
929.962	6721.7
930.271	6679.67
930.581	6649.84
930.89	6682.61
931.199	6623.63
931.508	6615.04
931.817	6549.28
932.125	6590.86
932.434	6522.84
932.743	6403.74
933.051	6389.28
933.36	6417.53
933.669	6380.02
933.977	6336.18
934.286	6259.34
934.594	6314.93
934.902	6189.96
935.21	6244.65
935.519	6161.04
935.827	6191.55
936.135	6099.57
936.443	6134.15
936.751	6052.34
937.059	6081.49
937.367	6013.25
937.674	6060.93
937.982	6021.83
938.29	5963.98
938.597	5962.63
938.905	5892.35
939.213	5828.39
939.52	5835.17
939.827	5862.74
940.135	5789.07
940.442	5794.72
940.749	5749.98
941.056	5819.35
941.363	5679.24
941.67	5697.1
941.977	5647.83
942.284	5623.88
942.591	5579.58
942.898	5533.71
943.205	5518.57
943.511	5507.04
943.818	5527.38
944.125	5469.76
944.431	5410.32
944.738	5454.16
945.044	5414.39
945.35	5384.34
945.657	5268.63
945.963	5300.5
946.269	5304.11
946.575	5280.84
946.881	5231.35
947.187	5241.97
947.493	5250.1
947.799	5142.76
948.105	5130.33
948.41	5086.26
948.716	5146.6
949.022	5098.69
949.327	5056.43
949.633	4986.15
949.938	4955.19
950.244	5029.99
950.549	4942.54
950.854	4949.32
951.16	4934.4
951.465	4891.47
951.77	4860.96
952.075	4851.02
952.38	4864.12
952.685	4819.15
952.99	4795.88
953.294	4768.98
953.599	4719.27
953.904	4730.79
954.209	4731.02
954.513	4699.83
954.818	4631.59
955.122	4687.4
955.426	4601.53
955.731	4618.48
956.035	4576.9
956.339	4569.22
956.643	4558.59
956.948	4489.44
957.252	4527.86
957.556	4466.17
957.86	4456.9
958.163	4428.2
958.467	4450.58
958.771	4413.97
959.075	4367.87
959.378	4364.25
959.682	4356.34
959.985	4333.97
960.289	4324.7
960.592	4284.93
960.896	4289.45
961.199	4258.26
961.502	4294.19
961.805	4216
962.108	4195.21
962.411	4202.22
962.714	4146.85
963.017	4134.2
963.32	4152.73
963.623	4088.55
963.926	4057.37
964.228	4073.64
964.531	4078.83
964.833	4030.25
965.136	4026.18
965.438	3999.29
965.741	3967.42
966.043	3919.74
966.345	3908.67
966.648	3929.23
966.95	3877.48
967.252	3874.55
967.554	3885.17
967.856	3849.23
968.158	3761.78
968.46	3811.04
968.761	3764.49
969.063	3774.43
969.365	3761.55
969.666	3743.93
969.968	3734.66
970.269	3669.35
970.571	3698.28
970.872	3693.76
971.174	3648.34
971.475	3643.59
971.776	3606.98
972.077	3597.94
972.378	3601.11
972.679	3583.71
972.98	3546.19
973.281	3506.87
973.582	3525.85
973.883	3518.17
974.183	3458.96
974.484	3451.73
974.785	3423.71
975.085	3435.23
975.386	3432.3
975.686	3440.21
975.986	3432.3
976.287	3448.57
976.587	3380.09
976.887	3374.67
977.187	3335.35
977.487	3325.63
977.787	3312.98
978.087	3328.12
978.387	3268.01
978.687	3270.95
978.987	3260.78
979.286	3225.3
979.586	3247.89
979.885	3206.77
980.185	3129.71
980.484	3182.59
980.784	3167.22
981.083	3183.04
981.382	3178.97
981.682	3121.34
981.981	3122.93
982.28	3073.44
982.579	3078.41
982.878	3067.79
983.177	3013.1
983.475	3067.11
983.774	3027.34
984.073	3004.29
984.372	2981.69
984.67	2977.39
984.969	2970.84
985.267	2954.8
985.566	2926.32
985.864	2929.71
986.162	2897.4
986.461	2891.29
986.759	2879.09
987.057	2844.74
987.355	2856.49
987.653	2830.05
987.951	2832.76
988.249	2805.42
988.547	2817.4
988.844	2777.85
989.142	2765.42
989.44	2736.04
989.737	2756.16
990.035	2708.02
990.332	2739.89
990.63	2692.43
990.927	2705.76
991.224	2654.46
991.521	2637.97
991.819	2649.94
992.116	2656.95
992.413	2610.85
992.71	2579.66
993.006	2578.99
993.303	2617.18
993.6	2600.68
993.897	2575.6
994.193	2574.47
994.49	2549.16
994.787	2524.07
995.083	2480.23
995.379	2468.71
995.676	2498.08
995.972	2499.67
996.268	2447.24
996.565	2454.92
996.861	2430.74
997.157	2411.08
997.453	2395.71
997.749	2390.29
998.044	2392.78
998.34	2376.96
998.636	2343.06
998.932	2383.51
999.227	2326.34
999.523	2325.89
999.818	2303.51
1000.114	2298.32
1000.409	2272.1
1000.704	2263.97
1001	2228.94
1001.295	2239.33
1001.59	2214.25
1001.885	2235.27
1002.18	2199.79
1002.475	2195.04
1002.77	2168.6
1003.065	2171.76
1003.359	2162.27
1003.654	2129.05
1003.949	2131.31
1004.243	2144.2
1004.538	2122.5
1004.832	2082.28
1005.127	2047.47
1005.421	2063.75
1005.715	2048.15
1006.009	2056.74
1006.304	2044.08
1006.598	2021.03
1006.892	2035.95
1007.186	2004.09
1007.48	2018.55
1007.773	2006.35
1008.067	1957.31
1008.361	1972.67
1008.655	1948.49
1008.948	1921.83
1009.242	1945.33
1009.535	1907.59
1009.829	1873.02
1010.122	1896.52
1010.415	1882.96
1010.708	1865.56
1011.001	1854.03
1011.295	1840.47
1011.588	1834.82
1011.881	1802.28
1012.173	1844.09
1012.466	1822.4
1012.759	1795.73
1013.052	1821.72
1013.344	1762.51
1013.637	1779.46
1013.93	1764.09
1014.222	1741.04
1014.514	1741.95
1014.807	1743.75
1015.099	1696.98
1015.391	1698.56
1015.683	1694.49
1015.976	1692.23
1016.268	1663.53
1016.56	1643.19
1016.851	1654.26
1017.143	1658.78
1017.435	1647.71
1017.727	1616.98
1018.018	1614.27
1018.31	1606.36
1018.602	1602.97
1018.893	1574.72
1019.185	1597.32
1019.476	1536.75
1019.767	1515.96
1020.058	1530.65
1020.35	1532.69
1020.641	1533.14
1020.932	1500.37
1021.223	1509.86
1021.514	1508.73
1021.804	1487.26
1022.095	1448.85
1022.386	1445.91
1022.677	1450.88
1022.967	1434.16
1023.258	1422.18
1023.548	1403.88
1023.839	1415.85
1024.129	1402.97
1024.419	1395.29
1024.709	1380.37
1025	1373.37
1025.29	1381.73
1025.58	1346.7
1025.87	1322.07
1026.16	1302.86
1026.449	1313.93
1026.739	1308.74
1027.029	1280.71
1027.319	1303.77
1027.608	1286.82
1027.898	1254.5
1028.187	1294.73
1028.477	1270.77
1028.766	1267.61
1029.055	1256.99
1029.344	1237.1
1029.634	1235.74
1029.923	1230.55
1030.212	1221.28
1030.501	1200.49
1030.79	1195.29
1031.078	1202.75
1031.367	1209.98
1031.656	1160.94
1031.945	1162.53
1032.233	1137.67
1032.522	1161.17
1032.81	1135.41
1033.099	1138.12
1033.387	1125.69
1033.675	1134.05
1033.963	1102.87
1034.251	1073.71
1034.54	1091.34
1034.828	1087.05
1035.116	1052.02
1035.403	1106.93
1035.691	1064
1035.979	1071.23
1036.267	1046.37
1036.554	1028.97
1036.842	1015.86
1037.129	1042.53
1037.417	1031.68
1037.704	1009.54
1037.992	999.59
1038.279	1003.66
1038.566	970.21
1038.853	970.21
1039.14	970.21
