Data from white_steel_sheet_FLMS001491_035.txt Node
Date: Tue Feb 07 10:57:46 GMT 2017
User: dcchb
Spectrometer: FLMS00149
Trigger mode: 0
Integration Time (sec): 2.000000E-2
Scans to average: 10
Electric dark correction enabled: true
Nonlinearity correction enabled: false
Boxcar width: 0
XAxis mode: Wavelengths
Number of Pixels in Spectrum: 2048
>>>>>Begin Spectral Data<<<<<
341.393	-11.2
341.776	-11.2
342.16	-11.2
342.543	-43.29
342.927	-55.27
343.31	-63.85
343.693	-65.66
344.077	-69.5
344.46	-61.37
344.843	-54.81
345.226	-29.5
345.61	-32.67
345.993	-19.56
346.376	0.78
346.759	9.82
347.142	31.74
347.525	38.97
347.908	73.77
348.291	61.34
348.674	69.93
349.057	110.6
349.44	124.39
349.823	141.34
350.206	175.46
350.588	209.13
350.971	212.75
351.354	221.34
351.737	255.46
352.119	248.23
352.502	284.39
352.884	292.97
353.267	272.41
353.65	273.09
354.032	288
354.414	295.91
354.797	319.41
355.179	315.34
355.562	325.51
355.944	329.58
356.326	333.2
356.709	358.06
357.091	349.02
357.473	356.25
357.855	363.48
358.238	351.05
358.62	347.66
359.002	337.27
359.384	336.59
359.766	347.66
360.148	356.7
360.53	343.14
360.912	337.72
361.294	337.94
361.676	342.24
362.057	346.98
362.439	348.34
362.821	341.56
363.203	341.78
363.584	341.33
363.966	328.68
364.348	339.07
364.729	339.98
365.111	326.64
365.493	327.1
365.874	322.12
366.256	298.17
366.637	304.72
367.019	315.8
367.4	326.64
367.781	342.01
368.163	331.16
368.544	336.14
368.925	335.01
369.306	321.67
369.688	330.49
370.069	345.17
370.45	333.65
370.831	337.04
371.212	331.84
371.593	349.47
371.974	326.87
372.355	326.42
372.736	306.76
373.117	325.74
373.498	346.76
373.879	331.84
374.26	315.12
374.641	329.36
375.021	318.73
375.402	345.63
375.783	336.59
376.163	357.15
376.544	346.53
376.925	353.76
377.305	345.4
377.686	351.95
378.066	345.4
378.447	320.54
378.827	351.28
379.208	350.37
379.588	344.04
379.968	324.84
380.349	366.64
380.729	356.02
381.109	340.88
381.489	375.23
381.87	391.73
382.25	338.62
382.63	366.64
383.01	366.64
383.39	376.81
383.77	385.63
384.15	378.62
384.53	381.78
384.91	380.88
385.29	403.48
385.67	379.52
386.049	391.73
386.429	371.16
386.809	360.09
387.189	384.27
387.568	414.78
387.948	396.7
388.328	417.72
388.707	401.67
389.087	391.5
389.466	420.88
389.846	412.07
390.225	409.35
390.605	421.56
390.984	412.52
391.363	431.27
391.743	436.25
392.122	459.97
392.501	420.88
392.881	426.08
393.26	451.61
393.639	463.14
394.018	447.77
394.397	453.19
394.776	480.54
395.155	480.31
395.534	448
395.913	499.97
396.292	470.82
396.671	513.76
397.05	496.13
397.429	488.67
397.808	524.6
398.186	505.17
398.565	515.79
398.944	509.46
399.323	530.93
399.701	529.35
400.08	529.35
400.458	543.59
400.837	559.86
401.215	551.5
401.594	575.45
401.972	581.78
402.351	589.69
402.729	592.63
403.107	611.16
403.486	596.02
403.864	601.66
404.242	640.31
404.62	638.95
404.999	624.72
405.377	640.53
405.755	655.9
406.133	656.13
406.511	676.01
406.889	690.93
407.267	702.91
407.645	713.98
408.023	704.04
408.401	725.73
408.779	724.37
409.156	735.9
409.534	752.4
409.912	778.84
410.29	788.78
410.667	778.84
411.045	809.34
411.422	812.05
411.8	827.42
412.178	830.13
412.555	871.04
412.933	857.25
413.31	880.75
413.687	873.3
414.065	876.46
414.442	894.54
414.819	923.46
415.197	934.76
415.574	953.75
415.951	957.59
416.328	977.93
416.705	961.88
417.082	981.54
417.46	984.03
417.837	1000.52
418.214	1011.6
418.591	1014.99
418.967	1009.79
419.344	1033.74
419.721	1059.05
420.098	1069.9
420.475	1071.03
420.852	1062.22
421.228	1093.63
421.605	1092.73
421.982	1132.05
422.358	1144.48
422.735	1171.59
423.111	1148.32
423.488	1165.94
423.864	1163.23
424.241	1160.29
424.617	1198.71
424.994	1210.69
425.37	1226.51
425.746	1232.61
426.123	1262.44
426.499	1259.73
426.875	1253.4
427.251	1294.98
427.627	1324.58
428.003	1334.3
428.379	1328.2
428.756	1346.05
429.132	1390.12
429.507	1389.44
429.883	1412.27
430.259	1431.47
430.635	1468.53
431.011	1453.17
431.387	1485.48
431.763	1537.23
432.138	1501.08
432.514	1535.43
432.89	1530
433.265	1564.58
433.641	1621.3
434.016	1602.99
434.392	1648.87
434.767	1695.87
435.143	1660.85
435.518	1717.79
435.894	1693.16
436.269	1744.91
436.644	1775.87
437.02	1755.98
437.395	1812.48
437.77	1815.64
438.145	1835.98
438.52	1864.91
438.895	1886.83
439.271	1895.19
439.646	1930.44
440.021	1936.55
440.395	1953.72
440.77	1940.84
441.145	1964.12
441.52	2006.37
441.895	1985.81
442.27	2031.68
442.645	2034.85
443.019	2062.19
443.394	2031.01
443.769	2087.73
444.143	2067.16
444.518	2131.79
444.892	2122.98
445.267	2148.97
445.641	2188.97
446.016	2151.68
446.39	2226.71
446.764	2212.7
447.139	2224.22
447.513	2246.59
447.887	2253.37
448.262	2281.85
448.636	2284.78
449.01	2340.15
449.384	2340.15
449.758	2372.01
450.132	2351.68
450.506	2395.97
450.88	2401.62
451.254	2423.76
451.628	2453.82
452.002	2478.9
452.376	2525.91
452.75	2562.97
453.123	2536.3
453.497	2555.74
453.871	2629.18
454.244	2663.08
454.618	2653.81
454.992	2709.18
455.365	2709.63
455.739	2765.45
456.112	2794.38
456.486	2817.65
456.859	2848.39
457.232	2914.15
457.606	2906.46
457.979	2952.11
458.352	2986.69
458.725	3066.23
459.099	3032.34
459.472	3178.77
459.845	3172.67
460.218	3177.64
460.591	3184.87
460.964	3209.05
461.337	3317.75
461.71	3359.78
462.083	3392.1
462.456	3385.77
462.829	3446.56
463.201	3502.61
463.574	3503.06
463.947	3515.26
464.32	3618.99
464.692	3621.47
465.065	3695.37
465.438	3712.77
465.81	3774.01
466.183	3810.17
466.555	3874.35
466.928	3915.93
467.3	3885.65
467.672	3956.38
468.045	4071.4
468.417	4132.87
468.789	4128.8
469.161	4188.01
469.534	4239.76
469.906	4286.31
470.278	4343.26
470.65	4433.43
471.022	4513.65
471.394	4568.57
471.766	4597.94
472.138	4670.94
472.51	4794.1
472.882	4801.1
473.253	4849.24
473.625	4963.58
473.997	5072.51
474.369	5098.95
474.74	5147.99
475.112	5214.2
475.484	5368.77
475.855	5409.22
476.227	5406.28
476.598	5580.74
476.97	5700.29
477.341	5810.34
477.713	5877.46
478.084	5920.4
478.455	6080.84
478.827	6123.33
479.198	6341.85
479.569	6334.4
479.94	6499.14
480.311	6507.72
480.682	6707.49
481.053	6795.85
481.424	6937.77
481.795	7040.14
482.166	7083.3
482.537	7227.03
482.908	7371.43
483.279	7421.82
483.65	7592.89
484.021	7733.91
484.391	7839.67
484.762	7873.56
485.133	7984.3
485.503	8054.8
485.874	8220
486.244	8242.37
486.615	8497.5
486.985	8622.92
487.356	8724.39
487.726	8730.49
488.097	8989.69
488.467	9043.7
488.837	9218.84
489.207	9371.15
489.578	9469.68
489.948	9506.97
490.318	9711.26
490.688	9715.78
491.058	9865.38
491.428	9945.37
491.798	10074.41
492.168	10299.26
492.538	10363.67
492.908	10487.28
493.278	10651.34
493.648	10626.49
494.017	10813.83
494.387	10920.26
494.757	11001.39
495.126	11049.75
495.496	11122.97
495.866	11260.37
496.235	11408.61
496.605	11506.69
496.974	11470.53
497.344	11621.26
497.713	11694.71
498.082	11860.58
498.452	12023.74
498.821	12031.42
499.19	12105.32
499.559	12252.66
499.928	12246.56
500.298	12385.99
500.667	12618.07
501.036	12482.03
501.405	12743.49
501.774	12619.43
502.143	12815.13
502.512	12886.31
502.88	13001.79
503.249	13060.77
503.618	13136.48
503.987	13234.78
504.356	13313.87
504.724	13464.83
505.093	13446.3
505.462	13589.8
505.83	13623.02
506.199	13802.45
506.567	14030.46
506.936	13999.05
507.304	14126.73
507.672	14174.64
508.041	14221.42
508.409	14349.33
508.777	14547.96
509.145	14655.76
509.514	14653.05
509.882	14809.43
510.25	14780.05
510.618	15119.48
510.986	15111.79
511.354	15242.18
511.722	15375.06
512.09	15547.71
512.458	15505.45
512.826	15557.66
513.193	15733.7
513.561	15863.64
513.929	15931.66
514.297	16157.64
514.664	16312.21
515.032	16304.98
515.4	16455.26
515.767	16550.4
516.135	16709.94
516.502	16615.26
516.869	16996.94
517.237	17029.03
517.604	16946.32
517.972	17262.02
518.339	17367.55
518.706	17350.38
519.073	17576.36
519.44	17614.55
519.808	17949.01
520.175	17883.92
520.542	18170.02
520.909	18223.12
521.276	18350.35
521.643	18475.55
522.009	18636.9
522.376	18760.51
522.743	18932.93
523.11	19078.69
523.477	19265.13
523.843	19371.11
524.21	19620.6
524.577	19723.2
524.943	19903.53
525.31	19860.59
525.676	20239.57
526.043	20279.34
526.409	20425.1
526.776	20648.82
527.142	20624.19
527.508	20903.05
527.874	21050.84
528.241	21011.98
528.607	21190.28
528.973	21492.42
529.339	21378.75
529.705	21623.26
530.071	21828.23
530.437	21901.44
530.803	22071.16
531.169	22221.44
531.535	22235.9
531.901	22321.32
532.267	22462.11
532.632	22614.19
532.998	22657.36
533.364	22846.73
533.73	22864.58
534.095	23079.27
534.461	23195.65
534.826	23273.61
535.192	23424.34
535.557	23612.59
535.923	23610.78
536.288	23679.7
536.653	23819.59
537.019	23866.82
537.384	23950.66
537.749	24101.39
538.114	24175.51
538.479	24175.73
538.845	24421.38
539.21	24302.96
539.575	24417.31
539.94	24515.61
540.305	24727.58
540.67	24713.35
541.034	24904.3
541.399	24966.9
541.764	25050.51
542.129	25108.59
542.494	25228.14
542.858	25328.47
543.223	25454.34
543.587	25552.87
543.952	25465.87
544.316	25676.94
544.681	25583.83
545.045	25860.66
545.41	25918.97
545.774	26079.87
546.138	26100.43
546.503	26127.55
546.867	26231.95
547.231	26396.92
547.595	26405.73
547.959	26526.86
548.324	26568.89
548.688	26746.74
549.052	26790.58
549.416	26742.45
549.779	26827.64
550.143	26960.07
550.507	27094.75
550.871	27165.71
551.235	27088.88
551.599	27454.74
551.962	27550.79
552.326	27568.64
552.689	27693.83
553.053	27676.21
553.417	27873.72
553.78	27994.39
554.143	28074.39
554.507	28170.21
554.87	28292.69
555.234	28541.5
555.597	28388.05
555.96	28474.38
556.323	28745.56
556.686	28744.65
557.05	28956.63
557.413	29113.23
557.776	29080.69
558.139	29288.14
558.502	29387.8
558.865	29332.43
559.228	29646.1
559.59	29760.22
559.953	29742.37
560.316	30153.88
560.679	30213.32
561.041	30512.29
561.404	30456.02
561.767	30647.2
562.129	30561.78
562.492	30886.74
562.854	30853.75
563.217	30959.28
563.579	31055.33
563.941	31197.24
564.304	31378.71
564.666	31659.61
565.028	31653.28
565.39	31769.21
565.753	31910.67
566.115	32081.06
566.477	32203.09
566.839	32244
567.201	32341.17
567.563	32463.65
567.925	32683.31
568.287	32661.39
568.648	32773.47
569.01	32861.61
569.372	33202.39
569.734	33047.59
570.095	33311.31
570.457	33435.38
570.819	33466.56
571.18	33450.07
571.542	33757.18
571.903	33759.89
572.265	33841.69
572.626	33946.1
572.987	34068.58
573.349	34193.78
573.71	34371.17
574.071	34356.26
574.432	34383.6
574.794	34697.94
575.155	34586.76
575.516	34421.79
575.877	34626.31
576.238	34768
576.599	34844.83
576.96	34814.1
577.32	34950.37
577.681	34965.06
578.042	35026.3
578.403	34986.3
578.763	35010.48
579.124	35265.39
579.485	35258.15
579.845	35320.98
580.206	35226.74
580.566	35269
580.927	35320.53
581.287	35460.64
581.648	35348.32
582.008	35528.66
582.368	35541.54
582.728	35486.85
583.089	35574.98
583.449	35514.65
583.809	35624.47
584.169	35589.9
584.529	35480.07
584.889	35815.2
585.249	35498.37
585.609	35425.38
585.969	35675.55
586.329	35478.49
586.688	35660.18
587.048	35686.17
587.408	35523.68
587.768	35652.27
588.127	35613.17
588.487	35577.24
588.846	35816.33
589.206	35599.61
589.565	35543.57
589.925	35838.25
590.284	35731.36
590.643	35667.41
591.003	35678.71
591.362	35837.8
591.721	35704.47
592.08	35604.36
592.44	35727.97
592.799	35699.27
593.158	35728.88
593.517	35713.28
593.876	35732.72
594.235	35743.57
594.593	35673.29
594.952	35905.6
595.311	35548.32
595.67	35722.55
596.029	35877.57
596.387	35924.13
596.746	35900.85
597.104	35790.12
597.463	35739.27
597.822	35883
598.18	35709.44
598.538	35805.03
598.897	36020.17
599.255	35741.53
599.613	36253.38
599.972	35943.56
600.33	35982.66
600.688	35992.37
601.046	36219.26
601.404	36122.09
601.762	35986.27
602.12	36188.53
602.478	36171.8
602.836	36254.96
603.194	35813.17
603.552	36117.79
603.91	35970.45
604.268	36166.38
604.625	36049.32
604.983	36264.91
605.341	35925.71
605.698	36255.42
606.056	36288.41
606.413	36331.35
606.771	36373.38
607.128	36366.83
607.485	36286.38
607.843	36276.66
608.2	36445.24
608.557	36565.92
608.914	36384.9
609.272	36660.83
609.629	36684.33
609.986	36567.05
610.343	36510.55
610.7	36947.38
611.057	36781.5
611.414	36876.87
611.771	36790.09
612.127	36947.38
612.484	36933.37
612.841	36930.65
613.198	36857.89
613.554	36905.57
613.911	37154.15
614.267	37071.21
614.624	36989.18
614.98	37053.59
615.337	37333.81
615.693	37373.81
616.05	37160.25
616.406	37433.69
616.762	37235.28
617.118	37254.49
617.475	37257.2
617.831	37501.71
618.187	37377.65
618.543	37533.35
618.899	37752.33
619.255	37480.24
619.611	37729.95
619.967	37567.25
620.323	37708.71
620.678	37482.73
621.034	37480.47
621.39	37479.79
621.746	37607.7
622.101	38141.24
622.457	37630.07
622.812	37709.39
623.168	37872.32
623.523	37848.82
623.879	37967.24
624.234	37540.58
624.589	37708.94
624.945	37754.59
625.3	37844.53
625.655	37731.54
626.01	37905.99
626.365	37793.68
626.72	37733.34
627.075	37827.13
627.43	37808.14
627.785	37619.9
628.14	37718.88
628.495	37786.45
628.85	37680.69
629.205	37688.15
629.559	37829.16
629.914	37531.99
630.269	37743.29
630.623	37535.16
630.978	37555.5
631.332	37696.96
631.687	37708.03
632.041	37569.51
632.396	37521.37
632.75	37449.96
633.104	37465.33
633.459	37299.23
633.813	37324.09
634.167	37384.43
634.521	37192.57
634.875	37277.31
635.229	37183.98
635.583	37075.96
635.937	37020.14
636.291	37040.25
636.645	37079.8
636.999	36897.89
637.352	37002.97
637.706	36805.68
638.06	36933.14
638.413	36803.2
638.767	36613.15
639.121	36678.46
639.474	36410.44
639.828	36385.81
640.181	36580.38
640.534	36534.51
640.888	36313.27
641.241	36350.78
641.594	36395.53
641.947	36449.54
642.301	36257
642.654	36244.12
643.007	36251.8
643.36	36189.2
643.713	36152.59
644.066	36115.53
644.419	36061.07
644.771	35769.1
645.124	35388.55
645.477	35303.13
645.83	35006.41
646.182	34940.88
646.535	34855.91
646.888	34946.52
647.24	34721.67
647.593	35003.25
647.945	34859.97
648.298	34770.71
648.65	34737.72
649.002	34578.4
649.355	34825.85
649.707	34648.68
650.059	34776.59
650.411	35090.48
650.763	35165.73
651.115	35539.28
651.467	35367.3
651.819	35320.75
652.171	35358.72
652.523	35179.29
652.875	35231.26
653.227	35105.84
653.578	35394.42
653.93	35163.02
654.282	35104.71
654.633	35013.87
654.985	35123.02
655.337	34999.18
655.688	35013.42
656.039	35065.39
656.391	34788.79
656.742	34834.66
657.094	34819.75
657.445	34951.72
657.796	34922.12
658.147	34725.97
658.498	34895.23
658.849	34828.56
659.2	34646.42
659.551	34525.52
659.902	34674.44
660.253	34566.65
660.604	34575.69
660.955	34364.39
661.306	34460.44
661.656	34337.05
662.007	34350.83
662.358	34271.51
662.708	34228.35
663.059	34236.49
663.409	34033.33
663.76	34207.11
664.11	34210.72
664.461	34013.67
664.811	34032.2
665.161	34076.49
665.511	33883.05
665.862	33937.74
666.212	33835.82
666.562	33909.04
666.912	33720.12
667.262	33714.24
667.612	33506.79
667.962	33553.11
668.312	33332.78
668.662	33428.15
669.011	33281.71
669.361	33189.51
669.711	33117.19
670.06	33133.92
670.41	32953.36
670.76	32934.15
671.109	33034.03
671.459	32978.44
671.808	32645.34
672.157	32703.87
672.507	32513.37
672.856	32471.34
673.205	32449.64
673.554	32514.72
673.904	32448.51
674.253	32550.2
674.602	32417.33
674.951	31930.78
675.3	31830
675.649	32157.45
675.998	32074.96
676.346	32238.12
676.695	32250.1
677.044	31995.87
677.393	32013.95
677.741	32025.7
678.09	31957.22
678.438	31831.8
678.787	32030.22
679.135	31920.16
679.484	31817.79
679.832	31874.06
680.181	31763.56
680.529	31735.08
680.877	31725.82
681.225	31709.77
681.573	32069.76
681.922	31816.66
682.27	31773.27
682.618	31762.43
682.966	31707.29
683.314	31805.14
683.661	31773.05
684.009	31682.66
684.357	31586.84
684.705	31546.16
685.053	31631.58
685.4	31596.1
685.748	31467.75
686.095	31597.69
686.443	31537.57
686.79	31478.37
687.138	31636.56
687.485	31608.31
687.832	31417.58
688.18	31526.28
688.527	31505.94
688.874	31432.72
689.221	31460.06
689.568	31361.31
689.915	31386.39
690.262	31442.21
690.609	31358.14
690.956	31277.92
691.303	31293.29
691.65	31163.12
691.997	31269.56
692.344	31080.19
692.69	31128.09
693.037	31093.07
693.383	30740.99
693.73	31053.52
694.077	30905.5
694.423	30899.17
694.769	30890.81
695.116	30832.28
695.462	30741.89
695.808	30699.18
696.155	30878.38
696.501	30540.31
696.847	30669.12
697.193	30333.99
697.539	30534.44
697.885	30284.5
698.231	30254.44
698.577	30154.11
698.923	30146.2
699.269	30145.29
699.614	30031.4
699.96	29940.55
700.306	29961.8
700.651	29733.1
700.997	29687.45
701.342	29780.33
701.688	29657.4
702.033	29587.8
702.379	29600.9
702.724	29445.43
703.069	29452.21
703.415	29152.55
703.76	29201.36
704.105	29061.71
704.45	29161.37
704.795	28993.23
705.14	28945.1
705.485	28915.27
705.83	28845.67
706.175	28747.82
706.52	28694.26
706.865	28593.25
707.209	28599.12
707.554	28659.91
707.899	28562.29
708.243	28378.34
708.588	28339.92
708.932	28212.69
709.277	28140.38
709.621	28181.05
709.966	28052.47
710.31	27981.51
710.654	27817.9
710.998	27908.29
711.342	27962.53
711.687	27862.64
712.031	27681.18
712.375	27537.45
712.719	27685.92
713.063	27610.67
713.407	27640.95
713.75	27425.82
714.094	27465.82
714.438	27252.72
714.782	27385.37
715.125	27185.6
715.469	27269.89
715.812	27147.41
716.156	27014.3
716.499	27004.13
716.843	27067.41
717.186	26908.32
717.53	26900.18
717.873	26902.89
718.216	26904.7
718.559	26754.88
718.902	26551.49
719.246	26561.43
719.589	26633.52
719.932	26589.23
720.275	26480.08
720.617	26412.74
720.96	26360.31
721.303	26346.52
721.646	26289.58
721.989	26285.74
722.331	26319.41
722.674	26146.98
723.016	26214.32
723.359	26115.57
723.701	26054.78
724.044	25952.18
724.386	25831.51
724.729	25941.56
725.071	25815.24
725.413	25786.77
725.755	25752.87
726.097	25783.38
726.439	25555.13
726.782	25580.9
727.124	25747.22
727.465	25564.17
727.807	25530.5
728.149	25466.55
728.491	25392.43
728.833	25447.57
729.175	25349.94
729.516	25351.52
729.858	25245.31
730.199	25204.41
730.541	25129.16
730.882	25139.55
731.224	25282.37
731.565	24986.79
731.906	24968.48
732.248	24961.7
732.589	24899.56
732.93	24790.18
733.271	24716.29
733.612	24858.2
733.953	24868.6
734.294	24705.89
734.635	24723.74
734.976	24848.03
735.317	24565.78
735.658	24592.67
735.999	24558.78
736.339	24498.89
736.68	24552.45
737.021	24401.72
737.361	24346.13
737.702	24438.1
738.042	24282.62
738.383	24230.2
738.723	24373.7
739.063	24167.37
739.404	24288.73
739.744	24243.98
740.084	24159.69
740.424	24137.77
740.764	24119.01
741.104	24114.72
741.444	23948.85
741.784	23930.54
742.124	23949.75
742.464	23797.44
742.804	23988.85
743.143	23790.89
743.483	23800.83
743.823	23657.1
744.162	23787.27
744.502	23644.67
744.841	23596.09
745.181	23691.91
745.52	23464.79
745.86	23541.63
746.199	23517.67
746.538	23425.7
746.877	23450.78
747.216	23379.6
747.556	23387.28
747.895	23453.72
748.234	23238.81
748.573	23216.21
748.911	23305.47
749.25	23252.59
749.589	22988.65
749.928	23087.18
750.267	23126.5
750.605	23024.58
750.944	23000.62
751.283	22797.47
751.621	22970.12
751.96	22799.5
752.298	22824.58
752.636	22744.13
752.975	22647.41
753.313	22589.34
753.651	22624.59
753.989	22509.79
754.327	22425.5
754.666	22314.09
755.004	22501.88
755.342	22325.39
755.679	22411.26
756.017	22141.89
756.355	22226.63
756.693	22072.29
757.031	22069.12
757.368	21985.74
757.706	22019.63
758.044	21890.14
758.381	21888.34
758.719	21792.75
759.056	21759.07
759.394	21706.87
759.731	21449.7
760.068	21486.31
760.405	21388.92
760.743	21366.77
761.08	21425.98
761.417	21281.8
761.754	21263.27
762.091	21258.07
762.428	21045.87
762.765	21018.76
763.102	21043.39
763.438	20915.71
763.775	20721.36
764.112	20745.99
764.449	20768.14
764.785	20738.76
765.122	20574.93
765.458	20510.97
765.795	20468.71
766.131	20415.61
766.467	20345.55
766.804	20254.48
767.14	20271.88
767.476	20146.91
767.812	20113.92
768.148	20064.66
768.485	19898.78
768.821	19840.26
769.157	19781.5
769.492	19744.66
769.828	19728.62
770.164	19556.42
770.5	19453.82
770.836	19505.35
771.171	19321.85
771.507	19339.03
771.842	19157.56
772.178	19260.16
772.513	19151.69
772.849	19104.91
773.184	19041.86
773.519	18957.79
773.855	18892.94
774.19	18797.12
774.525	18807.51
774.86	18685.26
775.195	18701.3
775.53	18560.51
775.865	18520.06
776.2	18370.24
776.535	18229.22
776.87	18282.33
777.205	18220.86
777.539	18046.86
777.874	18151.94
778.209	18023.81
778.543	18032.85
778.878	17814.09
779.212	17854.54
779.547	17678.28
779.881	17736.13
780.215	17565.74
780.55	17563.25
780.884	17524.84
781.218	17400.09
781.552	17342.02
781.886	17305.41
782.22	17190.61
782.554	17182.25
782.888	16986.32
783.222	16939.31
783.556	16931.63
783.889	16862.71
784.223	16751.07
784.557	16809.6
784.89	16740
785.224	16653.67
785.557	16558.53
785.891	16459.55
786.224	16542.94
786.558	16584.07
786.891	16375.71
787.224	16217.98
787.557	16276.51
787.891	16223.85
788.224	16209.84
788.557	16151.99
788.89	16072.9
789.223	16046.68
789.556	15872.68
789.888	15813.47
790.221	15806.46
790.554	15659.12
790.887	15765.11
791.219	15614.6
791.552	15667.48
791.884	15567.37
792.217	15422.97
792.549	15453.25
792.882	15321.73
793.214	15228.63
793.546	15287.15
793.879	15121.06
794.211	15052.81
794.543	15142.07
794.875	15056.88
795.207	14983.43
795.539	14883.1
795.871	14965.58
796.203	14921.51
796.535	14758.81
796.867	14764.68
797.198	14623.67
797.53	14667.74
797.862	14529.43
798.193	14616.44
798.525	14500.96
798.856	14552.48
799.188	14441.3
799.519	14302.32
799.85	14228.2
800.182	14327.86
800.513	14160.4
800.844	14088.77
801.175	14239.05
801.506	14128.31
801.837	14038.83
802.168	14083.12
802.499	13992.95
802.83	13870.24
803.161	13845.84
803.491	13913.18
803.822	13800.19
804.153	13777.82
804.483	13643.81
804.814	13644.94
805.145	13644.03
805.475	13634.77
805.805	13487.88
806.136	13563.36
806.466	13505.28
806.796	13481.33
807.126	13338.51
807.457	13376.24
807.787	13303.03
808.117	13235.46
808.447	13198.85
808.777	13274.1
809.107	13145.97
809.436	13124.05
809.766	13158.62
810.096	13083.82
810.426	13090.6
810.755	12978.74
811.085	12916.6
811.414	12929.93
811.744	12851.96
812.073	12860.33
812.403	12811.74
812.732	12728.58
813.061	12751.85
813.39	12658.75
813.719	12720.22
814.049	12727
814.378	12647.45
814.707	12576.94
815.036	12610.39
815.365	12406.33
815.693	12404.29
816.022	12400
816.351	12360.68
816.68	12352.77
817.008	12253.79
817.337	12240.23
817.665	12262.15
817.994	12214.24
818.322	12219.21
818.651	12117.29
818.979	12101.48
819.307	12153.45
819.636	12106.45
819.964	12073.68
820.292	12123.85
820.62	12058.99
820.948	12013.34
821.276	12042.04
821.604	12029.39
821.932	11943.06
822.259	12081.36
822.587	11999.33
822.915	12000.91
823.243	11993.91
823.57	11931.76
823.898	12020.35
824.225	11921.59
824.553	11972.67
824.88	11979.9
825.207	11955.94
825.535	11922.05
825.862	11996.62
826.189	11934.7
826.516	11955.04
826.843	12021.7
827.17	12002.04
827.497	12007.01
827.824	11935.38
828.151	11974.02
828.478	11929.05
828.805	11899.45
829.131	11883.18
829.458	11897.87
829.785	11864.65
830.111	11926.79
830.438	11882.72
830.764	11891.76
831.09	11861.71
831.417	11769.51
831.743	11909.39
832.069	11906.23
832.395	11825.55
832.722	11876.62
833.048	11831.88
833.374	11796.17
833.7	11780.35
834.026	11811.77
834.351	11782.61
834.677	11810.18
835.003	11730.19
835.329	11728.83
835.654	11756.17
835.98	11653.13
836.306	11749.62
836.631	11633.92
836.956	11713.92
837.282	11589.85
837.607	11551.89
837.932	11595.95
838.258	11538.1
838.583	11550.08
838.908	11567.03
839.233	11491.77
839.558	11501.49
839.883	11425.79
840.208	11398.22
840.533	11471.21
840.858	11387.14
841.182	11395.51
841.507	11426.01
841.832	11328.39
842.156	11301.95
842.481	11295.4
842.805	11320.48
843.13	11232.35
843.454	11188.73
843.778	11247.71
844.103	11135.17
844.427	11224.21
844.751	11169.52
845.075	11127.26
845.399	11008.17
845.723	10910.32
846.047	10994.84
846.371	10913.71
846.695	10926.37
847.019	10831.45
847.343	10810.44
847.666	10741.29
847.99	10783.54
848.313	10672.13
848.637	10601.18
848.96	10641.85
849.284	10607.96
849.607	10510.33
849.931	10484.79
850.254	10390.56
850.577	10335.42
850.9	10261.75
851.223	10263.11
851.546	10193.28
851.869	10164.13
852.192	10200.06
852.515	10110.79
852.838	10069.44
853.161	10117.57
853.483	9993.73
853.806	9956.9
854.129	10018.37
854.451	9927.52
854.774	9903.57
855.096	9834.19
855.419	9837.81
855.741	9766.4
856.063	9767.53
856.385	9697.7
856.708	9721.2
857.03	9653.18
857.352	9687.75
857.674	9635.33
857.996	9624.7
858.318	9597.36
858.64	9597.13
858.961	9552.16
859.283	9465.16
859.605	9481.43
859.926	9444.82
860.248	9453.41
860.57	9376.8
860.891	9379.06
861.212	9320.98
861.534	9332.28
861.855	9332.51
862.176	9357.59
862.498	9293.87
862.819	9269.46
863.14	9203.47
863.461	9176.58
863.782	9157.6
864.103	9140.42
864.424	9198.28
864.745	9106.98
865.065	9119.18
865.386	9097.49
865.707	9032.18
866.027	9120.76
866.348	9022.23
866.668	9019.3
866.989	9047.09
867.309	8947.89
867.63	9004.16
867.95	8966.64
868.27	8862.92
868.59	8902.92
868.91	8868.34
869.23	8875.12
869.55	8877.38
869.87	8884.84
870.19	8872.41
870.51	8822.47
870.83	8834.22
871.15	8809.81
871.469	8795.12
871.789	8869.7
872.109	8829.92
872.428	8765.29
872.748	8822.92
873.067	8703.6
873.386	8715.35
873.706	8758.74
874.025	8613.88
874.344	8660.21
874.663	8669.25
874.982	8679.42
875.301	8642.36
875.62	8625.63
875.939	8502.47
876.258	8536.6
876.577	8542.7
876.896	8519.65
877.214	8559.2
877.533	8470.38
877.852	8464.28
878.17	8502.02
878.489	8492.08
878.807	8467.22
879.125	8446.43
879.444	8394.23
879.762	8384.06
880.08	8425.19
880.398	8393.55
880.716	8410.05
881.034	8306.32
881.352	8401.01
881.67	8356.26
881.988	8306.1
882.306	8272.42
882.624	8254.8
882.941	8229.49
883.259	8197.17
883.577	8210.5
883.894	8167.79
884.212	8161.01
884.529	8175.48
884.846	8154.46
885.164	8113.78
885.481	8106.78
885.798	8071.75
886.115	8034.01
886.432	8065.42
886.75	8004.18
887.067	7996.95
887.383	7980
887.7	7950.17
888.017	7954.47
888.334	7908.14
888.651	7891.64
888.967	7930.29
889.284	7842.15
889.6	7826.33
889.917	7807.35
890.233	7810.51
890.55	7749.27
890.866	7698.43
891.182	7700.01
891.498	7679.44
891.815	7613.46
892.131	7660.91
892.447	7590.63
892.763	7575.27
893.079	7547.02
893.395	7532.56
893.71	7509.96
894.026	7475.38
894.342	7455.04
894.657	7334.14
894.973	7371.88
895.289	7387.25
895.604	7376.63
895.92	7399.68
896.235	7275.61
896.55	7284.43
896.865	7308.61
897.181	7291.88
897.496	7275.84
897.811	7208.72
898.126	7142.96
898.441	7126.24
898.756	7179.8
899.071	7055.73
899.386	7092.34
899.7	7013.7
900.015	6978.22
900.33	7010.54
900.644	7005.56
900.959	6984.32
901.273	6918.79
901.588	6922.18
901.902	6904.55
902.216	6888.73
902.531	6871.1
902.845	6850.54
903.159	6800.6
903.473	6779.36
903.787	6734.39
904.101	6705.69
904.415	6665.01
904.729	6660.04
905.042	6622.3
905.356	6664.56
905.67	6582.75
905.984	6575.07
906.297	6572.36
906.611	6490.32
906.924	6543.2
907.237	6502.75
907.551	6424.56
907.864	6415.3
908.177	6424.11
908.491	6413.94
908.804	6375.07
909.117	6281.97
909.43	6280.84
909.743	6259.82
910.056	6274.96
910.368	6222.99
910.681	6247.84
910.994	6198.13
911.307	6116.77
911.619	6094.4
911.932	6138.24
912.244	6086.04
912.557	6047.62
912.869	6053.27
913.181	6010.56
913.494	6066.38
913.806	5905.03
914.118	5934.63
914.43	5928.08
914.742	5902.09
915.054	5863.67
915.366	5862.09
915.678	5766.05
915.99	5848.98
916.302	5771.7
916.613	5710.91
916.925	5770.34
917.236	5721.76
917.548	5674.53
917.859	5696.45
918.171	5663.45
918.482	5630.23
918.794	5600.4
919.105	5604.7
919.416	5523.57
919.727	5507.52
920.038	5521.08
920.349	5455.77
920.66	5445.61
920.971	5396.79
921.282	5411.26
921.593	5359.05
921.903	5326.74
922.214	5356.12
922.525	5277.93
922.835	5268.21
923.146	5300.98
923.456	5301.43
923.767	5230.92
924.077	5227.08
924.387	5188.21
924.697	5208.1
925.008	5159.96
925.318	5146.86
925.628	5086.07
925.938	5094.88
926.248	5032.06
926.558	5051.27
926.867	5057.82
927.177	5016.69
927.487	4962
927.796	4940.31
928.106	4908.9
928.416	4915.22
928.725	4915.9
929.034	4863.47
929.344	4884.94
929.653	4854.66
929.962	4775.79
930.271	4768.11
930.581	4745.28
930.89	4744.83
931.199	4673.87
931.508	4678.39
931.817	4667.09
932.125	4658.51
932.434	4646.53
932.743	4592.75
933.051	4611.73
933.36	4532.18
933.669	4529.47
933.977	4553.43
934.286	4502.58
934.594	4467.55
934.902	4461.45
935.21	4464.61
935.519	4440.43
935.827	4420.77
936.135	4417.38
936.443	4441.56
936.751	4385.29
937.059	4349.82
937.367	4318.86
937.674	4338.97
937.982	4334.9
938.29	4279.99
938.597	4293.09
938.905	4188.24
939.213	4216.49
939.52	4192.98
939.827	4195.24
940.135	4192.76
940.442	4181.91
940.749	4143.04
941.056	4133.32
941.363	4078.86
941.67	4096.71
941.977	4051.74
942.284	4045.87
942.591	3986.21
942.898	3979.2
943.205	3989.15
943.511	3967
943.818	3980.11
944.125	3935.81
944.431	3908.7
944.738	3931.97
945.044	3927
945.35	3868.47
945.657	3894.69
945.963	3843.61
946.269	3806.1
946.575	3837.29
946.881	3823.73
947.187	3711.64
947.493	3730.17
947.799	3733.79
948.105	3719.55
948.41	3678.19
948.716	3693.11
949.022	3682.04
949.327	3654.24
949.633	3633
949.938	3677.74
950.244	3645.65
950.549	3629.16
950.854	3604.75
951.16	3565.88
951.465	3542.15
951.77	3539.89
952.075	3515.26
952.38	3554.36
952.685	3510.97
952.99	3474.58
953.294	3502.15
953.599	3443.85
953.904	3427.13
954.209	3423.96
954.513	3417.18
954.818	3414.25
955.122	3390.97
955.426	3348.03
955.731	3358.43
956.035	3297.41
956.339	3332.67
956.643	3298.09
956.948	3301.03
957.252	3257.41
957.556	3282.27
957.86	3250.18
958.163	3233.46
958.467	3218.55
958.771	3205.66
959.075	3215.16
959.378	3193.01
959.682	3182.16
959.985	3162.5
960.289	3160.69
960.592	3127.47
960.896	3116.63
961.199	3096.29
961.502	3105.55
961.805	3052.45
962.108	3070.98
962.411	3059.45
962.714	3061.04
963.017	2995.05
963.32	3010.19
963.623	2979.68
963.926	2964.54
964.228	2970.19
964.531	2963.64
964.833	2997.31
965.136	2906.46
965.438	2955.5
965.741	2907.14
966.043	2938.33
966.345	2878.44
966.648	2863.75
966.95	2875.96
967.252	2858.1
967.554	2857.42
967.856	2857.42
968.158	2811.78
968.46	2793.92
968.761	2796.18
969.063	2790.31
969.365	2783.98
969.666	2766.35
969.968	2757.31
970.269	2771.78
970.571	2708.73
970.872	2699.69
971.174	2700.59
971.475	2685.68
971.776	2656.07
972.077	2647.94
972.378	2673.47
972.679	2606.58
972.98	2615.17
973.281	2611.33
973.582	2628.5
973.883	2581.5
974.183	2572.01
974.484	2600.03
974.785	2531.56
975.085	2544.21
975.386	2518.9
975.686	2523.87
975.986	2521.39
976.287	2545.79
976.587	2488.85
976.887	2540.82
977.187	2463.31
977.487	2460.15
977.787	2492.24
978.087	2425.12
978.387	2423.99
978.687	2423.09
978.987	2411.56
979.286	2427.61
979.586	2397.32
979.885	2376.99
980.185	2355.74
980.484	2369.3
980.784	2361.39
981.083	2347.38
981.382	2354.39
981.682	2312.81
981.981	2302.41
982.28	2294.95
982.579	2282.07
982.878	2343.54
983.177	2264.9
983.475	2286.37
983.774	2244.56
984.073	2216.54
984.372	2229.64
984.67	2193.49
984.969	2181.96
985.267	2191
985.566	2228.06
985.864	2162.53
986.162	2181.51
986.461	2159.59
986.759	2182.41
987.057	2162.98
987.355	2112.13
987.653	2123.88
987.951	2091.57
988.249	2100.83
988.547	2108.07
988.844	2090.89
989.142	2095.64
989.44	2067.16
989.737	2083.21
990.035	2068.75
990.332	2053.15
990.63	2036.43
990.927	2021.74
991.224	2002.53
991.521	1992.36
991.819	1999.14
992.116	1972.02
992.413	1979.03
992.71	1971.8
993.006	1942.65
993.303	1931.12
993.6	1923.44
993.897	1931.57
994.193	1947.62
994.49	1881.86
994.787	1889.99
995.083	1888.64
995.379	1884.8
995.676	1873.04
995.972	1878.47
996.268	1881.41
996.565	1843.21
996.861	1834.85
997.157	1868.98
997.453	1824.01
997.749	1804.57
998.044	1822.88
998.34	1797.34
998.636	1794.4
998.932	1775.42
999.227	1793.5
999.523	1761.63
999.818	1731.8
1000.114	1744.46
1000.409	1737.45
1000.704	1750.11
1001	1723.22
1001.295	1715.53
1001.59	1686.38
1001.885	1677.79
1002.18	1686.83
1002.475	1676.89
1002.77	1669.21
1003.065	1658.13
1003.359	1662.43
1003.654	1663.33
1003.949	1633.95
1004.243	1624.69
1004.538	1617.46
1004.832	1623.33
1005.127	1605.03
1005.421	1583.11
1005.715	1580.17
1006.009	1534.52
1006.304	1566.16
1006.598	1575.65
1006.892	1536.78
1007.186	1544.01
1007.48	1527.06
1007.773	1507.4
1008.067	1498.59
1008.361	1505.6
1008.655	1503.79
1008.948	1490.46
1009.242	1482.77
1009.535	1473.51
1009.829	1452.49
1010.122	1439.38
1010.415	1457.24
1010.708	1439.16
1011.001	1418.37
1011.295	1405.26
1011.588	1413.85
1011.881	1378.37
1012.173	1374.53
1012.466	1404.58
1012.759	1410.23
1013.052	1374.3
1013.344	1370.23
1013.637	1358.03
1013.93	1337.46
1014.222	1365.71
1014.514	1318.48
1014.807	1331.14
1015.099	1337.24
1015.391	1343.11
1015.683	1290.91
1015.976	1303.79
1016.268	1315.54
1016.56	1285.26
1016.851	1279.39
1017.143	1269.67
1017.435	1247.98
1017.727	1261.76
1018.018	1240.07
1018.31	1228.99
1018.602	1230.12
1018.893	1232.16
1019.185	1237.13
1019.476	1235.32
1019.767	1227.41
1020.058	1196.9
1020.35	1182.89
1020.641	1186.28
1020.932	1173.85
1021.223	1193.51
1021.514	1179.5
1021.804	1187.86
1022.095	1144.7
1022.386	1126.17
1022.677	1123.01
1022.967	1141.76
1023.258	1117.13
1023.548	1101.09
1023.839	1105.15
1024.129	1114.42
1024.419	1101.54
1024.709	1099.05
1025	1086.4
1025.29	1049.56
1025.58	1062.9
1025.87	1055.44
1026.16	1056.34
1026.449	1043.91
1026.739	1035.33
1027.029	1055.21
1027.319	1015.89
1027.608	1021.54
1027.898	1008.21
1028.187	1033.07
1028.477	995.1
1028.766	992.39
1029.055	973.18
1029.344	981.32
1029.634	979.73
1029.923	987.19
1030.212	992.39
1030.501	952.16
1030.79	925.95
1031.078	962.33
1031.367	930.02
1031.656	957.14
1031.945	924.59
1032.233	913.52
1032.522	938.61
1032.81	921.43
1033.099	924.37
1033.387	898.15
1033.675	862.68
1033.963	906.74
1034.251	897.48
1034.54	904.26
1034.828	873.75
1035.116	878.04
1035.403	887.76
1035.691	875.1
1035.979	848.66
1036.267	859.96
1036.554	851.15
1036.842	863.58
1037.129	838.04
1037.417	843.01
1037.704	823.81
1037.992	843.69
1038.279	812.73
1038.566	796.91
1038.853	796.91
1039.14	796.91
