Data from White_reflection_standard_FLMS001491_051.txt Node
Date: Tue Feb 07 10:32:05 GMT 2017
User: dcchb
Spectrometer: FLMS00149
Trigger mode: 0
Integration Time (sec): 2.000000E-2
Scans to average: 10
Electric dark correction enabled: true
Nonlinearity correction enabled: false
Boxcar width: 0
XAxis mode: Wavelengths
Number of Pixels in Spectrum: 2048
>>>>>Begin Spectral Data<<<<<
341.393	-23.47
341.776	-23.47
342.16	-23.47
342.543	-52.4
342.927	-70.7
343.31	-68.67
343.693	-85.62
344.077	-45.85
344.46	-50.14
344.843	-42.91
345.226	-55.11
345.61	-23.7
345.993	-19.63
346.376	-8.56
346.759	19.91
347.142	35.73
347.525	35.28
347.908	60.37
348.291	68.28
348.674	94.49
349.057	86.13
349.44	118.44
349.823	159.35
350.206	158.22
350.588	230.08
350.971	256.74
351.354	258.78
351.737	288.38
352.119	307.14
352.502	310.53
352.884	324.09
353.267	332.45
353.65	345.56
354.032	355.95
354.414	357.31
354.797	329.96
355.179	354.6
355.562	359.11
355.944	391.88
356.326	392.11
356.709	389.17
357.091	401.83
357.473	411.32
357.855	387.36
358.238	391.2
358.62	410.19
359.002	400.47
359.384	407.02
359.766	404.31
360.148	393.24
360.53	401.15
360.912	405.22
361.294	411.77
361.676	403.63
362.057	406.57
362.439	421.03
362.821	405.89
363.203	422.39
363.584	408.61
363.966	409.96
364.348	404.09
364.729	429.4
365.111	417.87
365.493	393.24
365.874	430.53
366.256	409.51
366.637	396.18
367.019	416.06
367.4	414.93
367.781	428.49
368.163	399.57
368.544	428.04
368.925	424.42
369.306	423.97
369.688	406.35
370.069	396.18
370.45	428.94
370.831	453.58
371.212	444.76
371.593	437.08
371.974	432.79
372.355	415.84
372.736	419.23
373.117	451.54
373.498	449.51
373.879	453.35
374.26	455.84
374.641	436.85
375.021	448.6
375.402	459.68
375.783	486.8
376.163	519.11
376.544	493.8
376.925	484.54
377.305	503.97
377.686	480.92
378.066	500.35
378.447	496.51
378.827	508.04
379.208	526.79
379.588	517.3
379.968	509.39
380.349	503.52
380.729	513.46
381.109	533.57
381.489	537.64
381.87	548.04
382.25	556.62
382.63	544.42
383.01	543.74
383.39	559.79
383.77	556.62
384.15	552.1
384.53	572.22
384.91	583.74
385.29	586.68
385.67	611.31
386.049	605.89
386.429	610.18
386.809	605.44
387.189	633.68
387.568	619
387.948	649.5
388.328	653.57
388.707	651.99
389.087	642.5
389.466	661.93
389.846	670.07
390.225	698.54
390.605	695.6
390.984	714.13
391.363	698.09
391.743	710.52
392.122	731.31
392.501	723.4
392.881	758.65
393.26	740.35
393.639	772.21
394.018	747.81
394.397	794.58
394.776	781.48
395.155	786
395.534	773.12
395.913	808.82
396.292	811.53
396.671	801.82
397.05	831.19
397.429	802.94
397.808	835.49
398.186	868.25
398.565	868.25
398.944	844.98
399.323	882.04
399.701	919.33
400.08	887.69
400.458	932.89
400.837	923.39
401.215	934.47
401.594	918.87
401.972	933.79
402.351	959.55
402.729	968.59
403.107	985.54
403.486	958.87
403.864	1000
404.242	997.29
404.62	1048.81
404.999	1031.64
405.377	1036.61
405.755	1042.26
406.133	1087.23
406.511	1081.58
406.889	1114.35
407.267	1113.67
407.645	1101.69
408.023	1113.67
408.401	1154.57
408.779	1176.27
409.156	1178.75
409.534	1188.92
409.912	1229.37
410.29	1260.11
410.667	1284.29
411.045	1278.19
411.422	1285.64
411.8	1301.91
412.178	1324.51
412.555	1346.43
412.933	1352.31
413.31	1397.05
413.687	1400.22
414.065	1422.14
414.442	1425.98
414.819	1456.49
415.197	1441.12
415.574	1491.29
415.951	1494.45
416.328	1475.47
416.705	1524.73
417.082	1500.1
417.46	1546.65
417.837	1562.02
418.214	1597.05
418.591	1602.25
418.967	1592.75
419.344	1618.97
419.721	1660.78
420.098	1682.7
420.475	1711.85
420.852	1728.57
421.228	1728.12
421.605	1748.91
421.982	1774.44
422.358	1793.65
422.735	1798.4
423.111	1806.31
423.488	1794.33
423.864	1850.15
424.241	1894.67
424.617	1920.43
424.994	1922.24
425.37	1923.37
425.746	1956.81
426.123	1992.97
426.499	2005.63
426.875	2009.92
427.251	2084.95
427.627	2108.22
428.003	2132.63
428.379	2153.19
428.756	2171.5
429.132	2172.63
429.507	2256.92
429.883	2287.43
430.259	2311.61
430.635	2328.55
431.011	2340.53
431.387	2410.59
431.763	2429.57
432.138	2456.69
432.514	2482
432.89	2507.53
433.265	2557.02
433.641	2594.54
434.016	2638.83
434.392	2695.78
434.767	2729
435.143	2732.84
435.518	2736.45
435.894	2770.58
436.269	2825.49
436.644	2849.22
437.02	2927.41
437.395	2923.57
437.77	2938.03
438.145	3004.02
438.52	3006.73
438.895	3091.25
439.271	3060.96
439.646	3131.25
440.021	3137.35
440.395	3176.44
440.77	3171.47
441.145	3204.69
441.52	3292.6
441.895	3248.3
442.27	3286.04
442.645	3296.21
443.019	3333.5
443.394	3364.46
443.769	3400.62
444.143	3348.64
444.518	3449.43
444.892	3448.3
445.267	3488.3
445.641	3499.15
446.016	3526.94
446.39	3582.53
446.764	3613.04
447.139	3616.2
447.513	3655.53
447.887	3670.67
448.262	3665.47
448.636	3732.13
449.01	3761.29
449.384	3825.01
449.758	3837.22
450.132	3905.46
450.506	3924.9
450.88	3950.21
451.254	3969.42
451.628	4005.57
452.002	4075.85
452.376	4139.81
452.75	4139.13
453.123	4169.18
453.497	4262.06
453.871	4243.53
454.244	4347.48
454.618	4398.33
454.992	4471.32
455.365	4486.92
455.739	4636.97
456.112	4642.84
456.486	4655.73
456.859	4751.77
457.232	4838.09
457.606	4800.81
457.979	4890.07
458.352	4928.71
458.725	5061.59
459.099	5067.92
459.472	5186.56
459.845	5228.59
460.218	5293
460.591	5361.24
460.964	5377.74
461.337	5473.1
461.71	5531.41
462.083	5653.21
462.456	5653.44
462.829	5668.35
463.201	5781.12
463.574	5832.87
463.947	5882.36
464.32	6050.26
464.692	6115.35
465.065	6147.21
465.438	6184.72
465.81	6331.61
466.183	6394.89
466.555	6541.55
466.928	6520.99
467.3	6570.02
467.672	6684.37
468.045	6810.02
468.417	6890.24
468.789	6905.38
469.161	7010.92
469.534	7134.08
469.906	7341.08
470.278	7334.3
470.65	7459.72
471.022	7570.45
471.394	7741.29
471.766	7826.72
472.138	7897.9
472.51	8018.57
472.882	8260.15
473.253	8305.35
473.625	8404.55
473.997	8568.62
474.369	8660.59
474.74	8792.34
475.112	8915.5
475.484	9061.71
475.855	9256.28
476.227	9370.4
476.598	9618.08
476.97	9662.6
477.341	9959.77
477.713	10094.45
478.084	10101.01
478.455	10348.46
478.827	10485.85
479.198	10804.04
479.569	10854.66
479.94	11092.62
480.311	11188.66
480.682	11483.34
481.053	11799.04
481.424	11956.55
481.795	12069.77
482.166	12286.48
482.537	12392.02
482.908	12674.5
483.279	12863.19
483.65	13020.02
484.021	13293.46
484.391	13405.55
484.762	13516.51
485.133	13714.92
485.503	13921.47
485.874	14259.54
486.244	14334.11
486.615	14618.4
486.985	14692.98
487.356	15097.26
487.726	15211.83
488.097	15558.26
488.467	15589.22
488.837	15915.54
489.207	16119.83
489.578	16381.07
489.948	16532.7
490.318	16648.86
490.688	16796.65
491.058	17008.85
491.428	17289.97
491.798	17466.46
492.168	17780.13
492.538	17844.98
492.908	18091.53
493.278	18273.67
493.648	18264.18
494.017	18595.7
494.387	18761.12
494.757	18944.16
495.126	19122.24
495.496	19258.05
495.866	19300.31
496.235	19530.14
496.605	19810.81
496.974	19834.53
497.344	20090.12
497.713	20200.63
498.082	20296.67
498.452	20644.68
498.821	20669.99
499.19	20773.95
499.559	20898.24
499.928	21123.09
500.298	21249.86
500.667	21490.54
501.036	21519.01
501.405	21724.65
501.774	21718.55
502.143	22087.36
502.512	22119.9
502.88	22389.72
503.249	22329.38
503.618	22644.18
503.987	22658.87
504.356	22906.32
504.724	22967.56
505.093	23142.47
505.462	23044.85
505.83	23473.08
506.199	23490.26
506.567	23834.43
506.936	23899.74
507.304	24262.89
507.672	24303.12
508.041	24513.06
508.409	24647.97
508.777	24914.85
509.145	25019.03
509.514	24991.24
509.882	25379.02
510.25	25388.97
510.618	25642.52
510.986	25616.08
511.354	25969.29
511.722	26157.08
512.09	26447.47
512.458	26494.02
512.826	26668.48
513.193	26792.09
513.561	26859.21
513.929	27176.04
514.297	27378.52
514.664	27743.03
515.032	27726.76
515.4	27981.44
515.767	27981.21
516.135	28261.88
516.502	28271.83
516.869	28783.23
517.237	28786.39
517.604	28832.49
517.972	29189.32
518.339	29303.89
518.706	29583.88
519.073	29651
519.44	29858.68
519.808	30243.53
520.175	30265.67
520.542	30644.19
520.909	30817.97
521.276	30909.27
521.643	31338.87
522.009	31476.71
522.376	31676.71
522.743	32023.37
523.11	32280.99
523.477	32538.38
523.843	32727.3
524.21	33092.49
524.577	33198.93
524.943	33514.4
525.31	33696.54
525.676	33982.64
526.043	34162.97
526.409	34415.39
526.776	34691.77
527.142	34762.73
527.508	35114.36
527.874	35309.61
528.241	35458.08
528.607	35552.54
528.973	36041.57
529.339	35944.39
529.705	36522.46
530.071	36656.01
530.437	36743.47
530.803	36964.25
531.169	37225.49
531.535	37235.43
531.901	37405.37
532.267	37574.86
532.632	37974.4
532.998	37978.92
533.364	38301.62
533.73	38324.44
534.095	38725.34
534.461	38671.78
534.826	38893.02
535.192	38948.16
535.557	39413.91
535.923	39440.35
536.288	39726.67
536.653	39697.29
537.019	39718.98
537.384	39882.82
537.749	40115.13
538.114	40196.26
538.479	40233.55
538.845	40597.6
539.21	40667.43
539.575	40786.07
539.94	40855
540.305	41108.1
540.67	41085.5
541.034	41278.49
541.399	41383.8
541.764	41668.31
542.129	41851.36
542.494	41876.89
542.858	41996.21
543.223	42062.65
543.587	42332.02
543.952	42227.17
544.316	42474.62
544.681	42612.24
545.045	42827.6
545.41	42991.21
545.774	43054.94
546.138	43097.2
546.503	43303.75
546.867	43293.58
547.231	43729.73
547.595	43842.27
547.959	43896.05
548.324	43964.07
548.688	44048.81
549.052	44247.45
549.416	44358.64
549.779	44433.89
550.143	44603.83
550.507	44905.51
550.871	44955
551.235	44989.81
551.599	45211.49
551.962	45424.82
552.326	45466.63
552.689	45760.18
553.053	45586.4
553.417	45847.41
553.78	46163.56
554.143	46083.56
554.507	46333.95
554.87	46531.69
555.234	46823.88
555.597	46681.51
555.96	46993.14
556.323	47174.61
556.686	47167.6
557.05	47406.01
557.413	47614.14
557.776	47614.6
558.139	47934.36
558.502	48099.1
558.865	48135.26
559.228	48368.02
559.59	48480.11
559.953	48665.19
560.316	49099.75
560.679	49022.92
561.041	49343.14
561.404	49412.74
561.767	49612.06
562.129	49588.78
562.492	49943.35
562.854	49927.08
563.217	49944.93
563.579	50171.82
563.941	50461.98
564.304	50561.86
564.666	50662.42
565.028	50772.25
565.39	50925.02
565.753	51115.07
566.115	51264.67
566.477	51426.02
566.839	51487.94
567.201	51703.75
567.563	51811.1
567.925	51873.69
568.287	52048.38
568.648	52079.11
569.01	52278.88
569.372	52407.92
569.734	52407.01
570.095	52624.86
570.457	52706.44
570.819	52813.1
571.18	52814.46
571.542	52990.05
571.903	52965.19
572.265	53120.44
572.626	53224.62
572.987	53303.71
573.349	53435.69
573.71	53514.78
574.071	53632.74
574.432	53664.38
574.794	53822.34
575.155	53746.64
575.516	53754.55
575.877	53889.91
576.238	54007.42
576.599	54072.73
576.96	54058.49
577.32	54164.25
577.681	54304.82
578.042	54316.57
578.403	54275.89
578.763	54369.45
579.124	54406.51
579.485	54459.84
579.845	54606.28
580.206	54478.14
580.566	54470.91
580.927	54548.2
581.287	54727.4
581.648	54607.41
582.008	54753.84
582.368	54699.15
582.728	54794.29
583.089	54624.13
583.449	54703.9
583.809	54673.17
584.169	54766.95
584.529	54732.6
584.889	54917.45
585.249	54748.87
585.609	54722.88
585.969	54875.87
586.329	54734.41
586.688	54862.31
587.048	54725.82
587.408	54721.75
587.768	54800.4
588.127	54839.49
588.487	54699.38
588.846	54943.44
589.206	54736.44
589.565	54775.99
589.925	54918.36
590.284	54760.4
590.643	54895.99
591.003	54855.54
591.362	55008.07
591.721	54908.42
592.08	54947.28
592.44	55059.6
592.799	54937.11
593.158	54950
593.517	54914.06
593.876	55006.04
594.235	54981.63
594.593	54994.97
594.952	55015.98
595.311	55029.54
595.67	54945.93
596.029	55187.5
596.387	55158.13
596.746	55278.35
597.104	55078.35
597.463	55077.22
597.822	55204.23
598.18	55148.41
598.538	55119.71
598.897	55276.77
599.255	55078.35
599.613	55430.21
599.972	55298.91
600.33	55412.36
600.688	55256.65
601.046	55373.94
601.404	55445.35
601.762	55430.66
602.12	55540.26
602.478	55506.82
602.836	55549.75
603.194	55425.92
603.552	55481.28
603.91	55333.49
604.268	55540.94
604.625	55431.11
604.983	55535.07
605.341	55439.47
605.698	55612.58
606.056	55633.82
606.413	55640.15
606.771	55687.83
607.128	55724.21
607.485	55608.06
607.843	55671.33
608.2	55926.24
608.557	55890.54
608.914	55810.99
609.272	55855.73
609.629	55968.27
609.986	56032.91
610.343	55876.07
610.7	56118.1
611.057	55996.3
611.414	55988.84
611.771	56086.01
612.127	56137.08
612.484	56110.64
612.841	56283.29
613.198	56098.21
613.554	56206.69
613.911	56269.06
614.267	56242.17
614.624	56268.61
614.98	56264.31
615.337	56449.62
615.693	56402.39
616.05	56320.36
616.406	56497.98
616.762	56388.15
617.118	56449.17
617.475	56358.77
617.831	56472.22
618.187	56445.55
618.543	56443.06
618.899	56627.69
619.255	56514.47
619.611	56520.12
619.967	56585.43
620.323	56678.99
620.678	56542.04
621.034	56517.41
621.39	56542.04
621.746	56438.09
622.101	56735.94
622.457	56495.72
622.812	56572.78
623.168	56606.45
623.523	56616.39
623.879	56647.13
624.234	56544.08
624.589	56647.8
624.945	56637.18
625.3	56651.19
625.655	56644.41
626.01	56641.7
626.365	56632.89
626.72	56632.66
627.075	56610.74
627.43	56569.16
627.785	56493.68
628.14	56598.77
628.495	56591.76
628.85	56522.16
629.205	56450.97
629.559	56647.13
629.914	56474.7
630.269	56497.75
630.623	56387.7
630.978	56359.45
631.332	56499.79
631.687	56512.67
632.041	56356.51
632.396	56407.81
632.75	56287.81
633.104	56391.77
633.459	56267.25
633.813	56186.12
634.167	56178.21
634.521	56210.08
634.875	56172.34
635.229	56151.77
635.583	56010.98
635.937	55956.3
636.291	55958.33
636.645	55970.99
636.999	55938.44
637.352	55940.03
637.706	55728.28
638.06	55909.74
638.413	55806.47
638.767	55678.11
639.121	55827.49
639.474	55601.05
639.828	55638.57
640.181	55626.81
640.534	55655.74
640.888	55501.39
641.241	55434.5
641.594	55478.8
641.947	55519.25
642.301	55490.32
642.654	55426.59
643.007	55455.97
643.36	55365.58
643.713	55309.31
644.066	55387.5
644.419	55164
644.771	55025.7
645.124	54684.47
645.477	54743
645.83	54485.6
646.182	54376.68
646.535	54253.07
646.888	54387.75
647.24	54117.7
647.593	54292.61
647.945	54277.02
648.298	54056.91
648.65	54123.58
649.002	54047.65
649.355	54085.61
649.707	54055.33
650.059	54137.59
650.411	54521.76
650.763	54554.98
651.115	54758.36
651.467	54651.47
651.819	54613.06
652.171	54579.84
652.523	54481.08
652.875	54515.43
653.227	54368.09
653.578	54526.5
653.93	54380.52
654.282	54385.94
654.633	54284.93
654.985	54301.43
655.337	54329.67
655.688	54281.09
656.039	54309.33
656.391	54111.6
656.742	54136.23
657.094	54082
657.445	54262.1
657.796	54209.68
658.147	54034.77
658.498	54102.79
658.849	54140.75
659.2	54050.58
659.551	54025.05
659.902	54070.02
660.253	54002.68
660.604	54048.32
660.955	53869.12
661.306	54006.97
661.656	53926.07
662.007	54021.43
662.358	53907.09
662.708	53900.08
663.059	53777.37
663.409	53654.44
663.76	53876.8
664.11	53847.88
664.461	53780.08
664.811	53835
665.161	53785.28
665.511	53692.85
665.862	53703.7
666.212	53782.34
666.562	53658.05
666.912	53679.97
667.262	53605.85
667.612	53638.62
667.962	53659.63
668.312	53496.25
668.662	53739.86
669.011	53620.99
669.361	53445.63
669.711	53575.12
670.06	53438.62
670.41	53389.13
670.76	53374.44
671.109	53504.16
671.459	53351.17
671.808	53368.12
672.157	53436.82
672.507	53135.13
672.856	53216.03
673.205	53214.45
673.554	53282.02
673.904	53146.43
674.253	53368.12
674.602	53174.45
674.951	52708.02
675.3	52585.76
675.649	53105.98
675.998	53007.22
676.346	53024.17
676.695	53138.29
677.044	52870.95
677.393	52972.42
677.741	52960.67
678.09	52966.77
678.438	52837.96
678.787	52908.02
679.135	52822.59
679.484	52668.93
679.832	52848.81
680.181	52562.26
680.529	52708.02
680.877	52604.29
681.225	52533.34
681.573	52681.58
681.922	52529.27
682.27	52405.88
682.618	52312.78
682.966	52335.38
683.314	52332.44
683.661	52260.35
684.009	52129.28
684.357	51987.59
684.705	51968.61
685.053	52038.21
685.4	51880.25
685.748	51750.98
686.095	51732.68
686.443	51646.35
686.79	51513.7
687.138	51616.75
687.485	51556.64
687.832	51395.74
688.18	51434.83
688.527	51296.31
688.874	51255.63
689.221	51163.65
689.568	51092.92
689.915	50938.35
690.262	50953.72
690.609	50820.39
690.956	50807.51
691.303	50668.53
691.65	50469.21
691.997	50458.81
692.344	50375.88
692.69	50239.84
693.037	50270.12
693.383	50003.46
693.73	50104.93
694.077	49989.45
694.423	49854.08
694.769	49701.09
695.116	49633.3
695.462	49544.04
695.808	49398.73
696.155	49393.53
696.501	49151.73
696.847	49304.95
697.193	48951.96
697.539	49209.58
697.885	48835.58
698.231	48750.38
698.577	48808.46
698.923	48598.52
699.269	48481.01
699.614	48179.33
699.96	48225.88
700.306	48304.97
700.651	48036.05
700.997	47900.69
701.342	47723.29
701.688	47776.4
702.033	47603.07
702.379	47550.64
702.724	47458.22
703.069	47543.64
703.415	47092.58
703.76	47146.59
704.105	47149.52
704.45	46995.63
704.795	46676.32
705.14	46583.21
705.485	46606.03
705.83	46486.94
706.175	46446.04
706.52	46467.73
706.865	46172.83
707.209	46272.71
707.554	45959.27
707.899	46184.8
708.243	45773.29
708.588	45782.1
708.932	45558.6
709.277	45517.7
709.621	45639.28
709.966	45251.27
710.31	45528.77
710.654	45060.31
710.998	45128.56
711.342	45063.48
711.687	44899.19
712.031	44728.12
712.375	44731.73
712.719	44747.78
713.063	44646.54
713.407	44685.86
713.75	44395.92
714.094	44300.33
714.438	44158.87
714.782	44158.19
715.125	44026.44
715.469	44156.83
715.812	43940.57
716.156	43658.09
716.499	43647.92
716.843	43721.14
717.186	43343.52
717.53	43612.89
717.873	43616.28
718.216	43372
718.559	43349.62
718.902	42906.7
719.246	43117.31
719.589	42914.61
719.932	42822.86
720.275	42856.75
720.617	42796.87
720.96	42695.18
721.303	42665.35
721.646	42528.18
721.989	42319.82
722.331	42603.2
722.674	42233.95
723.016	42335.86
723.359	42098.58
723.701	42222.19
724.044	41971.81
724.386	41699.04
724.729	41960.51
725.071	41875.76
725.413	41796.9
725.755	41740.85
726.097	41582.89
726.439	41445.27
726.782	41484.36
727.124	41736.11
727.465	41280.07
727.807	41318.04
728.149	41148.55
728.491	40985.39
728.833	41153.97
729.175	40885.05
729.516	40893.19
729.858	40960.08
730.199	40840.99
730.541	40823.59
730.882	40640.09
731.224	40768.22
731.565	40457.95
731.906	40582.01
732.248	40452.3
732.589	40223.38
732.93	40056.15
733.271	40172.08
733.612	40301.34
733.953	40186.99
734.294	40089.14
734.635	39975.47
734.976	40066.55
735.317	39700.23
735.658	39792.88
735.999	39738.19
736.339	39530.74
736.68	39786.55
737.021	39547.46
737.361	39342.72
737.702	39589.27
738.042	39435.38
738.383	39267.24
738.723	39381.59
739.063	39228.83
739.404	39223.63
739.744	39165.1
740.084	38885.79
740.424	39042.84
740.764	38900.25
741.104	39069.51
741.444	38719.24
741.784	38618.9
742.124	38619.58
742.464	38616.19
742.804	38435.85
743.143	38402.63
743.483	38403.76
743.823	38197.44
744.162	38186.14
744.502	38258.91
744.841	38114.28
745.181	38202.64
745.52	37895.53
745.86	38078.12
746.199	37953.15
746.538	37858.92
746.877	37995.19
747.216	37830.9
747.556	37720.62
747.895	37730.56
748.234	37543
748.573	37486.73
748.911	37535.31
749.25	37391.36
749.589	37273.4
749.928	37262.33
750.267	37377.58
750.605	37150.24
750.944	37079.73
751.283	36931.71
751.621	36916.57
751.96	36657.82
752.298	36659.4
752.636	36591.38
752.975	36562.68
753.313	36393.65
753.651	36615.11
753.989	36116.14
754.327	36231.62
754.666	36075.69
755.004	36063.71
755.342	35904.85
755.679	35976.48
756.017	35919.31
756.355	35797.51
756.693	35742.14
757.031	35613.1
757.368	35441.81
757.706	35316.39
758.044	35212.89
758.381	35147.58
758.719	35112.55
759.056	34960.92
759.394	34910.52
759.731	34794.37
760.068	34682.28
760.405	34517.31
760.743	34370.2
761.08	34624.43
761.417	34405.45
761.754	34185.57
762.091	34159.36
762.428	34050.66
762.765	33801.17
763.102	33938.34
763.438	33719.14
763.775	33574.96
764.112	33546.49
764.449	33653.15
764.785	33282.77
765.122	33220.4
765.458	33149.67
765.795	32923
766.131	33097.92
766.467	32796.23
766.804	32739.73
767.14	32603.92
767.476	32544.94
767.812	32389.23
768.148	32428.78
768.485	32152.86
768.821	31953.76
769.157	31961.9
769.492	31923.71
769.828	31791.28
770.164	31487.34
770.5	31485.3
770.836	31413.67
771.171	31251.86
771.507	31250.73
771.842	30892.78
772.178	31011.87
772.513	30927.8
772.849	30763.06
773.184	30513.12
773.519	30610.3
773.855	30387.93
774.19	30307.71
774.525	30280.81
774.86	30143.87
775.195	30167.6
775.53	30070.42
775.865	29839.47
776.2	29640.15
776.535	29429.76
776.87	29332.14
777.205	29288.98
777.539	29182.99
777.874	29164.46
778.209	28889.44
778.543	28917.69
778.878	28672.27
779.212	28717.24
779.547	28584.59
779.881	28635.43
780.215	28343.24
780.55	28432.05
780.884	28196.57
781.218	28157.03
781.552	28150.02
781.886	27912.06
782.22	27793.65
782.554	27658.06
782.888	27525.86
783.222	27402.02
783.556	27358.86
783.889	27148.92
784.223	27078.41
784.557	26945.76
784.89	26962.03
785.224	26886.1
785.557	26770.85
785.891	26695.82
786.224	26586.9
786.558	26611.31
786.891	26339.22
787.224	26226.91
787.557	26341.26
787.891	26089.51
788.224	25985.33
788.557	26057.65
788.89	25810.88
789.223	25919.57
789.556	25644.55
789.888	25647.94
790.221	25484.78
790.554	25323.43
790.887	25343.09
791.219	25217.9
791.552	25197.56
791.884	25045.25
792.217	25006.6
792.549	24847.51
792.882	24710.34
793.214	24621.3
793.546	24480.74
793.879	24478.93
794.211	24294.08
794.543	24317.35
794.875	24296.56
795.207	24367.52
795.539	24126.63
795.871	24160.07
796.203	23917.82
796.535	23739.74
796.867	23774.77
797.198	23747.88
797.53	23719.18
797.862	23558.5
798.193	23611.38
798.525	23429.24
798.856	23403.93
799.188	23143.37
799.519	23148.57
799.85	22981.8
800.182	22968.01
800.513	23012.53
800.844	22764.85
801.175	22900.22
801.506	22872.65
801.837	22668.58
802.168	22660.45
802.499	22574.58
802.83	22408.93
803.161	22438.31
803.491	22308.14
803.822	22372.32
804.153	22255.49
804.483	22084.87
804.814	21933.69
805.145	22087.81
805.475	21931.65
805.805	21926.46
806.136	21808.72
806.466	21874.93
806.796	21727.37
807.126	21621.15
807.457	21485.11
807.787	21547.48
808.117	21534.83
808.447	21387.04
808.777	21417.09
809.107	21217.55
809.436	21240.37
809.766	21206.02
810.096	21111.56
810.426	20887.39
810.755	21099.81
811.085	21024.11
811.414	20841.29
811.744	20720.84
812.073	20663.67
812.403	20720.84
812.732	20595.19
813.061	20600.62
813.39	20380.74
813.719	20319.72
814.049	20448.98
814.378	20413.05
814.707	20236.56
815.036	20275.2
815.365	20158.59
815.693	19914.53
816.022	19990.69
816.351	19896.45
816.68	19819.85
817.008	19872.95
817.337	19776.46
817.665	19682.67
817.994	19810.58
818.322	19695.56
818.651	19533.53
818.979	19526.52
819.307	19644.03
819.636	19505.73
819.964	19403.81
820.292	19467.76
820.62	19479.06
820.948	19422.57
821.276	19414.43
821.604	19273.87
821.932	19378.5
822.259	19380.54
822.587	19351.84
822.915	19322.23
823.243	19350.25
823.57	19345.96
823.898	19324.04
824.225	19206.08
824.553	19292.4
824.88	19273.87
825.207	19382.12
825.535	19279.07
825.862	19298.05
826.189	19237.71
826.516	19361.78
826.843	19328.11
827.17	19297.83
827.497	19281.33
827.824	19323.81
828.151	19244.49
828.478	19191.39
828.805	19244.27
829.131	19263.48
829.458	19225.74
829.785	19202.46
830.111	19134.21
830.438	19258.73
830.764	19187.77
831.09	19198.62
831.417	19076.59
831.743	19296.92
832.069	19170.15
832.395	19015.35
832.722	19110.26
833.048	19032.52
833.374	19073.2
833.7	19023.26
834.026	19134.67
834.351	19038.17
834.677	18997.49
835.003	19070.94
835.329	18946.87
835.654	19010.6
835.98	18851.51
836.306	18862.81
836.631	18798.63
836.956	18813.77
837.282	18910.27
837.607	18651.29
837.932	18602.7
838.258	18792.98
838.583	18721.8
838.908	18554.79
839.233	18585.75
839.558	18523.16
839.883	18415.36
840.208	18411.52
840.533	18364.29
840.858	18355.03
841.182	18367.91
841.507	18410.62
841.832	18200.23
842.156	18284.29
842.481	18185.76
842.805	18127.91
843.13	18110.06
843.454	18046.56
843.778	18015.83
844.103	17992.55
844.427	17990.52
844.751	17911.87
845.075	17776.74
845.399	17817.64
845.723	17676.85
846.047	17726.12
846.371	17546.91
846.695	17643.18
847.019	17456.07
847.343	17429.4
847.666	17296.52
847.99	17234.15
848.313	17225.11
848.637	17021.28
848.96	17055.62
849.284	16961.39
849.607	16824.22
849.931	16810.89
850.254	16702.19
850.577	16623.77
850.9	16509.42
851.223	16461.97
851.546	16384.68
851.869	16345.36
852.192	16471.69
852.515	16236.21
852.838	16094.07
853.161	16179.49
853.483	16051.58
853.806	15945.6
854.129	15988.99
854.451	15972.94
854.774	15890.23
855.096	15807.52
855.419	15807.07
855.741	15758.71
856.063	15705.83
856.385	15692.5
856.708	15604.59
857.03	15490.47
857.352	15507.64
857.674	15373.86
857.996	15366.4
858.318	15323.69
858.64	15284.15
858.961	15229.46
859.283	15154.66
859.605	15089.12
859.926	15192.85
860.248	15122.12
860.57	15039.41
860.891	15010.48
861.212	14863.14
861.534	14863.37
861.855	14996.92
862.176	14875.8
862.498	14819.98
862.819	14910.37
863.14	14788.34
863.461	14752.41
863.782	14758.96
864.103	14778.62
864.424	14674.9
864.745	14713.99
865.065	14554.45
865.386	14572.3
865.707	14563.04
866.027	14541.11
866.348	14494.11
866.668	14452.76
866.989	14435.35
867.309	14333.66
867.63	14322.36
867.95	14342.48
868.27	14275.81
868.59	14281.91
868.91	14253.21
869.23	14267.22
869.55	14232.87
869.87	14196.49
870.19	14197.4
870.51	14145.42
870.83	14175.02
871.15	14023.84
871.469	14074.01
871.789	14089.38
872.109	14027.68
872.428	14001.92
872.748	14010.96
873.067	13994.46
873.386	14025.42
873.706	13883.05
874.025	13891.19
874.344	13835.14
874.663	13843.51
874.982	13826.33
875.301	13799.89
875.62	13785.2
875.939	13765.32
876.258	13736.16
876.577	13664.08
876.896	13678.54
877.214	13597.64
877.533	13622.04
877.852	13614.81
878.17	13544.53
878.489	13594.7
878.807	13623.4
879.125	13551.99
879.444	13502.27
879.762	13486.45
880.08	13500.01
880.398	13348.38
880.716	13453.23
881.034	13348.15
881.352	13356.06
881.67	13300.7
881.988	13288.94
882.306	13218.21
882.624	13217.76
882.941	13177.08
883.259	13145.45
883.577	13154.03
883.894	13102.51
884.212	13112.23
884.529	13071.32
884.846	12948.39
885.164	12950.42
885.481	12889.41
885.798	12956.52
886.115	12904.32
886.432	12833.36
886.75	12886.02
887.067	12849.86
887.383	12760.14
887.7	12761.5
888.017	12668.62
888.334	12680.37
888.651	12607.83
888.967	12651.9
889.284	12541.17
889.6	12474.5
889.917	12515.18
890.233	12520.38
890.55	12343.66
890.866	12432.7
891.182	12363.77
891.498	12326.94
891.815	12241.51
892.131	12252.36
892.447	12205.13
892.763	12147.96
893.079	12128.07
893.395	12091.46
893.71	12035.42
894.026	11977.34
894.342	11950.45
894.657	11982.76
894.973	11921.97
895.289	11828.19
895.604	11909.32
895.92	11813.5
896.235	11691.47
896.55	11759.72
896.865	11662.77
897.181	11580.29
897.496	11561.53
897.811	11533.96
898.126	11450.35
898.441	11505.71
898.756	11445.15
899.071	11351.82
899.386	11419.61
899.7	11243.57
900.015	11276.57
900.33	11178.72
900.644	11176.23
900.959	11134.88
901.273	11080.87
901.588	11020.53
901.902	11000.19
902.216	10937.37
902.531	10856.47
902.845	10891.49
903.159	10856.01
903.473	10789.35
903.787	10695.57
904.101	10632.07
904.415	10660.76
904.729	10618.96
905.042	10524.72
905.356	10519.75
905.67	10502.58
905.984	10486.98
906.297	10526.98
906.611	10336.48
906.924	10395.46
907.237	10358.17
907.551	10196.37
907.864	10195.69
908.177	10179.87
908.491	10183.94
908.804	10096.03
909.117	10048.35
909.43	9983.49
909.743	9974.23
910.056	9945.08
910.368	9957.96
910.681	9904.63
910.994	9851.29
911.307	9774.91
911.619	9717.96
911.932	9760.45
912.244	9762.03
912.557	9605.43
912.869	9619.44
913.181	9597.52
913.494	9554.81
913.806	9431.42
914.118	9439.55
914.43	9353
914.742	9392.32
915.054	9311.2
915.366	9237.98
915.678	9251.99
915.99	9188.49
916.302	9077.98
916.613	9085.67
916.925	9085.21
917.236	9070.3
917.548	8974.71
917.859	8963.18
918.171	8866.69
918.482	8878.44
918.794	8873.02
919.105	8838.89
919.416	8806.58
919.727	8791.21
920.038	8728.84
920.349	8681.83
920.66	8576.98
920.971	8601.16
921.282	8541.95
921.593	8450.65
921.903	8492.91
922.214	8407.26
922.525	8375.63
922.835	8378.34
923.146	8269.64
923.456	8291.34
923.767	8265.8
924.077	8273.26
924.387	8211.56
924.697	8061.29
925.008	8129.76
925.318	8027.39
925.628	8125.69
925.938	8080.49
926.248	7982.19
926.558	7904.91
926.867	7852.25
927.177	7852.93
927.487	7848.86
927.796	7764.57
928.106	7711.24
928.416	7722.54
928.725	7696.78
929.034	7660.39
929.344	7621.52
929.653	7616.33
929.962	7471.24
930.271	7517.8
930.581	7424.92
930.89	7424.01
931.199	7404.35
931.508	7393.51
931.817	7372.72
932.125	7313.51
932.434	7341.98
932.743	7242.32
933.051	7206.17
933.36	7243
933.669	7122.55
933.977	7091.82
934.286	7156.45
934.594	7077.81
934.902	6980.41
935.21	7009.79
935.519	7013.18
935.827	6935.21
936.135	6956.91
936.443	6812.5
936.751	6853.41
937.059	6823.13
937.367	6738.61
937.674	6730.47
937.982	6770.47
938.29	6713.3
938.597	6694.32
938.905	6596.46
939.213	6530.93
939.52	6550.14
939.827	6548.33
940.135	6535.9
940.442	6528.67
940.749	6503.81
941.056	6466.98
941.363	6424.27
941.67	6357.6
941.977	6334.1
942.284	6277.83
942.591	6270.6
942.898	6220.43
943.205	6235.34
943.511	6191.05
943.818	6198.74
944.125	6117.16
944.431	6161.67
944.738	6088.23
945.044	6116.93
945.35	6050.04
945.657	6032.41
945.963	5969.81
946.269	5976.82
946.575	5977.5
946.881	5893.21
947.187	5918.74
947.493	5856.82
947.799	5862.25
948.105	5780.22
948.41	5736.15
948.716	5746.32
949.022	5716.94
949.327	5680.1
949.633	5625.42
949.938	5672.65
950.244	5666.32
950.549	5583.16
950.854	5511.97
951.16	5539.77
951.465	5493.44
951.77	5515.14
952.075	5472.43
952.38	5452.31
952.685	5421.58
952.99	5344.52
953.294	5401.69
953.599	5346.55
953.904	5359.66
954.209	5298.87
954.513	5267.46
954.818	5250.74
955.122	5246.9
955.426	5199.67
955.731	5173.68
956.035	5167.8
956.339	5101.14
956.643	5085.09
956.948	5064.08
957.252	5083.96
957.556	5043.74
957.86	5032.21
958.163	4998.09
958.467	5022.27
958.771	4993.34
959.075	4948.6
959.378	4963.97
959.682	4900.24
959.985	4880.35
960.289	4872.22
960.592	4847.58
960.896	4850.3
961.199	4817.98
961.502	4795.38
961.805	4702.73
962.108	4691.88
962.411	4723.29
962.714	4676.52
963.017	4664.31
963.32	4639.45
963.623	4633.35
963.926	4600.13
964.228	4582.28
964.531	4553.35
964.833	4561.72
965.136	4472.9
965.438	4500.7
965.741	4486.92
966.043	4435.17
966.345	4443.3
966.648	4436.07
966.95	4406.24
967.252	4341.38
967.554	4362.17
967.856	4382.74
968.158	4265.9
968.46	4298.45
968.761	4290.08
969.063	4255.06
969.365	4260.26
969.666	4195.62
969.968	4148.85
970.269	4170.09
970.571	4157.21
970.872	4184.1
971.174	4139.13
971.475	4121.95
971.776	4042.86
972.077	4053.93
972.378	4062.97
972.679	4032.69
972.98	4046.48
973.281	4006.02
973.582	3979.58
973.883	3931.9
974.183	3897.55
974.484	3927.61
974.785	3918.12
975.085	3918.57
975.386	3876.54
975.686	3821.85
975.986	3855.52
976.287	3792.92
976.587	3760.83
976.887	3789.99
977.187	3812.81
977.487	3746.82
977.787	3713.6
978.087	3706.6
978.387	3699.14
978.687	3680.61
978.987	3642.19
979.286	3597.45
979.586	3636.77
979.885	3636.99
980.185	3611.01
980.484	3601.06
980.784	3568.75
981.083	3553.38
981.382	3524.68
981.682	3514.29
981.981	3508.18
982.28	3463.44
982.579	3447.85
982.878	3482.87
983.177	3455.76
983.475	3404.68
983.774	3397
984.073	3363.56
984.372	3349.09
984.67	3378.92
984.969	3315.42
985.267	3317.46
985.566	3272.03
985.864	3276.78
986.162	3274.52
986.461	3270.68
986.759	3244.24
987.057	3208.08
987.355	3176.89
987.653	3238.59
987.951	3198.59
988.249	3181.19
988.547	3202.2
988.844	3140.96
989.142	3138.93
989.44	3112.26
989.737	3072.04
990.035	3074.52
990.332	3088.76
990.63	3029.55
990.927	3058.93
991.224	3035.88
991.521	3008.99
991.819	2978.03
992.116	2969.67
992.413	2942.1
992.71	3014.64
993.006	2928.76
993.303	2931.48
993.6	2898.48
993.897	2901.42
994.193	2933.51
994.49	2898.94
994.787	2866.17
995.083	2835.43
995.379	2811.03
995.676	2830.91
995.972	2795.43
996.268	2767.64
996.565	2745.49
996.861	2767.87
997.157	2759.28
997.453	2717.47
997.749	2727.64
998.044	2727.87
998.34	2682.44
998.636	2638.83
998.932	2630.47
999.227	2648.09
999.523	2646.51
999.818	2614.87
1000.114	2586.17
1000.409	2607.64
1000.704	2538.04
1001	2564.03
1001.295	2531.49
1001.59	2537.36
1001.885	2532.62
1002.18	2492.17
1002.475	2499.62
1002.77	2500.3
1003.065	2460.98
1003.359	2429.79
1003.654	2433.18
1003.949	2405.84
1004.243	2428.89
1004.538	2367.65
1004.832	2358.16
1005.127	2355.9
1005.421	2317.48
1005.715	2306.41
1006.009	2293.3
1006.304	2302.57
1006.598	2292.85
1006.892	2291.04
1007.186	2262.57
1007.48	2275.67
1007.773	2252.85
1008.067	2198.61
1008.361	2203.59
1008.655	2170.82
1008.948	2199.97
1009.242	2133.08
1009.535	2136.02
1009.829	2134.89
1010.122	2127.2
1010.415	2103.02
1010.708	2133.76
1011.001	2056.47
1011.295	2098.73
1011.588	2035.91
1011.881	2032.07
1012.173	2082.91
1012.466	2029.58
1012.759	2027.55
1013.052	1999.52
1013.344	1996.36
1013.637	2005.63
1013.93	1988.22
1014.222	1968.11
1014.514	1953.2
1014.807	1927.44
1015.099	1905.29
1015.391	1896.02
1015.683	1919.98
1015.976	1901.9
1016.268	1857.15
1016.56	1852.18
1016.851	1863.48
1017.143	1846.08
1017.435	1855.57
1017.727	1798.63
1018.018	1813.09
1018.31	1784.39
1018.602	1786.65
1018.893	1764.95
1019.185	1754.56
1019.476	1740.77
1019.767	1741.68
1020.058	1710.49
1020.35	1693.09
1020.641	1701.45
1020.932	1675.46
1021.223	1672.07
1021.514	1648.35
1021.804	1640.44
1022.095	1643.6
1022.386	1613.32
1022.677	1614.9
1022.967	1587.33
1023.258	1584.62
1023.548	1564.96
1023.839	1580.33
1024.129	1558.63
1024.419	1537.16
1024.709	1532.42
1025	1506.66
1025.29	1512.53
1025.58	1492.87
1025.87	1482.25
1026.16	1472.76
1026.449	1474.57
1026.739	1477.28
1027.029	1457.17
1027.319	1447.9
1027.608	1436.6
1027.898	1433.89
1028.187	1407.22
1028.477	1421.01
1028.766	1384.17
1029.055	1381.01
1029.344	1389.6
1029.634	1374.23
1029.923	1347.56
1030.212	1367.9
1030.501	1353.89
1030.79	1319.99
1031.078	1307.56
1031.367	1287.23
1031.656	1318.64
1031.945	1304.63
1032.233	1257.85
1032.522	1305.3
1032.81	1275.25
1033.099	1259.2
1033.387	1244.97
1033.675	1250.62
1033.963	1214.91
1034.251	1246.78
1034.54	1208.13
1034.828	1209.26
1035.116	1200.9
1035.403	1190.05
1035.691	1192.09
1035.979	1166.55
1036.267	1165.65
1036.554	1168.81
1036.842	1121.35
1037.129	1157.51
1037.417	1135.59
1037.704	1125.2
1037.992	1097.4
1038.279	1093.11
1038.566	1106.44
1038.853	1106.44
1039.14	1106.44
