Data from white_poster_card_FLMS001491_00012.txt Node
Date: Wed Feb 08 11:51:08 GMT 2017
User: dcchb
Spectrometer: FLMS00149
Trigger mode: 0
Integration Time (sec): 2.000000E-2
Scans to average: 10
Electric dark correction enabled: true
Nonlinearity correction enabled: false
Boxcar width: 0
XAxis mode: Wavelengths
Number of Pixels in Spectrum: 2048
>>>>>Begin Spectral Data<<<<<
341.393	-13.87
341.776	-13.87
342.16	-13.87
342.543	-54.77
342.927	-51.38
343.31	-42.34
343.693	-93.19
344.077	-72.17
344.46	-59.97
344.843	-65.62
345.226	-42.57
345.61	-27.88
345.993	-17.26
346.376	1.72
346.759	9.18
347.142	21.16
347.525	42.17
347.908	57.77
348.291	79.91
348.674	96.41
349.057	112.68
349.44	132.79
349.823	141.38
350.206	165.11
350.588	200.36
350.971	205.33
351.354	213.02
351.737	211.89
352.119	244.43
352.502	260.7
352.884	266.12
353.267	294.14
353.65	287.59
354.032	296.4
354.414	320.81
354.797	318.1
355.179	313.58
355.562	333.92
355.944	324.65
356.326	335.05
356.709	321.26
357.091	319
357.473	347.7
357.855	323.52
358.238	330.53
358.62	360.13
359.002	357.19
359.384	346.8
359.766	324.43
360.148	347.7
360.53	352.22
360.912	354.48
361.294	334.37
361.676	328.95
362.057	351.77
362.439	347.93
362.821	347.48
363.203	342.73
363.584	307.25
363.966	311.32
364.348	336.4
364.729	339.57
365.111	333.47
365.493	330.98
365.874	332.56
366.256	300.92
366.637	304.31
367.019	313.35
367.4	307.93
367.781	316.29
368.163	314.03
368.544	322.62
368.925	318.1
369.306	301.15
369.688	315.16
370.069	331.88
370.45	325.78
370.831	318.55
371.212	317.2
371.593	309.96
371.974	323.07
372.355	314.03
372.736	351.54
373.117	333.24
373.498	321.71
373.879	314.48
374.26	320.58
374.641	315.84
375.021	332.11
375.402	318.32
375.783	315.61
376.163	333.69
376.544	345.44
376.925	336.86
377.305	352
377.686	330.98
378.066	335.05
378.447	326.91
378.827	324.65
379.208	317.42
379.588	313.81
379.968	340.7
380.349	339.34
380.729	351.09
381.109	347.02
381.489	357.19
381.87	345.67
382.25	328.95
382.63	356.97
383.01	359.23
383.39	356.97
383.77	366.46
384.15	351.32
384.53	349.06
384.91	352.45
385.29	354.26
385.67	346.35
386.049	356.97
386.429	375.05
386.809	361.71
387.189	370.08
387.568	377.76
387.948	374.14
388.328	379.79
388.707	379.34
389.087	368.04
389.466	362.39
389.846	350.41
390.225	380.02
390.605	395.39
390.984	373.01
391.363	382.28
391.743	394.93
392.122	378.21
392.501	402.39
392.881	409.17
393.26	411.2
393.639	395.16
394.018	386.35
394.397	411.66
394.776	404.42
395.155	406.68
395.534	422.05
395.913	413.92
396.292	393.35
396.671	411.88
397.05	428.15
397.429	444.88
397.808	456.17
398.186	433.35
398.565	442.62
398.944	444.65
399.323	417.08
399.701	437.87
400.08	450.98
400.458	462.05
400.837	466.57
401.215	457.53
401.594	437.87
401.972	474.93
402.351	447.59
402.729	441.94
403.107	456.17
403.486	460.02
403.864	473.58
404.242	490.3
404.62	486
404.999	471.99
405.377	485.55
405.755	506.12
406.133	493.91
406.511	495.5
406.889	522.84
407.267	540.24
407.645	521.94
408.023	521.26
408.401	557.19
408.779	533.01
409.156	548.83
409.534	573.23
409.912	587.24
410.29	589.05
410.667	601.93
411.045	593.35
411.422	604.42
411.8	631.54
412.178	621.82
412.555	650.07
412.933	664.98
413.31	679.45
413.687	700.69
414.065	703.4
414.442	685.77
414.819	698.65
415.197	720.35
415.574	755.38
415.951	763.96
416.328	818.65
416.705	784.75
417.082	766.67
417.46	820.68
417.837	791.53
418.214	853.23
418.591	862.72
418.967	842.6
419.344	873.79
419.721	903.39
420.098	893.68
420.475	923.28
420.852	923.28
421.228	950.85
421.605	960.12
421.982	946.78
422.358	971.19
422.735	981.58
423.111	1007.12
423.488	1027.01
423.864	1026.78
424.241	1060
424.617	1063.62
424.994	1102.71
425.37	1080.56
425.746	1107.91
426.123	1123.05
426.499	1122.37
426.875	1143.84
427.251	1162.37
427.627	1187.45
428.003	1204.4
428.379	1195.36
428.756	1216.38
429.132	1240.56
429.507	1267.9
429.883	1264.74
430.259	1296.6
430.635	1318.75
431.011	1340.67
431.387	1352.87
431.763	1379.09
432.138	1378.41
432.514	1407.34
432.89	1409.14
433.265	1462.93
433.641	1483.49
434.016	1486.88
434.392	1517.16
434.767	1552.64
435.143	1549.93
435.518	1560.55
435.894	1589.93
436.269	1605.75
436.644	1638.29
437.02	1645.52
437.395	1652.75
437.77	1667.89
438.145	1689.36
438.52	1708.8
438.895	1727.1
439.271	1726.88
439.646	1783.6
440.021	1822.01
440.395	1787.21
440.77	1793.99
441.145	1789.92
441.52	1852.07
441.895	1861.34
442.27	1872.86
442.645	1855.69
443.019	1902.24
443.394	1866.76
443.769	1902.69
444.143	1873.09
444.518	1949.92
444.892	1943.37
445.267	1954.67
445.641	1952.86
446.016	1948.56
446.39	1960.54
446.764	1990.82
447.139	2018.85
447.513	2028.79
447.887	2003.25
448.262	2058.17
448.636	2052.06
449.01	2099.75
449.384	2086.64
449.758	2137.03
450.132	2115.57
450.506	2142.46
450.88	2139.97
451.254	2194.89
451.628	2210.7
452.002	2247.54
452.376	2239.18
452.75	2251.16
453.123	2276.01
453.497	2293.41
453.871	2322.34
454.244	2357.14
454.618	2370.93
454.992	2419.74
455.365	2419.51
455.739	2483.01
456.112	2477.36
456.486	2499.74
456.859	2530.7
457.232	2595.78
457.606	2583.8
457.979	2620.41
458.352	2645.27
458.725	2675.33
459.099	2701.99
459.472	2747.64
459.845	2749.22
460.218	2758.71
460.591	2812.5
460.964	2834.42
461.337	2859.05
461.71	2938.14
462.083	2948.76
462.456	2988.54
462.829	2979.5
463.201	3036.45
463.574	3087.29
463.947	3092.72
464.32	3138.59
464.692	3178.81
465.065	3198.7
465.438	3219.72
465.81	3267.17
466.183	3351.92
466.555	3371.8
466.928	3446.38
467.3	3394.4
467.672	3472.59
468.045	3551.69
468.417	3586.94
468.789	3589.2
469.161	3647.05
469.534	3717.78
469.906	3752.58
470.278	3788.29
470.65	3864.9
471.022	3905.58
471.394	3974.5
471.766	4011.34
472.138	3997.32
472.51	4101.05
472.882	4157.77
473.253	4183.99
473.625	4294.72
473.997	4329.97
474.369	4398.44
474.74	4418.1
475.112	4524.77
475.484	4551.66
475.855	4683.63
476.227	4712.56
476.598	4826.91
476.97	4827.36
477.341	4957.07
477.713	5030.97
478.084	5010.63
478.455	5163.4
478.827	5218.54
479.198	5339.21
479.569	5393.67
479.94	5506.66
480.311	5560
480.682	5661.24
481.053	5804.06
481.424	5900.33
481.795	5974.22
482.166	6030.04
482.537	6115.23
482.908	6215.35
483.279	6278.17
483.65	6450.82
484.021	6514.77
484.391	6592.51
484.762	6623.47
485.133	6712.51
485.503	6872.05
485.874	6929.22
486.244	7016.45
486.615	7238.82
486.985	7231.82
487.356	7367.41
487.726	7426.84
488.097	7570.11
488.467	7574.63
488.837	7802.2
489.207	7902.98
489.578	7931.46
489.948	8016.2
490.318	8202.19
490.688	8226.82
491.058	8380.49
491.428	8504.1
491.798	8601.05
492.168	8704.55
492.538	8737.54
492.908	8778.44
493.278	9033.58
493.648	9010.07
494.017	9108.15
494.387	9155.61
494.757	9244.19
495.126	9373.91
495.496	9380.69
495.866	9465.88
496.235	9548.36
496.605	9711.07
496.974	9735.03
497.344	9857.06
497.713	9914
498.082	9961.46
498.452	10049.37
498.821	10107.9
499.19	10201.68
499.559	10304.73
499.928	10403.71
500.298	10389.7
500.667	10545.85
501.036	10463.59
501.405	10652.29
501.774	10671.27
502.143	10822
502.512	10870.14
502.88	10936.12
503.249	10976.35
503.618	11041.88
503.987	11068.78
504.356	11233.97
504.724	11228.09
505.093	11342.67
505.462	11311.71
505.83	11443.68
506.199	11577.01
506.567	11711.02
506.936	11663.34
507.304	11851.13
507.672	11871.24
508.041	11969.09
508.409	12137
508.777	12185.58
509.145	12295.41
509.514	12270.78
509.882	12429.19
510.25	12475.52
510.618	12568.17
510.986	12628.74
511.354	12718
511.722	12797.77
512.09	12914.6
512.458	12980.36
512.826	13106.01
513.193	13234.37
513.561	13237.53
513.929	13370.86
514.297	13495.83
514.664	13562.27
515.032	13589.16
515.4	13798.65
515.767	13868.25
516.135	13961.36
516.502	13877.29
516.869	14139.43
517.237	14261.69
517.604	14189.37
517.972	14485.41
518.339	14493.77
518.706	14529.7
519.073	14647.44
519.44	14762.69
519.808	14843.82
520.175	14830.94
520.542	15127.43
520.909	15296.24
521.276	15208.78
521.643	15391.6
522.009	15502.33
522.376	15708.2
522.743	15709.56
523.11	15913.17
523.477	16109.77
523.843	16185.25
524.21	16278.13
524.577	16450.1
524.943	16475.41
525.31	16592.7
525.676	16722.41
526.043	16913.14
526.409	17000.82
526.776	17106.36
527.142	17154.94
527.508	17262.29
527.874	17455.73
528.241	17611.2
528.607	17681.71
528.973	17912.66
529.339	17839.45
529.705	18071.53
530.071	18184.3
530.437	18277.4
530.803	18384.29
531.169	18475.36
531.535	18543.83
531.901	18609.37
532.267	18647.79
532.632	18834.22
532.998	18921
533.364	19014.1
533.73	19118.73
534.095	19268.34
534.461	19277.6
534.826	19369.12
535.192	19544.71
535.557	19668.32
535.923	19615.67
536.288	19704.03
536.653	19839.85
537.019	19726.4
537.384	19906.28
537.749	20039.39
538.114	20021.54
538.479	20065.38
538.845	20165.26
539.21	20239.38
539.575	20400.96
539.94	20405.71
540.305	20573.16
540.67	20548.3
541.034	20643.21
541.399	20725.02
541.764	20791.01
542.129	20871
542.494	20892.93
542.858	21047.05
543.223	21043.2
543.587	21236.64
543.952	21184.22
544.316	21242.97
544.681	21355.06
545.045	21436.64
545.41	21566.58
545.774	21628.05
546.138	21705.56
546.503	21760.7
546.867	21735.61
547.231	22018.77
547.595	21981.48
547.959	22087.92
548.324	22032.56
548.688	22091.09
549.052	22294.7
549.416	22242.95
549.779	22376.73
550.143	22512.32
550.507	22660.79
550.871	22722.26
551.235	22669.6
551.599	22912.99
551.962	22984.4
552.326	23061
552.689	23079.08
553.053	23009.71
553.417	23175.8
553.78	23444.27
554.143	23357.04
554.507	23511.84
554.87	23603.36
555.234	23790.93
555.597	23755.9
555.96	23788.89
556.323	23932.62
556.686	23971.94
557.05	24168.55
557.413	24330.8
557.776	24385.71
558.139	24570.79
558.502	24667.52
558.865	24587.07
559.228	24704.35
559.59	24915.42
559.953	24873.84
560.316	25337.1
560.679	25171
561.041	25374.62
561.404	25498.91
561.767	25652.57
562.129	25575.06
562.492	25804.21
562.854	25867.71
563.217	25889.4
563.579	26043.07
563.941	26129.62
564.304	26373.69
564.666	26542.04
565.028	26424.53
565.39	26540.69
565.753	26813.9
566.115	26860.68
566.477	26984.06
566.839	27146.09
567.201	27292.53
567.563	27297.5
567.925	27467.89
568.287	27469.48
568.648	27538.4
569.01	27720.32
569.372	27896.13
569.734	27862.46
570.095	27963.25
570.457	28171.15
570.819	28125.28
571.18	28229.46
571.542	28328.44
571.903	28368.66
572.265	28534.08
572.626	28607.07
572.987	28572.05
573.349	28699.05
573.71	28981.98
574.071	29013.84
574.432	29148.08
574.794	29275.98
575.155	29156.44
575.516	29106.72
575.877	29364.57
576.238	29424.9
576.599	29429.65
576.96	29569.08
577.32	29621.28
577.681	29593.26
578.042	29665.8
578.403	29642.75
578.763	29788.28
579.124	29813.82
579.485	29875.29
579.845	29900.82
580.206	29882.07
580.566	29924.33
580.927	29842.29
581.287	30070.09
581.648	29966.81
582.008	30167.94
582.368	30067.15
582.728	30183.75
583.089	30156.64
583.449	30154.83
583.809	30247.71
584.169	30263.07
584.529	30248.84
584.889	30431.43
585.249	30252.45
585.609	30236.86
585.969	30439.79
586.329	30301.27
586.688	30322.96
587.048	30372.22
587.408	30372.68
587.768	30279.35
588.127	30331.77
588.487	30280.47
588.846	30495.16
589.206	30266.69
589.565	30260.81
589.925	30390.75
590.284	30431.43
590.643	30365.22
591.003	30463.3
591.362	30568.6
591.721	30354.15
592.08	30485.67
592.44	30621.48
592.799	30573.35
593.158	30421.49
593.517	30620.35
593.876	30499.68
594.235	30491.32
594.593	30565.21
594.952	30664.19
595.311	30597.08
595.67	30576.06
596.029	30741.03
596.387	30719.56
596.746	30862.15
597.104	30673.46
597.463	30621.26
597.822	30729.05
598.18	30697.64
598.538	30606.12
598.897	30736.51
599.255	30639.79
599.613	31073.22
599.972	30868.48
600.33	31016.95
600.688	30875.94
601.046	30907.13
601.404	31056.05
601.762	30920.68
602.12	31121.58
602.478	31189.6
602.836	31082.94
603.194	31055.82
603.552	31108.7
603.91	30999.33
604.268	31245.2
604.625	31093.33
604.983	31074.13
605.341	31060.57
605.698	31277.51
606.056	31320.9
606.413	31453.78
606.771	31348.02
607.128	31384.4
607.485	31326.78
607.843	31408.35
608.2	31488.58
608.557	31404.51
608.914	31467.34
609.272	31462.36
609.629	31674.56
609.986	31670.72
610.343	31576.26
610.7	31834.11
611.057	31755.24
611.414	31750.49
611.771	31774.9
612.127	32028.45
612.484	31854.9
612.841	32020.54
613.198	31947.32
613.554	31976.7
613.911	32097.15
614.267	32008.57
614.624	31958.4
614.98	31996.14
615.337	32298.73
615.693	32098.28
616.05	32129.92
616.406	32338.05
616.762	32237.03
617.118	32174.89
617.475	32185.51
617.831	32200.65
618.187	32224.15
618.543	32250.82
618.899	32502.56
619.255	32354.09
619.611	32290.59
619.967	32364.49
620.323	32554.99
620.678	32387.54
621.034	32358.16
621.39	32347.31
621.746	32439.51
622.101	32676.8
622.457	32436.8
622.812	32312.51
623.168	32437.48
623.523	32550.25
623.879	32647.19
624.234	32334.43
624.589	32540.53
624.945	32541.66
625.3	32572.84
625.655	32600.87
626.01	32526.07
626.365	32537.59
626.72	32503.92
627.075	32462.11
627.43	32527.42
627.785	32467.99
628.14	32531.26
628.495	32497.82
628.85	32401.32
629.205	32267.32
629.559	32509.79
629.914	32342.12
630.269	32407.2
630.623	32346.18
630.978	32307.54
631.332	32286.98
631.687	32258.73
632.041	32211.05
632.396	32288.56
632.75	32073.87
633.104	32165.17
633.459	32068.9
633.813	32081.56
634.167	32111.16
634.521	32106.42
634.875	32027.32
635.229	32001.56
635.583	31739.42
635.937	31774.45
636.291	31859.64
636.645	31810.83
636.999	31797.95
637.352	31791.85
637.706	31687.67
638.06	31702.81
638.413	31624.85
638.767	31484.06
639.121	31566.99
639.474	31377.85
639.828	31401.8
640.181	31508.92
640.534	31493.32
640.888	31294.69
641.241	31246.55
641.594	31262.37
641.947	31316.38
642.301	31288.58
642.654	31231.18
643.007	31130.62
643.36	31088.82
643.713	31010.85
644.066	31172.43
644.419	30857.41
644.771	30862.83
645.124	30431.66
645.477	30431.43
645.83	30173.36
646.182	30147.15
646.535	29880.49
646.888	30007.04
647.24	29799.13
647.593	29915.96
647.945	29804.56
648.298	29704.22
648.65	29764.1
649.002	29596.65
649.355	29740.6
649.707	29849.53
650.059	29791.22
650.411	30264.43
650.763	30244.09
651.115	30464.2
651.467	30306.69
651.819	30364.99
652.171	30213.36
652.523	30156.18
652.875	30223.3
653.227	30072.12
653.578	30239.35
653.93	30055.85
654.282	30012.23
654.633	29953.48
654.985	30037.54
655.337	30034.15
655.688	29994.61
656.039	30042.97
656.391	29729.76
656.742	29851.79
657.094	29841.62
657.445	29906.93
657.796	29803.65
658.147	29800.26
658.498	29750.55
658.849	29813.82
659.2	29838.45
659.551	29706.48
659.902	29834.61
660.253	29742.41
660.604	29697.44
660.955	29574.96
661.306	29718
661.656	29598.01
662.007	29568.63
662.358	29620.61
662.708	29652.69
663.059	29463.77
663.409	29317.56
663.76	29564.34
664.11	29469.2
664.461	29585.58
664.811	29550.55
665.161	29444.11
665.511	29422.19
665.862	29437.11
666.212	29498.35
666.562	29509.87
666.912	29539.7
667.262	29301.52
667.612	29321.18
667.962	29373.38
668.312	29268.3
668.662	29543.32
669.011	29284.57
669.361	29263.33
669.711	29301.29
670.06	29178.58
670.41	29206.83
670.76	29123.67
671.109	29222.88
671.459	29090
671.808	29060.39
672.157	29078.02
672.507	28947.18
672.856	28917.35
673.205	28973.39
673.554	29015.65
673.904	28989.44
674.253	29071.69
674.602	28981.75
674.951	28494.76
675.3	28375.44
675.649	28814.52
675.998	28872.6
676.346	28832.83
676.695	28902.88
677.044	28646.39
677.393	28791.7
677.741	28847.29
678.09	28775.66
678.438	28664.92
678.787	28679.39
679.135	28643.91
679.484	28467.87
679.832	28604.59
680.181	28481.88
680.529	28533.18
680.877	28416.12
681.225	28386.29
681.573	28563.01
681.922	28359.62
682.27	28215.22
682.618	28361.43
682.966	28278.27
683.314	28337.25
683.661	28102.23
684.009	28003.7
684.357	28033.3
684.705	27873.31
685.053	27966.19
685.4	27912.85
685.748	27729.36
686.095	27792.4
686.443	27671.28
686.79	27632.86
687.138	27659.3
687.485	27602.58
687.832	27422.7
688.18	27554.22
688.527	27468.57
688.874	27424.05
689.221	27316.71
689.568	27182.03
689.915	27078.75
690.262	27190.16
690.609	26983.16
690.956	26795.59
691.303	26863.62
691.65	26696.84
691.997	26813.45
692.344	26640.34
692.69	26583.17
693.037	26591.08
693.383	26404.87
693.73	26443.74
694.077	26295.5
694.423	26273.8
694.769	26037.87
695.116	25944.09
695.462	26010.53
695.808	25988.16
696.155	25929.85
696.501	25737.09
696.847	25760.82
697.193	25695.51
697.539	25772.34
697.885	25584.33
698.231	25417.1
698.577	25398.8
698.923	25485.12
699.269	25292.58
699.614	25191.8
699.96	25094.4
700.306	25185.92
700.651	25018.01
700.997	24869.77
701.342	24980.73
701.688	24846.72
702.033	24753.16
702.379	24807.4
702.724	24627.74
703.069	24760.62
703.415	24463.45
703.76	24470.01
704.105	24538.03
704.45	24475.66
704.795	24253.97
705.14	24173.74
705.485	24139.17
705.83	24181.88
706.175	24088.1
706.52	24007.19
706.865	24000.87
707.209	23926.97
707.554	23858.5
707.899	23964.93
708.243	23714.32
708.588	23749.8
708.932	23592.52
709.277	23605.62
709.621	23542.8
709.966	23331.51
710.31	23438.17
710.654	23117.27
710.998	23268
711.342	23120.66
711.687	23166.54
712.031	23108.01
712.375	22884.29
712.719	22938.97
713.063	22848.81
713.407	22930.16
713.75	22751.63
714.094	22902.36
714.438	22776.04
714.782	22748.92
715.125	22589.15
715.469	22648.59
715.812	22454.69
716.156	22384.64
716.499	22457.63
716.843	22527.46
717.186	22303.51
717.53	22318.2
717.873	22293.34
718.216	22254.92
718.559	22213.34
718.902	21994.14
719.246	22067.13
719.589	21952.33
719.932	21964.99
720.275	21906.91
720.617	21896.97
720.96	21881.15
721.303	21736.52
721.646	21880.24
721.989	21640.02
722.331	21820.36
722.674	21669.4
723.016	21757.99
723.359	21599.8
723.701	21621.27
724.044	21449.52
724.386	21413.14
724.729	21475.73
725.071	21360.94
725.413	21405.45
725.755	21356.87
726.097	21432.57
726.439	21274.38
726.782	21212.24
727.124	21223.99
727.465	21181.96
727.807	21259.24
728.149	21094.73
728.491	21039.59
728.833	21057.89
729.175	20979.25
729.516	20927.05
729.858	20965.01
730.199	20948.29
730.541	20905.58
730.882	20827.84
731.224	20856.09
731.565	20748.97
731.906	20755.53
732.248	20783.1
732.589	20639.82
732.93	20507.85
733.271	20628.07
733.612	20571.8
733.953	20487.51
734.294	20506.95
734.635	20439.83
734.976	20481.41
735.317	20322.09
735.658	20294.52
735.999	20350.57
736.339	20216.56
736.68	20399.15
737.021	20265.6
737.361	20160.97
737.702	20215.65
738.042	20028.99
738.383	20151.93
738.723	20145.83
739.063	19995.1
739.404	20118.71
739.744	20013.17
740.084	19875.78
740.424	19999.84
740.764	19883.23
741.104	19915.55
741.444	19931.14
741.784	19822.22
742.124	19793.75
742.464	19717.14
742.804	19730.47
743.143	19656.57
743.483	19699.06
743.823	19594.2
744.162	19502.91
744.502	19554.2
744.841	19550.14
745.181	19517.14
745.52	19565.73
745.86	19440.76
746.199	19336.58
746.538	19419.07
746.877	19452.74
747.216	19321.67
747.556	19305.62
747.895	19305.62
748.234	19300.42
748.573	19064.27
748.911	19194.44
749.25	19044.39
749.589	19073.99
749.928	19017.49
750.267	18989.7
750.605	18894.11
750.944	18895.24
751.283	18811.4
751.621	18925.07
751.96	18707.9
752.298	18768.01
752.636	18823.6
752.975	18615.7
753.313	18556.26
753.651	18647.79
753.989	18506.77
754.327	18520.33
754.666	18477.62
755.004	18440.11
755.342	18482.37
755.679	18434.68
756.017	18358.3
756.355	18370.05
756.693	18285.31
757.031	18320.11
757.368	18157.4
757.706	18060.01
758.044	18135.48
758.381	18064.3
758.719	17987.46
759.056	17957.64
759.394	17891.65
759.731	17799.67
760.068	17800.8
760.405	17643.29
760.743	17620.02
761.08	17719.22
761.417	17552
761.754	17491.21
762.091	17478.1
762.428	17391.77
762.765	17300.25
763.102	17380.25
763.438	17263.64
763.775	17199.69
764.112	17152.68
764.449	17177.99
764.785	17074.04
765.122	16980.03
765.458	16919.92
765.795	16942.29
766.131	16865.69
766.467	16871.11
766.804	16684.67
767.14	16663.66
767.476	16670.66
767.812	16550.21
768.148	16548.41
768.485	16497.79
768.821	16359.71
769.157	16392.25
769.492	16278.13
769.828	16284.91
770.164	16157.46
770.5	16153.39
770.836	16211.24
771.171	15998.82
771.507	15994.75
771.842	15848.31
772.178	15875.2
772.513	15827.75
772.849	15721.54
773.184	15649.9
773.519	15670.92
773.855	15564.7
774.19	15475.67
774.525	15465.72
774.86	15485.38
775.195	15394.54
775.53	15324.71
775.865	15341.21
776.2	15178.5
776.535	15041.55
776.87	15019.63
777.205	14958.84
777.539	14954.32
777.874	14940.09
778.209	14707.78
778.543	14777.38
778.878	14627.78
779.212	14691.51
779.547	14630.72
779.881	14564.73
780.215	14515.47
780.55	14601.34
780.884	14388.69
781.218	14422.59
781.552	14393.89
781.886	14266.21
782.22	14185.08
782.554	14135.36
782.888	14001.36
783.222	13984.63
783.556	13966.1
783.889	13893.56
784.223	13829.83
784.557	13834.58
784.89	13866.22
785.224	13708.03
785.557	13705.54
785.891	13694.24
786.224	13600.01
786.558	13655.15
786.891	13515.27
787.224	13480.01
787.557	13398.66
787.891	13355.04
788.224	13402.73
788.557	13343.52
788.89	13276.85
789.223	13257.87
789.556	13182.62
789.888	13148.95
790.221	13131.77
790.554	12943.53
790.887	13053.81
791.219	12901.5
791.552	12905.11
791.884	12885.45
792.217	12743.76
792.549	12721.61
792.882	12699.92
793.214	12611.34
793.546	12712.35
793.879	12472.13
794.211	12515.29
794.543	12488.85
794.875	12439.59
795.207	12471.23
795.539	12360.27
795.871	12419.48
796.203	12253.15
796.535	12207.28
796.867	12198.01
797.198	12130.67
797.53	12192.59
797.862	12028.07
798.193	12032.82
798.525	12097.9
798.856	12013.16
799.188	11799.15
799.519	11811.58
799.85	11765.93
800.182	11838.02
800.513	11746.05
800.844	11673.05
801.175	11714.41
801.506	11668.08
801.837	11654.98
802.168	11577.01
802.499	11561.42
802.83	11465.6
803.161	11501.76
803.491	11487.75
803.822	11386.51
804.153	11390.35
804.483	11370.01
804.814	11226.96
805.145	11260.64
805.475	11315.1
805.805	11254.99
806.136	11221.77
806.466	11206.4
806.796	11168.66
807.126	11063.13
807.457	11048.66
807.787	11047.31
808.117	11049.79
808.447	11001.89
808.777	10978.38
809.107	10912.62
809.436	10964.6
809.766	10872.4
810.096	10842.57
810.426	10795.34
810.755	10755.34
811.085	10767.09
811.414	10687.77
811.744	10645.74
812.073	10640.99
812.403	10592.63
812.732	10540.43
813.061	10564.61
813.39	10468.34
813.719	10505.18
814.049	10494.55
814.378	10462.47
814.707	10429.02
815.036	10419.3
815.365	10414.78
815.693	10320.77
816.022	10299.98
816.351	10365.07
816.68	10165.75
817.008	10207.33
817.337	10131.17
817.665	10100.21
817.994	10093.66
818.322	10104.96
818.651	10022.7
818.979	10076.26
819.307	10132.98
819.636	10071.29
819.964	9927.34
820.292	10014.12
820.62	10026.32
820.948	9862.71
821.276	10001.91
821.604	9905.19
821.932	9928.02
822.259	9902.71
822.587	9898.19
822.915	9866.1
823.243	9951.74
823.57	9853.22
823.898	9899.77
824.225	9817.51
824.553	9870.16
824.88	9879.43
825.207	9865.64
825.535	9870.84
825.862	9866.1
826.189	9873.33
826.516	9940.9
826.843	9905.42
827.17	9940.67
827.497	9928.24
827.824	9897.28
828.151	9925.98
828.478	9858.19
828.805	9954.91
829.131	9865.64
829.458	9882.82
829.785	9774.35
830.111	9897.96
830.438	9887.79
830.764	9860.22
831.09	9926.21
831.417	9829.26
831.743	9857.51
832.069	9815.7
832.395	9820
832.722	9895.02
833.048	9800.11
833.374	9776.38
833.7	9798.53
834.026	9801.69
834.351	9780.45
834.677	9837.4
835.003	9800.34
835.329	9716.95
835.654	9758.3
835.98	9691.64
836.306	9698.87
836.631	9700.68
836.956	9714.24
837.282	9636.05
837.607	9645.76
837.932	9626.33
838.258	9612.54
838.583	9596.27
838.908	9540.46
839.233	9587.23
839.558	9494.13
839.883	9515.15
840.208	9453
840.533	9481.02
840.858	9548.36
841.182	9511.76
841.507	9456.39
841.832	9391.31
842.156	9391.31
842.481	9438.09
842.805	9365.09
843.13	9375.26
843.454	9295.94
843.778	9283.51
844.103	9271.54
844.427	9238.09
844.751	9242.38
845.075	9180.01
845.399	9290.97
845.723	9185.89
846.047	9154.48
846.371	9068.6
846.695	9060.02
847.019	8986.8
847.343	8943.41
847.666	8988.15
847.99	8909.74
848.313	8931.21
848.637	8873.13
848.96	8813.47
849.284	8795.84
849.607	8639.01
849.931	8764.43
850.254	8602.85
850.577	8597.88
850.9	8534.61
851.223	8534.15
851.546	8439.02
851.869	8458.45
852.192	8522.4
852.515	8420.03
852.838	8321.96
853.161	8342.52
853.483	8327.38
853.806	8300.49
854.129	8289.87
854.451	8321.5
854.774	8221.17
855.096	8192.02
855.419	8145.69
855.741	8188.4
856.063	8104.11
856.385	8127.84
856.708	8108.63
857.03	8047.39
857.352	8062.98
857.674	8011.46
857.996	7938.46
858.318	7923.32
858.64	7907.73
858.961	7841.29
859.283	7903.89
859.605	7802.2
859.926	7831.12
860.248	7795.87
860.57	7779.15
860.891	7805.59
861.212	7771.69
861.534	7730.79
861.855	7712.48
862.176	7745.02
862.498	7745.7
862.819	7706.15
863.14	7641.97
863.461	7656.44
863.782	7628.87
864.103	7604.01
864.424	7602.2
864.745	7569.43
865.065	7583.44
865.386	7567.17
865.707	7499.15
866.027	7631.35
866.348	7507.51
866.668	7472.94
866.989	7581.41
867.309	7479.94
867.63	7450.11
867.95	7423.22
868.27	7377.57
868.59	7443.79
868.91	7428.87
869.23	7448.76
869.55	7411.25
869.87	7345.26
870.19	7376.44
870.51	7400.62
870.83	7403.11
871.15	7335.77
871.469	7298.71
871.789	7399.72
872.109	7291.25
872.428	7298.03
872.748	7284.92
873.067	7280.18
873.386	7229.56
873.706	7245.83
874.025	7194.98
874.344	7191.59
874.663	7165.15
874.982	7200.63
875.301	7190.46
875.62	7121.08
875.939	7150.24
876.258	7151.14
876.577	7117.47
876.896	7130.58
877.214	7133.74
877.533	7040.86
877.852	7072.72
878.17	7064.59
878.489	7054.87
878.807	7008.77
879.125	7007.87
879.444	6999.73
879.762	7015.78
880.08	6933.29
880.398	6970.81
880.716	6943.69
881.034	6939.17
881.352	6932.16
881.67	6963.12
881.988	6905.27
882.306	6892.16
882.624	6866.85
882.941	6799.96
883.259	6801.54
883.577	6787.53
883.894	6828.89
884.212	6778.72
884.529	6790.92
884.846	6734.65
885.164	6753.64
885.481	6691.72
885.798	6724.03
886.115	6682.45
886.432	6668.67
886.75	6648.55
887.067	6633.41
887.383	6674.54
887.7	6635.45
888.017	6562
888.334	6599.29
888.651	6558.84
888.967	6579.18
889.284	6505.73
889.6	6530.82
889.917	6444.04
890.233	6468.67
890.55	6414.89
890.866	6482.91
891.182	6432.06
891.498	6422.12
891.815	6371.95
892.131	6411.27
892.447	6350.26
892.763	6331.27
893.079	6323.14
893.395	6305.74
893.71	6283.59
894.026	6282.01
894.342	6194.1
894.657	6214.89
894.973	6188.23
895.289	6196.14
895.604	6152.3
895.92	6160.21
896.235	6134.9
896.55	6123.6
896.865	6139.87
897.181	6060.32
897.496	6041.56
897.811	6024.62
898.126	5997.05
898.441	5981.68
898.756	5943.94
899.071	5926.09
899.386	5980.77
899.7	5898.07
900.015	5882.7
900.33	5848.58
900.644	5826.43
900.959	5824.39
901.273	5818.07
901.588	5805.41
901.902	5762.25
902.216	5707.11
902.531	5734.23
902.845	5706.43
903.159	5689.48
903.473	5637.96
903.787	5632.31
904.101	5619.2
904.415	5621.69
904.729	5563.61
905.042	5567.23
905.356	5606.32
905.67	5550.73
905.984	5535.59
906.297	5486.32
906.611	5480.68
906.924	5445.65
907.237	5448.13
907.551	5460.79
907.864	5323.17
908.177	5354.58
908.491	5342.37
908.804	5381.24
909.117	5280.91
909.43	5323.84
909.743	5214.92
910.056	5233.22
910.368	5186.22
910.681	5220.12
910.994	5194.13
911.307	5140.57
911.619	5068.71
911.932	5155.03
912.244	5080.91
912.557	5071.65
912.869	5037.97
913.181	5055.83
913.494	5055.15
913.806	4972.89
914.118	4972.21
914.43	4947.13
914.742	4947.58
915.054	4908.26
915.366	4877.08
915.678	4909.84
915.99	4872.1
916.302	4814.25
916.613	4803.4
916.925	4842.05
917.236	4803.18
917.548	4767.47
917.859	4814.03
918.171	4745.1
918.482	4746.46
918.794	4680.24
919.105	4675.95
919.416	4630.53
919.727	4647.48
920.038	4640.02
920.349	4589.85
920.66	4611.32
920.971	4598.21
921.282	4548.95
921.593	4513.69
921.903	4527.93
922.214	4485.22
922.525	4505.79
922.835	4436.86
923.146	4444.54
923.456	4414.94
923.767	4424.88
924.077	4404.55
924.387	4405.9
924.697	4383.08
925.008	4337.65
925.318	4326.36
925.628	4263.31
925.938	4242.52
926.248	4249.52
926.558	4208.39
926.867	4261.72
927.177	4229.86
927.487	4187.38
927.796	4132.46
928.106	4131.56
928.416	4094.27
928.725	4150.99
929.034	4134.5
929.344	4104.89
929.653	4076.87
929.962	4042.29
930.271	4010.21
930.581	3948.06
930.89	3986.93
931.199	3996.19
931.508	3953.03
931.817	3968.62
932.125	3948.74
932.434	3918.46
932.743	3896.99
933.051	3919.36
933.36	3906.03
933.669	3823.77
933.977	3809.31
934.286	3812.47
934.594	3820.83
934.902	3792.13
935.21	3795.97
935.519	3765.69
935.827	3765.92
936.135	3771.34
936.443	3712.81
936.751	3693.38
937.059	3655.64
937.367	3704.22
937.674	3661.06
937.982	3637.79
938.29	3643.66
938.597	3642.53
938.905	3594.85
939.213	3600.05
939.52	3556.21
939.827	3585.81
940.135	3545.81
940.442	3530.67
940.749	3519.6
941.056	3537.45
941.363	3501.52
941.67	3449.77
941.977	3441.86
942.284	3449.77
942.591	3410.9
942.898	3410.22
943.205	3400.96
943.511	3395.76
943.818	3414.97
944.125	3311.47
944.431	3313.95
944.738	3330.22
945.044	3355.31
945.35	3298.36
945.657	3282.09
945.963	3257
946.269	3250.45
946.575	3228.3
946.881	3212.94
947.187	3198.7
947.493	3178.81
947.799	3199.61
948.105	3167.97
948.41	3129.1
948.716	3165.71
949.022	3130
949.327	3129.78
949.633	3060.17
949.938	3061.98
950.244	3092.49
950.549	3050
950.854	3015.88
951.16	3051.13
951.465	3039.16
951.77	3033.96
952.075	2993.06
952.38	2987.18
952.685	2989.44
952.99	2989.22
953.294	2945.83
953.599	2939.72
953.904	2929.78
954.209	2904.92
954.513	2891.36
954.818	2902.89
955.122	2867.18
955.426	2873.06
955.731	2842.78
956.035	2876.9
956.339	2833.51
956.643	2846.62
956.948	2803.23
957.252	2792.38
957.556	2782.67
957.86	2786.96
958.163	2746.51
958.467	2772.27
958.771	2758.94
959.075	2746.51
959.378	2744.48
959.682	2727.3
959.985	2684.36
960.289	2639.85
960.592	2676.68
960.896	2690.69
961.199	2664.7
961.502	2676.23
961.805	2596.68
962.108	2591.71
962.411	2660.64
962.714	2591.26
963.017	2603.01
963.32	2613.41
963.623	2599.62
963.926	2591.03
964.228	2593.97
964.531	2540.41
964.833	2549.23
965.136	2522.33
965.438	2518.72
965.741	2485.27
966.043	2492.28
966.345	2472.62
966.648	2485.5
966.95	2476.01
967.252	2436.91
967.554	2451.83
967.856	2443.69
968.158	2419.74
968.46	2410.25
968.761	2393.75
969.063	2395.11
969.365	2378.16
969.666	2384.03
969.968	2317.82
970.269	2350.81
970.571	2362.56
970.872	2330.25
971.174	2329.35
971.475	2307.88
971.776	2319.18
972.077	2294.54
972.378	2283.02
972.679	2281.21
972.98	2276.92
973.281	2260.42
973.582	2239.4
973.883	2240.31
974.183	2260.87
974.484	2250.93
974.785	2184.26
975.085	2215
975.386	2188.11
975.686	2177.71
975.986	2151.27
976.287	2154.21
976.587	2147.2
976.887	2138.84
977.187	2135.23
977.487	2116.24
977.787	2118.05
978.087	2111.5
978.387	2147.88
978.687	2111.5
978.987	2119.18
979.286	2082.12
979.586	2066.3
979.885	2066.3
980.185	2039.41
980.484	2043.25
980.784	2031.95
981.083	2050.26
981.382	2037.83
981.682	2025.4
981.981	1967.77
982.28	2004.16
982.579	1947.43
982.878	1990.37
983.177	1975.68
983.475	1958.06
983.774	1941.11
984.073	1959.86
984.372	1928
984.67	1924.16
984.969	1934.78
985.267	1903.37
985.566	1881.45
985.864	1885.29
986.162	1881.9
986.461	1888.68
986.759	1872.63
987.057	1860.66
987.355	1857.04
987.653	1845.74
987.951	1833.99
988.249	1840.54
988.547	1844.16
988.844	1827.89
989.142	1798.96
989.44	1776.59
989.737	1769.81
990.035	1783.6
990.332	1777.04
990.63	1777.04
990.927	1732.07
991.224	1758.74
991.521	1757.84
991.819	1746.54
992.116	1712.19
992.413	1723.49
992.71	1715.35
993.006	1699.31
993.303	1694.79
993.6	1667.22
993.897	1717.38
994.193	1690.04
994.49	1658.18
994.787	1660.21
995.083	1666.09
995.379	1638.97
995.676	1636.93
995.972	1629.48
996.268	1621.34
996.565	1645.97
996.861	1605.75
997.157	1618.86
997.453	1635.13
997.749	1595.13
998.044	1609.59
998.34	1584.05
998.636	1593.55
998.932	1559.65
999.227	1548.35
999.523	1541.34
999.818	1549.93
1000.114	1528.24
1000.409	1509.48
1000.704	1501.57
1001	1494.57
1001.295	1525.52
1001.59	1518.97
1001.885	1475.36
1002.18	1501.12
1002.475	1485.07
1002.77	1481.91
1003.065	1459.31
1003.359	1446.43
1003.654	1456.37
1003.949	1478.29
1004.243	1427.9
1004.538	1412.08
1004.832	1420.89
1005.127	1401.23
1005.421	1428.8
1005.715	1389.71
1006.009	1389.03
1006.304	1377.73
1006.598	1392.65
1006.892	1381.35
1007.186	1358.52
1007.48	1376.83
1007.773	1343.83
1008.067	1352.42
1008.361	1299.09
1008.655	1317.39
1008.948	1310.16
1009.242	1332.54
1009.535	1306.77
1009.829	1285.08
1010.122	1301.8
1010.415	1315.13
1010.708	1308.81
1011.001	1286.66
1011.295	1277.17
1011.588	1251.86
1011.881	1253.67
1012.173	1245.08
1012.466	1223.84
1012.759	1220.67
1013.052	1236.27
1013.344	1201.24
1013.637	1216.83
1013.93	1184.52
1014.222	1201.69
1014.514	1189.71
1014.807	1204.4
1015.099	1205.99
1015.391	1169.38
1015.683	1176.38
1015.976	1181.13
1016.268	1170.73
1016.56	1149.26
1016.851	1148.59
1017.143	1140.9
1017.435	1146.78
1017.727	1132.54
1018.018	1113.56
1018.31	1076.5
1018.602	1134.8
1018.893	1095.03
1019.185	1106.33
1019.476	1084.86
1019.767	1081.92
1020.058	1097.51
1020.35	1085.31
1020.641	1053.45
1020.932	1045.31
1021.223	1079.21
1021.514	1050.51
1021.804	1029.49
1022.095	1023.17
1022.386	1023.62
1022.677	1050.28
1022.967	1032.2
1023.258	1024.97
1023.548	1016.39
1023.839	1015.71
1024.129	1018.42
1024.419	1013.9
1024.709	963.73
1025	957.18
1025.29	982.94
1025.58	936.84
1025.87	948.82
1026.16	933.68
1026.449	950.62
1026.739	946.78
1027.029	955.37
1027.319	937.97
1027.608	924.86
1027.898	905.43
1028.187	911.98
1028.477	902.94
1028.766	897.74
1029.055	895.26
1029.344	890.74
1029.634	907.46
1029.923	897.52
1030.212	876.5
1030.501	864.3
1030.79	865.66
1031.078	882.6
1031.367	857.52
1031.656	876.5
1031.945	846.22
1032.233	838.54
1032.522	858.65
1032.81	817.75
1033.099	832.21
1033.387	817.97
1033.675	818.88
1033.963	810.52
1034.251	817.75
1034.54	818.65
1034.828	762.16
1035.116	808.93
1035.403	813
1035.691	780.01
1035.979	801.02
1036.267	772.78
1036.554	792.44
1036.842	765.77
1037.129	787.01
1037.417	762.61
1037.704	743.4
1037.992	764.19
1038.279	738.2
1038.566	763.74
1038.853	763.74
1039.14	763.74
