Data from White_reflection_standard_FLMS001491_041.txt Node
Date: Tue Feb 07 10:32:03 GMT 2017
User: dcchb
Spectrometer: FLMS00149
Trigger mode: 0
Integration Time (sec): 2.000000E-2
Scans to average: 10
Electric dark correction enabled: true
Nonlinearity correction enabled: false
Boxcar width: 0
XAxis mode: Wavelengths
Number of Pixels in Spectrum: 2048
>>>>>Begin Spectral Data<<<<<
341.393	-20.68
341.776	-20.68
342.16	-20.68
342.543	-78.53
342.927	-82.14
343.31	-69.72
343.693	-79.66
344.077	-48.7
344.46	-51.64
344.843	-68.13
345.226	-35.59
345.61	-16.38
345.993	-24.07
346.376	1.69
346.759	14.58
347.142	24.52
347.525	41.92
347.908	49.38
348.291	62.26
348.674	92.77
349.057	106.78
349.44	121.92
349.823	137.51
350.206	147.68
350.588	228.58
350.971	255.47
351.354	264.96
351.737	287.79
352.119	277.85
352.502	305.19
352.884	321.91
353.267	304.51
353.65	343.61
354.032	341.35
354.414	351.97
354.797	361.46
355.179	352.42
355.562	402.59
355.944	380.67
356.326	365.3
356.709	389.48
357.091	379.09
357.473	414.11
357.855	391.52
358.238	416.83
358.62	382.25
359.002	397.39
359.384	401.91
359.766	387.22
360.148	398.75
360.53	416.15
360.912	415.92
361.294	390.39
361.676	396.49
362.057	422.7
362.439	392.42
362.821	424.96
363.203	399.88
363.584	412.08
363.966	416.83
364.348	393.1
364.729	405.75
365.111	388.8
365.493	403.94
365.874	414.57
366.256	407.11
366.637	412.53
367.019	406.66
367.4	437.62
367.781	421.8
368.163	409.14
368.544	409.14
368.925	437.39
369.306	417.5
369.688	410.27
370.069	440.1
370.45	419.99
370.831	422.47
371.212	415.92
371.593	431.06
371.974	430.61
372.355	423.15
372.736	426.32
373.117	438.52
373.498	445.3
373.879	450.72
374.26	443.72
374.641	429.25
375.021	437.62
375.402	469.03
375.783	461.34
376.163	511.96
376.544	493.89
376.925	479.65
377.305	483.49
377.686	488.46
378.066	515.13
378.447	505.41
378.827	494.79
379.208	487.33
379.588	514.68
379.968	496.15
380.349	505.41
380.729	526.65
381.109	526.88
381.489	558.52
381.87	530.27
382.25	549.25
382.63	557.61
383.01	573.88
383.39	551.96
383.77	554.22
384.15	594
384.53	570.72
384.91	593.54
385.29	604.16
385.67	570.95
386.049	639.19
386.429	636.71
386.809	610.04
387.189	645.52
387.568	619.08
387.948	624.05
388.328	652.3
388.707	643.26
389.087	673.32
389.466	658.63
389.846	663.82
390.225	691.17
390.605	662.92
390.984	704.28
391.363	706.31
391.743	728.68
392.122	733.88
392.501	714.44
392.881	719.87
393.26	739.53
393.639	751.05
394.018	757.38
394.397	766.65
394.776	767.1
395.155	772.3
395.534	786.98
395.913	799.64
396.292	833.54
396.671	844.84
397.05	817.49
397.429	823.14
397.808	837.15
398.186	823.37
398.565	858.17
398.944	855.91
399.323	892.52
399.701	870.37
400.08	863.59
400.458	883.93
400.837	923.93
401.215	899.3
401.594	941.33
401.972	934.33
402.351	951.5
402.729	971.84
403.107	995.12
403.486	979.52
403.864	965.96
404.242	1012.06
404.62	997.83
404.999	1023.81
405.377	1035.79
405.755	1051.84
406.133	1049.58
406.511	1083.93
406.889	1056.13
407.267	1101.33
407.645	1117.82
408.023	1142.23
408.401	1147.2
408.779	1153.08
409.156	1189.01
409.534	1205.96
409.912	1191.95
410.29	1239.85
410.667	1253.64
411.045	1247.31
411.422	1283.02
411.8	1295.45
412.178	1332.06
412.555	1342.22
412.933	1362.56
413.31	1377.7
413.687	1390.58
414.065	1397.36
414.442	1431.04
414.819	1438.95
415.197	1476.01
415.574	1476.46
415.951	1463.13
416.328	1504.48
416.705	1536.12
417.082	1518.72
417.46	1556.46
417.837	1561.2
418.214	1580.64
418.591	1630.58
418.967	1612.05
419.344	1642.78
419.721	1675.32
420.098	1680.75
420.475	1708.32
420.852	1696.34
421.228	1727.75
421.605	1734.3
421.982	1788.99
422.358	1775.89
422.735	1796.22
423.111	1801.65
423.488	1824.7
423.864	1828.99
424.241	1871.02
424.617	1866.28
424.994	1925.94
425.37	1942.66
425.746	1941.3
426.123	1972.26
426.499	2008.2
426.875	2047.52
427.251	2062.66
427.627	2090.68
428.003	2131.58
428.379	2166.38
428.756	2207.96
429.132	2195.08
429.507	2251.35
429.883	2250.22
430.259	2266.72
430.635	2288.64
431.011	2343.1
431.387	2380.16
431.763	2438.01
432.138	2457.22
432.514	2526.83
432.89	2499.93
433.265	2575.19
433.641	2620.84
434.016	2599.37
434.392	2643.89
434.767	2701.51
435.143	2741.28
435.518	2790.1
435.894	2824.67
436.269	2834.39
436.644	2866.25
437.02	2910.09
437.395	2932.69
437.77	2945.12
438.145	3001.84
438.52	3018.56
438.895	3048.39
439.271	3048.39
439.646	3138.11
440.021	3157.77
440.395	3191.67
440.77	3169.97
441.145	3169.3
441.52	3293.13
441.895	3280.48
442.27	3260.59
442.645	3270.08
443.019	3360.7
443.394	3318.44
443.769	3392.79
444.143	3420.81
444.518	3459.91
444.892	3492.22
445.267	3455.39
445.641	3456.52
446.016	3570.87
446.39	3589.62
446.764	3572.9
447.139	3609.28
447.513	3640.24
447.887	3700.13
448.262	3697.64
448.636	3739.22
449.01	3767.47
449.384	3781.03
449.758	3849.28
450.132	3905.32
450.506	3935.38
450.88	3959.33
451.254	4008.37
451.628	4009.05
452.002	4087.01
452.376	4111.19
452.75	4144.18
453.123	4169.49
453.497	4242.04
453.871	4259.21
454.244	4349.38
454.618	4385.99
454.992	4452.65
455.365	4502.14
455.739	4604.74
456.112	4596.38
456.486	4687.22
456.859	4724.96
457.232	4795.02
457.606	4819.2
457.979	4855.35
458.352	4941
458.725	5069.13
459.099	5065.06
459.472	5162.01
459.845	5202.69
460.218	5271.16
460.591	5333.98
460.964	5353.19
461.337	5480.87
461.71	5538.72
462.083	5622.79
462.456	5665.5
462.829	5633.19
463.201	5806.51
463.574	5824.59
463.947	5929.9
464.32	6081.76
464.692	6138.03
465.065	6187.97
465.438	6290.34
465.81	6289.21
466.183	6422.77
466.555	6531.92
466.928	6572.14
467.3	6560.84
467.672	6687.39
468.045	6838.13
468.417	6882.19
468.789	7001.28
469.161	7047.16
469.534	7159.25
469.906	7321.05
470.278	7419.35
470.65	7523.31
471.022	7638.33
471.394	7762.85
471.766	7770.3
472.138	7972.56
472.51	8095.72
472.882	8234.7
473.253	8323.96
473.625	8441.25
473.997	8617.06
474.369	8711.52
474.74	8836.26
475.112	8895.25
475.484	9102.47
475.855	9263.15
476.227	9310.38
476.598	9548.79
476.97	9652.97
477.341	9928.21
477.713	10062.67
478.084	10098.15
478.455	10385.6
478.827	10511.7
479.198	10727.06
479.569	10847.29
479.94	11100.16
480.311	11199.59
480.682	11458.57
481.053	11765
481.424	11956.18
481.795	12037.08
482.166	12177.87
482.537	12399.11
482.908	12726.56
483.279	12875.03
483.65	13019.88
484.021	13294.9
484.391	13450.38
484.762	13603.6
485.133	13690.37
485.503	13876.36
485.874	14209.91
486.244	14358.61
486.615	14570.13
486.985	14709.56
487.356	15019.61
487.726	15202.65
488.097	15476.32
488.467	15584.56
488.837	15842.18
489.207	16103.19
489.578	16372.11
489.948	16417.31
490.318	16753.8
490.688	16829.95
491.058	17055.71
491.428	17318.75
491.798	17437.62
492.168	17732.3
492.538	17888.91
492.908	18035.12
493.278	18304.26
493.648	18347.88
494.017	18624.93
494.387	18760.98
494.757	18830.8
495.126	19173.17
495.496	19205.26
495.866	19323.22
496.235	19659.03
496.605	19701.74
496.974	19941.74
497.344	20122.97
497.713	20153.03
498.082	20276.42
498.452	20575.17
498.821	20656.74
499.19	20853.12
499.559	21014.7
499.928	21131.08
500.298	21255.15
500.667	21503.05
501.036	21623.05
501.405	21680.22
501.774	21764.29
502.143	22047.44
502.512	22030.04
502.88	22322.92
503.249	22233.2
503.618	22603.36
503.987	22636.58
504.356	22866.86
504.724	22990.02
505.093	23122.44
505.462	23298.26
505.83	23314.98
506.199	23492.15
506.567	23907.06
506.936	23886.72
507.304	24189.76
507.672	24262.3
508.041	24534.38
508.409	24570.09
508.777	24814.6
509.145	24990.42
509.514	25050.08
509.882	25230.18
510.25	25242.39
510.618	25603.51
510.986	25687.57
511.354	25879.21
511.722	26163.27
512.09	26461.34
512.458	26409.36
512.826	26640.99
513.193	26873.53
513.561	26894.55
513.929	27140.64
514.297	27376.12
514.664	27650.91
515.032	27654.08
515.4	27931.36
515.767	28018.81
516.135	28394.39
516.502	28155.98
516.869	28724.78
517.237	28770.88
517.604	28798.45
517.972	29120.03
518.339	29435.05
518.706	29457.19
519.073	29717.3
519.44	29913.9
519.808	30364.74
520.175	30259.66
520.542	30667.33
520.909	30785.74
521.276	30924.95
521.643	31194.55
522.009	31477.48
522.376	31797.24
522.743	31871.14
523.11	32194.52
523.477	32547.28
523.843	32677.22
524.21	33051.45
524.577	33225.91
524.943	33403.98
525.31	33529.63
525.676	33846.23
526.043	34126.45
526.409	34331.64
526.776	34642.59
527.142	34785.87
527.508	35033.54
527.874	35313.53
528.241	35458.16
528.607	35535
528.973	35899.96
529.339	35963.01
529.705	36283.68
530.071	36600.51
530.437	36730.9
530.803	36982.64
531.169	37321.39
531.535	37104
531.901	37452.46
532.267	37718.9
532.632	37851.1
532.998	38088.15
533.364	38172.67
533.73	38296.28
534.095	38581.92
534.461	38807.91
534.826	38865.98
535.192	39021.46
535.557	39348.68
535.923	39442.01
536.288	39591.16
536.653	39769.69
537.019	39704.15
537.384	40020.3
537.749	40098.72
538.114	40128.78
538.479	40392.27
538.845	40486.51
539.21	40383.68
539.575	40726.5
539.94	40867.06
540.305	41105.7
540.67	41094.63
541.034	41213.27
541.399	41478.34
541.764	41511.34
542.129	41653.93
542.494	41852.35
542.858	42029.06
543.223	41990.65
543.587	42349.51
543.952	42245.56
544.316	42449.84
544.681	42482.84
545.045	42838.76
545.41	42864.3
545.774	42941.36
546.138	43030.17
546.503	43248.24
546.867	43368.46
547.231	43647.33
547.595	43657.04
547.959	43969.13
548.324	44009.58
548.688	43961.22
549.052	44216.8
549.416	44268.1
549.779	44494.76
550.143	44526.85
550.507	44859.27
550.871	45051.81
551.235	45020.85
551.599	45300.62
551.962	45394.63
552.326	45640.49
552.689	45832.58
553.053	45686.82
553.417	45805.01
553.78	46328.16
554.143	45995.51
554.507	46320.93
554.87	46585.55
555.234	46844.76
555.597	46740.35
555.96	46908.26
556.323	47176.05
556.686	47130.63
557.05	47417.17
557.413	47517.06
557.776	47694
558.139	48048.57
558.502	48108.23
558.865	48100.77
559.228	48389.8
559.59	48512.96
559.953	48511.15
560.316	49051.48
560.679	49042.89
561.041	49322.43
561.404	49351.13
561.767	49616.66
562.129	49547.28
562.492	49956.09
562.854	49932.13
563.217	49930.1
563.579	50220.26
563.941	50382.97
564.304	50561.95
564.666	50763.3
565.028	50865.67
565.39	50925.55
565.753	51025.89
566.115	51281.48
566.477	51460.45
566.839	51461.81
567.201	51721.69
567.563	51644.18
567.925	51998.29
568.287	51971.63
568.648	52031.51
569.01	52279.42
569.372	52468.79
569.734	52417.04
570.095	52633.08
570.457	52677.37
570.819	52829.01
571.18	52793.3
571.542	52977.93
571.903	53054.31
572.265	53145.83
572.626	53236
572.987	53291.82
573.349	53433.51
573.71	53532.72
574.071	53540.4
574.432	53659.04
574.794	53921.18
575.155	53898.36
575.516	53745.82
575.877	53806.16
576.238	53916.44
576.599	54153.72
576.96	54168.63
577.32	54208.41
577.681	54247.73
578.042	54265.13
578.403	54293.15
578.763	54333.83
579.124	54347.84
579.485	54508.96
579.845	54509.19
580.206	54588.06
580.566	54546.48
580.927	54568.4
581.287	54730.65
581.648	54496.99
582.008	54742.63
582.368	54701.95
582.728	54788.5
583.089	54710.09
583.449	54694.72
583.809	54795.73
584.169	54739.01
584.529	54742.85
584.889	54960.48
585.249	54710.09
585.609	54740.82
585.969	54867.6
586.329	54764.1
586.688	54876.64
587.048	54846.58
587.408	54805.23
587.768	54771.55
588.127	54854.04
588.487	54785.57
588.846	54900.82
589.206	54759.58
589.565	54840.03
589.925	54897.43
590.284	54874.83
590.643	54901.72
591.003	54885
591.362	55061.72
591.721	54907.6
592.08	54936.52
592.44	54999.12
592.799	54945.79
593.158	54917.09
593.517	54971.1
593.876	55003.19
594.235	54946.69
594.593	54923.19
594.952	55078.21
595.311	54924.77
595.67	55063.75
596.029	55116.18
596.387	55208.38
596.746	55270.52
597.104	55109.17
597.463	55054.26
597.822	55260.35
598.18	55132.22
598.538	55089.51
598.897	55303.74
599.255	55045.67
599.613	55480.24
599.972	55275.04
600.33	55352.1
600.688	55213.8
601.046	55333.8
601.404	55487.02
601.762	55430.52
602.12	55469.16
602.478	55501.48
602.836	55440.92
603.194	55354.36
603.552	55411.54
603.91	55371.76
604.268	55582.15
604.625	55423.97
604.983	55630.51
605.341	55527.24
605.698	55656.28
606.056	55626.67
606.413	55589.16
606.771	55721.59
607.128	55765.65
607.485	55638.65
607.843	55620.12
608.2	55800.68
608.557	55858.76
608.914	55814.24
609.272	55955.03
609.629	55931.98
609.986	56002.93
610.343	55911.41
610.7	56082.71
611.057	56104.4
611.414	56048.36
611.771	56061.46
612.127	56165.42
612.484	56173.33
612.841	56271.4
613.198	56137.62
613.554	56112.54
613.911	56280.44
614.267	56287.45
614.624	56296.71
614.98	56271.4
615.337	56390.27
615.693	56325.19
616.05	56394.34
616.406	56499.42
616.762	56369.93
617.118	56340.1
617.475	56438.85
617.831	56402.92
618.187	56490.61
618.543	56561.56
618.899	56587.33
619.255	56589.81
619.611	56560.43
619.967	56605.63
620.323	56685.4
620.678	56502.36
621.034	56506.88
621.39	56521.34
621.746	56477.27
622.101	56777.15
622.457	56491.51
622.812	56616.93
623.168	56660.09
623.523	56621.9
623.879	56732.18
624.234	56506.42
624.589	56630.04
624.945	56640.43
625.3	56639.98
625.655	56624.16
626.01	56694.67
626.365	56647.89
626.72	56508.01
627.075	56617.16
627.43	56667.78
627.785	56510.49
628.14	56578.74
628.495	56562.47
628.85	56510.49
629.205	56488.12
629.559	56611.28
629.914	56492.64
630.269	56494.9
630.623	56406.77
630.978	56420.78
631.332	56459.87
631.687	56544.61
632.041	56379.2
632.396	56433.43
632.75	56279.76
633.104	56328.8
633.459	56202.93
633.813	56146.43
634.167	56228.92
634.521	56157.73
634.875	56155.7
635.229	56067.34
635.583	55936.04
635.937	55918.64
636.291	55930.85
636.645	55927.68
636.999	55960.45
637.352	55944.4
637.706	55774.24
638.06	55861.7
638.413	55856.05
638.767	55743.73
639.121	55790.96
639.474	55608.59
639.828	55586.9
640.181	55689.27
640.534	55586
640.888	55565.43
641.241	55414.25
641.594	55457.19
641.947	55523.62
642.301	55469.84
642.654	55396.4
643.007	55345.32
643.36	55355.27
643.713	55358.88
644.066	55457.64
644.419	55213.8
644.771	55019.01
645.124	54742.18
645.477	54756.87
645.83	54474.39
646.182	54349.19
646.535	54350.1
646.888	54405.69
647.24	54185.13
647.593	54311.45
647.945	54205.24
648.298	54039.37
648.65	54106.94
649.002	54040.05
649.355	54154.62
649.707	54090.22
650.059	54087.28
650.411	54484.33
650.763	54535.85
651.115	54797.99
651.467	54677.55
651.819	54688.17
652.171	54600.26
652.523	54535.63
652.875	54395.52
653.227	54413.6
653.578	54447.04
653.93	54404.78
654.282	54262.19
654.633	54199.37
654.985	54349.42
655.337	54261.96
655.688	54248.86
656.039	54291.79
656.391	54052.7
656.742	54105.58
657.094	54155.07
657.445	54260.38
657.796	54199.14
658.147	54081.18
658.498	54062.87
658.849	54134.96
659.2	54062.65
659.551	53956.66
659.902	54103.78
660.253	53880.28
660.604	54047.73
660.955	53897.45
661.306	53987.85
661.656	53897.68
662.007	53967.51
662.358	53895.19
662.708	53931.58
663.059	53814.97
663.409	53658.14
663.76	53850.67
664.11	53753.73
664.461	53768.64
664.811	53781.52
665.161	53757.57
665.511	53633.51
665.862	53647.74
666.212	53761.86
666.562	53742.88
666.912	53689.1
667.262	53682.77
667.612	53656.56
667.962	53640.96
668.312	53582.21
668.662	53730.45
669.011	53591.47
669.361	53458.59
669.711	53462.66
670.06	53463.11
670.41	53425.6
670.76	53276.23
671.109	53540.17
671.459	53445.04
671.808	53419.95
672.157	53483.68
672.507	53191.93
672.856	53176.79
673.205	53243.01
673.554	53272.84
673.904	53121.2
674.253	53312.61
674.602	53221.09
674.951	52764.83
675.3	52563.7
675.649	53104.93
675.998	53007.31
676.346	53045.27
676.695	53113.07
677.044	52970.25
677.393	53032.62
677.741	53066.74
678.09	52904.03
678.438	52825.16
678.787	52955.33
679.135	52879.17
679.484	52661.33
679.832	52740.87
680.181	52470.6
680.529	52739.07
680.877	52556.25
681.225	52523.48
681.573	52745.84
681.922	52438.96
682.27	52330.26
682.618	52407.55
682.966	52226.08
683.314	52307.89
683.661	52214.56
684.009	52144.05
684.357	51996.94
684.705	51833.78
685.053	52039.87
685.4	51915.36
685.748	51787.9
686.095	51751.52
686.443	51697.06
686.79	51471.3
687.138	51632.88
687.485	51552.88
687.832	51386.33
688.18	51385.43
688.527	51282.61
688.874	51304.53
689.221	51187.02
689.568	51070.63
689.915	50948.15
690.262	50877.65
690.609	50942.5
690.956	50738.44
691.303	50684.88
691.65	50530.99
691.997	50476.53
692.344	50315.4
692.69	50284.67
693.037	50242.63
693.383	49959.7
693.73	50209.41
694.077	49865.47
694.423	49886.48
694.769	49747.28
695.116	49697.79
695.462	49616.89
695.808	49368.53
696.155	49461.86
696.501	49216.45
696.847	49194.75
697.193	48933.97
697.539	49006.51
697.885	48865.95
698.231	48609.68
698.577	48776.23
698.923	48687.87
699.269	48469.57
699.614	48279.75
699.96	48250.82
700.306	48053.09
700.651	48071.84
700.997	47846.09
701.342	47930.83
701.688	47810.16
702.033	47599.77
702.379	47538.98
702.724	47539.65
703.069	47538.52
703.415	47051.98
703.76	47044.75
704.105	47186.67
704.45	46890.86
704.795	46751.88
705.14	46669.85
705.485	46753.01
705.83	46507.59
706.175	46614.71
706.52	46304.43
706.865	46250.65
707.209	46206.58
707.554	46065.79
707.899	45991.45
708.243	45986.25
708.588	45809.3
708.932	45452.25
709.277	45483.21
709.621	45474.17
709.966	45297.45
710.31	45310.79
710.654	44855.66
710.998	45087.97
711.342	45080.06
711.687	45021.98
712.031	44759.84
712.375	44558.04
712.719	44735.89
713.063	44602.33
713.407	44683.91
713.75	44352.85
714.094	44419.51
714.438	44222
714.782	44231.72
715.125	43995.79
715.469	44151.04
715.812	43935
716.156	43534.56
716.499	43721
716.843	43709.25
717.186	43384.06
717.53	43535.47
717.873	43569.36
718.216	43345.64
718.559	43336.15
718.902	42879.21
719.246	43112.2
719.589	42907.46
719.932	42805.77
720.275	42756.05
720.617	42782.94
720.96	42709.72
721.303	42597.19
721.646	42681.7
721.989	42430.18
722.331	42474.02
722.674	42480.13
723.016	42370.52
723.359	42277.65
723.701	42165.56
724.044	41964.43
724.386	41845.11
724.729	41976.41
725.071	41931.44
725.413	41851.89
725.755	41809.64
726.097	41547.95
726.439	41385.69
726.782	41569.87
727.124	41577.55
727.465	41333.04
727.807	41373.49
728.149	41208.3
728.491	41043.78
728.833	41223.21
729.175	41030.45
729.516	40917.23
729.858	40886.04
730.199	40934.63
730.541	40631.81
730.882	40716.56
731.224	40842.88
731.565	40404.25
731.906	40547.3
732.248	40496
732.589	40188.89
732.93	40160.41
733.271	40223.69
733.612	40237.93
733.953	40322.89
734.294	40082.9
734.635	39942.79
734.976	39959.06
735.317	39913.87
735.658	39835.45
735.999	39644.72
736.339	39546.42
736.68	39672.06
737.021	39486.08
737.361	39288.12
737.702	39654.66
738.042	39416.25
738.383	39289.93
738.723	39246.99
739.063	39190.27
739.404	39244.5
739.744	38969.26
740.084	38924.97
740.424	38948.24
740.764	38761.81
741.104	38931.74
741.444	38778.53
741.784	38725.2
742.124	38757.06
742.464	38569.04
742.804	38501.25
743.143	38468.93
743.483	38477.97
743.823	38323.63
744.162	38054.93
744.502	38105.78
744.841	37972.22
745.181	38127.25
745.52	38020.13
745.86	37992.79
746.199	37962.5
746.538	37881.6
746.877	37803.19
747.216	37795.96
747.556	37706.69
747.895	37673.92
748.234	37513.25
748.573	37477.09
748.911	37390.09
749.25	37452.69
749.589	37194.84
749.928	37260.83
750.267	37209.76
750.605	37103.09
750.944	37077.78
751.283	36909.42
751.621	36920.72
751.96	36772.71
752.298	36763.67
752.636	36595.76
752.975	36447.74
753.313	36309.89
753.651	36542.2
753.989	36232.61
754.327	36208.2
754.666	36068.54
755.004	36104.02
755.342	36078.71
755.679	36002.56
756.017	35579.74
756.355	35803.47
756.693	35615.45
757.031	35573.19
757.368	35336.13
757.706	35416.81
758.044	35299.07
758.381	35262.01
758.719	35190.37
759.056	35050.26
759.394	34921.23
759.731	34624.06
760.068	34625.64
760.405	34497.29
760.743	34429.49
761.08	34499.77
761.417	34297.97
761.754	34164.19
762.091	34116.28
762.428	34080.8
762.765	33865.66
763.102	33941.37
763.438	33776.4
763.775	33604.65
764.112	33606.69
764.449	33551.1
764.785	33332.57
765.122	33067.94
765.458	33158.79
765.795	33136.87
766.131	32996.31
766.467	32940.94
766.804	32712.47
767.14	32463.89
767.476	32540.5
767.812	32326.04
768.148	32424.35
768.485	32106.61
768.821	31994.75
769.157	32020.06
769.492	31823.68
769.828	31933.06
770.164	31664.14
770.5	31512.05
770.836	31388.44
771.171	31224.38
771.507	31199.52
771.842	30981.67
772.178	30889.7
772.513	30877.95
772.849	30662.36
773.184	30657.84
773.519	30557.28
773.855	30562.47
774.19	30355.92
774.525	30243.39
774.86	30064.86
775.195	30139.89
775.53	29879.33
775.865	29750.29
776.2	29599.79
776.535	29408.38
776.87	29401.83
777.205	29335.61
777.539	29224.88
777.874	29200.93
778.209	28988.28
778.543	28773.14
778.878	28760.26
779.212	28749.64
779.547	28570.89
779.881	28659.47
780.215	28418.12
780.55	28294.51
780.884	28196.66
781.218	28200.95
781.552	28126.83
781.886	28029.88
782.22	27816.78
782.554	27860.62
782.888	27473.51
783.222	27398.71
783.556	27274.88
783.889	27220.19
784.223	27198.04
784.557	27016.13
784.89	27004.6
785.224	26800.99
785.557	26703.82
785.891	26671.28
786.224	26504.73
786.558	26538.17
786.891	26273.55
787.224	26265.19
787.557	26243.72
787.891	26117.17
788.224	26029.71
788.557	25907.91
788.89	25878.3
789.223	25794.69
789.556	25705.65
789.888	25647.35
790.221	25516.28
790.554	25355.38
790.887	25249.17
791.219	25196.96
791.552	25061.6
791.884	25023.86
792.217	24982.05
792.549	24862.06
792.882	24579.81
793.214	24615.74
793.546	24569.18
793.879	24552.01
794.211	24327.16
794.543	24467.27
794.875	24357.21
795.207	24324.9
795.539	24075.41
795.871	24059.14
796.203	23992.48
796.535	23817.79
796.867	23833.38
797.198	23772.14
797.53	23734.18
797.862	23539.38
798.193	23604.46
798.525	23425.26
798.856	23481.98
799.188	23154.08
799.519	23115.21
799.85	23012.16
800.182	23095.32
800.513	23007.19
800.844	22758.38
801.175	22773.98
801.506	22825.5
801.837	22665.96
802.168	22665.73
802.499	22565.85
802.83	22471.84
803.161	22413.31
803.491	22363.59
803.822	22420.77
804.153	22139.87
804.483	22080.66
804.814	22105.29
805.145	22089.7
805.475	21969.7
805.805	21840.67
806.136	21835.47
806.466	21828.47
806.796	21787.11
807.126	21499.89
807.457	21591.41
807.787	21576.95
808.117	21463.28
808.447	21402.04
808.777	21367.69
809.107	21258.99
809.436	21243.62
809.766	21148.71
810.096	21053.8
810.426	21021.26
810.755	20974.25
811.085	20884.08
811.414	20870.98
811.744	20754.37
812.073	20657.2
812.403	20779.23
812.732	20485.68
813.061	20510.99
813.39	20440.48
813.719	20316.19
814.049	20476.64
814.378	20426.92
814.707	20210.88
815.036	20196.19
815.365	20134.27
815.693	19873.04
816.022	20022.64
816.351	19899.25
816.68	19824
817.008	19956.42
817.337	19648.86
817.665	19672.82
817.994	19766.82
818.322	19750.78
818.651	19576.32
818.979	19513.5
819.307	19630.78
819.636	19538.13
819.964	19447.06
820.292	19569.54
820.62	19500.39
820.948	19364.58
821.276	19520.96
821.604	19445.03
821.932	19427.85
822.259	19378.81
822.587	19319.15
822.915	19326.38
823.243	19403.9
823.57	19293.17
823.898	19259.95
824.225	19151.93
824.553	19207.74
824.88	19305.14
825.207	19363.9
825.535	19292.04
825.862	19297.46
826.189	19228.76
826.516	19283.9
826.843	19169.55
827.17	19225.82
827.497	19236.44
827.824	19384.24
828.151	19264.92
828.478	19173.17
828.805	19278.02
829.131	19162.1
829.458	19197.57
829.785	19116.67
830.111	19172.72
830.438	19268.98
830.764	19255.88
831.09	19140.4
831.417	19080.97
831.743	19146.73
832.069	19088.88
832.395	19190.57
832.722	19139.72
833.048	19096.11
833.374	19047.75
833.7	18988.09
834.026	19030.12
834.351	19054.3
834.677	18990.35
835.003	18975.89
835.329	18932.72
835.654	18882.78
835.98	18803.69
836.306	18906.51
836.631	18781.54
836.956	18799.17
837.282	18843.23
837.607	18722.33
837.932	18634.2
838.258	18646.63
838.583	18675.78
838.908	18595.56
839.233	18598.49
839.558	18559.85
839.883	18511.94
840.208	18413.64
840.533	18412.74
840.858	18378.61
841.182	18391.95
841.507	18339.74
841.832	18202.57
842.156	18213.87
842.481	18226.98
842.805	18146.08
843.13	18092.74
843.454	18110.82
843.778	17977.04
844.103	18053.42
844.427	17939.53
844.751	17960.32
845.075	17818.85
845.399	17824.73
845.723	17710.38
846.047	17829.93
846.371	17508.58
846.695	17547.45
847.019	17402.59
847.343	17374.57
847.666	17247.34
847.99	17183.84
848.313	17249.83
848.637	17065.2
848.96	16997.41
849.284	16937.07
849.607	16835.15
849.931	16767.13
850.254	16676.28
850.577	16591.32
850.9	16521.71
851.223	16475.16
851.546	16396.52
851.869	16374.37
852.192	16425.9
852.515	16300.25
852.838	16185.45
853.161	16222.29
853.483	16018
853.806	15950.2
854.129	16027.04
854.451	15961.95
854.774	15881.73
855.096	15847.38
855.419	15789.53
855.741	15681.06
856.063	15688.51
856.385	15652.13
856.708	15567.61
857.03	15495.52
857.352	15517.9
857.674	15404.68
857.996	15324.91
858.318	15293.27
858.64	15385.02
858.961	15234.51
859.283	15163.56
859.605	15104.35
859.926	15222.31
860.248	15131.69
860.57	14983.9
860.891	14979.38
861.212	14943.45
861.534	14990.45
861.855	14940.96
862.176	14930.57
862.498	14899.83
862.819	14852.15
863.14	14785.49
863.461	14718.37
863.782	14692.61
864.103	14651.93
864.424	14669.56
864.745	14713.17
865.065	14574.87
865.386	14521.77
865.707	14658.48
866.027	14552.95
866.348	14422.78
866.668	14533.52
866.989	14467.53
867.309	14363.8
867.63	14398.6
867.95	14352.5
868.27	14295.56
868.59	14327.65
868.91	14191.38
869.23	14258.04
869.55	14214.2
869.87	14238.61
870.19	14161.55
870.51	14109.35
870.83	14125.39
871.15	14093.08
871.469	13984.38
871.789	14126.52
872.109	14098.5
872.428	14006.98
872.748	14075.22
873.067	14045.17
873.386	13997.94
873.706	13932.63
874.025	13856.02
874.344	13838.17
874.663	13863.03
874.982	13853.53
875.301	13838.85
875.62	13775.57
875.939	13769.92
876.258	13701
876.577	13681.11
876.896	13679.08
877.214	13559.76
877.533	13673.43
877.852	13610.38
878.17	13648.34
878.489	13566.54
878.807	13557.04
879.125	13481.34
879.444	13537.38
879.762	13442.7
880.08	13610.15
880.398	13352.53
880.716	13367.67
881.034	13284.96
881.352	13338.29
881.67	13289.26
881.988	13314.79
882.306	13249.26
882.624	13228.01
882.941	13174
883.259	13159.09
883.577	13109.82
883.894	13058.3
884.212	13007.91
884.529	13111.18
884.846	13032.99
885.164	12946.21
885.481	12952.31
885.798	12871.19
886.115	12837.97
886.432	12884.07
886.75	12814.69
887.067	12824.18
887.383	12741.47
887.7	12769.04
888.017	12651.31
888.334	12666.22
888.651	12562.72
888.967	12604.08
889.284	12541.7
889.6	12509.39
889.917	12313.69
890.233	12500.35
890.55	12369.73
890.866	12394.36
891.182	12366.12
891.498	12247.93
891.815	12272.78
892.131	12221.03
892.447	12206.57
892.763	12131.32
893.079	12075.95
893.395	12044.54
893.71	12032.79
894.026	11989.63
894.342	11973.36
894.657	11936.52
894.973	11852.68
895.289	11909.18
895.604	11859.01
895.92	11761.39
896.235	11703.08
896.55	11712.8
896.865	11679.58
897.181	11637.55
897.496	11646.81
897.811	11525.46
898.126	11442.07
898.441	11413.82
898.756	11412.24
899.071	11392.81
899.386	11475.29
899.7	11276.2
900.015	11313.71
900.33	11163.44
900.644	11130.22
900.959	11185.36
901.273	11065.81
901.588	10952.59
901.902	10959.37
902.216	10956.21
902.531	10892.71
902.845	10917.79
903.159	10810.22
903.473	10795.54
903.787	10715.76
904.101	10707.18
904.415	10668.31
904.729	10587.86
905.042	10506.28
905.356	10511.7
905.67	10507.18
905.984	10483.45
906.297	10511.48
906.611	10394.87
906.924	10330.69
907.237	10344.7
907.551	10300.41
907.864	10262.44
908.177	10227.64
908.491	10169.79
908.804	10113.75
909.117	10140.64
909.43	10024.48
909.743	9955.56
910.056	9980.42
910.368	9917.14
910.681	9841.66
910.994	9778.39
911.307	9733.87
911.619	9710.14
911.932	9752.85
912.244	9631.72
912.557	9633.98
912.869	9555.34
913.181	9562.57
913.494	9555.79
913.806	9513.99
914.118	9393.31
914.43	9304.73
914.742	9372.07
915.054	9232.86
915.366	9367.1
915.678	9211.62
915.99	9169.82
916.302	9113.32
916.613	9061.12
916.925	9090.72
917.236	9012.08
917.548	8991.06
917.859	8977.96
918.171	8939.31
918.482	8897.51
918.794	8847.56
919.105	8892.53
919.416	8734.12
919.727	8784.51
920.038	8784.97
920.349	8677.85
920.66	8663.16
920.971	8552.43
921.282	8575.48
921.593	8511.98
921.903	8506.1
922.214	8419.78
922.525	8422.94
922.835	8405.09
923.146	8348.59
923.456	8257.07
923.767	8244.42
924.077	8245.32
924.387	8172.55
924.697	8119
925.008	8154.93
925.318	8088.94
925.628	8068.38
925.938	8020.92
926.248	7912.9
926.558	7941.37
926.867	7830.87
927.177	7888.95
927.487	7785.45
927.796	7774.6
928.106	7735.73
928.416	7695.5
928.725	7704.54
929.034	7680.14
929.344	7689.4
929.653	7597.43
929.962	7560.82
930.271	7495.96
930.581	7527.82
930.89	7466.81
931.199	7403.76
931.508	7389.98
931.817	7348.62
932.125	7382.97
932.434	7317.89
932.743	7211.9
933.051	7200.15
933.36	7197.66
933.669	7099.81
933.977	7126.25
934.286	7134.39
934.594	7077.67
934.902	6999.25
935.21	7004.22
935.519	6987.5
935.827	6973.04
936.135	6914.06
936.443	6875.86
936.751	6841.06
937.059	6824.79
937.367	6770.56
937.674	6767.39
937.982	6693.72
938.29	6683.78
938.597	6694.4
938.905	6625.93
939.213	6612.59
939.52	6566.49
939.827	6582.31
940.135	6502.09
940.442	6497.57
940.749	6447.18
941.056	6432.94
941.363	6352.94
941.67	6386.39
941.977	6323.11
942.284	6293.96
942.591	6258.03
942.898	6238.37
943.205	6199.72
943.511	6188.88
943.818	6220.29
944.125	6098.94
944.431	6135.54
944.738	6126.51
945.044	6136.9
945.35	6064.81
945.657	6019.84
945.963	5983.91
946.269	5956.57
946.575	5936.91
946.881	5855.1
947.187	5867.76
947.493	5852.16
947.799	5770.36
948.105	5819.17
948.41	5790.47
948.716	5754.99
949.022	5721.77
949.327	5754.09
949.633	5680.64
949.938	5660.3
950.244	5690.36
950.549	5553.41
950.854	5525.84
951.16	5581.89
951.465	5519.29
951.77	5496.47
952.075	5469.12
952.38	5370.37
952.685	5407.65
952.99	5373.31
953.294	5412.17
953.599	5366.3
953.904	5333.08
954.209	5296.02
954.513	5254.89
954.818	5264.38
955.122	5228.68
955.426	5194.55
955.731	5175.8
956.035	5176.7
956.339	5154.55
956.643	5110.04
956.948	5103.71
957.252	5078.17
957.556	5105.29
957.86	5031.39
958.163	4990.04
958.467	4939.64
958.771	4974.22
959.075	4913.2
959.378	4868.91
959.682	4854.67
959.985	4898.29
960.289	4854.9
960.592	4849.25
960.896	4806.31
961.199	4759.99
961.502	4777.84
961.805	4723.6
962.108	4689.48
962.411	4751.63
962.714	4613.78
963.017	4663.72
963.32	4670.5
963.623	4586.43
963.926	4595.25
964.228	4595.92
964.531	4542.37
964.833	4565.87
965.136	4532.2
965.438	4495.14
965.741	4446.55
966.043	4466.21
966.345	4472.99
966.648	4416.27
966.95	4373.33
967.252	4369.26
967.554	4360
967.856	4370.62
968.158	4292.88
968.46	4317.74
968.761	4253.56
969.063	4276.16
969.365	4196.16
969.666	4212.43
969.968	4194.58
970.269	4177.86
970.571	4149.38
970.872	4155.03
971.174	4138.08
971.475	4086.33
971.776	4105.77
972.077	4039.55
972.378	4029.39
972.679	4002.72
972.98	3987.35
973.281	3982.38
973.582	3984.87
973.883	3967.69
974.183	3931.99
974.484	3938.09
974.785	3941.25
975.085	3894.47
975.386	3853.57
975.686	3840.01
975.986	3844.53
976.287	3790.3
976.587	3786
976.887	3784.19
977.187	3714.14
977.487	3744.87
977.787	3734.25
978.087	3731.77
978.387	3663.29
978.687	3655.61
978.987	3653.8
979.286	3654.71
979.586	3659
979.885	3641.6
980.185	3597.08
980.484	3581.26
980.784	3594.82
981.083	3521.6
981.382	3540.13
981.682	3532.68
981.981	3526.8
982.28	3496.52
982.579	3447.48
982.878	3473.47
983.177	3442.96
983.475	3449.74
983.774	3392.79
984.073	3368.16
984.372	3360.7
984.67	3360.02
984.969	3372
985.267	3303.98
985.566	3343.98
985.864	3282.74
986.162	3278.9
986.461	3261.04
986.759	3256.75
987.057	3202.74
987.355	3223.31
987.653	3209.07
987.951	3167.04
988.249	3182.63
988.547	3138.34
988.844	3146.02
989.142	3124.78
989.44	3110.54
989.737	3095.4
990.035	3069.86
990.332	3071.44
990.63	3009.07
990.927	3058.56
991.224	3000.49
991.521	3003.2
991.819	3051.11
992.116	2958.45
992.413	2955.29
992.71	2942.63
993.006	2900.15
993.303	2920.94
993.6	2890.21
993.897	2896.08
994.193	2909.19
994.49	2855.18
994.787	2868.74
995.083	2839.59
995.379	2830.55
995.676	2816.76
995.972	2781.73
996.268	2751.23
996.565	2785.8
996.861	2738.35
997.157	2727.27
997.453	2738.57
997.749	2708.29
998.044	2695.64
998.34	2716.2
998.636	2626.48
998.932	2652.25
999.227	2647.73
999.523	2610.21
999.818	2591.23
1000.114	2609.31
1000.409	2579.93
1000.704	2583.55
1001	2546.71
1001.295	2539.03
1001.59	2529.76
1001.885	2510.1
1002.18	2471.01
1002.475	2480.05
1002.77	2478.01
1003.065	2440.95
1003.359	2452.93
1003.654	2443.44
1003.949	2395.76
1004.243	2414.29
1004.538	2383.33
1004.832	2369.09
1005.127	2357.57
1005.421	2350.33
1005.715	2320.28
1006.009	2315.98
1006.304	2325.93
1006.598	2260.39
1006.892	2272.14
1007.186	2292.03
1007.48	2252.48
1007.773	2242.54
1008.067	2262.65
1008.361	2198.47
1008.655	2218.59
1008.948	2220.62
1009.242	2170.9
1009.535	2165.25
1009.829	2146.5
1010.122	2134.52
1010.415	2115.76
1010.708	2134.97
1011.001	2098.14
1011.295	2098.14
1011.588	2107.85
1011.881	2043
1012.173	2043.45
1012.466	2033.05
1012.759	1984.69
1013.052	2001.64
1013.344	1985.6
1013.637	2001.87
1013.93	1988.08
1014.222	1962.77
1014.514	1927.75
1014.807	1946.95
1015.099	1923.68
1015.391	1919.61
1015.683	1897.01
1015.976	1886.62
1016.268	1849.1
1016.56	1882.78
1016.851	1823.12
1017.143	1842.55
1017.435	1826.73
1017.727	1811.14
1018.018	1793.96
1018.31	1793.96
1018.602	1774.98
1018.893	1780.18
1019.185	1748.32
1019.476	1750.35
1019.767	1727.07
1020.058	1696.79
1020.35	1710.35
1020.641	1697.47
1020.932	1685.94
1021.223	1664.7
1021.514	1669.45
1021.804	1625.38
1022.095	1584.93
1022.386	1615.44
1022.677	1625.38
1022.967	1614.31
1023.258	1573.63
1023.548	1593.52
1023.839	1573.4
1024.129	1570.47
1024.419	1545.16
1024.709	1544.25
1025	1513.29
1025.29	1522.11
1025.58	1527.3
1025.87	1486.85
1026.16	1476.91
1026.449	1473.52
1026.739	1452.05
1027.029	1452.05
1027.319	1427.42
1027.608	1446.4
1027.898	1444.14
1028.187	1438.27
1028.477	1388.33
1028.766	1388.33
1029.055	1391.71
1029.344	1379.51
1029.634	1374.31
1029.923	1369.34
1030.212	1356.69
1030.501	1369.12
1030.79	1323.92
1031.078	1297.93
1031.367	1303.36
1031.656	1281.89
1031.945	1285.73
1032.233	1267.65
1032.522	1282.79
1032.81	1251.61
1033.099	1275.11
1033.387	1245.73
1033.675	1232.17
1033.963	1241.44
1034.251	1221.55
1034.54	1209.12
1034.828	1210.7
1035.116	1222
1035.403	1192.4
1035.691	1186.75
1035.979	1144.49
1036.267	1150.14
1036.554	1155.56
1036.842	1159.63
1037.129	1146.07
1037.417	1112.85
1037.704	1148.78
1037.992	1124.6
1038.279	1107.43
1038.566	1097.94
1038.853	1097.94
1039.14	1097.94
