Data from white_steel_sheet_FLMS001491_076.txt Node
Date: Tue Feb 07 10:58:26 GMT 2017
User: dcchb
Spectrometer: FLMS00149
Trigger mode: 0
Integration Time (sec): 2.000000E-2
Scans to average: 10
Electric dark correction enabled: true
Nonlinearity correction enabled: false
Boxcar width: 0
XAxis mode: Wavelengths
Number of Pixels in Spectrum: 2048
>>>>>Begin Spectral Data<<<<<
341.393	-4.89
341.776	-4.89
342.16	-4.89
342.543	-41.5
342.927	-41.27
343.31	-66.58
343.693	-55.73
344.077	-79.91
344.46	-60.03
344.843	-51.89
345.226	-42.63
345.61	-23.87
345.993	-17.99
346.376	-18.67
346.759	17.94
347.142	6.86
347.525	42.57
347.908	78.05
348.291	67.2
348.674	84.38
349.057	120.31
349.44	144.49
349.823	168.22
350.206	168.44
350.588	224.26
350.971	216.58
351.354	265.61
351.737	248.67
352.119	278.72
352.502	271.94
352.884	293.64
353.267	302.22
353.65	305.39
354.032	311.04
354.414	295.22
354.797	322.34
355.179	323.92
355.562	340.41
355.944	346.97
356.326	362.11
356.709	361.88
357.091	371.83
357.473	372.28
357.855	344.03
358.238	351.04
358.62	363.69
359.002	368.66
359.384	353.97
359.766	363.01
360.148	351.71
360.53	366.4
360.912	370.24
361.294	361.88
361.676	352.17
362.057	357.14
362.439	366.4
362.821	345.16
363.203	370.92
363.584	353.75
363.966	331.83
364.348	342.9
364.729	359.17
365.111	331.6
365.493	345.84
365.874	345.61
366.256	356.01
366.637	331.83
367.019	335.9
367.4	336.57
367.781	342
368.163	345.16
368.544	352.39
368.925	335.67
369.306	329.57
369.688	349.68
370.069	332.51
370.45	337.7
370.831	340.87
371.212	328.89
371.593	341.54
371.974	342.22
372.355	342
372.736	369.34
373.117	339.51
373.498	342.9
373.879	342.9
374.26	339.51
374.641	326.86
375.021	342.67
375.402	335.22
375.783	348.55
376.163	384.48
376.544	355.56
376.925	358.95
377.305	370.7
377.686	372.73
378.066	359.85
378.447	367.08
378.827	372.05
379.208	390.36
379.588	372.96
379.968	351.04
380.349	369.79
380.729	380.19
381.109	372.73
381.489	382
381.87	374.76
382.25	395.33
382.63	385.16
383.01	384.48
383.39	383.58
383.77	376.35
384.15	398.72
384.53	375.89
384.91	389.23
385.29	390.13
385.67	399.4
386.049	415.44
386.429	413.18
386.809	396.91
387.189	421.54
387.568	428.77
387.948	415.89
388.328	411.6
388.707	425.16
389.087	445.27
389.466	425.84
389.846	424.93
390.225	440.75
390.605	443.91
390.984	433.97
391.363	430.13
391.743	451.15
392.122	456.8
392.501	464.48
392.881	466.97
393.26	493.41
393.639	482.78
394.018	494.54
394.397	481.88
394.776	488.66
395.155	494.76
395.534	502.9
395.913	502.9
396.292	527.08
396.671	514.87
397.05	519.39
397.429	524.82
397.808	554.42
398.186	535.44
398.565	570.47
398.944	543.8
399.323	557.36
399.701	567.53
400.08	582.67
400.458	586.96
400.837	573.63
401.215	609.33
401.594	626.06
401.972	614.98
402.351	626.51
402.729	613.18
403.107	660.86
403.486	631.71
403.864	652.5
404.242	681.87
404.62	663.8
404.999	704.02
405.377	698.6
405.755	693.85
406.133	716.22
406.511	736.56
406.889	748.09
407.267	739.73
407.645	774.98
408.023	786.73
408.401	793.28
408.779	804.81
409.156	789.89
409.534	847.97
409.912	833.74
410.29	835.54
410.667	870.57
411.045	864.47
411.422	873.96
411.8	877.58
412.178	914.86
412.555	931.81
412.933	931.59
413.31	936.11
413.687	966.84
414.065	982.88
414.442	983.56
414.819	1016.1
415.197	997.12
415.574	1037.8
415.951	1018.36
416.328	1055.2
416.705	1052.94
417.082	1077.57
417.46	1092.49
417.837	1102.88
418.214	1103.33
418.591	1134.52
418.967	1103.33
419.344	1160.28
419.721	1163.9
420.098	1161.86
420.475	1187.62
420.852	1186.04
421.228	1216.55
421.605	1227.17
421.982	1233.72
422.358	1239.6
422.735	1262.42
423.111	1264.23
423.488	1288.41
423.864	1318.47
424.241	1304.91
424.617	1341.29
424.994	1354.85
425.37	1368.18
425.746	1346.26
426.123	1329.54
426.499	1379.03
426.875	1385.36
427.251	1436.88
427.627	1451.35
428.003	1475.75
428.379	1470.1
428.756	1523.89
429.132	1496.54
429.507	1569.76
429.883	1533.83
430.259	1587.16
430.635	1593.72
431.011	1623.54
431.387	1663.54
431.763	1715.29
432.138	1679.14
432.514	1707.61
432.89	1709.87
433.265	1773.82
433.641	1796.65
434.016	1795.29
434.392	1851.34
434.767	1853.14
435.143	1853.82
435.518	1900.83
435.894	1925.91
436.269	1923.65
436.644	1982.63
437.02	1971.78
437.395	1981.95
437.77	2021.5
438.145	2056.98
438.52	2067.6
438.895	2084.1
439.271	2085.68
439.646	2152.8
440.021	2149.18
440.395	2143.31
440.77	2146.24
441.145	2188.95
441.52	2246.58
441.895	2245.45
442.27	2283.87
442.645	2263.75
443.019	2302.4
443.394	2310.31
443.769	2343.75
444.143	2318.22
444.518	2381.27
444.892	2374.26
445.267	2409.74
445.641	2401.83
446.016	2411.32
446.39	2452.68
446.764	2486.12
447.139	2434.15
447.513	2520.02
447.887	2496.97
448.262	2544.65
448.636	2563.41
449.01	2587.81
449.384	2599.79
449.758	2618.1
450.132	2661.03
450.506	2688.83
450.88	2701.03
451.254	2731.31
451.628	2745.55
452.002	2834.36
452.376	2807.69
452.75	2802.27
453.123	2815.6
453.497	2888.82
453.871	2924.08
454.244	2993
454.618	3022.83
454.992	3054.24
455.365	3044.75
455.739	3109.61
456.112	3134.92
456.486	3183.5
456.859	3216.27
457.232	3311.18
457.606	3297.17
457.979	3312.99
458.352	3402.48
458.725	3416.94
459.099	3409.94
459.472	3504.85
459.845	3558.64
460.218	3571.52
460.591	3607.67
460.964	3670.72
461.337	3723.15
461.71	3785.07
462.083	3781.45
462.456	3800.44
462.829	3859.64
463.201	3925.86
463.574	3951.39
463.947	3995.01
464.32	4085.18
464.692	4077.72
465.065	4159.07
465.438	4235
465.81	4229.35
466.183	4353.42
466.555	4416.69
466.928	4438.39
467.3	4432.74
467.672	4510.02
468.045	4601.32
468.417	4592.73
468.789	4656.91
469.161	4697.81
469.534	4844.48
469.906	4886.51
470.278	4890.8
470.65	4978.48
471.022	5084.24
471.394	5211.47
471.766	5247.4
472.138	5271.13
472.51	5407.17
472.882	5470.45
473.253	5552.93
473.625	5561.29
473.997	5711.8
474.369	5743.66
474.74	5800.61
475.112	5929.19
475.484	5987.95
475.855	6151.11
476.227	6217.1
476.598	6347.94
476.97	6436.53
477.341	6565.11
477.713	6686.91
478.084	6708.16
478.455	6895.27
478.827	6905.89
479.198	7126.45
479.569	7120.12
479.94	7303.85
480.311	7424.75
480.682	7610.73
481.053	7715.36
481.424	7917.39
481.795	8012.08
482.166	8068.57
482.537	8220.43
482.908	8400.99
483.279	8469.47
483.65	8623.81
484.021	8863.81
484.391	8822
484.762	8983.58
485.133	9056.34
485.503	9159.62
485.874	9388.31
486.244	9464.24
486.615	9643.9
486.985	9776.32
487.356	9986.49
487.726	10009.54
488.097	10226.93
488.467	10268.29
488.837	10485.91
489.207	10638.68
489.578	10756.41
489.948	10944.88
490.318	11087.93
490.688	11054.48
491.058	11264.65
491.428	11395.49
491.798	11524.08
492.168	11729.95
492.538	11794.58
492.908	11962.26
493.278	12160.22
493.648	12156.6
494.017	12320.44
494.387	12456.03
494.757	12503.48
495.126	12709.13
495.496	12757.94
495.866	12858.05
496.235	12953.42
496.605	13130.81
496.974	13249.91
497.344	13361.09
497.713	13395.89
498.082	13491.48
498.452	13700.06
498.821	13704.81
499.19	13811.47
499.559	13950.68
499.928	14080.17
500.298	14105.25
500.667	14290.33
501.036	14336.66
501.405	14483.77
501.774	14569.65
502.143	14631.34
502.512	14738.45
502.88	14902.07
503.249	14896.42
503.618	15106.58
503.987	15107.71
504.356	15220.25
504.724	15277.88
505.093	15381.83
505.462	15399
505.83	15676.73
506.199	15781.59
506.567	16034.01
506.936	15929.38
507.304	16248.25
507.672	16295.48
508.041	16414.79
508.409	16433.55
508.777	16601.91
509.145	16775.46
509.514	16750.6
509.882	16956.93
510.25	17022.91
510.618	17179.97
510.986	17235.56
511.354	17435.78
511.722	17616.57
512.09	17758.26
512.458	17692.5
512.826	17887.07
513.193	18070.34
513.561	18142.21
513.929	18344.24
514.297	18465.36
514.664	18659.03
515.032	18665.81
515.4	18899.25
515.767	18909.64
516.135	19140.82
516.502	19044.56
516.869	19463.53
517.237	19459.46
517.604	19543.3
517.972	19665.33
518.339	19864.65
518.706	19942.61
519.073	20170.18
519.44	20298.99
519.808	20447.91
520.175	20369.94
520.542	20754.79
520.909	20907.33
521.276	20912.76
521.643	21161.11
522.009	21368.34
522.376	21471.16
522.743	21642.23
523.11	21898.04
523.477	21976.46
523.843	22154.76
524.21	22429.33
524.577	22616.67
524.943	22638.81
525.31	22888.97
525.676	23092.13
526.043	23276.99
526.409	23407.15
526.776	23638.11
527.142	23711.55
527.508	23919
527.874	24010.3
528.241	24318.99
528.607	24277.64
528.973	24587.23
529.339	24640.34
529.705	24836.04
530.071	24971.18
530.437	25234.45
530.803	25299.08
531.169	25436.25
531.535	25519.41
531.901	25589.47
532.267	25742.01
532.632	25889.35
532.998	25979.97
533.364	26180.19
533.73	26223.12
534.095	26504.7
534.461	26500.4
534.826	26796.67
535.192	26869.21
535.557	26865.14
535.923	27087.51
536.288	27165.47
536.653	27332.02
537.019	27332.47
537.384	27447.5
537.749	27567.04
538.114	27553.94
538.479	27733.37
538.845	27844.55
539.21	27823.53
539.575	28032.12
539.94	27995.51
540.305	28274.82
540.67	28327.7
541.034	28446.34
541.399	28534.7
541.764	28720.46
542.129	28835.94
542.494	28862.83
542.858	28855.37
543.223	28976.27
543.587	29221.46
543.952	29185.08
544.316	29276.83
544.681	29389.59
545.045	29486.77
545.41	29685.18
545.774	29713.65
546.138	29856.02
546.503	29918.62
546.867	29870.49
547.231	30172.62
547.595	30261.89
547.959	30428.66
548.324	30408.1
548.688	30488.32
549.052	30644.48
549.416	30668.2
549.779	30842.21
550.143	30875.21
550.507	31100.74
550.871	31179.15
551.235	31105.03
551.599	31539.37
551.962	31461.18
552.326	31497.56
552.689	31673.38
553.053	31655.07
553.417	31746.37
553.78	32198.56
554.143	32019.58
554.507	32271.55
554.87	32247.82
555.234	32668.38
555.597	32469.06
555.96	32648.72
556.323	32827.24
556.686	32839.45
557.05	33118.08
557.413	33172.32
557.776	33313.11
558.139	33584.51
558.502	33476.27
558.865	33683.49
559.228	33876.03
559.59	34055.01
559.953	33958.97
560.316	34485.28
560.679	34335.68
561.041	34557.37
561.404	34704.03
561.767	34880.52
562.129	34758.27
562.492	35342.43
562.854	35250.23
563.217	35387.85
563.579	35439.15
563.941	35716.66
564.304	35727.28
564.666	36047.27
565.028	36114.16
565.39	36220.38
565.753	36469.63
566.115	36588.95
566.477	36651.55
566.839	36830.08
567.201	36973.58
567.563	36957.98
567.925	37251.31
568.287	37250.63
568.648	37427.35
569.01	37580.11
569.372	37835.02
569.734	37715.93
570.095	38024.62
570.457	38214
570.819	38397.27
571.18	38228.68
571.542	38460.99
571.903	38409.92
572.265	38586.64
572.626	38742.79
572.987	38818.73
573.349	38899.4
573.71	39070.02
574.071	39130.58
574.432	39439.05
574.794	39500.74
575.155	39465.26
575.516	39357.69
575.877	39614.86
576.238	39624.81
576.599	39724.01
576.96	39899.83
577.32	39967.4
577.681	39904.8
578.042	40037.22
578.403	40048.52
578.763	40119.03
579.124	40008.75
579.485	40441.28
579.845	40286.94
580.206	40262.53
580.566	40341.4
580.927	40285.81
581.287	40432.02
581.648	40194.73
582.008	40539.13
582.368	40400.38
582.728	40504.33
583.089	40559.7
583.449	40538.23
583.809	40608.96
584.169	40563.54
584.529	40653.71
584.889	40892.34
585.249	40465.01
585.609	40477.66
585.969	40644.89
586.329	40705.23
586.688	40672.46
587.048	40634.04
587.408	40662.97
587.768	40786.58
588.127	40513.14
588.487	40488.51
588.846	40956.97
589.206	40423.88
589.565	40701.61
589.925	40788.84
590.284	40625.46
590.643	40629.98
591.003	40780.71
591.362	40747.94
591.721	40680.37
592.08	40709.75
592.44	40733.7
592.799	40820.71
593.158	40750.65
593.517	40767.15
593.876	40846.24
594.235	40820.93
594.593	40826.13
594.952	40848.28
595.311	40806.02
595.67	40884.21
596.029	40951.1
596.387	40960.36
596.746	41089.17
597.104	40887.82
597.463	41039.23
597.822	41093.69
598.18	40972.57
598.538	41004.43
598.897	41087.82
599.255	40773.25
599.613	41323.07
599.972	41142.05
600.33	41114.26
600.688	40976.86
601.046	41049.17
601.404	41223.86
601.762	41055.95
602.12	41354.7
602.478	41211.88
602.836	41430.18
603.194	41148.83
603.552	41134.14
603.91	41175.27
604.268	41371.43
604.625	41121.04
604.983	41372.56
605.341	41098.89
605.698	41272.22
606.056	41519.22
606.413	41335.95
606.771	41556.51
607.128	41603.51
607.485	41401.03
607.843	41449.84
608.2	41592.89
608.557	41768.48
608.914	41531.87
609.272	41777.74
609.629	41913.56
609.986	41862.94
610.343	41755.15
610.7	42067.23
611.057	42009.6
611.414	41861.58
611.771	42048.7
612.127	42090.05
612.484	41971.41
612.841	42174.57
613.198	42130.95
613.554	42288.46
613.911	42304.74
614.267	42362.13
614.624	42426.54
614.98	42414.56
615.337	42514.67
615.693	42488.91
616.05	42362.59
616.406	42712.18
616.762	42569.59
617.118	42570.26
617.475	42674.67
617.831	42586.31
618.187	42690.94
618.543	42840.54
618.899	42955.11
619.255	42981.78
619.611	42878.05
619.967	43014.09
620.323	42984.27
620.678	42882.8
621.034	42901.33
621.39	42827.66
621.746	42828.79
622.101	43273.3
622.457	43007.54
622.812	43213.86
623.168	43247.54
623.523	43123.92
623.879	43105.84
624.234	43014.55
624.589	43170.25
624.945	43132.28
625.3	43071.04
625.655	43218.84
626.01	43220.19
626.365	43233.3
626.72	43199.85
627.075	43122.34
627.43	42959.41
627.785	42998.05
628.14	43131.83
628.495	43153.53
628.85	43002.57
629.205	42987.2
629.559	43098.39
629.914	43044.38
630.269	42911.05
630.623	42866.75
630.978	42726.64
631.332	43003.02
631.687	42990.14
632.041	42740.43
632.396	42753.99
632.75	42571.39
633.104	42769.58
633.459	42532.53
633.813	42514
634.167	42647.55
634.521	42583.37
634.875	42538.4
635.229	42431.96
635.583	42260.89
635.937	42306.77
636.291	42292.08
636.645	42279.2
636.999	42222.7
637.352	42291.85
637.706	42007.34
638.06	42072.88
638.413	42038.98
638.767	41961.02
639.121	41844.63
639.474	41727.8
639.828	41703.17
640.181	41797.4
640.534	41686.45
640.888	41615.94
641.241	41468.37
641.594	41501.82
641.947	41627.46
642.301	41438.32
642.654	41404.19
643.007	41317.87
643.36	41276.06
643.713	41309.96
644.066	41449.16
644.419	41155.84
644.771	40982.51
645.124	40618.9
645.477	40483.77
645.83	40207.16
646.182	40040.39
646.535	40021.86
646.888	40127.39
647.24	39769.66
647.593	40099.6
647.945	39971.24
648.298	39742.54
648.65	39695.76
649.002	39504.13
649.355	39692.83
649.707	39565.37
650.059	39702.32
650.411	40229.99
650.763	40092.14
651.115	40593.82
651.467	40472.01
651.819	40396.99
652.171	40407.16
652.523	40112.25
652.875	40281.06
653.227	40173.04
653.578	40333.26
653.93	40161.29
654.282	40121.97
654.633	39924.23
654.985	40075.42
655.337	40041.07
655.688	40027.28
656.039	40003.55
656.391	39838.81
656.742	39911.13
657.094	39878.81
657.445	40038.58
657.796	39765.14
658.147	39803.56
658.498	39730.79
658.849	39799.49
659.2	39752.03
659.551	39561.76
659.902	39610.79
660.253	39586.39
660.604	39612.83
660.955	39373.51
661.306	39401.08
661.656	39262.33
662.007	39378.94
662.358	39374.87
662.708	39299.39
663.059	39294.87
663.409	39008.78
663.76	39114.54
664.11	39130.13
664.461	39101.43
664.811	39192.73
665.161	39058.04
665.511	38794.54
665.862	38886.52
666.212	38868.67
666.562	38814.43
666.912	38676.13
667.262	38614.66
667.612	38487.89
667.962	38462.12
668.312	38293.32
668.662	38480.88
669.011	38307.33
669.361	38097.39
669.711	38078.18
670.06	38007.22
670.41	37869.37
670.76	37749.15
671.109	37729.26
671.459	37810.16
671.808	37624.18
672.157	37552.54
672.507	37318.88
672.856	37239.56
673.205	37323.4
673.554	37299.22
673.904	37192.78
674.253	37338.76
674.602	37161.37
674.951	36718.67
675.3	36422.86
675.649	37028.04
675.998	36993.91
676.346	36994.14
676.695	37128.83
677.044	36740.59
677.393	36862.39
677.741	36790.53
678.09	36721.61
678.438	36671.21
678.787	36757.54
679.135	36726.35
679.484	36500.59
679.832	36619.23
680.181	36560.93
680.529	36680.25
680.877	36565.45
681.225	36420.6
681.573	36713.47
681.922	36592.57
682.27	36299.24
682.618	36418.56
682.966	36515.06
683.314	36616.52
683.661	36489.07
684.009	36356.64
684.357	36261.28
684.705	36291.33
685.053	36228.96
685.4	36346.02
685.748	36376.98
686.095	36306.93
686.443	36223.77
686.79	36155.74
687.138	36233.03
687.485	36273.03
687.832	36084.11
688.18	36184.22
688.527	36099.47
688.874	36208.17
689.221	36105.12
689.568	35961.17
689.915	35970.44
690.262	35967.27
690.609	35837.56
690.956	35861.74
691.303	35770.9
691.65	35616.55
691.997	35705.81
692.344	35583.1
692.69	35656.32
693.037	35667.17
693.383	35353.51
693.73	35676.66
694.077	35333.17
694.423	35484.12
694.769	35285.26
695.116	35330.68
695.462	35358.93
695.808	35137.24
696.155	35329.78
696.501	35129.78
696.847	35029.22
697.193	34852.5
697.539	35024.7
697.885	34844.82
698.231	34593.75
698.577	34813.86
698.923	34690.92
699.269	34443.02
699.614	34304.27
699.96	34465.85
700.306	34342.68
700.651	34251.61
700.997	34133.42
701.342	34054.33
701.688	34118.06
702.033	33830.61
702.379	33808.91
702.724	33873.77
703.069	33880.78
703.415	33556.04
703.76	33554.91
704.105	33364.18
704.45	33351.52
704.795	33233.11
705.14	33076.96
705.485	33005.32
705.83	32870.41
706.175	33025.43
706.52	32888.94
706.865	32734.82
707.209	32733.46
707.554	32594.48
707.899	32669.06
708.243	32436.52
708.588	32561.71
708.932	32241.95
709.277	32242.17
709.621	32300.7
709.966	32090.09
710.31	32286.47
710.654	31932.35
710.998	32062.74
711.342	31912.24
711.687	31862.75
712.031	31757.67
712.375	31587.95
712.719	31710.21
713.063	31747.05
713.407	31702.98
713.75	31437
714.094	31503.21
714.438	31287.4
714.782	31371.92
715.125	31238.36
715.469	31298.47
715.812	31123.33
716.156	31029.1
716.499	30991.36
716.843	30982.77
717.186	30687.87
717.53	30938.48
717.873	30853.51
718.216	30813.29
718.559	30675.66
718.902	30338.27
719.246	30614.42
719.589	30482.9
719.932	30321.32
720.275	30434.76
720.617	30338.95
720.96	30299.18
721.303	30146.41
721.646	30183.02
721.989	30033.87
722.331	30006.53
722.674	30123.59
723.016	30122.46
723.359	29931.05
723.701	30011.95
724.044	29831.84
724.386	29563.15
724.729	29686.54
725.071	29767.44
725.413	29727.66
725.755	29741.9
726.097	29587.33
726.439	29451.06
726.782	29461.46
727.124	29607.22
727.465	29302.59
727.807	29293.55
728.149	29267.79
728.491	29257.62
728.833	29265.76
729.175	29135.14
729.516	29044.29
729.858	28898.53
730.199	28920.68
730.541	29000.9
730.882	28850.4
731.224	28817.41
731.565	28705.77
731.906	28691.31
732.248	28709.84
732.589	28503.06
732.93	28424.65
733.271	28587.13
733.612	28470.07
733.953	28529.96
734.294	28278.89
734.635	28426
734.976	28379.23
735.317	28151.43
735.658	28153.02
735.999	28259
736.339	28136.97
736.68	28175.39
737.021	28121.83
737.361	27942.17
737.702	28215.61
738.042	28007.48
738.383	27856.3
738.723	28056.52
739.063	27881.84
739.404	27913.48
739.744	27808.62
740.084	27732.91
740.424	27640.49
740.764	27659.24
741.104	27688.4
741.444	27550.55
741.784	27454.28
742.124	27604.1
742.464	27403.88
742.804	27351.68
743.143	27265.81
743.483	27461.96
743.823	27307.39
744.162	27196.43
744.502	27194.62
744.841	27060.16
745.181	27172.7
745.52	27027.62
745.86	27063.33
746.199	26942.65
746.538	26960.73
746.877	26918.47
747.216	26897.23
747.556	26840.28
747.895	26884.35
748.234	26660.4
748.573	26592.61
748.911	26702.66
749.25	26712.38
749.589	26503.57
749.928	26512.61
750.267	26576.56
750.605	26347.64
750.944	26314.65
751.283	26199.17
751.621	26274.87
751.96	26007.31
752.298	26149
752.636	26211.15
752.975	26028.55
753.313	26007.54
753.651	25921.21
753.989	25834.89
754.327	25801.67
754.666	25667.43
755.004	25745.62
755.342	25660.65
755.679	25611.16
756.017	25481
756.355	25510.83
756.693	25376.14
757.031	25349.47
757.368	25158.52
757.706	25161.68
758.044	25128.01
758.381	25066.09
758.719	25044.4
759.056	24887.11
759.394	24949.03
759.731	24748.36
760.068	24717.63
760.405	24625.43
760.743	24440.12
761.08	24603.51
761.417	24391.08
761.754	24352.21
762.091	24348.6
762.428	24257.75
762.765	24139.11
763.102	24149.73
763.438	24008.27
763.775	23879.91
764.112	23886.91
764.449	23932.11
764.785	23781.83
765.122	23654.38
765.458	23472.91
765.795	23502.52
766.131	23510.65
766.467	23395.63
766.804	23280.38
767.14	23113.15
767.476	23158.35
767.812	23010.55
768.148	22959.93
768.485	22840.84
768.821	22764.46
769.157	22717.91
769.492	22625.93
769.828	22616.44
770.164	22429.1
770.5	22400.85
770.836	22370.12
771.171	22162.44
771.507	22191.37
771.842	22054.42
772.178	22009.45
772.513	21955.44
772.849	21877.93
773.184	21708.89
773.519	21766.74
773.855	21643.36
774.19	21577.6
774.525	21540.99
774.86	21482.91
775.195	21377.6
775.53	21340.09
775.865	21244.95
776.2	21089.47
776.535	20938.52
776.87	20994.56
777.205	20889.25
777.539	20745.75
777.874	20774.23
778.209	20642.71
778.543	20611.97
778.878	20402.03
779.212	20447.23
779.547	20239.78
779.881	20433.9
780.215	20154.36
780.55	20126.56
780.884	20072.1
781.218	19979.22
781.552	19964.08
781.886	19829.39
782.22	19822.84
782.554	19710.98
782.888	19498.56
783.222	19480.93
783.556	19386.47
783.889	19342.63
784.223	19295.4
784.557	19274.61
784.89	19254.49
785.224	19047.95
785.557	19053.37
785.891	18948.74
786.224	18942.64
786.558	18904.67
786.891	18730.67
787.224	18608.64
787.557	18622.42
787.891	18558.01
788.224	18515.98
788.557	18523.21
788.89	18493.84
789.223	18485.47
789.556	18265.82
789.888	18306.04
790.221	18119.83
790.554	18073.96
790.887	17973.85
791.219	18010.01
791.552	17851.59
791.884	17849.78
792.217	17721.65
792.549	17678.04
792.882	17515.78
793.214	17540.64
793.546	17591.94
793.879	17389.91
794.211	17276.24
794.543	17412.06
794.875	17252.74
795.207	17366.41
795.539	17203.25
795.871	17201.21
796.203	17120.54
796.535	16925.06
796.867	16958.96
797.198	16879.41
797.53	16816.82
797.862	16767.78
798.193	16643.71
798.525	16570.95
798.856	16659.99
799.188	16442.82
799.519	16469.26
799.85	16352.2
800.182	16281.69
800.513	16318.07
800.844	16125.99
801.175	16214.57
801.506	16230.17
801.837	16130.28
802.168	16055.93
802.499	15998.99
802.83	15977.07
803.161	15912.43
803.491	15900.23
803.822	15813.23
804.153	15704.08
804.483	15618.43
804.814	15681.25
805.145	15635.83
805.475	15589.96
805.805	15522.39
806.136	15589.96
806.466	15494.14
806.796	15468.15
807.126	15311.77
807.457	15361.71
807.787	15241.94
808.117	15314.71
808.447	15173.25
808.777	15188.61
809.107	15114.04
809.436	14999.92
809.766	14982.97
810.096	14990.88
810.426	14838.34
810.755	14948.62
811.085	14891.22
811.414	14829.53
811.744	14679.25
812.073	14698.91
812.403	14742.3
812.732	14654.61
813.061	14643.99
813.39	14543.66
813.719	14524.9
814.049	14528.97
814.378	14514.73
814.707	14451.23
815.036	14457.78
815.365	14379.59
815.693	14197.68
816.022	14284
816.351	14210.78
816.68	14049.21
817.008	14170.11
817.337	13991.81
817.665	13994.52
817.994	14058.47
818.322	14091.69
818.651	13987.74
818.979	13874.52
819.307	13887.4
819.636	13870.45
819.964	13821.87
820.292	13875.65
820.62	13951.58
820.948	13796.33
821.276	13764.02
821.604	13859.61
821.932	13934.18
822.259	13822.32
822.587	13807.63
822.915	13813.96
823.243	13773.51
823.57	13729.67
823.898	13737.8
824.225	13757.46
824.553	13690.8
824.88	13648.09
825.207	13802.21
825.535	13622.78
825.862	13688.31
826.189	13642.21
826.516	13751.59
826.843	13725.15
827.17	13594.53
827.497	13739.84
827.824	13679.05
828.151	13718.82
828.478	13703.23
828.805	13721.08
829.131	13667.97
829.458	13711.81
829.785	13613.74
830.111	13665.26
830.438	13710.91
830.764	13572.84
831.09	13651.03
831.417	13540.29
831.743	13671.59
832.069	13590.46
832.395	13569.45
832.722	13549.78
833.048	13579.39
833.374	13644.92
833.7	13523.34
834.026	13472.95
834.351	13552.5
834.677	13527.41
835.003	13534.64
835.329	13521.09
835.654	13484.02
835.98	13403.12
836.306	13472.05
836.631	13298.27
836.956	13367.64
837.282	13385.5
837.607	13288.32
837.932	13318.83
838.258	13273.63
838.583	13278.61
838.908	13273.63
839.233	13234.99
839.558	13196.35
839.883	13085.62
840.208	13059.4
840.533	13173.52
840.858	13151.6
841.182	13083.36
841.507	12987.54
841.832	13033.41
842.156	12963.59
842.481	13017.82
842.805	12894.66
843.13	12918.16
843.454	12840.2
843.778	12763.59
844.103	12758.85
844.427	12778.73
844.751	12796.13
845.075	12650.6
845.399	12707.32
845.723	12578.06
846.047	12566.99
846.371	12550.49
846.695	12504.61
847.019	12423.71
847.343	12317.28
847.666	12293.77
847.99	12251.51
848.313	12237.05
848.637	12167.22
848.96	12102.59
849.284	12115.92
849.607	11972.65
849.931	11942.82
850.254	11976.49
850.577	11855.59
850.9	11734.47
851.223	11801.13
851.546	11755.26
851.869	11612.89
852.192	11760.45
852.515	11574.02
852.838	11561.14
853.161	11611.08
853.483	11440.24
853.806	11466.68
854.129	11404.98
854.451	11443.85
854.774	11308.49
855.096	11274.36
855.419	11220.81
855.741	11177.19
856.063	11145.78
856.385	11142.39
856.708	11130.87
857.03	11102.84
857.352	11117.31
857.674	11010.87
857.996	11034.82
858.318	10936.29
858.64	10967.48
858.961	10883.41
859.283	10893.81
859.605	10849.97
859.926	10821.72
860.248	10747.6
860.57	10767.71
860.891	10774.94
861.212	10640.26
861.534	10674.61
861.855	10755.96
862.176	10641.61
862.498	10692.01
862.819	10649.52
863.14	10602.97
863.461	10565.91
863.782	10554.16
864.103	10554.38
864.424	10471
864.745	10485.91
865.065	10389.64
865.386	10389.19
865.707	10383.54
866.027	10465.8
866.348	10379.02
866.668	10307.61
866.989	10384.67
867.309	10226.03
867.63	10301.28
867.95	10249.08
868.27	10210.66
868.59	10273.26
868.91	10147.61
869.23	10241.17
869.55	10163.21
869.87	10161.85
870.19	10222.41
870.51	10154.39
870.83	10115.07
871.15	10154.62
871.469	10082.98
871.789	10039.14
872.109	10105.36
872.428	10074.4
872.748	10089.99
873.067	9989.65
873.386	10000.5
873.706	9969.54
874.025	9951.24
874.344	9905.59
874.663	9910.33
874.982	9889.99
875.301	9938.81
875.62	9891.8
875.939	9825.14
876.258	9787.62
876.577	9766.83
876.896	9794.86
877.214	9824.23
877.533	9800.73
877.852	9792.14
878.17	9741.3
878.489	9801.86
878.807	9735.42
879.125	9696.55
879.444	9744.01
879.762	9649.77
880.08	9616.56
880.398	9576.1
880.716	9601.87
881.034	9577.69
881.352	9630.57
881.67	9438.03
881.988	9515.99
882.306	9579.72
882.624	9483.23
882.941	9398.03
883.259	9388.09
883.577	9403.91
883.894	9383.34
884.212	9383.34
884.529	9312.83
884.846	9351.25
885.164	9321.2
885.481	9335.21
885.798	9307.18
886.115	9194.87
886.432	9272.16
886.75	9155.32
887.067	9185.38
887.383	9144.03
887.7	9062.9
888.017	9081.43
888.334	9081.65
888.651	9095.21
888.967	9066.74
889.284	9017.02
889.6	8964.37
889.917	8934.09
890.233	8926.86
890.55	8915.33
890.866	8912.62
891.182	8872.85
891.498	8851.15
891.815	8838.27
892.131	8847.99
892.447	8745.84
892.763	8742.23
893.079	8706.97
893.395	8623.81
893.71	8647.09
894.026	8628.56
894.342	8647.32
894.657	8504.49
894.973	8550.37
895.289	8520.09
895.604	8524.83
895.92	8452.52
896.235	8375.46
896.55	8400.99
896.865	8393.31
897.181	8377.04
897.496	8375.68
897.811	8299.75
898.126	8284.39
898.441	8232.64
898.756	8248.23
899.071	8214.56
899.386	8160.77
899.7	8089.59
900.015	8093.43
900.33	8009.82
900.644	8025.86
900.959	8024.96
901.273	8002.59
901.588	7982.02
901.902	7945.19
902.216	7917.84
902.531	7893.66
902.845	7878.97
903.159	7805.53
903.473	7808.69
903.787	7740.45
904.101	7654.8
904.415	7697.06
904.729	7599.43
905.042	7637.4
905.356	7609.15
905.67	7529.38
905.984	7550.39
906.297	7456.61
906.611	7481.47
906.924	7411.87
907.237	7415.03
907.551	7443.5
907.864	7351.98
908.177	7356.28
908.491	7287.58
908.804	7191.99
909.117	7227.24
909.43	7153.57
909.743	7176.62
910.056	7177.07
910.368	7158.77
910.681	7111.54
910.994	7131.87
911.307	7102.72
911.619	7001.93
911.932	7004.87
912.244	6990.86
912.557	6977.08
912.869	6870.19
913.181	6895.04
913.494	6794.03
913.806	6839.9
914.118	6805.33
914.43	6742.96
914.742	6761.71
915.054	6720.36
915.366	6722.62
915.678	6701.38
915.99	6683.07
916.302	6591.32
916.613	6544.09
916.925	6521.95
917.236	6535.28
917.548	6489.86
917.859	6480.37
918.171	6471.78
918.482	6396.07
918.794	6355.17
919.105	6406.47
919.416	6321.27
919.727	6322.18
920.038	6334.83
920.349	6256.64
920.66	6229.98
920.971	6174.61
921.282	6163.54
921.593	6159.92
921.903	6111.56
922.214	6077.67
922.525	6081.05
922.835	6047.16
923.146	6049.87
923.456	6024.79
923.767	6034.5
924.077	5991.79
924.387	5883.77
924.697	5849.87
925.008	5924.67
925.318	5923.77
925.628	5879.7
925.938	5755.64
926.248	5785.47
926.558	5801.51
926.867	5744.79
927.177	5683.55
927.487	5674.06
927.796	5682.87
928.106	5662.31
928.416	5628.86
928.725	5604.23
929.034	5533.5
929.344	5541.41
929.653	5514.74
929.962	5495.76
930.271	5434.29
930.581	5430.9
930.89	5439.72
931.199	5407.4
931.508	5372.82
931.817	5377.34
932.125	5344.8
932.434	5321.07
932.743	5294.41
933.051	5264.13
933.36	5245.6
933.669	5223.45
933.977	5158.14
934.286	5181.42
934.594	5187.29
934.902	5104.13
935.21	5148.42
935.519	5096
935.827	5042.21
936.135	5078.14
936.443	5040.86
936.751	4994.98
937.059	4986.17
937.367	4914.08
937.674	4967.64
937.982	4948.88
938.29	4919.96
938.597	4914.31
938.905	4852.61
939.213	4812.84
939.52	4764.03
939.827	4809.22
940.135	4791.37
940.442	4771.94
940.749	4786.17
941.056	4745.72
941.363	4716.34
941.67	4684.48
941.977	4633.18
942.284	4606.97
942.591	4588.89
942.898	4588.21
943.205	4588.44
943.511	4587.31
943.818	4550.25
944.125	4544.82
944.431	4476.13
944.738	4491.49
945.044	4478.61
945.35	4423.47
945.657	4414.43
945.963	4399.52
946.269	4366.75
946.575	4395.9
946.881	4329.24
947.187	4325.62
947.493	4304.6
947.799	4256.24
948.105	4286.98
948.41	4224.61
948.716	4243.59
949.022	4234.55
949.327	4212.63
949.633	4158.85
949.938	4154.55
950.244	4164.27
950.549	4103.03
950.854	4105.06
951.16	4076.36
951.465	4057.83
951.77	4055.35
952.075	4032.75
952.38	4020.09
952.685	4015.8
952.99	3997.95
953.294	3940.32
953.599	3935.12
953.904	3923.6
954.209	3884.73
954.513	3883.15
954.818	3873.2
955.122	3852.19
955.426	3834.56
955.731	3802.02
956.035	3841.57
956.339	3798.18
956.643	3746.88
956.948	3736.94
957.252	3730.38
957.556	3740.78
957.86	3710.95
958.163	3727.9
958.467	3685.41
958.771	3669.82
959.075	3680.67
959.378	3594.79
959.682	3613.1
959.985	3590.27
960.289	3588.46
960.592	3552.31
960.896	3567.45
961.199	3514.57
961.502	3555.47
961.805	3505.53
962.108	3513.89
962.411	3509.82
962.714	3461.91
963.017	3468.24
963.32	3451.75
963.623	3428.02
963.926	3433.67
964.228	3400.9
964.531	3392.76
964.833	3370.62
965.136	3355.25
965.438	3319.32
965.741	3340.34
966.043	3335.36
966.345	3276.16
966.648	3264.63
966.95	3261.47
967.252	3221.02
967.554	3249.94
967.856	3227.34
968.158	3190.51
968.46	3163.84
968.761	3206.55
969.063	3223.05
969.365	3169.49
969.666	3150.74
969.968	3151.41
970.269	3099.21
970.571	3066.9
970.872	3089.95
971.174	3066.22
971.475	3080.46
971.776	3052.66
972.077	3029.84
972.378	3001.59
972.679	3042.26
972.98	2990.51
973.281	2972.44
973.582	2936.28
973.883	2949.16
974.183	2942.15
974.484	2882.49
974.785	2892.44
975.085	2910.06
975.386	2901.25
975.686	2889.05
975.986	2860.8
976.287	2833.68
976.587	2796.62
976.887	2850.41
977.187	2848.6
977.487	2800.46
977.787	2809.95
978.087	2744.87
978.387	2745.1
978.687	2757.3
978.987	2737.41
979.286	2718.21
979.586	2720.92
979.885	2699.45
980.185	2703.06
980.484	2709.39
980.784	2656.29
981.083	2612.45
981.382	2611.77
981.682	2612.45
981.981	2620.81
982.28	2622.16
982.579	2621.94
982.878	2557.98
983.177	2568.38
983.475	2571.32
983.774	2541.49
984.073	2557.08
984.372	2538.55
984.67	2512.34
984.969	2508.72
985.267	2499.23
985.566	2516.85
985.864	2496.06
986.162	2448.61
986.461	2452.45
986.759	2460.81
987.057	2418.78
987.355	2433.69
987.653	2352.79
987.951	2381.49
988.249	2400.02
988.547	2371.32
988.844	2374.26
989.142	2357.08
989.44	2337.2
989.737	2325.45
990.035	2309.63
990.332	2317.54
990.63	2277.09
990.927	2316.63
991.224	2273.7
991.521	2264.88
991.819	2278.89
992.116	2260.36
992.413	2235.05
992.71	2205.22
993.006	2234.38
993.303	2212
993.6	2190.76
993.897	2162.51
994.193	2184.89
994.49	2178.33
994.787	2145.79
995.083	2124.32
995.379	2146.02
995.676	2141.5
995.972	2129.07
996.268	2105.34
996.565	2084.1
996.861	2092.01
997.157	2067.83
997.453	2062.63
997.749	2042.97
998.044	2088.17
998.34	2052.23
998.636	2026.92
998.932	2000.48
999.227	2006.81
999.523	1988.96
999.818	2009.52
1000.114	2003.65
1000.409	1960.26
1000.704	1976.98
1001	1956.42
1001.295	1948.51
1001.59	1939.92
1001.885	1940.6
1002.18	1919.36
1002.475	1898.57
1002.77	1896.53
1003.065	1891.56
1003.359	1876.65
1003.654	1865.35
1003.949	1869.64
1004.243	1842.52
1004.538	1830.55
1004.832	1835.06
1005.127	1832.58
1005.421	1835.97
1005.715	1825.35
1006.009	1782.18
1006.304	1749.64
1006.598	1778.57
1006.892	1740.38
1007.186	1765.91
1007.48	1742.19
1007.773	1733.37
1008.067	1727.5
1008.361	1679.14
1008.655	1687.5
1008.948	1713.71
1009.242	1675.29
1009.535	1671.68
1009.829	1661.28
1010.122	1653.37
1010.415	1619.25
1010.708	1614.73
1011.001	1611.34
1011.295	1591.68
1011.588	1599.14
1011.881	1600.04
1012.173	1572.7
1012.466	1579.03
1012.759	1572.92
1013.052	1577.22
1013.344	1564.56
1013.637	1523.66
1013.93	1547.39
1014.222	1508.97
1014.514	1509.65
1014.807	1509.88
1015.099	1496.77
1015.391	1478.24
1015.683	1497.67
1015.976	1477.11
1016.268	1448.63
1016.56	1461.52
1016.851	1464
1017.143	1433.27
1017.435	1429.2
1017.727	1391.69
1018.018	1412.25
1018.31	1397.11
1018.602	1376.32
1018.893	1365.7
1019.185	1369.09
1019.476	1365.92
1019.767	1386.71
1020.058	1349.65
1020.35	1335.19
1020.641	1306.27
1020.932	1319.82
1021.223	1316.21
1021.514	1315.3
1021.804	1292.03
1022.095	1291.35
1022.386	1287.96
1022.677	1267.17
1022.967	1268.75
1023.258	1230.33
1023.548	1251.58
1023.839	1246.83
1024.129	1231.24
1024.419	1218.36
1024.709	1238.47
1025	1181.07
1025.29	1204.57
1025.58	1225.36
1025.87	1208.19
1026.16	1181.3
1026.449	1187.85
1026.739	1148.53
1027.029	1172.48
1027.319	1153.95
1027.608	1142.65
1027.898	1137.23
1028.187	1120.73
1028.477	1141.3
1028.766	1121.19
1029.055	1109.66
1029.344	1119.15
1029.634	1122.54
1029.923	1111.24
1030.212	1100.39
1030.501	1068.98
1030.79	1060.17
1031.078	1055.65
1031.367	1054.52
1031.656	1047.51
1031.945	1049.1
1032.233	990.79
1032.522	1032.15
1032.81	1033.28
1033.099	987.18
1033.387	1033.05
1033.675	996.22
1033.963	1006.61
1034.251	985.37
1034.54	985.14
1034.828	968.19
1035.116	963.9
1035.403	983.34
1035.691	952.83
1035.979	942.88
1036.267	973.39
1036.554	931.36
1036.842	936.78
1037.129	938.82
1037.417	901.76
1037.704	899.95
1037.992	912.6
1038.279	914.19
1038.566	918.48
1038.853	918.48
1039.14	918.48
