Data from White_reflection_standard_FLMS001491_007.txt Node
Date: Tue Feb 07 10:31:56 GMT 2017
User: dcchb
Spectrometer: FLMS00149
Trigger mode: 0
Integration Time (sec): 2.000000E-2
Scans to average: 10
Electric dark correction enabled: true
Nonlinearity correction enabled: false
Boxcar width: 0
XAxis mode: Wavelengths
Number of Pixels in Spectrum: 2048
>>>>>Begin Spectral Data<<<<<
341.393	-29.29
341.776	-29.29
342.16	-29.29
342.543	-47.15
342.927	-62.96
343.31	-69.52
343.693	-66.81
344.077	-86.92
344.46	-57.31
344.843	-46.69
345.226	-41.5
345.61	-32.91
345.993	-8.28
346.376	-18.45
346.759	25.17
347.142	42.57
347.525	40.31
347.908	66.3
348.291	74.21
348.674	80.08
349.057	99.74
349.44	139.52
349.823	119.63
350.206	167.31
350.588	223.58
350.971	247.08
351.354	261.32
351.737	268.78
352.119	280.08
352.502	302
352.884	303.35
353.267	315.33
353.65	342.9
354.032	353.52
354.414	351.26
354.797	362.56
355.179	375.44
355.562	374.99
355.944	376.12
356.326	407.76
356.709	382.45
357.091	412.73
357.473	408.21
357.855	417.02
358.238	403.92
358.62	417.47
359.002	392.39
359.384	410.47
359.766	404.59
360.148	397.36
360.53	385.16
360.912	400.53
361.294	401.2
361.676	426.74
362.057	402.56
362.439	389.23
362.821	422.45
363.203	398.04
363.584	394.88
363.966	402.56
364.348	414.99
364.729	412.96
365.111	421.54
365.493	410.47
365.874	414.54
366.256	417.93
366.637	448.66
367.019	412.05
367.4	411.15
367.781	430.58
368.163	431.49
368.544	420.41
368.925	418.6
369.306	431.71
369.688	434.2
370.069	457.02
370.45	449.11
370.831	438.72
371.212	461.32
371.593	440.75
371.974	434.2
372.355	446.63
372.736	459.51
373.117	464.25
373.498	478.72
373.879	452.5
374.26	448.66
374.641	440.75
375.021	442.33
375.402	463.58
375.783	472.39
376.163	511.71
376.544	495.44
376.925	474.87
377.305	507.87
377.686	492.05
378.066	483.91
378.447	523.46
378.827	526.85
379.208	516.23
379.588	511.94
379.968	560.3
380.349	525.27
380.729	520.52
381.109	522.78
381.489	542.67
381.87	552.84
382.25	527.75
382.63	549
383.01	578.6
383.39	579.73
383.77	562.33
384.15	590.8
384.53	591.48
384.91	596.91
385.29	566.17
385.67	596
386.049	610.92
386.429	624.25
386.809	617.7
387.189	631.03
387.568	608.2
387.948	643.91
388.328	648.2
388.707	650.46
389.087	678.03
389.466	665.83
389.846	679.16
390.225	679.61
390.605	677.58
390.984	676.23
391.363	706.51
391.743	702.89
392.122	714.87
392.501	736.34
392.881	755.32
393.26	752.38
393.639	737.47
394.018	758.48
394.397	771.14
394.776	784.47
395.155	770.69
395.534	794.41
395.913	796.67
396.292	824.47
396.671	839.84
397.05	795.32
397.429	831.48
397.808	842.1
398.186	846.39
398.565	875.32
398.944	880.06
399.323	868.54
399.701	868.54
400.08	906.73
400.458	889.78
400.837	930.23
401.215	930.68
401.594	946.05
401.972	952.6
402.351	955.09
402.729	990.57
403.107	995.31
403.486	992.15
403.864	1029.89
404.242	980.85
404.62	1029.66
404.999	1024.92
405.377	1058.14
405.755	1052.94
406.133	1053.62
406.511	1080.28
406.889	1106.04
407.267	1102.43
407.645	1129.55
408.023	1144.46
408.401	1125.48
408.779	1175.2
409.156	1184.01
409.534	1184.69
409.912	1204.8
410.29	1255.42
410.667	1251.13
411.045	1259.03
411.422	1277.11
411.8	1305.81
412.178	1322.99
412.555	1379.03
412.933	1343.33
413.31	1369.99
413.687	1381.74
414.065	1419.03
414.442	1418.13
414.819	1458.58
415.197	1429.88
415.574	1475.3
415.951	1538.58
416.328	1483.89
416.705	1517.33
417.082	1543.1
417.46	1585.81
417.837	1572.47
418.214	1586.26
418.591	1605.01
418.967	1600.95
419.344	1613.15
419.721	1660.15
420.098	1655.63
420.475	1718.68
420.852	1706.48
421.228	1727.95
421.605	1740.6
421.982	1770.43
422.358	1779.7
422.735	1806.36
423.111	1789.87
423.488	1818.34
423.864	1838.45
424.241	1894.27
424.617	1890.43
424.994	1913.25
425.37	1974.72
425.746	1952.8
426.123	1975.17
426.499	1943.76
426.875	2064.44
427.251	2086.81
427.627	2087.04
428.003	2151.44
428.379	2191.21
428.756	2184.66
429.132	2190.54
429.507	2252.68
429.883	2287.26
430.259	2301.72
430.635	2317.54
431.011	2345.56
431.387	2413.13
431.763	2431.89
432.138	2453.81
432.514	2500.81
432.89	2526.35
433.265	2569.73
433.641	2591.66
434.016	2628.72
434.392	2649.05
434.767	2701.26
435.143	2713.69
435.518	2755.72
435.894	2791.88
436.269	2868.48
436.644	2897.18
437.02	2902.16
437.395	2900.57
437.77	2978.09
438.145	2988.93
438.52	3023.28
438.895	3015.82
439.271	3069.83
439.646	3155.48
440.021	3185.09
440.395	3164.97
440.77	3161.13
441.145	3193.22
441.52	3289.26
441.895	3269.15
442.27	3311.86
442.645	3296.5
443.019	3381.46
443.394	3342.37
443.769	3407.45
444.143	3407.68
444.518	3485.42
444.892	3435.93
445.267	3499.2
445.641	3549.82
446.016	3592.31
446.39	3567.45
446.764	3584.4
447.139	3587.11
447.513	3686.77
447.887	3691.97
448.262	3662.14
448.636	3717.28
449.01	3774.22
449.384	3790.72
449.758	3861.23
450.132	3898.29
450.506	3917.04
450.88	3941.22
451.254	3938.29
451.628	4011.5
452.002	4053.09
452.376	4108
452.75	4163.37
453.123	4177.15
453.497	4255.57
453.871	4262.8
454.244	4363.36
454.618	4414.88
454.992	4461.21
455.365	4469.8
455.739	4581.66
456.112	4592.51
456.486	4643.58
456.859	4704.37
457.232	4786.4
457.606	4834.99
457.979	4895.1
458.352	4937.58
458.725	5064.58
459.099	5066.17
459.472	5129.22
459.845	5223
460.218	5217.8
460.591	5298.7
460.964	5346.38
461.337	5481.75
461.71	5537.79
462.083	5649.65
462.456	5638.81
462.829	5677
463.201	5820.04
463.574	5804.9
463.947	5908.63
464.32	6076.99
464.692	6071.56
465.065	6152.92
465.438	6232.69
465.81	6309.75
466.183	6382.29
466.555	6537.09
466.928	6530.53
467.3	6553.36
467.672	6709.96
468.045	6863.41
468.417	6906.8
468.789	6952.67
469.161	7012.78
469.534	7161.93
469.906	7297.97
470.278	7382.94
470.65	7463.17
471.022	7612.09
471.394	7727.34
471.766	7792.2
472.138	7921.01
472.51	8073.77
472.882	8237.16
473.253	8354.89
473.625	8419.98
473.997	8619.97
474.369	8684.38
474.74	8791.49
475.112	8982.22
475.484	9120.52
475.855	9259.28
476.227	9353.74
476.598	9628.31
476.97	9668.08
477.341	9906.49
477.713	10088.63
478.084	10131.8
478.455	10426.93
478.827	10484.55
479.198	10774.94
479.569	10804.77
479.94	11154.59
480.311	11206.34
480.682	11493.34
481.053	11780.79
481.424	11909.83
481.795	12011.52
482.166	12197.73
482.537	12400.21
482.908	12706.19
483.279	12804.95
483.65	12988.22
484.021	13294.65
484.391	13403.12
484.762	13519.96
485.133	13704.36
485.503	13838.82
485.874	14194.29
486.244	14329.2
486.615	14687.83
486.985	14820.49
487.356	15042.4
487.726	15232.23
488.097	15494.14
488.467	15529.39
488.837	15888.25
489.207	16063.17
489.578	16333.89
489.948	16479.88
490.318	16719.87
490.688	16781.11
491.058	16960.99
491.428	17218.84
491.798	17439.63
492.168	17804.36
492.538	17898.6
492.908	18023.34
493.278	18276.44
493.648	18330
494.017	18575.87
494.387	18727.5
494.757	18931.79
495.126	19082.29
495.496	19171.56
495.866	19365.23
496.235	19588.5
496.605	19802.73
496.974	19828.94
497.344	20052.89
497.713	20140.12
498.082	20378.76
498.452	20647.23
498.821	20622.59
499.19	20713.44
499.559	20948.23
499.928	21207.21
500.298	21284.5
500.667	21498.28
501.036	21451.05
501.405	21691.94
501.774	21778.27
502.143	22077.92
502.512	22181.2
502.88	22285.37
503.249	22373.96
503.618	22436.33
503.987	22714.52
504.356	22827.96
504.724	22944.34
505.093	23091.91
505.462	23237.67
505.83	23436.08
506.199	23681.95
506.567	23887.37
506.936	23804.88
507.304	24194.48
507.672	24221.82
508.041	24409.61
508.409	24579.55
508.777	24799.88
509.145	24972.31
509.514	25162.59
509.882	25202.36
510.25	25331.4
510.618	25540.88
510.986	25682.57
511.354	25959.18
511.722	26055.22
512.09	26324.14
512.458	26462.44
512.826	26647.97
513.193	26717.57
513.561	26959.15
513.929	27175.87
514.297	27416.09
514.664	27600.04
515.032	27702.41
515.4	27970.42
515.767	28051.32
516.135	28314.37
516.502	28207.7
516.869	28738.76
517.237	28740.12
517.604	28632.1
517.972	29121.35
518.339	29429.59
518.706	29410.38
519.073	29721.56
519.44	29909.81
519.808	30237.03
520.175	30193.87
520.542	30751.14
520.909	30849.67
521.276	30931.47
521.643	31220.96
522.009	31412.14
522.376	31733.26
522.743	31937.32
523.11	32207.15
523.477	32559
523.843	32643.97
524.21	33136.84
524.577	33227.69
524.943	33336.16
525.31	33643.04
525.676	33848.69
526.043	34103.37
526.409	34335.23
526.776	34550.14
527.142	34831.26
527.508	34989.22
527.874	35368.19
528.241	35566.16
528.607	35573.16
528.973	35954.62
529.339	36006.37
529.705	36371.78
530.071	36693.58
530.437	36691.55
530.803	36979
531.169	37207.69
531.535	37226.68
531.901	37371.53
532.267	37645.65
532.632	37728.58
532.998	37909.37
533.364	38201.11
533.73	38261.68
534.095	38548.45
534.461	38720.2
534.826	38960.87
535.192	39021.21
535.557	39521.31
535.923	39384.81
536.288	39474.3
536.653	39854.86
537.019	39700.06
537.384	40028.86
537.749	40032.03
538.114	40218.69
538.479	40167.16
538.845	40472.47
539.21	40567.83
539.575	40751.1
539.94	40919.91
540.305	41136.63
540.67	41122.85
541.034	41151.09
541.399	41501.82
541.764	41485.32
542.129	41676.73
542.494	41854.13
542.858	41891.41
543.223	42008.47
543.587	42382.93
543.952	42273.78
544.316	42468.8
544.681	42513.77
545.045	42706.98
545.41	42820.2
545.774	43063.81
546.138	42990.37
546.503	43352.62
546.867	43360.53
547.231	43727.52
547.595	43789.67
547.959	43985.37
548.324	43939.04
548.688	44122.99
549.052	44211.58
549.416	44262.88
549.779	44468.07
550.143	44499.71
550.507	44805.01
550.871	45015.62
551.235	45035.28
551.599	45339.91
551.962	45409.96
552.326	45592.33
552.689	45727.47
553.053	45653.35
553.417	45863.96
553.78	46301.69
554.143	46053.56
554.507	46407
554.87	46437.51
555.234	46781.23
555.597	46714.79
555.96	46968.57
556.323	47100.77
556.686	47171.95
557.05	47440.42
557.413	47607.65
557.776	47730.58
558.139	47950.69
558.502	48066.84
558.865	48150.46
559.228	48380.73
559.59	48466.83
559.953	48628.18
560.316	48910.21
560.679	49041.28
561.041	49351.33
561.404	49466.35
561.767	49674.03
562.129	49629.29
562.492	49860.69
562.854	49948.38
563.217	49987.47
563.579	50192.66
563.941	50434.92
564.304	50550.62
564.666	50775.92
565.028	50834.91
565.39	50950.84
565.753	51090.27
566.115	51166.2
566.477	51380.43
566.839	51402.57
567.201	51616.13
567.563	51694.54
567.925	51986.06
568.287	51931.15
568.648	51995.1
569.01	52178.15
569.372	52391.7
569.734	52368.43
570.095	52626.05
570.457	52810.22
570.819	52774.29
571.18	52770.9
571.542	52962.99
571.903	53036.2
572.265	53266.93
572.626	53244.56
572.987	53337.44
573.349	53411.79
573.71	53506.25
574.071	53486.59
574.432	53683.87
574.794	53860.36
575.155	53823.08
575.516	53743.3
575.877	53935.39
576.238	53975.61
576.599	54109.85
576.96	54107.14
577.32	54153.69
577.681	54205.67
578.042	54271.65
578.403	54297.41
578.763	54317.75
579.124	54336.06
579.485	54466.45
579.845	54527.69
580.206	54418.31
580.566	54483.62
580.927	54618.08
581.287	54721.58
581.648	54542.38
582.008	54799.1
582.368	54638.65
582.728	54750.96
583.089	54631.19
583.449	54659.21
583.809	54777.85
584.169	54762.26
584.529	54700.12
584.889	54913.9
585.249	54761.58
585.609	54664.41
585.969	54856.95
586.329	54806.78
586.688	54811.3
587.048	54786.67
587.408	54807.23
587.768	54754.13
588.127	54799.1
588.487	54717.29
588.846	54879.55
589.206	54791.86
589.565	54781.47
589.925	54977.4
590.284	54882.03
590.643	54835.48
591.003	54957.06
591.362	55004.06
591.721	55034.34
592.08	54959.09
592.44	54974.68
592.799	54961.35
593.158	54968.36
593.517	54971.75
593.876	54986.21
594.235	54945.98
594.593	54951.41
594.952	55043.38
595.311	54933.33
595.67	54970.62
596.029	55146.43
596.387	55190.05
596.746	55278.86
597.104	55054
597.463	55151.63
597.822	55171.29
598.18	55018.53
598.538	55085.42
598.897	55270.95
599.255	55091.07
599.613	55369.93
599.972	55238.63
600.33	55362.24
600.688	55237.28
601.046	55309.59
601.404	55357.5
601.762	55401.11
602.12	55452.86
602.478	55489.7
602.836	55522.47
603.194	55399.76
603.552	55502.58
603.91	55344.17
604.268	55466.2
604.625	55437.27
604.983	55528.34
605.341	55514.56
605.698	55602.24
606.056	55659.41
606.413	55515.24
606.771	55708.22
607.128	55749.81
607.485	55636.81
607.843	55642.69
608.2	55787.09
608.557	55867.77
608.914	55769.92
609.272	55964.49
609.629	55926.07
609.986	56015.79
610.343	55944.15
610.7	56114.54
611.057	56072.51
611.414	55978.5
611.771	56086.07
612.127	56176.69
612.484	56174.2
612.841	56252.39
613.198	56108.44
613.554	56162.68
613.911	56322.22
614.267	56338.26
614.624	56202.67
614.98	56253.97
615.337	56385.49
615.693	56303.69
616.05	56350.92
616.406	56538.26
616.762	56323.8
617.118	56324.25
617.475	56355.67
617.831	56430.69
618.187	56474.08
618.543	56468.2
618.899	56603.57
619.255	56602.44
619.611	56585.72
619.967	56644.7
620.323	56696.45
620.678	56508.43
621.034	56442.89
621.39	56454.87
621.746	56537.58
622.101	56715.66
622.457	56541.2
622.812	56587.07
623.168	56721.98
623.523	56602.66
623.879	56717.92
624.234	56550.91
624.589	56696.67
624.945	56651.25
625.3	56682.44
625.655	56655.09
626.01	56602.66
626.365	56710.91
626.72	56570.12
627.075	56544.59
627.43	56544.59
627.785	56528.77
628.14	56625.04
628.495	56591.59
628.85	56544.81
629.205	56529.45
629.559	56633.4
629.914	56445.38
630.269	56429.34
630.623	56445.83
630.978	56329
631.332	56451.48
631.687	56465.72
632.041	56351.37
632.396	56434.31
632.75	56329.68
633.104	56292.84
633.459	56230.47
633.813	56215.33
634.167	56233.63
634.521	56178.49
634.875	56216.23
635.229	56135.11
635.583	55991.61
635.937	55993.64
636.291	55919.07
636.645	55988.9
636.999	55947.77
637.352	55991.15
637.706	55817.83
638.06	55841.1
638.413	55776.7
638.767	55743.48
639.121	55801.56
639.474	55671.39
639.828	55662.58
640.181	55630.26
640.534	55637.04
640.888	55548.68
641.241	55387.55
641.594	55530.83
641.947	55500.09
642.301	55543.94
642.654	55432.3
643.007	55418.74
643.36	55318.18
643.713	55271.17
644.066	55350.04
644.419	55180.1
644.771	55037.06
645.124	54697.63
645.477	54627.57
645.83	54505.32
646.182	54419.67
646.535	54267.81
646.888	54307.58
647.24	54148.72
647.593	54327.24
647.945	54277.98
648.298	54129.28
648.65	54109.85
649.002	54017.2
649.355	54073.69
649.707	53952.34
650.059	54173.12
650.411	54434.81
650.763	54540.57
651.115	54746.44
651.467	54623.06
651.819	54612.89
652.171	54570.18
652.523	54543.28
652.875	54458.54
653.227	54422.83
653.578	54572.89
653.93	54451.53
654.282	54316.4
654.633	54274.59
654.985	54322.5
655.337	54307.58
655.688	54302.61
656.039	54312.33
656.391	54091.77
656.742	54133.35
657.094	54084.99
657.445	54282.27
657.796	54150.98
658.147	54077.31
658.498	54008.38
658.849	54106.01
659.2	53983.52
659.551	53982.85
659.902	54050.19
660.253	53936.07
660.604	54048.61
660.955	53835.96
661.306	53934.26
661.656	53911.21
662.007	53987.14
662.358	53850.87
662.708	53881.38
663.059	53887.26
663.409	53701.27
663.76	53846.58
664.11	53826.69
664.461	53906.24
664.811	53736.07
665.161	53762.06
665.511	53657.88
665.862	53698.11
666.212	53847.71
666.562	53764.77
666.912	53663.53
667.262	53647.26
667.612	53570.43
667.962	53684.1
668.312	53563.2
668.662	53606.36
669.011	53492.92
669.361	53421.05
669.711	53536.98
670.06	53538.79
670.41	53425.12
670.76	53313.94
671.109	53472.13
671.459	53414.27
671.808	53350.09
672.157	53382.86
672.507	53177.22
672.856	53184.22
673.205	53196.65
673.554	53302.64
673.904	53098.58
674.253	53289.76
674.602	53260.38
674.951	52739.26
675.3	52573.17
675.649	53146.03
675.998	53022.87
676.346	53048.41
676.695	53176.99
677.044	52839.15
677.393	52994.62
677.741	52995.98
678.09	52866.94
678.438	52840.05
678.787	52926.83
679.135	52917.11
679.484	52675.76
679.832	52772.71
680.181	52614.97
680.529	52722.31
680.877	52615.65
681.225	52554.86
681.573	52628.98
681.922	52451.59
682.27	52420.18
682.618	52429.44
682.966	52270.12
683.314	52251.37
683.661	52229.9
684.009	52048.66
684.357	51965.05
684.705	51888.21
685.053	52027.19
685.4	51869.68
685.748	51713.75
686.095	51695
686.443	51588.33
686.79	51611.84
687.138	51630.14
687.485	51521.44
687.832	51491.39
688.18	51412.07
688.527	51224.73
688.874	51296.82
689.221	51165.07
689.568	51112.41
689.915	50984.96
690.262	50960.33
690.609	50760.56
690.956	50687.34
691.303	50740.22
691.65	50509.04
691.997	50557.63
692.344	50216.62
692.69	50229.95
693.037	50236.05
693.383	50084.19
693.73	50141.14
694.077	49859.34
694.423	49882.39
694.769	49734.14
695.116	49618.67
695.462	49650.08
695.808	49390.2
696.155	49438.11
696.501	49258.68
696.847	49196.31
697.193	48889.42
697.539	49102.52
697.885	48796.09
698.231	48777.33
698.577	48694.17
698.923	48564.23
699.269	48408.53
699.614	48288.08
699.96	48258.48
700.306	48136.45
700.651	47939.39
700.997	47915.21
701.342	47911.37
701.688	47771.71
702.033	47721.54
702.379	47637.02
702.724	47517.25
703.069	47541.43
703.415	47143.25
703.76	47170.6
704.105	47134.66
704.45	47017.61
704.795	46704.85
705.14	46613.32
705.485	46646.77
705.83	46602.7
706.175	46456.04
706.52	46384.4
706.865	46109.15
707.209	46175.82
707.554	45992.77
707.899	46108.7
708.243	45791.65
708.588	45798.88
708.932	45522.96
709.277	45372.9
709.621	45528.61
709.966	45273.92
710.31	45387.37
710.654	44969.07
710.998	45050.43
711.342	45080.93
711.687	44860.37
712.031	44821.51
712.375	44579.03
712.719	44677.1
713.063	44577.22
713.407	44604.11
713.75	44499.25
714.094	44367.05
714.438	44175.65
714.782	44297.23
715.125	44016.78
715.469	44238.92
715.812	43808.2
716.156	43701.53
716.499	43674.42
716.843	43631.25
717.186	43413.18
717.53	43640.07
717.873	43560.97
718.216	43458.83
718.559	43185.16
718.902	43052.51
719.246	43104.26
719.589	42895.45
719.932	42870.6
720.275	42774.33
720.617	42785.17
720.96	42746.31
721.303	42716.02
721.646	42640.77
721.989	42214.57
722.331	42366.43
722.674	42346.99
723.016	42314.45
723.359	42206.43
723.701	42146.55
724.044	42049.6
724.386	41710.85
724.729	41985.87
725.071	41900.45
725.413	41728.48
725.755	41761.25
726.097	41620.46
726.439	41433.12
726.782	41476.73
727.124	41569.16
727.465	41182.05
727.807	41335.04
728.149	41166.46
728.491	41209.4
728.833	41025.45
729.175	40986.8
729.516	40924.88
729.858	40820.93
730.199	40787.26
730.541	40734.38
730.882	40647.6
731.224	40795.17
731.565	40321.28
731.906	40589.98
732.248	40490.55
732.589	40271.57
732.93	40209.65
733.271	40288.74
733.612	40243.77
733.953	40106.83
734.294	40105.92
734.635	39964.01
734.976	39997.9
735.317	39760.62
735.658	39735.99
735.999	39755.2
736.339	39493.74
736.68	39756.1
737.021	39599.27
737.361	39408.99
737.702	39614.64
738.042	39253.06
738.383	39081.32
738.723	39261.65
739.063	39134.87
739.404	39187.98
739.744	39082.9
740.084	39024.6
740.424	38871.15
740.764	38771.72
741.104	39014.88
741.444	38549.81
741.784	38573.76
742.124	38711.84
742.464	38510.71
742.804	38422.13
743.143	38326.53
743.483	38437.04
743.823	38171.51
744.162	38244.73
744.502	38275.69
744.841	38188.23
745.181	38242.7
745.52	38062.36
745.86	38096.26
746.199	37967.9
746.538	37827.56
746.877	37925.87
747.216	37892.2
747.556	37844.51
747.895	37669.15
748.234	37489.49
748.573	37437.52
748.911	37396.16
749.25	37364.98
749.589	37353.45
749.928	37359.33
750.267	37210.63
750.605	37192.1
750.944	37009.73
751.283	36793.02
751.621	36985.33
751.96	36624.66
752.298	36642.29
752.636	36699.46
752.975	36504.89
753.313	36311.22
753.651	36382.4
753.989	36234.84
754.327	36272.13
754.666	36012.92
755.004	36031.91
755.342	36019.02
755.679	36048.85
756.017	35786.94
756.355	35830.56
756.693	35560.96
757.031	35683.21
757.368	35480.51
757.706	35461.07
758.044	35297.24
758.381	35203.9
758.719	35083.91
759.056	35088.65
759.394	34911.71
759.731	34726.63
760.068	34697.7
760.405	34495.9
760.743	34412.06
761.08	34594.2
761.417	34380.88
761.754	34236.7
762.091	34155.34
762.428	33927.33
762.765	33745.64
763.102	34014.78
763.438	33801.23
763.775	33618.64
764.112	33599.88
764.449	33629.71
764.785	33339.55
765.122	33250.28
765.458	32974.58
765.795	32969.16
766.131	32985.66
766.467	32826.11
766.804	32705.44
767.14	32577.53
767.476	32657.31
767.812	32313.36
768.148	32331.44
768.485	32167.83
768.821	31937.55
769.157	31930.09
769.492	31903.43
769.828	31824.56
770.164	31627.5
770.5	31440.61
770.836	31441.07
771.171	31326.72
771.507	31219.6
771.842	30970.34
772.178	30965.82
772.513	30844.7
772.849	30860.06
773.184	30600.64
773.519	30665.72
773.855	30471.83
774.19	30323.13
774.525	30192.29
774.86	30154.55
775.195	30140.08
775.53	29900.54
775.865	29804.05
776.2	29570.15
776.535	29409.93
776.87	29375.13
777.205	29357.05
777.539	29253.78
777.874	29206.55
778.209	28921.13
778.543	28849.27
778.878	28746.45
779.212	28768.37
779.547	28539.22
779.881	28559.56
780.215	28354.14
780.55	28395.72
780.884	28157.99
781.218	28156.18
781.552	28091.1
781.886	27879.35
782.22	27795.06
782.554	27816.75
782.888	27535.86
783.222	27400.72
783.556	27261.29
783.889	27247.5
784.223	27164.12
784.557	27055.42
784.89	27016.55
785.224	26863.56
785.557	26807.74
785.891	26690.46
786.224	26490.24
786.558	26567.07
786.891	26342.89
787.224	26253.63
787.557	26156.46
787.891	26194.42
788.224	26065.61
788.557	26007.54
788.89	25866.98
789.223	25902.91
789.556	25673.53
789.888	25652.29
790.221	25498.62
790.554	25311.74
790.887	25369.81
791.219	25217.95
791.552	25186.99
791.884	24955.59
792.217	24924.18
792.549	24912.42
792.882	24725.76
793.214	24684.86
793.546	24563.51
793.879	24554.69
794.211	24353.79
794.543	24424.53
794.875	24281.25
795.207	24330.97
795.539	24198.77
795.871	24179.56
796.203	23819.8
796.535	23857.99
796.867	23758.1
797.198	23705.68
797.53	23760.14
797.862	23569.41
798.193	23562.86
798.525	23476.53
798.856	23462.07
799.188	23167.16
799.519	23079.25
799.85	22975.98
800.182	23000.38
800.513	22940.27
800.844	22789.99
801.175	22885.58
801.506	22823.21
801.837	22749.09
802.168	22694.18
802.499	22552.94
802.83	22482.43
803.161	22355.66
803.491	22321.76
803.822	22386.39
804.153	22259.16
804.483	22064.36
804.814	22032.27
805.145	21931.94
805.475	22027.98
805.805	21912.95
806.136	21831.6
806.466	21831.6
806.796	21817.82
807.126	21610.14
807.457	21617.14
807.787	21535.56
808.117	21432.06
808.447	21393.87
808.777	21402.46
809.107	21249.02
809.436	21199.75
809.766	21189.58
810.096	21070.27
810.426	20968.57
810.755	20948.01
811.085	20888.35
811.414	20867.11
811.744	20766.77
812.073	20655.13
812.403	20674.8
812.732	20576.04
813.061	20589.37
813.39	20404.97
813.719	20377.63
814.049	20476.61
814.378	20342.6
814.707	20261.47
815.036	20228.03
815.365	20043.85
815.693	20005.43
816.022	20019.67
816.351	19951.2
816.68	19802.73
817.008	19917.75
817.337	19727.25
817.665	19728.15
817.994	19675.27
818.322	19739.9
818.651	19612.45
818.979	19561.6
819.307	19617.65
819.636	19619.23
819.964	19395.28
820.292	19420.37
820.62	19443.19
820.948	19390.31
821.276	19527.93
821.604	19358.67
821.932	19360.03
822.259	19417.43
822.587	19282.74
822.915	19414.04
823.243	19323.87
823.57	19277.32
823.898	19351.21
824.225	19310.54
824.553	19254.95
824.88	19269.63
825.207	19382.4
825.535	19200.94
825.862	19305.79
826.189	19257.66
826.516	19348.95
826.843	19300.37
827.17	19310.76
827.497	19229.18
827.824	19225.12
828.151	19267.37
828.478	19273.25
828.805	19243.87
829.131	19246.13
829.458	19183.54
829.785	19105.57
830.111	19179.92
830.438	19245.68
830.764	19190.99
831.09	19209.07
831.417	19103.99
831.743	19135.63
832.069	19148.28
832.395	19098.79
832.722	19084.55
833.048	18997.55
833.374	18945.12
833.7	18977.89
834.026	19050.43
834.351	19109.41
834.677	19001.17
835.003	18971.11
835.329	18913.03
835.654	18893.37
835.98	18773.15
836.306	18789.65
836.631	18790.33
836.956	18826.71
837.282	18813.83
837.607	18647.5
837.932	18639.14
838.258	18625.81
838.583	18610.44
838.908	18575.64
839.233	18468.53
839.558	18613.15
839.883	18475.98
840.208	18441.86
840.533	18379.71
840.858	18411.8
841.182	18387.4
841.507	18338.36
841.832	18292.26
842.156	18228.98
842.481	18279.6
842.805	18183.34
843.13	18155.09
843.454	18057.92
843.778	18053.4
844.103	17939.73
844.427	17899.5
844.751	17925.04
845.075	17792.16
845.399	17792.61
845.723	17698.15
846.047	17642.33
846.371	17535.44
846.695	17529.12
847.019	17486.4
847.343	17374.54
847.666	17344.94
847.99	17180.2
848.313	17147.43
848.637	17075.57
848.96	17033.99
849.284	16941.79
849.607	16839.42
849.931	16777.5
850.254	16719.87
850.577	16520.1
850.9	16488.92
851.223	16507.45
851.546	16412.53
851.869	16233.33
852.192	16318.98
852.515	16307.68
852.838	16125.31
853.161	16174.8
853.483	16023.62
853.806	16017.74
854.129	16036.73
854.451	15948.14
854.774	15929.84
855.096	15813.68
855.419	15787.92
855.741	15765.09
856.063	15609.39
856.385	15655.72
856.708	15513.12
857.03	15502.28
857.352	15473.12
857.674	15404.2
857.996	15374.82
858.318	15314.94
858.64	15288.27
858.961	15216.63
859.283	15212.79
859.605	15102.51
859.926	15150.87
860.248	15082.17
860.57	15057.99
860.891	15050.99
861.212	14889.41
861.534	14909.07
861.855	14842.41
862.176	14965.79
862.498	14895.29
862.819	14875.85
863.14	14702.52
863.461	14744.78
863.782	14687.83
864.103	14681.28
864.424	14601.28
864.745	14644.22
865.065	14603.99
865.386	14570.1
865.707	14539.59
866.027	14525.35
866.348	14495.97
866.668	14507.73
866.989	14450.1
867.309	14366.26
867.63	14345.24
867.95	14301.63
868.27	14267.05
868.59	14248.07
868.91	14210.56
869.23	14199.49
869.55	14156.32
869.87	14224.8
870.19	14161.29
870.51	14090.11
870.83	14193.61
871.15	14012.37
871.469	14114.74
871.789	14066.83
872.109	14103.67
872.428	13993.84
872.748	14069.09
873.067	14023.22
873.386	14048.98
873.706	13927.18
874.025	13836.33
874.344	13815.31
874.663	13841.3
874.982	13846.27
875.301	13817.35
875.62	13784.13
875.939	13782.1
876.258	13799.72
876.577	13647.18
876.896	13666.84
877.214	13543.01
877.533	13544.36
877.852	13574.87
878.17	13631.59
878.489	13583.68
878.807	13543.01
879.125	13504.36
879.444	13526.28
879.762	13470.47
880.08	13472.27
880.398	13409.45
880.716	13396.79
881.034	13407.42
881.352	13327.64
881.67	13297.81
881.988	13362.9
882.306	13238.83
882.624	13237.93
882.941	13193.41
883.259	13157.7
883.577	13119.74
883.894	13089.01
884.212	13123.81
884.529	13061.66
884.846	13003.81
885.164	13027.09
885.481	12961.1
885.798	12949.57
886.115	12879.07
886.432	12929.01
886.75	12813.99
887.067	12815.12
887.383	12762.01
887.7	12729.69
888.017	12653.09
888.334	12679.53
888.651	12622.58
888.967	12642.69
889.284	12534.67
889.6	12569.47
889.917	12522.24
890.233	12462.81
890.55	12439.31
890.866	12430.04
891.182	12345.07
891.498	12301.91
891.815	12249.93
892.131	12257.84
892.447	12192.98
892.763	12114.12
893.079	12124.29
893.395	12060.33
893.71	12015.59
894.026	12041.12
894.342	11925.42
894.657	11894.24
894.973	11864.86
895.289	11882.48
895.604	11767.91
895.92	11785.09
896.235	11682.72
896.55	11693.11
896.865	11718.87
897.181	11581.25
897.496	11674.81
897.811	11532.44
898.126	11494.7
898.441	11464.19
898.756	11466.68
899.071	11409.95
899.386	11446.11
899.7	11195.95
900.015	11269.62
900.33	11145.78
900.644	11139.68
900.959	11211.99
901.273	11123.18
901.588	11074.82
901.902	10983.3
902.216	10997.76
902.531	10938.33
902.845	10885.45
903.159	10810.65
903.473	10778.78
903.787	10737.2
904.101	10700.59
904.415	10705.57
904.729	10618.79
905.042	10602.52
905.356	10512.8
905.67	10549.64
905.984	10543.76
906.297	10425.12
906.611	10370.43
906.924	10444.33
907.237	10362.52
907.551	10266.71
907.864	10267.61
908.177	10282.75
908.491	10212.02
908.804	10136.77
909.117	10075.07
909.43	10021.97
909.743	9908.3
910.056	9959.14
910.368	9909.88
910.681	9841.63
910.994	9801.63
911.307	9815.42
911.619	9701.98
911.932	9718.25
912.244	9657.01
912.557	9596.22
912.869	9651.81
913.181	9551.47
913.494	9578.82
913.806	9422.66
914.118	9399.39
914.43	9407.07
914.742	9316.9
915.054	9337.92
915.366	9219.73
915.678	9223.12
915.99	9183.8
916.302	9121.88
916.613	9094.76
916.925	9106.51
917.236	9023.12
917.548	8985.84
917.859	9037.36
918.171	8934.54
918.482	8872.62
918.794	8852.51
919.105	8885.05
919.416	8715.34
919.727	8751.04
920.038	8674.88
920.349	8683.02
920.66	8568.9
920.971	8657.26
921.282	8593.31
921.593	8504.72
921.903	8477.6
922.214	8423.59
922.525	8375.23
922.835	8384.95
923.146	8327.78
923.456	8294.56
923.767	8208.68
924.077	8184.95
924.387	8153.09
924.697	8140.89
925.008	8080.32
925.318	8065.64
925.628	8125.97
925.938	8015.02
926.248	7966.88
926.558	7918.75
926.867	7919.88
927.177	7859.99
927.487	7809.6
927.796	7789.71
928.106	7781.8
928.416	7819.09
928.725	7722.14
929.034	7652.54
929.344	7705.87
929.653	7580.45
929.962	7540.23
930.271	7470.4
930.581	7537.06
930.89	7439.44
931.199	7411.42
931.508	7383.39
931.817	7388.14
932.125	7328.48
932.434	7313.79
932.743	7238.09
933.051	7191.99
933.36	7214.58
933.669	7088.94
933.977	7121.48
934.286	7097.98
934.594	7077.86
934.902	7006.45
935.21	6991.09
935.519	6995.83
935.827	6966.68
936.135	6946.12
936.443	6817.76
936.751	6806.46
937.059	6816.63
937.367	6794.03
937.674	6763.75
937.982	6733.24
938.29	6640.81
938.597	6689.85
938.905	6564.21
939.213	6582.06
939.52	6568.5
939.827	6576.63
940.135	6516.3
940.442	6525.11
940.749	6476.75
941.056	6466.81
941.363	6413.25
941.67	6369.41
941.977	6333.25
942.284	6281.28
942.591	6349.75
942.898	6269.52
943.205	6219.58
943.511	6257.32
943.818	6168.28
944.125	6138
944.431	6104.11
944.738	6059.81
945.044	6112.47
945.35	6042.64
945.657	6023.43
945.963	5970.1
946.269	5931
946.575	5963.54
946.881	5920.16
947.187	5880.61
947.493	5869.76
947.799	5841.97
948.105	5801.74
948.41	5772.36
948.716	5746.15
949.022	5708.86
949.327	5667.05
949.633	5659.6
949.938	5662.99
950.244	5647.17
950.549	5565.59
950.854	5551.8
951.16	5530.33
951.465	5496.44
951.77	5464.57
952.075	5476.55
952.38	5471.81
952.685	5484.23
952.99	5336.89
953.294	5369.66
953.599	5345.25
953.904	5288.31
954.209	5358.36
954.513	5301.64
954.818	5291.92
955.122	5253.05
955.426	5204.47
955.731	5223.68
956.035	5168.31
956.339	5120.63
956.643	5136.45
956.948	5061.65
957.252	5081.99
957.556	5016.9
957.86	5004.47
958.163	5042.21
958.467	5060.29
958.771	4990.24
959.075	4920.41
959.378	4883.8
959.682	4917.02
959.985	4863.23
960.289	4851.26
960.592	4839.05
960.896	4813.52
961.199	4748.66
961.502	4789.56
961.805	4770.58
962.108	4729.9
962.411	4699.62
962.714	4678.61
963.017	4661.88
963.32	4659.85
963.623	4602.45
963.926	4566.97
964.228	4565.16
964.531	4557.93
964.833	4559.06
965.136	4540.08
965.438	4497.82
965.741	4487.42
966.043	4466.63
966.345	4435.67
966.648	4403.36
966.95	4426.64
967.252	4385.28
967.554	4335.79
967.856	4339.86
968.158	4294.89
968.46	4296.47
968.761	4282.23
969.063	4273.87
969.365	4287.2
969.666	4208.56
969.968	4202.01
970.269	4168.79
970.571	4162.24
970.872	4182.8
971.174	4097.38
971.475	4087.89
971.776	4100.99
972.077	4065.51
972.378	4053.09
972.679	4076.59
972.98	3990.71
973.281	3981
973.582	3966.31
973.883	3988
974.183	3946.42
974.484	3926.76
974.785	3905.07
975.085	3947.1
975.386	3883.15
975.686	3839.31
975.986	3841.11
976.287	3821.45
976.587	3772.19
976.887	3751.4
977.187	3776.03
977.487	3779.19
977.787	3741.46
978.087	3692.87
978.387	3733.32
978.687	3756.6
978.987	3654.23
979.286	3642.47
979.586	3597.5
979.885	3625.07
980.185	3583.72
980.484	3577.84
980.784	3572.65
981.083	3552.31
981.382	3558.18
981.682	3519.77
981.981	3544.62
982.28	3466.43
982.579	3450.62
982.878	3478.64
983.177	3479.54
983.475	3422.14
983.774	3367
984.073	3337.62
984.372	3371.75
984.67	3350.96
984.969	3344.86
985.267	3341.69
985.566	3283.84
985.864	3315.25
986.162	3280.45
986.461	3228.25
986.759	3276.83
987.057	3249.04
987.355	3206.33
987.653	3210.62
987.951	3206.55
988.249	3181.47
988.547	3178.31
988.844	3183.28
989.142	3119.1
989.44	3108.7
989.737	3066.22
990.035	3077.07
990.332	3096.05
990.63	3040
990.927	3067.8
991.224	3025.32
991.521	3063.96
991.819	3007.69
992.116	3016.73
992.413	2941.7
992.71	2957.97
993.006	2921.59
993.303	2931.08
993.6	2890.63
993.897	2903.29
994.193	2905.09
994.49	2875.04
994.787	2872.78
995.083	2828.71
995.379	2859.44
995.676	2801.82
995.972	2788.26
996.268	2755.27
996.565	2789.62
996.861	2721.82
997.157	2728.6
997.453	2725.21
997.749	2717.08
998.044	2702.84
998.34	2692.44
998.636	2700.13
998.932	2637.53
999.227	2618.32
999.523	2632.11
999.818	2603.18
1000.114	2588.94
1000.409	2610.86
1000.704	2576.06
1001	2572.9
1001.295	2549.85
1001.59	2516.18
1001.885	2496.52
1002.18	2509.4
1002.475	2482.96
1002.77	2454.94
1003.065	2442.96
1003.359	2496.74
1003.654	2428.5
1003.949	2389.85
1004.243	2422.39
1004.538	2366.12
1004.832	2373.13
1005.127	2371.32
1005.421	2364.99
1005.715	2335.84
1006.009	2314.37
1006.304	2296.97
1006.598	2263.08
1006.892	2296.52
1007.186	2285.22
1007.48	2241.16
1007.773	2229.18
1008.067	2203.64
1008.361	2203.42
1008.655	2154.83
1008.948	2170.2
1009.242	2196.19
1009.535	2151.89
1009.829	2139.46
1010.122	2143.98
1010.415	2083.42
1010.708	2114.15
1011.001	2117.54
1011.295	2076.87
1011.588	2048.84
1011.881	2042.29
1012.173	2046.81
1012.466	2025.79
1012.759	2037.32
1013.052	2034.38
1013.344	1978.11
1013.637	1982.41
1013.93	1956.87
1014.222	1947.6
1014.514	1949.64
1014.807	1956.87
1015.099	1889.07
1015.391	1882.52
1015.683	1878
1015.976	1888.17
1016.268	1898.34
1016.56	1853.82
1016.851	1846.59
1017.143	1886.14
1017.435	1871
1017.727	1821.28
1018.018	1809.08
1018.31	1788.74
1018.602	1795.07
1018.893	1764.56
1019.185	1760.49
1019.476	1762.98
1019.767	1753.48
1020.058	1731.79
1020.35	1714.16
1020.641	1708.74
1020.932	1701.06
1021.223	1679.14
1021.514	1683.88
1021.804	1651.34
1022.095	1640.95
1022.386	1635.75
1022.677	1606.37
1022.967	1609.31
1023.258	1595.07
1023.548	1619.48
1023.839	1563.43
1024.129	1568.86
1024.419	1557.33
1024.709	1515.98
1025	1534.06
1025.29	1520.27
1025.58	1521.17
1025.87	1503.32
1026.16	1508.07
1026.449	1495.86
1026.739	1493.83
1027.029	1462.19
1027.319	1492.93
1027.608	1430.33
1027.898	1439.14
1028.187	1436.88
1028.477	1431.69
1028.766	1412.7
1029.055	1385.59
1029.344	1386.26
1029.634	1404.34
1029.923	1380.84
1030.212	1382.42
1030.501	1360.05
1030.79	1334.06
1031.078	1337
1031.367	1312.59
1031.656	1315.3
1031.945	1316.43
1032.233	1304.46
1032.522	1321.63
1032.81	1259.71
1033.099	1264.68
1033.387	1272.14
1033.675	1254.52
1033.963	1233.27
1034.251	1251.13
1034.54	1200.05
1034.828	1215.87
1035.116	1198.02
1035.403	1181.3
1035.691	1179.49
1035.979	1186.27
1036.267	1175.42
1036.554	1147.85
1036.842	1160.28
1037.129	1135.65
1037.417	1148.76
1037.704	1116.89
1037.992	1105.37
1038.279	1132.48
1038.566	1115.99
1038.853	1115.99
1039.14	1115.99
