Data from White_reflection_standard_FLMS001491_076.txt Node
Date: Tue Feb 07 10:32:10 GMT 2017
User: dcchb
Spectrometer: FLMS00149
Trigger mode: 0
Integration Time (sec): 2.000000E-2
Scans to average: 10
Electric dark correction enabled: true
Nonlinearity correction enabled: false
Boxcar width: 0
XAxis mode: Wavelengths
Number of Pixels in Spectrum: 2048
>>>>>Begin Spectral Data<<<<<
341.393	-6.95
341.776	-6.95
342.16	-6.95
342.543	-35.65
342.927	-47.63
343.31	-56.44
343.693	-80.17
344.077	-77.91
344.46	-68.42
344.843	-46.27
345.226	-51.02
345.61	-51.02
345.993	-23.9
346.376	5.25
346.759	35.76
347.142	18.59
347.525	30.11
347.908	59.04
348.291	91.58
348.674	106.49
349.057	108.3
349.44	137
349.823	143.33
350.206	177.45
350.588	235.3
350.971	245.02
351.354	265.81
351.737	282.76
352.119	307.39
352.502	316.66
352.884	326.38
353.267	316.66
353.65	348.52
354.032	345.36
354.414	361.18
354.797	369.31
355.179	384.45
355.562	396.2
355.944	406.15
356.326	372.93
356.709	381.06
357.091	392.59
357.473	403.89
357.855	408.63
358.238	419.93
358.62	404.34
359.002	421.29
359.384	409.76
359.766	409.54
360.148	430.1
360.53	407.96
360.912	388.75
361.294	386.94
361.676	414.06
362.057	407.28
362.439	398.92
362.821	424.45
363.203	400.27
363.584	432.14
363.966	404.57
364.348	413.6
364.729	411.35
365.111	425.36
365.493	419.71
365.874	399.14
366.256	424.23
366.637	413.15
367.019	402.08
367.4	416.54
367.781	429.88
368.163	433.94
368.544	437.11
368.925	421.51
369.306	442.3
369.688	441.63
370.069	425.36
370.45	430.1
370.831	433.49
371.212	449.08
371.593	443.43
371.974	466.03
372.355	484.34
372.736	447.95
373.117	446.82
373.498	459.93
373.879	480.5
374.26	468.52
374.641	454.73
375.021	466.48
375.402	491.79
375.783	485.69
376.163	518.23
376.544	525.24
376.925	490.89
377.305	513.04
377.686	472.36
378.066	506.48
378.447	514.85
378.827	520.49
379.208	511.46
379.588	525.24
379.968	500.38
380.349	515.52
380.729	525.92
381.109	527.73
381.489	558.69
381.87	548.52
382.25	569.31
382.63	559.82
383.01	561.4
383.39	572.47
383.77	573.6
384.15	584.45
384.53	593.04
384.91	592.81
385.29	616.99
385.67	589.87
386.049	618.57
386.429	623.32
386.809	615.41
387.189	623.77
387.568	642.53
387.948	626.25
388.328	640.49
388.707	633.03
389.087	659.93
389.466	678
389.846	682.98
390.225	688.17
390.605	702.18
390.984	717.78
391.363	725.91
391.743	710.77
392.122	722.75
392.501	723.88
392.881	738.12
393.26	734.95
393.639	775.86
394.018	781.73
394.397	765.01
394.776	789.87
395.155	795.06
395.534	818.11
395.913	797.78
396.292	792.58
396.671	808.4
397.05	855.85
397.429	849.75
397.808	861.28
398.186	868.73
398.565	842.97
398.944	877.32
399.323	901.95
399.701	904.89
400.08	894.72
400.458	912.35
400.837	924.78
401.215	932.01
401.594	976.98
401.972	939.92
402.351	930.2
402.729	991.22
403.107	964.32
403.486	991.67
403.864	982.63
404.242	983.08
404.62	1010.2
404.999	1049.07
405.377	1056.75
405.755	1064.44
406.133	1085.45
406.511	1075.28
406.889	1093.14
407.267	1109.63
407.645	1143.98
408.023	1153.7
408.401	1152.12
408.779	1182.62
409.156	1195.28
409.534	1228.5
409.912	1203.87
410.29	1247.48
410.667	1264.43
411.045	1282.28
411.422	1266.24
411.8	1299.68
412.178	1320.02
412.555	1346.01
412.933	1352.11
413.31	1368.38
413.687	1390.98
414.065	1431.66
414.442	1421.49
414.819	1435.72
415.197	1476.63
415.574	1469.4
415.951	1504.42
416.328	1512.11
416.705	1511.66
417.082	1542.61
417.46	1561.82
417.837	1560.47
418.214	1590.3
418.591	1599.11
418.967	1620.8
419.344	1654.25
419.721	1647.02
420.098	1667.58
420.475	1709.84
420.852	1709.39
421.228	1735.83
421.605	1738.09
421.982	1762.27
422.358	1791.87
422.735	1811.99
423.111	1818.54
423.488	1849.5
423.864	1879.56
424.241	1897.63
424.617	1925.88
424.994	1943.51
425.37	1953.9
425.746	1958.2
426.123	2005.2
426.499	2042.94
426.875	2030.74
427.251	2078.19
427.627	2112.54
428.003	2108.7
428.379	2150.06
428.756	2190.06
429.132	2209.04
429.507	2260.56
429.883	2314.12
430.259	2314.35
430.635	2345.08
431.011	2330.39
431.387	2394.12
431.763	2441.57
432.138	2456.94
432.514	2502.82
432.89	2514.11
433.265	2558.18
433.641	2602.47
434.016	2642.25
434.392	2673.43
434.767	2736.93
435.143	2736.71
435.518	2767.44
435.894	2806.08
436.269	2840.66
436.644	2859.42
437.02	2894.44
437.395	2929.47
437.77	2986.64
438.145	2979.87
438.52	3028.45
438.895	3083.14
439.271	3051.5
439.646	3186.87
440.021	3172.85
440.395	3217.82
440.77	3133.99
441.145	3223.02
441.52	3225.96
441.895	3278.16
442.27	3315.68
442.645	3338.95
443.019	3335.56
443.394	3369.69
443.769	3385.5
444.143	3399.97
444.518	3460.08
444.892	3450.81
445.267	3488.78
445.641	3547.53
446.016	3585.95
446.39	3607.87
446.764	3599.28
447.139	3609.91
447.513	3649.68
447.887	3654.65
448.262	3730.13
448.636	3713.18
449.01	3808.09
449.384	3845.61
449.758	3811.26
450.132	3866.85
450.506	3923.8
450.88	3978.03
451.254	3966.73
451.628	4007.63
452.002	4073.4
452.376	4135.99
452.75	4158.37
453.123	4210.57
453.497	4300.96
453.871	4277.91
454.244	4386.61
454.618	4430.67
454.992	4472.26
455.365	4472.03
455.739	4575.76
456.112	4629.54
456.486	4697.56
456.859	4694.62
457.232	4813.04
457.606	4851.45
457.979	4873.83
458.352	4989.08
458.725	5073.6
459.099	5069.08
459.472	5197.43
459.845	5212.12
460.218	5277.88
460.591	5314.27
460.964	5359.01
461.337	5479.69
461.71	5575.28
462.083	5651.43
462.456	5685.33
462.829	5733.92
463.201	5802.16
463.574	5830.64
463.947	5893.01
464.32	6039.45
464.692	6115.83
465.065	6149.27
465.438	6164.19
465.81	6299.1
466.183	6400.34
466.555	6520.11
466.928	6518.76
467.3	6565.53
467.672	6678.07
468.045	6859.09
468.417	6902.7
468.789	6977.95
469.161	7054.56
469.534	7171.39
469.906	7334.55
470.278	7334.33
470.65	7520.08
471.022	7641.21
471.394	7709.68
471.766	7852.05
472.138	7914.2
472.51	8163.68
472.882	8192.61
473.253	8314.64
473.625	8416.33
473.997	8595.54
474.369	8692.71
474.74	8751.46
475.112	8913.04
475.484	9099.03
475.855	9245.01
476.227	9348.29
476.598	9612.69
476.97	9720.93
477.341	9922.96
477.713	9986.69
478.084	10133.8
478.455	10437.07
478.827	10491.08
479.198	10823.73
479.569	10871.18
479.94	11162.25
480.311	11272.75
480.682	11484.5
481.053	11704.61
481.424	11927.2
481.795	12012.62
482.166	12223.46
482.537	12398.37
482.908	12698.03
483.279	12788.42
483.65	13005.14
484.021	13313.38
484.391	13435.86
484.762	13568.06
485.133	13737.77
485.503	13925.57
485.874	14185.9
486.244	14351.32
486.615	14651.87
486.985	14737.52
487.356	15088.47
487.726	15217.28
488.097	15563.26
488.467	15583.83
488.837	15898.17
489.207	16067.2
489.578	16374.54
489.948	16446.18
490.318	16706.28
490.688	16712.84
491.058	17103.79
491.428	17346.27
491.798	17440.5
492.168	17836.42
492.538	17893.37
492.908	18077.32
493.278	18336.98
493.648	18416.75
494.017	18626.23
494.387	18836.17
494.757	18961.14
495.126	19058.54
495.496	19220.12
495.866	19276.16
496.235	19508.47
496.605	19724.51
496.974	19828.24
497.344	20063.03
497.713	20141
498.082	20409.46
498.452	20656.91
498.821	20624.15
499.19	20797.02
499.559	21026.17
499.928	21112.04
500.298	21264.36
500.667	21439.04
501.036	21439.72
501.405	21791.57
501.774	21674.29
502.143	21966.48
502.512	22131.9
502.88	22264.33
503.249	22403.99
503.618	22577.99
503.987	22615.73
504.356	22841.04
504.724	22936.18
505.093	22979.34
505.462	23201.03
505.83	23313.79
506.199	23636.27
506.567	23915.59
506.936	23909.26
507.304	24203.26
507.672	24292.98
508.041	24249.81
508.409	24675.79
508.777	24826.97
509.145	24938.38
509.514	25061.54
509.882	25277.13
510.25	25489.56
510.618	25495.66
510.986	25655.43
511.354	26015.87
511.722	26132.48
512.09	26439.59
512.458	26449.76
512.826	26588.28
513.193	26874.38
513.561	26911.89
513.929	27160.02
514.297	27430.75
514.664	27686.79
515.032	27690.18
515.4	28028.25
515.767	28225.53
516.135	28302.59
516.502	28195.93
516.869	28779.86
517.237	28899.64
517.604	28834.1
517.972	29186.41
518.339	29341.66
518.706	29566.74
519.073	29695.77
519.44	29871.36
519.808	30224.57
520.175	30407.17
520.542	30661.17
520.909	30856.19
521.276	30879.92
521.643	31330.31
522.009	31474.71
522.376	31708.38
522.743	31968.93
523.11	32233.11
523.477	32517.85
523.843	32652.53
524.21	33032.63
524.577	33212.52
524.943	33386.75
525.31	33620.19
525.676	34020.63
526.043	34174.53
526.409	34320.28
526.776	34795.75
527.142	34878.01
527.508	35046.14
527.874	35380.82
528.241	35349.86
528.607	35658.33
528.973	36034.82
529.339	36019.67
529.705	36423.05
530.071	36630.05
530.437	36710.28
530.803	36884.74
531.169	37202.47
531.535	37156.37
531.901	37347.32
532.267	37569.46
532.632	37818.95
532.998	37932.62
533.364	38230.24
533.73	38304.36
534.095	38649.21
534.461	38594.97
534.826	38914.06
535.192	39091.46
535.557	39438.34
535.923	39481.96
536.288	39716.75
536.653	39745.45
537.019	39745.23
537.384	39938.67
537.749	40126.69
538.114	40221.6
538.479	40335.49
538.845	40578.88
539.21	40402.61
539.575	40797.4
539.94	40940.45
540.305	41205.07
540.67	41115.13
541.034	41164.85
541.399	41525.52
541.764	41591.96
542.129	41654.1
542.494	41842.8
542.858	41999.18
543.223	42024.26
543.587	42269.45
543.952	42331.15
544.316	42380.86
544.681	42562.1
545.045	42674.64
545.41	43044.57
545.774	42907.85
546.138	43141.3
546.503	43383.1
546.867	43339.03
547.231	43828.06
547.595	43827.38
547.959	43890.65
548.324	43961.39
548.688	44056.53
549.052	44303.07
549.416	44225.56
549.779	44339.91
550.143	44585.55
550.507	44872.32
550.871	44889.05
551.235	44956.84
551.599	45279.54
551.962	45345.76
552.326	45621.23
552.689	45626.43
553.053	45693.54
553.417	45851.96
553.78	46323.58
554.143	46114.55
554.507	46291.04
554.87	46563.13
555.234	46891.48
555.597	46659.85
555.96	46937.58
556.323	47132.6
556.686	47184.13
557.05	47537.79
557.413	47601.97
557.776	47698.01
558.139	47980.04
558.502	48000.38
558.865	48169.86
559.228	48443.98
559.59	48578.89
559.953	48721.04
560.316	49024.53
560.679	48998.54
561.041	49284.64
561.404	49402.6
561.767	49659.77
562.129	49614.12
562.492	49941.79
562.854	49932.08
563.217	49975.92
563.579	50259.3
563.941	50419.52
564.304	50543.81
564.666	50618.16
565.028	50924.14
565.39	50919.85
565.753	51080.97
566.115	51246.17
566.477	51347.86
566.839	51433.96
567.201	51672.37
567.563	51673.05
567.925	51950.78
568.287	52008.18
568.648	52009.99
569.01	52197.78
569.372	52447.94
569.734	52327.49
570.095	52628.5
570.457	52724.77
570.819	52786.47
571.18	52723.19
571.542	52995.73
571.903	53106
572.265	53087.02
572.626	53246.79
572.987	53313
573.349	53318.65
573.71	53490.85
574.071	53580.57
574.432	53652.21
574.794	53727.68
575.155	53868.7
575.516	53826.89
575.877	53917.73
576.238	53897.17
576.599	54081.35
576.96	54120.22
577.32	54186.88
577.681	54192.08
578.042	54267.78
578.403	54346.65
578.763	54329.02
579.124	54453.77
579.485	54507.1
579.845	54551.62
580.206	54550.71
580.566	54507.55
580.927	54538.96
581.287	54700.54
581.648	54542.13
582.008	54713.87
582.368	54741.44
582.728	54735.11
583.089	54601.56
583.449	54683.82
583.809	54780.54
584.169	54814.21
584.529	54775.34
584.889	54935.34
585.249	54795.23
585.609	54755.9
585.969	54848.33
586.329	54702.35
586.688	54857.6
587.048	54851.04
587.408	54798.84
587.768	54763.81
588.127	54815.34
588.487	54750.48
588.846	55007.2
589.206	54732.18
589.565	54737.15
589.925	54839.52
590.284	54883.59
590.643	54843.59
591.003	54994.77
591.362	55037.25
591.721	54917.03
592.08	54917.48
592.44	54981.21
592.799	55010.14
593.158	55022.11
593.517	54939.85
593.876	55063.02
594.235	54953.64
594.593	54976.01
594.952	55088.1
595.311	54981.21
595.67	55071.6
596.029	55172.17
596.387	55171.71
596.746	55257.36
597.104	55093.07
597.463	55123.13
597.822	55277.93
598.18	55067.76
598.538	55186.4
598.897	55290.35
599.255	55009.46
599.613	55434.98
599.972	55242.22
600.33	55392.72
600.688	55196.12
601.046	55345.95
601.404	55440.86
601.762	55321.77
602.12	55444.02
602.478	55506.62
602.836	55536.68
603.194	55420.75
603.552	55502.33
603.91	55359.28
604.268	55548.88
604.625	55463.68
604.983	55596.56
605.341	55466.17
605.698	55637.01
606.056	55637.24
606.413	55612.83
606.771	55677.24
607.128	55775.54
607.485	55665.26
607.843	55745.03
608.2	55837.46
608.557	55907.74
608.914	55735.54
609.272	55893.73
609.629	56041.29
609.986	56055.76
610.343	55858.02
610.7	56059.15
611.057	56025.25
611.414	56020.73
611.771	56063.22
612.127	56216.43
612.484	56171.23
612.841	56257.33
613.198	56114.51
613.554	56211.46
613.911	56320.61
614.267	56300.5
614.624	56218.92
614.98	56314.73
615.337	56402.87
615.693	56321.51
616.05	56292.14
616.406	56506.14
616.762	56354.96
617.118	56369.65
617.475	56396.77
617.831	56511.11
618.187	56541.62
618.543	56512.92
618.899	56576.2
619.255	56548.4
619.611	56514.5
619.967	56669.53
620.323	56589.98
620.678	56631.79
621.034	56506.59
621.39	56549.3
621.746	56590.43
622.101	56798.11
622.457	56507.05
622.812	56605.8
623.168	56658.91
623.523	56533.94
623.879	56755.4
624.234	56480.38
624.589	56674.05
624.945	56629.98
625.3	56727.38
625.655	56643.54
626.01	56597.89
626.365	56624.33
626.72	56682.63
627.075	56608.51
627.43	56573.48
627.785	56541.39
628.14	56667.72
628.495	56540.49
628.85	56574.84
629.205	56435.41
629.559	56615.52
629.914	56511.79
630.269	56451.45
630.623	56428.63
630.978	56352.25
631.332	56475.41
631.687	56519.93
632.041	56349.08
632.396	56408.29
632.75	56337.11
633.104	56364.22
633.459	56213.27
633.813	56239.26
634.167	56172.82
634.521	56248.97
634.875	56149.54
635.229	56158.58
635.583	55977.79
635.937	55952.71
636.291	55992.48
636.645	55959.94
636.999	55853.73
637.352	55979.83
637.706	55733.73
638.06	55909.09
638.413	55813.73
638.767	55729.44
639.121	55743.45
639.474	55622.32
639.828	55633.17
640.181	55643.34
640.534	55655.54
640.888	55543
641.241	55497.81
641.594	55534.87
641.947	55500.97
642.301	55502.1
642.654	55432.27
643.007	55406.51
643.36	55410.8
643.713	55330.13
644.066	55434.53
644.419	55155.67
644.771	55018.95
645.124	54674.1
645.477	54694.21
645.83	54509.36
646.182	54348.91
646.535	54315.46
646.888	54421.68
647.24	54192.98
647.593	54350.94
647.945	54212.87
648.298	54205.64
648.65	54132.42
649.002	53988.92
649.355	54119.09
649.707	54016.49
650.059	54089.93
650.411	54468
650.763	54566.98
651.115	54842.23
651.467	54604.95
651.819	54647.89
652.171	54498.51
652.523	54508.45
652.875	54544.16
653.227	54341.45
653.578	54577.6
653.93	54491.73
654.282	54322.47
654.633	54287.22
654.985	54298.97
655.337	54305.07
655.688	54261
656.039	54425.52
656.391	54052.87
656.742	54146.43
657.094	54131.97
657.445	54279.76
657.796	54118.86
658.147	54158.41
658.498	54039.54
658.849	54061.46
659.2	54037.73
659.551	54009.71
659.902	54051.06
660.253	53958.41
660.604	54034.34
660.955	53876.61
661.306	53978.98
661.656	53880.45
662.007	53936.94
662.358	53930.84
662.708	53858.08
663.059	53829.15
663.409	53708.7
663.76	53809.94
664.11	53870.5
664.461	53830.51
664.811	53828.7
665.161	53748.47
665.511	53719.55
665.862	53722.03
666.212	53765.87
666.562	53714.58
666.912	53658.98
667.262	53615.6
667.612	53611.08
667.962	53632.09
668.312	53651.98
668.662	53748.93
669.011	53673.67
669.361	53569.72
669.711	53559.33
670.06	53462.15
670.41	53349.61
670.76	53378.09
671.109	53426.9
671.459	53411.99
671.808	53299.9
672.157	53349.16
672.507	53270.07
672.856	53278.43
673.205	53320.24
673.554	53306
673.904	53214.93
674.253	53336.73
674.602	53224.87
674.951	52764.77
675.3	52562.97
675.649	53072.11
675.998	53029.17
676.346	53113.91
676.695	53171.31
677.044	52881.6
677.393	53020.58
677.741	53042.05
678.09	52811.1
678.438	52914.6
678.787	52872.56
679.135	52935.84
679.484	52719.35
679.832	52799.8
680.181	52576.98
680.529	52733.59
680.877	52541.73
681.225	52642.74
681.573	52772.91
681.922	52527.94
682.27	52411.79
682.618	52394.39
682.966	52349.64
683.314	52279.13
683.661	52202.3
684.009	52038.24
684.357	51977.45
684.705	51877.56
685.053	52005.02
685.4	51836.66
685.748	51795.53
686.095	51738.81
686.443	51619.26
686.79	51546.5
687.138	51588.08
687.485	51654.07
687.832	51420.85
688.18	51398.03
688.527	51245.94
688.874	51243.91
689.221	51217.92
689.568	51064.93
689.915	50858.61
690.262	50924.37
690.609	50890.92
690.956	50808.66
691.303	50726.63
691.65	50495.68
691.997	50637.82
692.344	50325.96
692.69	50286.19
693.037	50317.38
693.383	50048.91
693.73	50130.49
694.077	49883.72
694.423	49833.55
694.769	49728.47
695.116	49598.07
695.462	49637.4
695.808	49440.56
696.155	49401.47
696.501	49240.34
696.847	49215.94
697.193	48945.66
697.539	49173.9
697.885	48789.28
698.231	48670.64
698.577	48707.02
698.923	48614.37
699.269	48433.13
699.614	48281.95
699.96	48216.19
700.306	48279.01
700.651	48111.56
700.997	47971.45
701.342	47970.77
701.688	47852.36
702.033	47719.03
702.379	47644.91
702.724	47573.27
703.069	47601.74
703.415	47208.53
703.76	47190
704.105	47112.94
704.45	46951.36
704.795	46784.36
705.14	46629.56
705.485	46522.9
705.83	46539.85
706.175	46610.13
706.52	46352.51
706.865	46134.89
707.209	46128.56
707.554	45918.17
707.899	46093.99
708.243	45853.09
708.588	45832.52
708.932	45480.22
709.277	45517.05
709.621	45499.88
709.966	45256.95
710.31	45178.08
710.654	44982.38
710.998	45049.72
711.342	45073
711.687	44963.85
712.031	44723.63
712.375	44554.37
712.719	44665.55
713.063	44566.79
713.407	44732.21
713.75	44269.85
714.094	44362.51
714.438	44152.34
714.782	44296.74
715.125	43983.76
715.469	44049.07
715.812	43854.72
716.156	43777.89
716.499	43698.12
716.843	43739.47
717.186	43325.7
717.53	43590.55
717.873	43651.56
718.216	43468.07
718.559	43328.63
718.902	42925.93
719.246	43150.33
719.589	43011.35
719.932	42799.38
720.275	42976.33
720.617	42720.97
720.96	42714.41
721.303	42635.32
721.646	42609.78
721.989	42355.78
722.331	42485.27
722.674	42401.43
723.016	42384.03
723.359	42064.71
723.701	42236.69
724.044	41955.11
724.386	41734.33
724.729	42018.39
725.071	41797.15
725.413	41896.36
725.755	41806.64
726.097	41600.32
726.439	41404.17
726.782	41612.75
727.124	41536.82
727.465	41250.27
727.807	41261.57
728.149	41183.15
728.491	41145.42
728.833	41177.28
729.175	40956.04
729.516	40841.92
729.858	40998.07
730.199	40948.36
730.541	40806.22
730.882	40706.78
731.224	40799.89
731.565	40491.87
731.906	40570.06
732.248	40538.88
732.589	40276.06
732.93	40206.91
733.271	40196.51
733.612	40176.18
733.953	40177.31
734.294	40168.27
734.635	40092.56
734.976	40038.78
735.317	39713.14
735.658	39799.69
735.999	39668.84
736.339	39747.26
736.68	39713.81
737.021	39582.29
737.361	39393.82
737.702	39446.48
738.042	39417.55
738.383	39316.54
738.723	39373.48
739.063	39182.3
739.404	39067.5
739.744	38997.45
740.084	38942.31
740.424	39030.89
740.764	38963.1
741.104	38886.94
741.444	38713.16
741.784	38561.3
742.124	38834.52
742.464	38712.71
742.804	38626.16
743.143	38455.77
743.483	38442.89
743.823	38249.45
744.162	38244.25
744.502	38334.87
744.841	38092.84
745.181	38234.98
745.52	37898.72
745.86	38175.1
746.199	37938.04
746.538	37891.49
746.877	37899.4
747.216	37844.71
747.556	37632.74
747.895	37814.43
748.234	37580.31
748.573	37517.26
748.911	37465.51
749.25	37430.71
749.589	37207.89
749.928	37327.66
750.267	37204.5
750.605	37084.05
750.944	36958.86
751.283	36899.43
751.621	36920.89
751.96	36706.21
752.298	36627.79
752.636	36744.4
752.975	36544.86
753.313	36318.42
753.651	36501.47
753.989	36277.75
754.327	36229.39
754.666	35941.26
755.004	36034.82
755.342	35962.73
755.679	35845.67
756.017	35706.24
756.355	35752.11
756.693	35644.09
757.031	35626.24
757.368	35298.79
757.706	35336.98
758.044	35273.03
758.381	35208.85
758.719	35057.89
759.056	35126.59
759.394	35045.24
759.731	34761.4
760.068	34678.92
760.405	34562.54
760.743	34441.18
761.08	34541.52
761.417	34388.08
761.754	34209.1
762.091	34186.28
762.428	34005.49
762.765	33909.9
763.102	33969.33
763.438	33683.46
763.775	33662.22
764.112	33652.73
764.449	33691.6
764.785	33431.27
765.122	33193.31
765.458	33111.05
765.795	33072.41
766.131	33080.32
766.467	32945.86
766.804	32660.21
767.14	32510.61
767.476	32551.52
767.812	32349.26
768.148	32471.52
768.485	32154.01
768.821	32037.86
769.157	31976.16
769.492	31815.04
769.828	31869.05
770.164	31664.08
770.5	31468.38
770.836	31507.02
771.171	31242.85
771.507	31158.11
771.842	30918.79
772.178	30952.69
772.513	30759.02
772.849	30848.96
773.184	30637.67
773.519	30699.14
773.855	30439.03
774.19	30385.92
774.525	30218.92
774.86	30286.27
775.195	30081.75
775.53	29950.91
775.865	29848.76
776.2	29695.32
776.535	29480.64
776.87	29425.95
777.205	29325.84
777.539	29244.03
777.874	29038.16
778.209	28990.25
778.543	29012.85
778.878	28703.48
779.212	28834.55
779.547	28629.59
779.881	28615.12
780.215	28272.31
780.55	28422.59
780.884	28230.27
781.218	28214.23
781.552	28128.36
781.886	27973.11
782.22	27931.75
782.554	27795.71
782.888	27469.39
783.222	27400.69
783.556	27304.42
783.889	27339.9
784.223	27081.83
784.557	26991.89
784.89	27024.43
785.224	26828.05
785.557	26734.72
785.891	26758.67
786.224	26614.95
786.558	26536.31
786.891	26352.13
787.224	26210.44
787.557	26148.3
787.891	26040.28
788.224	26023.33
788.557	26030.11
788.89	25931.8
789.223	25865.82
789.556	25669.21
789.888	25543.57
790.221	25486.84
790.554	25358.71
790.887	25328.88
791.219	25280.3
791.552	25132.95
791.884	24968.44
792.217	24903.13
792.549	24813.42
792.882	24755.34
793.214	24617.49
793.546	24624.04
793.879	24479.64
794.211	24354.22
794.543	24465.18
794.875	24277.84
795.207	24315.58
795.539	24176.82
795.871	24232.19
796.203	23923.27
796.535	23730.51
796.867	23729.6
797.198	23802.59
797.53	23618.87
797.862	23498.42
798.193	23491.64
798.525	23442.38
798.856	23367.13
799.188	23197.19
799.519	23172.33
799.85	23055.5
800.182	23081.48
800.513	23061.82
800.844	22840.81
801.175	22871.09
801.506	22908.83
801.837	22759.68
802.168	22623.19
802.499	22634.04
802.83	22481.5
803.161	22369.41
803.491	22328.28
803.822	22368.28
804.153	22236.53
804.483	22053.49
804.814	22001.96
805.145	22004.45
805.475	22029.08
805.805	21900.5
806.136	21923.1
806.466	21878.8
806.796	21806.04
807.126	21591.35
807.457	21502.09
807.787	21528.98
808.117	21450.11
808.447	21362.66
808.777	21370.34
809.107	21239.27
809.436	21175.09
809.766	21219.16
810.096	21140.29
810.426	20994.76
810.755	20978.49
811.085	20982.56
811.414	20872.95
811.744	20707.53
812.073	20686.52
812.403	20643.13
812.732	20504.6
813.061	20483.59
813.39	20439.52
813.719	20371.5
814.049	20456.69
814.378	20467.54
814.707	20273.42
815.036	20208.11
815.365	20138.74
815.693	19935.8
816.022	20008.34
816.351	19886.99
816.68	19786.43
817.008	19932.64
817.337	19741.23
817.665	19743.49
817.994	19661.01
818.322	19726.32
818.651	19639.31
818.979	19598.64
819.307	19565.87
819.636	19562.93
819.964	19408.13
820.292	19516.61
820.62	19428.7
820.948	19530.39
821.276	19431.86
821.604	19355.71
821.932	19398.19
822.259	19338.08
822.587	19348.7
822.915	19394.12
823.243	19382.82
823.57	19348.93
823.898	19259.66
824.225	19308.48
824.553	19296.72
824.88	19278.42
825.207	19348.47
825.535	19216.05
825.862	19279.1
826.189	19174.47
826.516	19336.72
826.843	19290.17
827.17	19301.24
827.497	19263.05
827.824	19237.29
828.151	19357.74
828.478	19200.46
828.805	19325.65
829.131	19271.41
829.458	19174.69
829.785	19063.06
830.111	19161.36
830.438	19301.47
830.764	19126.33
831.09	19201.81
831.417	19024.19
831.743	19194.58
832.069	19195.03
832.395	18989.84
832.722	19011.08
833.048	19067.58
833.374	19057.41
833.7	18950.74
834.026	18985.77
834.351	18967.24
834.677	18918.2
835.003	19024.87
835.329	18957.98
835.654	19020.57
835.98	18845.21
836.306	18893.35
836.631	18812.44
836.956	18793.01
837.282	18754.37
837.607	18731.32
837.932	18643.41
838.258	18672.56
838.583	18739.9
838.908	18534.94
839.233	18539.91
839.558	18545.33
839.883	18450.87
840.208	18520.47
840.533	18424.88
840.858	18473.7
841.182	18274.6
841.507	18229.63
841.832	18230.31
842.156	18272.12
842.481	18193.93
842.805	18196.19
843.13	18120.71
843.454	18172.91
843.778	17999.58
844.103	17992.35
844.427	17943.99
844.751	17975.18
845.075	17866.48
845.399	17814.96
845.723	17666.71
846.047	17708.74
846.371	17600.05
846.695	17577
847.019	17490.9
847.343	17312.37
847.666	17245.25
847.99	17213.16
848.313	17180.85
848.637	17069.21
848.96	17035.99
849.284	16996.67
849.607	16881.19
849.931	16795.1
850.254	16756.45
850.577	16695.21
850.9	16579.28
851.223	16425.61
851.546	16475.1
851.869	16292.74
852.192	16417.7
852.515	16173.64
852.838	16147.88
853.161	16205.96
853.483	16138.84
853.806	16071.95
854.129	15974.55
854.451	15939.07
854.774	15853.42
855.096	15766.87
855.419	15893.2
855.741	15768.23
856.063	15627.89
856.385	15683.26
856.708	15618.4
857.03	15443.94
857.352	15467.22
857.674	15403.49
857.996	15380.44
858.318	15304.74
858.64	15375.25
858.961	15308.35
859.283	15265.19
859.605	15081.47
859.926	15135.48
860.248	15074.01
860.57	14990.62
860.891	14988.36
861.212	14893.9
861.534	14935.48
861.855	14863.39
862.176	14895.03
862.498	14919.89
862.819	14914.47
863.14	14834.02
863.461	14721.03
863.782	14685.77
864.103	14760.12
864.424	14681.03
864.745	14764.87
865.065	14580.01
865.386	14603.97
865.707	14575.04
866.027	14524.87
866.348	14497.3
866.668	14497.98
866.989	14452.56
867.309	14394.03
867.63	14462.28
867.95	14289.85
868.27	14300.7
868.59	14317.19
868.91	14269.06
869.23	14275.84
869.55	14274.48
869.87	14219.12
870.19	14263.41
870.51	14194.26
870.83	14206.91
871.15	14115.39
871.469	14146.13
871.789	14071.78
872.109	14086.47
872.428	13977.99
872.748	13940.71
873.067	14030.65
873.386	14106.58
873.706	14020.48
874.025	13864.78
874.344	13877.66
874.663	13892.35
874.982	13795.63
875.301	13815.29
875.62	13794.72
875.939	13678.57
876.258	13811.44
876.577	13713.14
876.896	13752.46
877.214	13655.29
877.533	13622.3
877.852	13583.65
878.17	13675.63
878.489	13594.73
878.807	13622.98
879.125	13521.28
879.444	13512.7
879.762	13449.42
880.08	13434.73
880.398	13369.2
880.716	13471.34
881.034	13381.63
881.352	13347.5
881.67	13368.29
881.988	13285.81
882.306	13323.77
882.624	13267.73
882.941	13147.06
883.259	13204.68
883.577	13135.53
883.894	13070
884.212	13049.66
884.529	12990.68
884.846	13011.24
885.164	12954.52
885.481	12872.71
885.798	12982.09
886.115	12847.18
886.432	12877.46
886.75	12774.64
887.067	12848.08
887.383	12734.18
887.7	12794.75
888.017	12684.47
888.334	12741.19
888.651	12565.38
888.967	12591.14
889.284	12492.38
889.6	12514.98
889.917	12418.94
890.233	12412.39
890.55	12401.09
890.866	12393.85
891.182	12347.53
891.498	12260.98
891.815	12302.33
892.131	12222.56
892.447	12225.95
892.763	12096.91
893.079	12049.46
893.395	12084.26
893.71	12088.1
894.026	12018.5
894.342	11994.54
894.657	11837.94
894.973	11999.97
895.289	11911.61
895.604	11902.12
895.92	11748.45
896.235	11696.47
896.55	11675.23
896.865	11747.77
897.181	11608.11
897.496	11617.6
897.811	11544.61
898.126	11517.49
898.441	11462.58
898.756	11468.68
899.071	11397.72
899.386	11395.92
899.7	11252.64
900.015	11219.42
900.33	11200.67
900.644	11111.18
900.959	11141.91
901.273	11096.71
901.588	11047.45
901.902	10946.89
902.216	10924.06
902.531	10953.21
902.845	10899.2
903.159	10809.04
903.473	10879.54
903.787	10781.24
904.101	10687.23
904.415	10656.05
904.729	10649.72
905.042	10519.55
905.356	10558.65
905.67	10531.53
905.984	10492.66
906.297	10516.84
906.611	10371.54
906.924	10382.16
907.237	10365.66
907.551	10312.33
907.864	10234.82
908.177	10206.12
908.491	10164.53
908.804	10081.15
909.117	10098.1
909.43	10069.4
909.743	10009.74
910.056	10035.5
910.368	9907.37
910.681	9794.38
910.994	9878.21
911.307	9750.76
911.619	9665.11
911.932	9750.53
912.244	9725
912.557	9703.3
912.869	9579.01
913.181	9525.68
913.494	9548.96
913.806	9475.97
914.118	9463.76
914.43	9370.43
914.742	9368.17
915.054	9289.53
915.366	9265.58
915.678	9230.32
915.99	9236.65
916.302	9178.12
916.613	9114.17
916.925	9146.93
917.236	9015.41
917.548	8995.53
917.859	8948.3
918.171	8987.84
918.482	8875.53
918.794	8851.35
919.105	8823.1
919.416	8724.35
919.727	8770.9
920.038	8805.47
920.349	8638.93
920.66	8621.07
920.971	8577.68
921.282	8612.94
921.593	8481.64
921.903	8497.46
922.214	8380.63
922.525	8387.86
922.835	8318.71
923.146	8293.62
923.456	8356.22
923.767	8285.49
924.077	8238.26
924.387	8205.49
924.697	8125.94
925.008	8086.85
925.318	8131.37
925.628	8066.29
925.938	8090.69
926.248	7974.54
926.558	7969.79
926.867	7944.93
927.177	7890.24
927.487	7856.12
927.796	7746.97
928.106	7668.56
928.416	7710.59
928.725	7698.84
929.034	7597.82
929.344	7673.08
929.653	7578.61
929.962	7617.03
930.271	7547.2
930.581	7504.04
930.89	7489.13
931.199	7444.38
931.508	7363.7
931.817	7441.44
932.125	7343.82
932.434	7348.34
932.743	7279.41
933.051	7303.59
933.36	7197.61
933.669	7170.94
933.977	7095.01
934.286	7107.67
934.594	7086.65
934.902	6997.84
935.21	7003.94
935.519	6990.61
935.827	6945.41
936.135	6937.95
936.443	6838.52
936.751	6885.3
937.059	6858.18
937.367	6723.27
937.674	6791.97
937.982	6718.07
938.29	6736.6
938.597	6672.42
938.905	6610.5
939.213	6568.7
939.52	6568.92
939.827	6558.3
940.135	6567.57
940.442	6457.51
940.749	6464.07
941.056	6479.21
941.363	6390.85
941.67	6420.45
941.977	6371.41
942.284	6333.45
942.591	6271.3
942.898	6272.21
943.205	6248.48
943.511	6184.53
943.818	6220.01
944.125	6128.93
944.431	6158.99
944.738	6142.49
945.044	6104.3
945.35	6082.16
945.657	6037.64
945.963	6003.97
946.269	5949.5
946.575	6004.87
946.881	5880.58
947.187	5927.13
947.493	5879.22
947.799	5829.51
948.105	5839.45
948.41	5786.57
948.716	5790.19
949.022	5697.31
949.327	5699.12
949.633	5680.81
949.938	5608.27
950.244	5659.34
950.549	5584.09
950.854	5580.93
951.16	5571.89
951.465	5554.71
951.77	5489.63
952.075	5499.8
952.38	5463.19
952.685	5476.75
952.99	5360.37
953.294	5353.59
953.599	5329.41
953.904	5332.8
954.209	5330.31
954.513	5274.72
954.818	5295.96
955.122	5255.74
955.426	5186.59
955.731	5195.4
956.035	5172.35
956.339	5142.29
956.643	5140.94
956.948	5110.66
957.252	5043.77
957.556	5063.88
957.86	5025.91
958.163	5023.88
958.467	5030.21
958.771	4953.6
959.075	4931.9
959.378	4931.45
959.682	4893.04
959.985	4903.88
960.289	4873.37
960.592	4840.38
960.896	4831.57
961.199	4802.87
961.502	4770.55
961.805	4721.51
962.108	4700.72
962.411	4696.43
962.714	4702.31
963.017	4668.18
963.32	4616.43
963.623	4598.81
963.926	4641.06
964.228	4593.38
964.531	4582.99
964.833	4557.45
965.136	4548.64
965.438	4489.2
965.741	4511.58
966.043	4485.81
966.345	4445.36
966.648	4418.7
966.95	4440.62
967.252	4382.31
967.554	4393.39
967.856	4329.66
968.158	4298.25
968.46	4275.2
968.761	4282.66
969.063	4297.57
969.365	4281.07
969.666	4212.15
969.968	4213.05
970.269	4229.78
970.571	4161.98
970.872	4140.29
971.174	4091.93
971.475	4118.14
971.776	4097.35
972.077	4090.34
972.378	4062.32
972.679	4039.05
972.98	4025.49
973.281	3963.79
973.582	3961.76
973.883	3974.19
974.183	3962.66
974.484	3921.76
974.785	3846.96
975.085	3884.7
975.386	3901.2
975.686	3871.59
975.986	3775.55
976.287	3813.06
976.587	3776.91
976.887	3785.72
977.187	3812.16
977.487	3788.66
977.787	3741.65
978.087	3715.44
978.387	3668.89
978.687	3663.69
978.987	3716.12
979.286	3614.2
979.586	3663.24
979.885	3596.12
980.185	3613.29
980.484	3572.84
980.784	3578.72
981.083	3569.23
981.382	3528.55
981.682	3522.22
981.981	3529
982.28	3475.22
982.579	3491.04
982.878	3518.38
983.177	3463.47
983.475	3419.18
983.774	3414.43
984.073	3414.43
984.372	3397.93
984.67	3352.06
984.969	3362
985.267	3313.42
985.566	3341.89
985.864	3304.6
986.162	3300.53
986.461	3279.07
986.759	3257.15
987.057	3190.71
987.355	3168.33
987.653	3235.23
987.951	3174.44
988.249	3175.34
988.547	3135.57
988.844	3144.15
989.142	3145.51
989.44	3104.61
989.737	3106.64
990.035	3082.24
990.332	3100.31
990.63	3051.73
990.927	3053.76
991.224	3025.29
991.521	2999.53
991.819	3034.33
992.116	2979.87
992.413	2944.39
992.71	2942.35
993.006	2917.27
993.303	2966.53
993.6	2891.05
993.897	2910.04
994.193	2928.34
994.49	2882.92
994.787	2849.7
995.083	2852.86
995.379	2823.71
995.676	2821
995.972	2833.43
996.268	2779.87
996.565	2782.13
996.861	2760.66
997.157	2764.73
997.453	2717.05
997.749	2733.77
998.044	2669.36
998.34	2695.35
998.636	2643.6
998.932	2634.79
999.227	2644.96
999.523	2663.94
999.818	2634.79
1000.114	2619.65
1000.409	2576.49
1000.704	2566.32
1001	2571.06
1001.295	2529.71
1001.59	2543.04
1001.885	2493.78
1002.18	2476.38
1002.475	2493.78
1002.77	2463.04
1003.065	2417.39
1003.359	2428.69
1003.654	2454.68
1003.949	2402.03
1004.243	2396.83
1004.538	2390.28
1004.832	2392.99
1005.127	2367.45
1005.421	2357.51
1005.715	2329.03
1006.009	2323.39
1006.304	2279.09
1006.598	2302.14
1006.892	2274.35
1007.186	2266.21
1007.48	2266.66
1007.773	2253.56
1008.067	2211.07
1008.361	2218.53
1008.655	2195.48
1008.948	2193.22
1009.242	2190.06
1009.535	2174.46
1009.829	2159.77
1010.122	2154.12
1010.415	2160.23
1010.708	2101.7
1011.001	2086.33
1011.295	2098.76
1011.588	2059.44
1011.881	2037.52
1012.173	2082.26
1012.466	2027.57
1012.759	2014.47
1013.052	2005.43
1013.344	2016.73
1013.637	1977.86
1013.93	1957.07
1014.222	1962.72
1014.514	1990.74
1014.807	1936.73
1015.099	1920.01
1015.391	1909.16
1015.683	1907.12
1015.976	1860.35
1016.268	1894.92
1016.56	1831.42
1016.851	1876.17
1017.143	1875.71
1017.435	1834.36
1017.727	1822.16
1018.018	1821.93
1018.31	1830.74
1018.602	1827.35
1018.893	1763.17
1019.185	1769.73
1019.476	1744.42
1019.767	1757.98
1020.058	1728.6
1020.35	1716.4
1020.641	1675.49
1020.932	1688.6
1021.223	1707.36
1021.514	1676.4
1021.804	1689.96
1022.095	1674.14
1022.386	1625.55
1022.677	1629.84
1022.967	1598.66
1023.258	1625.55
1023.548	1591.88
1023.839	1607.25
1024.129	1572.44
1024.419	1575.38
1024.709	1578.09
1025	1557.08
1025.29	1532.9
1025.58	1539.68
1025.87	1495.61
1026.16	1479.79
1026.449	1477.31
1026.739	1482.28
1027.029	1447.7
1027.319	1448.15
1027.608	1441.15
1027.898	1428.04
1028.187	1423.97
1028.477	1432.34
1028.766	1426.46
1029.055	1369.29
1029.344	1397.31
1029.634	1391.88
1029.923	1360.25
1030.212	1364.31
1030.501	1362.28
1030.79	1311.66
1031.078	1324.77
1031.367	1316.41
1031.656	1304.2
1031.945	1315.05
1032.233	1294.26
1032.522	1279.57
1032.81	1273.02
1033.099	1261.49
1033.387	1258.55
1033.675	1252.9
1033.963	1231.89
1034.251	1251.55
1034.54	1242.96
1034.828	1194.15
1035.116	1225.34
1035.403	1220.59
1035.691	1222.62
1035.979	1167.94
1036.267	1197.09
1036.554	1172.68
1036.842	1168.84
1037.129	1153.47
1037.417	1140.37
1037.704	1129.52
1037.992	1113.7
1038.279	1129.97
1038.566	1132
1038.853	1132
1039.14	1132
