Data from white_wall_FLMS001491_083.txt Node
Date: Tue Feb 07 11:06:02 GMT 2017
User: dcchb
Spectrometer: FLMS00149
Trigger mode: 0
Integration Time (sec): 2.000000E-2
Scans to average: 10
Electric dark correction enabled: true
Nonlinearity correction enabled: false
Boxcar width: 0
XAxis mode: Wavelengths
Number of Pixels in Spectrum: 2048
>>>>>Begin Spectral Data<<<<<
341.393	-0.06
341.776	-0.06
342.16	-0.06
342.543	-79.15
342.927	-58.13
343.31	-74.18
343.693	-72.82
344.077	-53.61
344.46	-57.23
344.843	-53.84
345.226	-47.06
345.61	-37.34
345.993	-18.36
346.376	-4.58
346.759	18.02
347.142	33.61
347.525	57.57
347.908	54.41
348.291	71.81
348.674	89.88
349.057	93.73
349.44	123.1
349.823	134.86
350.206	170.56
350.588	225.47
350.971	239.26
351.354	250.56
351.737	270.44
352.119	266.83
352.502	299.82
352.884	291.91
353.267	295.3
353.65	312.7
354.032	339.14
354.414	338.01
354.797	338.24
355.179	359.71
355.562	344.12
355.944	349.76
356.326	363.78
356.709	354.74
357.091	369.2
357.473	364
357.855	370.56
358.238	361.06
358.62	381.18
359.002	377.33
359.384	379.37
359.766	378.46
360.148	357.9
360.53	356.32
360.912	341.4
361.294	357
361.676	351.8
362.057	343.89
362.439	349.76
362.821	342.08
363.203	349.76
363.584	368.3
363.966	359.26
364.348	352.48
364.729	354.96
365.111	353.38
365.493	370.78
365.874	356.54
366.256	333.27
366.637	344.12
367.019	327.39
367.4	334.17
367.781	339.37
368.163	349.54
368.544	358.13
368.925	346.38
369.306	364
369.688	352.25
370.069	335.98
370.45	334.85
370.831	351.35
371.212	348.86
371.593	372.14
371.974	346.83
372.355	348.63
372.736	334.17
373.117	355.19
373.498	350.44
373.879	350.22
374.26	346.6
374.641	372.82
375.021	347.73
375.402	345.25
375.783	360.84
376.163	351.12
376.544	349.54
376.925	368.97
377.305	375.98
377.686	369.88
378.066	375.3
378.447	363.55
378.827	371.46
379.208	374.85
379.588	388.63
379.968	391.8
380.349	385.7
380.729	390.89
381.109	402.42
381.489	376.43
381.87	382.08
382.25	416.66
382.63	393.83
383.01	411.23
383.39	399.48
383.77	369.43
384.15	406.26
384.53	414.4
384.91	428.86
385.29	381.63
385.67	427.28
386.049	430.89
386.429	419.59
386.809	432.02
387.189	433.38
387.568	450.33
387.948	435.19
388.328	442.64
388.707	449.88
389.087	455.3
389.466	451.91
389.846	468.18
390.225	453.72
390.605	474.51
390.984	473.15
391.363	489.42
391.743	479.7
392.122	476.09
392.501	491.91
392.881	512.25
393.26	502.08
393.639	533.26
394.018	526.94
394.397	540.95
394.776	551.57
395.155	532.81
395.534	563.09
395.913	549.76
396.292	578.23
396.671	596.09
397.05	581.85
397.429	615.52
397.808	601.96
398.186	615.07
398.565	644.45
398.944	625.69
399.323	635.63
399.701	669.08
400.08	678.34
400.458	682.41
400.837	692.81
401.215	701.62
401.594	741.62
401.972	714.5
402.351	725.8
402.729	754.5
403.107	761.96
403.486	766.25
403.864	785.23
404.242	789.3
404.62	821.62
404.999	848.96
405.377	861.16
405.755	906.59
406.133	901.39
406.511	896.64
406.889	925.79
407.267	937.77
407.645	950.43
408.023	963.08
408.401	985.23
408.779	1003.31
409.156	1020.93
409.534	1057.99
409.912	1064.1
410.29	1077.66
410.667	1100.03
411.045	1124.43
411.422	1129.63
411.8	1177.31
412.178	1169.86
412.555	1170.08
412.933	1187.26
413.31	1237.65
413.687	1239.46
414.065	1266.12
414.442	1292.34
414.819	1307.93
415.197	1313.81
415.574	1336.41
415.951	1377.76
416.328	1356.29
416.705	1396.74
417.082	1382.73
417.46	1427.02
417.837	1420.25
418.214	1453.92
418.591	1437.65
418.967	1462.73
419.344	1490.07
419.721	1539.11
420.098	1531.43
420.475	1565.1
420.852	1567.36
421.228	1603.74
421.605	1602.39
421.982	1581.82
422.358	1658.2
422.735	1661.59
423.111	1674.02
423.488	1688.94
423.864	1696.17
424.241	1716.51
424.617	1772.78
424.994	1777.07
425.37	1792.21
425.746	1802.38
426.123	1837.41
426.499	1832.21
426.875	1871.98
427.251	1922.38
427.627	1928.25
428.003	1938.88
428.379	2000.12
428.756	2032.66
429.132	2052.77
429.507	2075.14
429.883	2098.87
430.259	2154.69
430.635	2149.04
431.011	2179.55
431.387	2217.06
431.763	2251.86
432.138	2278.75
432.514	2301.58
432.89	2331.63
433.265	2384.29
433.641	2391.29
434.016	2404.85
434.392	2442.82
434.767	2518.3
435.143	2519.88
435.518	2522.59
435.894	2601.01
436.269	2617.5
436.644	2643.72
437.02	2652.76
437.395	2643.26
437.77	2688.46
438.145	2771.85
438.52	2780.44
438.895	2803.49
439.271	2836.03
439.646	2889.13
440.021	2912.86
440.395	2918.74
440.77	2920.77
441.145	2985.18
441.52	3022.69
441.895	3047.1
442.27	3031.95
442.645	3075.57
443.019	3096.13
443.394	3133.87
443.769	3142.01
444.143	3130.48
444.518	3185.17
444.892	3195.57
445.267	3210.71
445.641	3283.7
446.016	3268.78
446.39	3302
446.764	3321.89
447.139	3365.73
447.513	3404.83
447.887	3372.96
448.262	3415.67
448.636	3435.56
449.01	3497.03
449.384	3530.92
449.758	3595.56
450.132	3617.48
450.506	3607.53
450.88	3661.99
451.254	3683.46
451.628	3697.93
452.002	3758.26
452.376	3821.09
452.75	3867.86
453.123	3875.55
453.497	3946.96
453.871	3970.69
454.244	4085.03
454.618	4061.08
454.992	4106.95
455.365	4142.21
455.739	4273.73
456.112	4307.4
456.486	4364.12
456.859	4420.39
457.232	4467.17
457.606	4480.5
457.979	4530.22
458.352	4642.53
458.725	4683.21
459.099	4711.46
459.472	4851.12
459.845	4886.37
460.218	4932.47
460.591	4969.3
460.964	4953.26
461.337	5141.96
461.71	5195.74
462.083	5259.01
462.456	5291.1
462.829	5314.15
463.201	5411.33
463.574	5425.79
463.947	5555.05
464.32	5657.65
464.692	5703.97
465.065	5736.29
465.438	5819
465.81	5932.44
466.183	5970.63
466.555	6169.05
466.928	6146.67
467.3	6170.85
467.672	6305.31
468.045	6430.96
468.417	6511.64
468.789	6521.81
469.161	6611.07
469.534	6731.97
469.906	6899.88
470.278	6944.85
470.65	7057.16
471.022	7172.86
471.394	7355.46
471.766	7396.59
472.138	7480.2
472.51	7618.95
472.882	7780.53
473.253	7898.72
473.625	7980.98
473.997	8152.5
474.369	8237.02
474.74	8305.26
475.112	8486.73
475.484	8615.08
475.855	8804.23
476.227	8927.39
476.598	9134.84
476.97	9134.84
477.341	9414.84
477.713	9562.18
478.084	9666.13
478.455	9866.8
478.827	10009.62
479.198	10329.39
479.569	10282.16
479.94	10628.59
480.311	10671.53
480.682	10971.63
481.053	11253.88
481.424	11388.34
481.795	11465.63
482.166	11702.91
482.537	11878.05
482.908	12152.84
483.279	12250.02
483.65	12471.93
484.021	12816.1
484.391	12913.28
484.762	12994.63
485.133	13196.88
485.503	13291.8
485.874	13571.56
486.244	13790.32
486.615	14081.61
486.985	14276.86
487.356	14508.49
487.726	14623.97
488.097	14975.37
488.467	14969.27
488.837	15349.14
489.207	15535.35
489.578	15772.86
489.948	15897.6
490.318	16185.73
490.688	16235.9
491.058	16601.54
491.428	16771.48
491.798	16979.16
492.168	17240.62
492.538	17339.6
492.908	17559.71
493.278	17805.13
493.648	17811.9
494.017	18051.9
494.387	18218.45
494.757	18330.76
495.126	18589.29
495.496	18742.28
495.866	18871.09
496.235	19067.92
496.605	19184.98
496.974	19432.2
497.344	19628.58
497.713	19758.29
498.082	19844.39
498.452	20159.19
498.821	20252.07
499.19	20188.79
499.559	20506.3
499.928	20670.13
500.298	20824.48
500.667	21080.29
501.036	21071.93
501.405	21264.7
501.774	21254.75
502.143	21586.95
502.512	21709.2
502.88	21921.85
503.249	22029.42
503.618	22122.07
503.987	22343.31
504.356	22493.14
504.724	22634.83
505.093	22819.68
505.462	22866.23
505.83	23053.35
506.199	23180.58
506.567	23731.52
506.936	23647.23
507.304	23839.54
507.672	23970.61
508.041	24126.99
508.409	24308
508.777	24486.31
509.145	24705.51
509.514	24795
509.882	24943.24
510.25	25135.55
510.618	25331.25
510.986	25405.15
511.354	25626.61
511.722	25914.74
512.09	26158.8
512.458	26089.43
512.826	26500.49
513.193	26567.61
513.561	26670.43
513.929	27063.86
514.297	27162.17
514.664	27243.07
515.032	27472.89
515.4	27755.37
515.767	27870.17
516.135	28104.06
516.502	27873.11
516.869	28666.08
517.237	28650.26
517.604	28540.21
517.972	28994.21
518.339	29165.73
518.706	29273.3
519.073	29496.34
519.44	29637.13
519.808	29986.73
520.175	30050.23
520.542	30499.25
520.909	30486.6
521.276	30664.9
521.643	30954.16
522.009	31117.32
522.376	31488.38
522.743	31650.86
523.11	31995.26
523.477	32330.84
523.843	32341.24
524.21	32701.91
524.577	32878.63
524.943	33056.93
525.31	33250.14
525.676	33608.78
526.043	33962.21
526.409	34037.92
526.776	34432.71
527.142	34452.6
527.508	34792.48
527.874	34878.12
528.241	35144.78
528.607	35342.74
528.973	35722.62
529.339	35601.49
529.705	35839
530.071	36322.15
530.437	36490.96
530.803	36717.62
531.169	36841.46
531.535	36763.95
531.901	37026.31
532.267	37282.13
532.632	37436.02
532.998	37700.65
533.364	37808.44
533.73	37868.78
534.095	38305.6
534.461	38444.81
534.826	38683.9
535.192	38705.59
535.557	39020.84
535.923	38975.19
536.288	39263.09
536.653	39318.68
537.019	39227.39
537.384	39456.53
537.749	39821.5
538.114	39785.11
538.479	39954.83
538.845	40195.72
539.21	40117.08
539.575	40505.77
539.94	40569.05
540.305	40758.42
540.67	40694.69
541.034	40926.1
541.399	41085.87
541.764	41379.65
542.129	41345.75
542.494	41613.99
542.858	41885.4
543.223	41864.38
543.587	42158.83
543.952	42140.76
544.316	42292.16
544.681	42260.3
545.045	42586.17
545.41	42767.86
545.774	42943
546.138	42961.3
546.503	43203.78
546.867	43200.39
547.231	43461.85
547.595	43672.69
547.959	43826.81
548.324	43902.29
548.688	44097.54
549.052	44149.07
549.416	44340.47
549.779	44610.75
550.143	44635.15
550.507	44928.03
550.871	45123.5
551.235	45041.92
551.599	45387.68
551.962	45464.28
552.326	45624.05
552.689	45915.57
553.053	45775.01
553.417	46019.52
553.78	46476.01
554.143	46360.08
554.507	46640.07
554.87	46728.66
555.234	47156.67
555.597	47163
555.96	47218.81
556.323	47487.96
556.686	47480.05
557.05	47953.71
557.413	47979.25
557.776	48052.92
558.139	48362.97
558.502	48437.77
558.865	48558.67
559.228	48852.22
559.59	48917.75
559.953	48978.77
560.316	49457.85
560.679	49550.51
561.041	49681.8
561.404	49802.7
561.767	50079.76
562.129	50009.48
562.492	50416.47
562.854	50440.88
563.217	50477.26
563.579	50627.99
563.941	50827.53
564.304	51086.74
564.666	51262.32
565.028	51264.81
565.39	51438.82
565.753	51570.56
566.115	51714.29
566.477	51858.47
566.839	51973.04
567.201	52153.6
567.563	52251
567.925	52461.84
568.287	52503.2
568.648	52546.58
569.01	52721.72
569.372	52923.52
569.734	52896.86
570.095	53006.69
570.457	53143.63
570.819	53199.67
571.18	53287.81
571.542	53398.09
571.903	53477.41
572.265	53561.47
572.626	53635.14
572.987	53690.28
573.349	53875.36
573.71	53927.34
574.071	54059.54
574.432	54102.93
574.794	54337.95
575.155	54208.91
575.516	54166.65
575.877	54319.42
576.238	54418.85
576.599	54514.89
576.96	54518.96
577.32	54592.63
577.681	54505.4
578.042	54674.66
578.403	54686.19
578.763	54657.72
579.124	54772.97
579.485	54805.51
579.845	54945.39
580.206	54916.92
580.566	54892.51
580.927	54891.38
581.287	55010.93
581.648	54944.04
582.008	55082.56
582.368	54992.4
582.728	55116.69
583.089	55113.52
583.449	55113.3
583.809	55061.77
584.169	55222.9
584.529	55107.2
584.889	55223.35
585.249	55202.11
585.609	55087.08
585.969	55236.91
586.329	55187.87
586.688	55308.55
587.048	55198.94
587.408	55178.38
587.768	55214.76
588.127	55169.11
588.487	55143.8
588.846	55355.78
589.206	55103.35
589.565	55216.34
589.925	55344.25
590.284	55256.57
590.643	55287.3
591.003	55371.14
591.362	55373.4
591.721	55309.22
592.08	55287.76
592.44	55386.96
592.799	55410.46
593.158	55337.92
593.517	55374.76
593.876	55464.93
594.235	55401.88
594.593	55435.55
594.952	55519.16
595.311	55320.75
595.67	55468.32
596.029	55584.24
596.387	55571.82
596.746	55573.4
597.104	55459.28
597.463	55476.45
597.822	55572.72
598.18	55477.13
598.538	55528.2
598.897	55647.75
599.255	55476.9
599.613	55861.07
599.972	55638.25
600.33	55797.12
600.688	55641.64
601.046	55754.64
601.404	55916.89
601.762	55821.75
602.12	55906.27
602.478	55809.55
602.836	55923.67
603.194	55739.04
603.552	55851.13
603.91	55737.91
604.268	55982.2
604.625	55821.3
604.983	55969.09
605.341	55843.67
605.698	56038.24
606.056	56082.99
606.413	56069.43
606.771	56086.38
607.128	56134.06
607.485	56039.6
607.843	56151.01
608.2	56247.5
608.557	56345.13
608.914	56244.34
609.272	56318.69
609.629	56426.03
609.986	56464.45
610.343	56404.34
610.7	56584.22
611.057	56491.34
611.414	56445.69
611.771	56515.29
612.127	56605.23
612.484	56554.61
612.841	56672.35
613.198	56552.13
613.554	56652.24
613.911	56703.31
614.267	56713.48
614.624	56667.83
614.98	56823.53
615.337	56897.2
615.693	56834.83
616.05	56806.36
616.406	56920.25
616.762	56844.1
617.118	56894.72
617.475	56770.2
617.831	56961.84
618.187	56924.55
618.543	57004.77
618.899	57169.97
619.255	57106.24
619.611	57077.76
619.967	57225.78
620.323	57179.23
620.678	57092.68
621.034	57080.02
621.39	57039.57
621.746	57005.45
622.101	57308.04
622.457	57110.31
622.812	57265.1
623.168	57257.2
623.523	57172.23
623.879	57325.22
624.234	57120.93
624.589	57281.6
624.945	57263.07
625.3	57232.56
625.655	57233.69
626.01	57226.24
626.365	57236.18
626.72	57194.37
627.075	57190.98
627.43	57230.98
627.785	57101.72
628.14	57226.01
628.495	57211.32
628.85	57216.52
629.205	57044.09
629.559	57247.03
629.914	57115.73
630.269	57094.49
630.623	57102.62
630.978	57028.5
631.332	57197.76
631.687	57228.04
632.041	57068.27
632.396	57096.07
632.75	56985.56
633.104	56997.99
633.459	56908.96
633.813	56836.42
634.167	56899.01
634.521	56871.44
634.875	56919.35
635.229	56854.95
635.583	56713.25
635.937	56708.51
636.291	56680.94
636.645	56720.94
636.999	56671.9
637.352	56736.76
637.706	56582.64
638.06	56654.27
638.413	56626.7
638.767	56573.6
639.121	56553.03
639.474	56443.21
639.828	56404.56
640.181	56456.99
640.534	56452.7
640.888	56289.54
641.241	56280.72
641.594	56292.47
641.947	56418.57
642.301	56306.49
642.654	56255.64
643.007	56243.44
643.36	56256.32
643.713	56165.7
644.066	56264
644.419	56071.92
644.771	55933.16
645.124	55668.08
645.477	55666.95
645.83	55516.9
646.182	55337.25
646.535	55247.98
646.888	55270.13
647.24	55198.72
647.593	55295.44
647.945	55225.16
648.298	55036.91
648.65	55023.58
649.002	54951.04
649.355	55038.95
649.707	55009.57
650.059	55152.17
650.411	55432.61
650.763	55481.42
651.115	55799.83
651.467	55588.31
651.819	55640.97
652.171	55523.23
652.523	55463.34
652.875	55492.72
653.227	55381.76
653.578	55583.79
653.93	55464.02
654.282	55381.76
654.633	55245.27
654.985	55330.47
655.337	55306.29
655.688	55287.98
656.039	55409.79
656.391	55243.69
656.742	55185.84
657.094	55235.55
657.445	55315.33
657.796	55230.36
658.147	55210.47
658.498	55127.31
658.849	55117.82
659.2	55126.18
659.551	54934.77
659.902	55144.48
660.253	55142.45
660.604	55113.75
660.955	55005.73
661.306	55093.18
661.656	55002.34
662.007	55005.28
662.358	54953.3
662.708	55031.72
663.059	54940.65
663.409	54735.68
663.76	54939.06
664.11	54883.47
664.461	54905.39
664.811	55016.8
665.161	54953.07
665.511	54841.89
665.862	54892.96
666.212	54960.98
666.562	54959.63
666.912	54819.29
667.262	54810.93
667.612	54800.54
667.962	54721.44
668.312	54702.91
668.662	54940.65
669.011	54751.27
669.361	54712.18
669.711	54676.7
670.06	54615.91
670.41	54575.46
670.76	54607.1
671.109	54703.14
671.459	54644.16
671.808	54447.33
672.157	54615.91
672.507	54406.42
672.856	54345.41
673.205	54439.19
673.554	54514.89
673.904	54381.34
674.253	54494.78
674.602	54374.33
674.951	53948.58
675.3	53795.82
675.649	54321.68
675.998	54145.19
676.346	54248.23
676.695	54259.99
677.044	54016.15
677.393	54158.75
677.741	54192.87
678.09	54036.49
678.438	53988.35
678.787	54111.29
679.135	54020.9
679.484	53900
679.832	53911.97
680.181	53829.26
680.529	53914.46
680.877	53904.74
681.225	53765.99
681.573	53930.73
681.922	53661.58
682.27	53577.52
682.618	53688.48
682.966	53544.3
683.314	53558.76
683.661	53489.84
684.009	53283.74
684.357	53287.13
684.705	53220.69
685.053	53256.17
685.4	53260.46
685.748	53035.16
686.095	53045.55
686.443	52873.13
686.79	52864.54
687.138	52856.41
687.485	52805.11
687.832	52723.3
688.18	52717.88
688.527	52532.57
688.874	52528.51
689.221	52380.71
689.568	52333.71
689.915	52264.56
690.262	52237.44
690.609	52214.16
690.956	52126.93
691.303	52032.02
691.65	51744.57
691.997	51837.9
692.344	51684.46
692.69	51707.28
693.037	51702.31
693.383	51360.4
693.73	51507.97
694.077	51274.75
694.423	51355.88
694.769	51157.92
695.116	51100.07
695.462	51086.96
695.808	50935.55
696.155	50987.3
696.501	50796.12
696.847	50725.62
697.193	50453.53
697.539	50555.22
697.885	50407.43
698.231	50291.95
698.577	50332.63
698.923	50127.89
699.269	50004.28
699.614	49828.69
699.96	49848.35
700.306	49661.91
700.651	49589.83
700.997	49460.11
701.342	49331.75
701.688	49367.91
702.033	49263.51
702.379	49291.3
702.724	49090.18
703.069	49202.49
703.415	48539.01
703.76	48704.65
704.105	48783.75
704.45	48590.3
704.795	48448.16
705.14	48567.93
705.485	48312.57
705.83	48298.79
706.175	48204.78
706.52	48192.57
706.865	47980.15
707.209	47980.38
707.554	47803.88
707.899	47853.15
708.243	47718.91
708.588	47543.33
708.932	47327.51
709.277	47408.19
709.621	47396.44
709.966	47089.78
710.31	47182.43
710.654	46774.98
710.998	46886.85
711.342	46977.01
711.687	46760.75
712.031	46650.92
712.375	46490.47
712.719	46620.64
713.063	46521.66
713.407	46612.05
713.75	46264.94
714.094	46228.78
714.438	46111.05
714.782	46166.87
715.125	46040.54
715.469	46044.16
715.812	45746.54
716.156	45656.6
716.499	45604.85
716.843	45714
717.186	45362.14
717.53	45562.36
717.873	45468.13
718.216	45403.72
718.559	45216.16
718.902	44854.81
719.246	45102.49
719.589	44928.25
719.932	44669.5
720.275	44587.02
720.617	44681.48
720.96	44672.89
721.303	44658.43
721.646	44592.44
721.989	44357.2
722.331	44468.15
722.674	44264.54
723.016	44272
723.359	44212.34
723.701	44246.46
724.044	43860.71
724.386	43845.8
724.729	44091.44
725.071	43978.22
725.413	43741.39
725.755	43747.27
726.097	43767.15
726.439	43481.96
726.782	43525.13
727.124	43581.85
727.465	43322.42
727.807	43380.05
728.149	43279.94
728.491	43141.41
728.833	43195.42
729.175	42997.01
729.516	43000.39
729.858	42941.87
730.199	42973.73
730.541	42859.83
730.882	42792.72
731.224	43001.52
731.565	42561.76
731.906	42555.43
732.248	42637.24
732.589	42268.89
732.93	42146.86
733.271	42233.86
733.612	42209.68
733.953	42215.1
734.294	41980.76
734.635	41924.94
734.976	41946.19
735.317	41705.29
735.658	41778.96
735.999	41749.35
736.339	41584.39
736.68	41696.25
737.021	41671.39
737.361	41341
737.702	41490.38
738.042	41334.22
738.383	41439.08
738.723	41437.95
739.063	41275.24
739.404	41255.58
739.744	41190.5
740.084	41074.8
740.424	41049.94
740.764	40995.48
741.104	41022.82
741.444	40897.17
741.784	40667.12
742.124	40898.08
742.464	40813.11
742.804	40639.33
743.143	40402.72
743.483	40505.55
743.823	40258.77
744.162	40289.73
744.502	40252.9
744.841	40151.66
745.181	40339.67
745.52	39997.31
745.86	40188.94
746.199	39987.37
746.538	39987.59
746.877	40045.22
747.216	40162.05
747.556	39831.21
747.895	39942.62
748.234	39520.71
748.573	39655.62
748.911	39581.95
749.25	39506.25
749.589	39250.66
749.928	39294.96
750.267	39269.87
750.605	39206.82
750.944	39239.59
751.283	38988.52
751.621	39104.23
751.96	38822.65
752.298	38673.5
752.636	38861.75
752.975	38653.84
753.313	38458.59
753.651	38699.04
753.989	38543.56
754.327	38417.24
754.666	38198.71
755.004	38274.42
755.342	38291.14
755.679	38084.14
756.017	37884.6
756.355	38123.91
756.693	37764.6
757.031	37773.64
757.368	37633.53
757.706	37458.17
758.044	37389.92
758.381	37466.53
758.719	37268.57
759.056	37495.23
759.394	37298.4
759.731	36933.89
760.068	37020.44
760.405	36744.29
760.743	36610.05
761.08	36747.23
761.417	36383.39
761.754	36428.82
762.091	36414.58
762.428	36260.68
762.765	36063.4
763.102	36107.92
763.438	35972.33
763.775	35741.6
764.112	35790.41
764.449	35650.08
764.785	35611.89
765.122	35324.89
765.458	35243.54
765.795	35262.75
766.131	35293.93
766.467	35091.22
766.804	34942.53
767.14	34829.31
767.476	34768.75
767.812	34510
768.148	34574.85
768.485	34314.97
768.821	34200.63
769.157	34155.2
769.492	33928.77
769.828	33924.02
770.164	33672.73
770.5	33458.5
770.836	33457.37
771.171	33232.74
771.507	33243.36
771.842	33065.97
772.178	33065.06
772.513	33038.85
772.849	32797.73
773.184	32787.78
773.519	32578.97
773.855	32558.86
774.19	32335.36
774.525	32308.47
774.86	32292.88
775.195	32122.71
775.53	31992.55
775.865	31851.99
776.2	31687.25
776.535	31425.11
776.87	31547.14
777.205	31383.75
777.539	31214.04
777.874	31328.84
778.209	31012.46
778.543	30819.02
778.878	30595.52
779.212	30772.69
779.547	30696.76
779.881	30569.54
780.215	30318.69
780.55	30409.54
780.884	30360.73
781.218	30070.11
781.552	30100.17
781.886	29876.67
782.22	29788.54
782.554	29704.02
782.888	29442.56
783.222	29412.05
783.556	29255.67
783.889	29257.93
784.223	28951.05
784.557	28871.5
784.89	28942.23
785.224	28690.49
785.557	28725.52
785.891	28558.97
786.224	28525.75
786.558	28463.83
786.891	28161.91
787.224	28067.91
787.557	28018.19
787.891	27948.59
788.224	27905.88
788.557	27937.97
788.89	27769.16
789.223	27716.5
789.556	27506.79
789.888	27544.98
790.221	27380.01
790.554	27165.56
790.887	27189.96
791.219	27093.92
791.552	26961.27
791.884	26845.11
792.217	26680.82
792.549	26712.91
792.882	26500.26
793.214	26465.46
793.546	26465.69
793.879	26384.11
794.211	26169.65
794.543	26238.12
794.875	26102.08
795.207	26128.3
795.539	25900.28
795.871	25903.44
796.203	25648.31
796.535	25482.44
796.867	25552.04
797.198	25471.14
797.53	25400.86
797.862	25182.33
798.193	25219.17
798.525	25113.18
798.856	25050.36
799.188	24806.75
799.519	24743.02
799.85	24601.78
800.182	24660.31
800.513	24558.39
800.844	24490.37
801.175	24565.85
801.506	24457.15
801.837	24257.38
802.168	24285.18
802.499	24209.02
802.83	24057.62
803.161	24044.51
803.491	23989.6
803.822	23993.44
804.153	23926.09
804.483	23710.28
804.814	23633.67
805.145	23729.72
805.475	23603.39
805.805	23431.64
806.136	23499.66
806.466	23383.74
806.796	23387.58
807.126	23164.08
807.457	23110.52
807.787	23182.16
808.117	23028.04
808.447	22936.06
808.777	23072.56
809.107	22822.39
809.436	22763.41
809.766	22865.56
810.096	22671.21
810.426	22576.53
810.755	22500.14
811.085	22631.44
811.414	22485.45
811.744	22278.91
812.073	22264.89
812.403	22191
812.732	22102.87
813.061	22075.07
813.39	22008.18
813.719	21962.53
814.049	21994.39
814.378	21955.52
814.707	21822.19
815.036	21816.77
815.365	21720.28
815.693	21498.81
816.022	21558.7
816.351	21485.25
816.68	21406.61
817.008	21466.72
817.337	21261.31
817.665	21232.38
817.994	21255.43
818.322	21196.9
818.651	21088.2
818.979	20971.6
819.307	21175.21
819.636	21006.4
819.964	20801.66
820.292	21035.1
820.62	20935.44
820.948	20887.98
821.276	20953.97
821.604	20793.07
821.932	20827.87
822.259	20946.96
822.587	20798.94
822.915	20745.16
823.243	20857.47
823.57	20709.68
823.898	20728.21
824.225	20702.22
824.553	20607.31
824.88	20692.28
825.207	20790.81
825.535	20649.34
825.862	20819.51
826.189	20713.75
826.516	20809.11
826.843	20876
827.17	20843.92
827.497	20839.85
827.824	20736.8
828.151	20758.04
828.478	20801.2
828.805	20828.55
829.131	20722.79
829.458	20769.11
829.785	20584.04
830.111	20647.31
830.438	20758.04
830.764	20590.59
831.09	20687.76
831.417	20534.09
831.743	20667.87
832.069	20635.79
832.395	20523.02
832.722	20577.71
833.048	20501.1
833.374	20592.85
833.7	20401.21
834.026	20506.75
834.351	20548.78
834.677	20422.23
835.003	20496.81
835.329	20443.93
835.654	20357.37
835.98	20308.79
836.306	20393.76
836.631	20206.64
836.956	20304.27
837.282	20241.45
837.607	20110.6
837.932	20080.77
838.258	20166.19
838.583	20139.98
838.908	19982.47
839.233	19992.86
839.558	19932.53
839.883	19929.36
840.208	19883.94
840.533	19909.48
840.858	19914.45
841.182	19911.28
841.507	19781.57
841.832	19702.93
842.156	19637.17
842.481	19629.03
842.805	19594
843.13	19530.5
843.454	19464.06
843.778	19511.75
844.103	19403.95
844.427	19393.56
844.751	19297.06
845.075	19219.78
845.399	19035.83
845.723	19115.6
846.047	19142.49
846.371	18888.49
846.695	18960.12
847.019	18840.58
847.343	18775.72
847.666	18676.74
847.99	18466.58
848.313	18562.17
848.637	18387.48
848.96	18300.25
849.284	18309.52
849.607	18243.08
849.931	18178.22
850.254	18028.62
850.577	18036.31
850.9	17795.41
851.223	17827.95
851.546	17738.91
851.869	17595.64
852.192	17771.68
852.515	17537.11
852.838	17570.1
853.161	17438.36
853.483	17428.41
853.806	17357
854.129	17268.87
854.451	17138.02
854.774	17084.47
855.096	17138.02
855.419	17015.09
855.741	16994.07
856.063	16919.05
856.385	16851.7
856.708	16861.42
857.03	16771.71
857.352	16719.96
857.674	16700.97
857.996	16579.62
858.318	16581.88
858.64	16537.59
858.961	16491.94
859.283	16423.47
859.605	16325.84
859.926	16369.23
860.248	16270.25
860.57	16164.94
860.891	16267.54
861.212	16083.36
861.534	16233.64
861.855	15985.74
862.176	16140.99
862.498	16033.65
862.819	16059.41
863.14	15925.85
863.461	15910.94
863.782	15886.98
864.103	15952.29
864.424	15764.5
864.745	15816.25
865.065	15789.13
865.386	15656.03
865.707	15608.57
866.027	15683.37
866.348	15581.45
866.668	15606.31
866.989	15536.71
867.309	15439.76
867.63	15532.42
867.95	15497.16
868.27	15399.31
868.59	15486.32
868.91	15408.8
869.23	15391.18
869.55	15253.78
869.87	15371.06
870.19	15225.08
870.51	15292.2
870.83	15312.99
871.15	15114.12
871.469	15182.6
871.789	15183.27
872.109	15125.2
872.428	15009.04
872.748	15045.42
873.067	15062.37
873.386	15069.6
873.706	15068.25
874.025	14977.63
874.344	14921.59
874.663	14964.07
874.982	14947.35
875.301	14952.32
875.62	14896.5
875.939	14747.13
876.258	14913.68
876.577	14781.02
876.896	14785.09
877.214	14720.91
877.533	14674.59
877.852	14704.19
878.17	14668.48
878.489	14712.33
878.807	14618.99
879.125	14640.46
879.444	14612.21
879.762	14489.28
880.08	14620.8
880.398	14450.86
880.716	14523.86
881.034	14504.42
881.352	14376.51
881.67	14358.44
881.988	14397.98
882.306	14427.81
882.624	14292.9
882.941	14279.57
883.259	14216.97
883.577	14244.54
883.894	14214.49
884.212	14171.77
884.529	14110.31
884.846	14063.08
885.164	14081.16
885.481	13990.54
885.798	14055.17
886.115	13921.61
886.432	13939.01
886.75	13814.04
887.067	13943.08
887.383	13838.45
887.7	13762.29
888.017	13742.86
888.334	13739.24
888.651	13636.42
888.967	13704.44
889.284	13635.29
889.6	13566.82
889.917	13530.66
890.233	13464.45
890.55	13405.47
890.866	13437.56
891.182	13290.22
891.498	13242.76
891.815	13246.83
892.131	13209.09
892.447	13099.49
892.763	13073.95
893.079	13095.87
893.395	13037.11
893.71	12998.92
894.026	12985.36
894.342	13018.36
894.657	12808.65
894.973	12872.6
895.289	12841.64
895.604	12766.16
895.92	12725.71
896.235	12702.66
896.55	12647.07
896.865	12636
897.181	12517.35
897.496	12608.2
897.811	12487.98
898.126	12499.5
898.441	12413.4
898.756	12354.19
899.071	12405.94
899.386	12355.1
899.7	12212.96
900.015	12197.59
900.33	12165.27
900.644	12078.95
900.959	12108.1
901.273	12084.15
901.588	12047.76
901.902	11906.07
902.216	11909.46
902.531	11770.71
902.845	11799.18
903.159	11746.08
903.473	11704.49
903.787	11682.35
904.101	11617.04
904.415	11510.83
904.729	11587.89
905.042	11489.36
905.356	11401
905.67	11372.07
905.984	11353.54
906.297	11316.48
906.611	11250.27
906.924	11294.79
907.237	11140.22
907.551	11104.74
907.864	11128.92
908.177	11038.75
908.491	11023.61
908.804	10960.33
909.117	10879.66
909.43	10789.49
909.743	10746.33
910.056	10776.16
910.368	10732.77
910.681	10668.14
910.994	10627.46
911.307	10644.64
911.619	10472.21
911.932	10544.3
912.244	10460.91
912.557	10497.29
912.869	10449.84
913.181	10315.38
913.494	10292.55
913.806	10248.49
914.118	10265.66
914.43	10131.88
914.742	10080.81
915.054	10006.46
915.366	10067.48
915.678	10029.28
915.99	9899.57
916.302	9768.95
916.613	9827.03
916.925	9811.44
917.236	9762.4
917.548	9702.97
917.859	9716.52
918.171	9635.17
918.482	9604.21
918.794	9531.67
919.105	9562.63
919.416	9431.11
919.727	9405.12
920.038	9405.57
920.349	9309.76
920.66	9318.57
920.971	9315.18
921.282	9278.34
921.593	9189.98
921.903	9131.91
922.214	9178.01
922.525	9135.75
922.835	9060.95
923.146	8948.41
923.456	8991.35
923.767	8919.71
924.077	8884.23
924.387	8851.69
924.697	8795.87
925.008	8749.54
925.318	8785.7
925.628	8700.05
925.938	8675.87
926.248	8587.06
926.558	8620.06
926.867	8550.68
927.177	8511.81
927.487	8527.63
927.796	8405.82
928.106	8368.09
928.416	8373.51
928.725	8386.62
929.034	8279.73
929.344	8263.91
929.653	8261.2
929.962	8195.21
930.271	8185.04
930.581	8111.82
930.89	8053.74
931.199	8009
931.508	7971.94
931.817	8066.85
932.125	8013.52
932.434	7912.73
932.743	7789.8
933.051	7830.7
933.36	7791.15
933.669	7750.93
933.977	7718.61
934.286	7651.72
934.594	7718.16
934.902	7613.08
935.21	7627.99
935.519	7577.6
935.827	7504.38
936.135	7528.79
936.443	7368.34
936.751	7387.55
937.059	7324.04
937.367	7329.47
937.674	7308.45
937.982	7282.46
938.29	7248.57
938.597	7272.29
938.905	7157.04
939.213	7122.24
939.52	7087.89
939.827	7036.59
940.135	7055.8
940.442	7029.14
940.749	6981.23
941.056	6977.84
941.363	6877.05
941.67	6865.3
941.977	6889.25
942.284	6808.13
942.591	6807
942.898	6829.14
943.205	6815.81
943.511	6688.58
943.818	6679.77
944.125	6632.76
944.431	6651.29
944.738	6635.02
945.044	6586.66
945.35	6539.66
945.657	6482.03
945.963	6462.15
946.269	6482.71
946.575	6430.06
946.881	6409.04
947.187	6338.53
947.493	6326.56
947.799	6295.82
948.105	6284.98
948.41	6276.84
948.716	6240.01
949.022	6134.47
949.327	6145.09
949.633	6103.51
949.938	6104.87
950.244	6055.6
950.549	6066.22
950.854	6060.12
951.16	6019.22
951.465	5980.13
951.77	5958.88
952.075	5924.99
952.38	5843.86
952.685	5873.24
952.99	5807.47
953.294	5826.91
953.599	5776.06
953.904	5715.27
954.209	5667.82
954.513	5717.76
954.818	5659.91
955.122	5675.05
955.426	5652.22
955.731	5605.45
956.035	5542.85
956.339	5528.16
956.643	5553.7
956.948	5515.5
957.252	5479.57
957.556	5450.42
957.86	5436.18
958.163	5444.32
958.467	5415.17
958.771	5371.1
959.075	5376.07
959.378	5321.39
959.682	5319.35
959.985	5272.12
960.289	5231.22
960.592	5228.51
960.896	5149.41
961.199	5203.65
961.502	5175.85
961.805	5175.17
962.108	5119.13
962.411	5124.33
962.714	5071
963.017	5014.05
963.32	5052.92
963.623	4983.77
963.926	4974.28
964.228	4947.61
964.531	4889.31
964.833	4903.09
965.136	4845.24
965.438	4847.05
965.741	4828.07
966.043	4779.03
966.345	4783.55
966.648	4750.33
966.95	4777.67
967.252	4768.86
967.554	4729.76
967.856	4664.91
968.158	4621.74
968.46	4621.06
968.761	4622.87
969.063	4612.48
969.365	4580.61
969.666	4556.21
969.968	4515.31
970.269	4502.2
970.571	4471.92
970.872	4480.5
971.174	4485.93
971.475	4451.8
971.776	4433.27
972.077	4412.48
972.378	4405.03
972.679	4385.82
972.98	4354.63
973.281	4342.2
973.582	4315.99
973.883	4303.11
974.183	4258.36
974.484	4271.92
974.785	4261.07
975.085	4216.78
975.386	4197.57
975.686	4174.3
975.986	4115.54
976.287	4125.94
976.587	4121.19
976.887	4086.62
977.187	4039.16
977.487	4098.59
977.787	4099.5
978.087	4013.4
978.387	4049.1
978.687	3957.35
978.987	4012.04
979.286	3924.59
979.586	3939.05
979.885	3918.71
980.185	3900.86
980.484	3922.78
980.784	3840.75
981.083	3847.98
981.382	3836.9
981.682	3840.52
981.981	3847.07
982.28	3784.48
982.579	3796.23
982.878	3761.2
983.177	3718.26
983.475	3715.33
983.774	3692.28
984.073	3671.49
984.372	3653.18
984.67	3676.91
984.969	3659.06
985.267	3646.85
985.566	3591.94
985.864	3558.27
986.162	3594.88
986.461	3551.04
986.759	3540.64
987.057	3508.78
987.355	3492.28
987.653	3441.43
987.951	3443.24
988.249	3439.4
988.547	3478.95
988.844	3399.4
989.142	3377.71
989.44	3387.2
989.737	3320.08
990.035	3352.85
990.332	3319.18
990.63	3343.13
990.927	3299.74
991.224	3267.43
991.521	3284.83
991.819	3217.71
992.116	3223.59
992.413	3236.69
992.71	3189.24
993.006	3233.3
993.303	3159.41
993.6	3150.6
993.897	3141.33
994.193	3108.56
994.49	3088
994.787	3082.12
995.083	3056.81
995.379	3095.23
995.676	3018.62
995.972	3031.5
996.268	3032.63
996.565	2983.14
996.861	2970.26
997.157	2964.61
997.453	2911.51
997.749	2951.73
998.044	2913.99
998.34	2902.47
998.636	2898.17
998.932	2843.26
999.227	2866.99
999.523	2851.85
999.818	2823.6
1000.114	2840.09
1000.409	2754.22
1000.704	2767.78
1001	2747.44
1001.295	2733.66
1001.59	2759.19
1001.885	2725.52
1002.18	2677.39
1002.475	2681.68
1002.77	2693.21
1003.065	2619.54
1003.359	2616.82
1003.654	2660.21
1003.949	2617.73
1004.243	2587.67
1004.538	2538.41
1004.832	2579.54
1005.127	2539.54
1005.421	2569.37
1005.715	2522.82
1006.009	2537.28
1006.304	2474.91
1006.598	2424.29
1006.892	2435.36
1007.186	2438.3
1007.48	2464.29
1007.773	2415.25
1008.067	2430.84
1008.361	2412.54
1008.655	2357.85
1008.948	2384.97
1009.242	2381.8
1009.535	2305.65
1009.829	2311.3
1010.122	2316.04
1010.415	2284.86
1010.708	2288.24
1011.001	2268.36
1011.295	2263.84
1011.588	2241.69
1011.881	2266.55
1012.173	2211.86
1012.466	2240.56
1012.759	2179.55
1013.052	2166.89
1013.344	2175.71
1013.637	2164.63
1013.93	2139.55
1014.222	2130.51
1014.514	2114.69
1014.807	2093
1015.099	2063.39
1015.391	2066.78
1015.683	2067.46
1015.976	2054.58
1016.268	1996.95
1016.56	2036.95
1016.851	2015.48
1017.143	1989.72
1017.435	2002.15
1017.727	1969.16
1018.018	1958.08
1018.31	1953.11
1018.602	1922.83
1018.893	1929.84
1019.185	1909.5
1019.476	1913.11
1019.767	1869.27
1020.058	1887.13
1020.35	1838.09
1020.641	1817.07
1020.932	1815.94
1021.223	1806.68
1021.514	1763.96
1021.804	1786.34
1022.095	1774.81
1022.386	1763.96
1022.677	1770.29
1022.967	1733.23
1023.258	1725.55
1023.548	1715.83
1023.839	1694.14
1024.129	1660.01
1024.419	1661.14
1024.709	1641.93
1025	1665.89
1025.29	1606.68
1025.58	1617.08
1025.87	1602.61
1026.16	1587.92
1026.449	1611.2
1026.739	1573.01
1027.029	1575.04
1027.319	1582.27
1027.608	1558.77
1027.898	1534.37
1028.187	1511.77
1028.477	1531.65
1028.766	1522.39
1029.055	1475.61
1029.344	1482.62
1029.634	1467.7
1029.923	1475.16
1030.212	1463.41
1030.501	1500.7
1030.79	1427.02
1031.078	1430.87
1031.367	1418.44
1031.656	1420.02
1031.945	1400.36
1032.233	1398.1
1032.522	1367.14
1032.81	1366.01
1033.099	1347.7
1033.387	1341.38
1033.675	1336.18
1033.963	1307.03
1034.251	1343.86
1034.54	1307.25
1034.828	1300.93
1035.116	1274.03
1035.403	1279.68
1035.691	1293.02
1035.979	1271.1
1036.267	1281.04
1036.554	1256.41
1036.842	1218.22
1037.129	1212.57
1037.417	1228.16
1037.704	1216.41
1037.992	1195.84
1038.279	1203.08
1038.566	1186.13
1038.853	1186.13
1039.14	1186.13
