Data from White_paper_FLMS001491_023.txt Node
Date: Tue Feb 07 10:34:51 GMT 2017
User: dcchb
Spectrometer: FLMS00149
Trigger mode: 0
Integration Time (sec): 2.000000E-2
Scans to average: 10
Electric dark correction enabled: true
Nonlinearity correction enabled: false
Boxcar width: 0
XAxis mode: Wavelengths
Number of Pixels in Spectrum: 2048
>>>>>Begin Spectral Data<<<<<
341.393	-20.59
341.776	-20.59
342.16	-20.59
342.543	-60.59
342.927	-60.14
343.31	-55.85
343.693	-62.4
344.077	-59.91
344.46	-65.11
344.843	-42.29
345.226	-41.61
345.61	-58.78
345.993	-16.98
346.376	-24.89
346.759	12.4
347.142	40.42
347.525	54.89
347.908	61.67
348.291	75.45
348.674	67.31
349.057	115.67
349.44	131.04
349.823	133.75
350.206	161.1
350.588	233.64
350.971	253.75
351.354	261.89
351.737	273.41
352.119	280.64
352.502	279.51
352.884	278.16
353.267	333.3
353.65	313.41
354.032	332.17
354.414	341.21
354.797	335.78
355.179	347.76
355.562	352.5
355.944	366.74
356.326	380.07
356.709	349.12
357.091	379.4
357.473	383.01
357.855	373.75
358.238	366.52
358.62	372.17
359.002	361.09
359.384	371.71
359.766	376.91
360.148	372.84
360.53	373.97
360.912	366.97
361.294	354.09
361.676	385.72
362.057	355.67
362.439	366.74
362.821	369.91
363.203	388.89
363.584	376.23
363.966	365.16
364.348	387.98
364.729	366.29
365.111	345.5
365.493	361.54
365.874	381.66
366.256	368.55
366.637	344.6
367.019	355.22
367.4	363.35
367.781	359.51
368.163	364.93
368.544	372.84
368.925	345.73
369.306	372.39
369.688	382.56
370.069	360.19
370.45	346.63
370.831	376.91
371.212	358.38
371.593	369.91
371.974	369.23
372.355	364.03
372.736	385.95
373.117	374.65
373.498	371.26
373.879	383.92
374.26	366.52
374.641	376.46
375.021	376.23
375.402	390.7
375.783	379.85
376.163	382.79
376.544	389.34
376.925	388.21
377.305	408.32
377.686	389.34
378.066	396.57
378.447	392.28
378.827	409.45
379.208	393.86
379.588	418.49
379.968	416.46
380.349	398.61
380.729	410.58
381.109	410.13
381.489	409.9
381.87	414.88
382.25	407.42
382.63	417.14
383.01	414.65
383.39	437.93
383.77	446.29
384.15	431.82
384.53	443.58
384.91	427.98
385.29	443.12
385.67	433.18
386.049	446.06
386.429	436.34
386.809	486.96
387.189	471.6
387.568	458.72
387.948	475.89
388.328	481.54
388.707	489.22
389.087	500.07
389.466	491.71
389.846	469.56
390.225	481.99
390.605	496.23
390.984	509.79
391.363	500.98
391.743	490.13
392.122	515.89
392.501	529.22
392.881	536.23
393.26	523.12
393.639	512.95
394.018	535.55
394.397	537.81
394.776	546.4
395.155	553.18
395.534	566.51
395.913	558.38
396.292	582.78
396.671	597.02
397.05	571.03
397.429	604.02
397.808	587.75
398.186	595.44
398.565	623.23
398.944	632.27
399.323	622.33
399.701	614.64
400.08	604.02
400.458	653.74
400.837	617.13
401.215	653.51
401.594	653.97
401.972	672.04
402.351	674.53
402.729	689.9
403.107	691.93
403.486	738.94
403.864	727.86
404.242	726.05
404.62	730.57
404.999	752.27
405.377	766.51
405.755	777.35
406.133	783.91
406.511	809.89
406.889	844.47
407.267	862.55
407.645	853.96
408.023	881.76
408.401	896.45
408.779	920.4
409.156	932.15
409.534	967.86
409.912	972.38
410.29	998.14
410.667	1019.83
411.045	1098.02
411.422	1076.55
411.8	1083.56
412.178	1128.53
412.555	1181.18
412.933	1183.44
413.31	1227.06
413.687	1213.73
414.065	1280.62
414.442	1300.73
414.819	1331.01
415.197	1333.5
415.574	1376.66
415.951	1429.31
416.328	1438.35
416.705	1492.36
417.082	1464.34
417.46	1521.97
417.837	1545.24
418.214	1570.1
418.591	1597.67
418.967	1616.2
419.344	1663.66
419.721	1676.54
420.098	1711.11
420.475	1722.19
420.852	1728.51
421.228	1772.58
421.605	1824.1
421.982	1805.12
422.358	1845.35
422.735	1871.56
423.111	1874.05
423.488	1916.31
423.864	1942.97
424.241	1995.17
424.617	2006.25
424.994	2003.08
425.37	2043.53
425.746	2089.86
426.123	2100.71
426.499	2102.52
426.875	2148.39
427.251	2176.19
427.627	2226.35
428.003	2275.39
428.379	2289.63
428.756	2318.78
429.132	2367.82
429.507	2375.5
429.883	2399.68
430.259	2455.73
430.635	2504.31
431.011	2507.93
431.387	2562.84
431.763	2621.82
432.138	2609.17
432.514	2719
432.89	2709.05
433.265	2766
433.641	2823.4
434.016	2822.95
434.392	2900.69
434.767	2963.74
435.143	2931.19
435.518	2965.77
435.894	3015.49
436.269	3104.52
436.644	3102.26
437.02	3130.06
437.395	3151.75
437.77	3220.68
438.145	3286.66
438.52	3284.18
438.895	3308.36
439.271	3334.35
439.646	3370.73
440.021	3440.33
440.395	3420.9
440.77	3435.59
441.145	3465.19
441.52	3552.87
441.895	3554.68
442.27	3552.87
442.645	3613.44
443.019	3672.42
443.394	3618.18
443.769	3685.75
444.143	3663.83
444.518	3775.01
444.892	3705.64
445.267	3767.33
445.641	3798.97
446.016	3813.2
446.39	3845.97
446.764	3869.7
447.139	3885.07
447.513	3895.69
447.887	3935.46
448.262	3935.24
448.636	3940.43
449.01	4046.19
449.384	4055.01
449.758	4057.27
450.132	4111.28
450.506	4119.64
450.88	4179.75
451.254	4168.22
451.628	4240.54
452.002	4280.54
452.376	4301.33
452.75	4343.36
453.123	4390.36
453.497	4427.88
453.871	4463.13
454.244	4553.52
454.618	4569.34
454.992	4663.13
455.365	4656.57
455.739	4757.81
456.112	4817.25
456.486	4867.64
456.859	4904.7
457.232	5019.5
457.606	4996.45
457.979	5091.59
458.352	5183.11
458.725	5197.12
459.099	5292.49
459.472	5315.54
459.845	5391.69
460.218	5457
460.591	5526.38
460.964	5562.99
461.337	5673.04
461.71	5720.05
462.083	5838.91
462.456	5800.95
462.829	5871
463.201	5997.33
463.574	6060.38
463.947	6058.12
464.32	6219.92
464.692	6261.5
465.065	6380.37
465.438	6464.66
465.81	6514.6
466.183	6589.4
466.555	6696.74
466.928	6745.56
467.3	6767.93
467.672	6857.64
468.045	7004.76
468.417	7072.78
468.789	7177.41
469.161	7220.12
469.534	7362.49
469.906	7491.98
470.278	7537.63
470.65	7628.25
471.022	7739.88
471.394	7945.3
471.766	8000.67
472.138	8101
472.51	8222.81
472.882	8394.33
473.253	8479.75
473.625	8564.94
473.997	8758.61
474.369	8756.13
474.74	8896.24
475.112	9093.97
475.484	9267.98
475.855	9383.23
476.227	9547.07
476.598	9715.2
476.97	9829.54
477.341	9994.51
477.713	10165.58
478.084	10279.02
478.455	10508.4
478.827	10641.5
479.198	10836.52
479.569	10915.39
479.94	11305.44
480.311	11376.85
480.682	11577.07
481.053	11821.58
481.424	12014.12
481.795	12104.51
482.166	12311.06
482.537	12412.98
482.908	12738.62
483.279	12845.74
483.65	13056.13
484.021	13353.52
484.391	13478.71
484.762	13587.19
485.133	13726.84
485.503	13874.86
485.874	14181.97
486.244	14282.76
486.615	14554.17
486.985	14795.06
487.356	15024.44
487.726	15109.86
488.097	15351.43
488.467	15475.05
488.837	15851.31
489.207	15971.98
489.578	16187.57
489.948	16301.01
490.318	16668.46
490.688	16636.6
491.058	16838.85
491.428	17142.57
491.798	17216.24
492.168	17644.48
492.538	17558.61
492.908	17914.08
493.278	18100.29
493.648	18129.89
494.017	18342.99
494.387	18572.59
494.757	18663.89
495.126	18927.61
495.496	18926.03
495.866	19058.68
496.235	19265
496.605	19389.74
496.974	19508.39
497.344	19660.47
497.713	19822.5
498.082	19996.28
498.452	20257.07
498.821	20175.49
499.19	20324.41
499.559	20479.43
499.928	20627.45
500.298	20843.04
500.667	20961
501.036	20994.22
501.405	21139.98
501.774	21220.66
502.143	21435.79
502.512	21526.19
502.88	21727.54
503.249	21776.8
503.618	21944.71
503.987	21999.62
504.356	22276.22
504.724	22334.75
505.093	22455.88
505.462	22492.94
505.83	22715.53
506.199	22870.1
506.567	23283.43
506.936	23287.95
507.304	23400.03
507.672	23508.51
508.041	23608.84
508.409	23689.52
508.777	23948.49
509.145	24193.01
509.514	24181.48
509.882	24383.29
510.25	24256.51
510.618	24667.12
510.986	24751.64
511.354	24984.4
511.722	25141.91
512.09	25385.07
512.458	25265.75
512.826	25612.41
513.193	25722.01
513.561	25818.73
513.929	25990.02
514.297	26215.55
514.664	26371.26
515.032	26505.26
515.4	26758.82
515.767	26900.06
516.135	26914.97
516.502	26960.39
516.869	27429.08
517.237	27494.62
517.604	27476.54
517.972	27725.8
518.339	28004.43
518.706	28052.34
519.073	28145.67
519.44	28470.86
519.808	28672.44
520.175	28573.01
520.542	29030.39
520.909	29160.33
521.276	29209.83
521.643	29470.16
522.009	29770.26
522.376	29902.46
522.743	30152.17
523.11	30367.99
523.477	30614.31
523.843	30874.19
524.21	31075.54
524.577	31364.57
524.943	31396.43
525.31	31552.81
525.676	31860.38
526.043	32024.21
526.409	32237.77
526.776	32582.62
527.142	32703.74
527.508	32804.98
527.874	33187.35
528.241	33278.87
528.607	33407.45
528.973	33677.05
529.339	33666.43
529.705	34101.67
530.071	34398.84
530.437	34468.44
530.803	34665.73
531.169	34864.82
531.535	34720.41
531.901	34987.3
532.267	35096.68
532.632	35351.81
532.998	35450.11
533.364	35817.34
533.73	35747.28
534.095	36158.12
534.461	36220.71
534.826	36320.82
535.192	36587.26
535.557	36586.58
535.923	36653.92
536.288	36850.75
536.653	37118.09
537.019	37033.8
537.384	37229.95
537.749	37493.68
538.114	37537.06
538.479	37525.09
538.845	37841.69
539.21	37831.29
539.575	38021.8
539.94	38233.32
540.305	38301.79
540.67	38182.02
541.034	38568.9
541.399	38725.06
541.764	38743.81
542.129	38952.39
542.494	39078.94
542.858	39273.06
543.223	39317.58
543.587	39624.47
543.952	39485.04
544.316	39683.45
544.681	39649.55
545.045	39849.09
545.41	40261.06
545.774	40185.58
546.138	40292.47
546.503	40423.32
546.867	40487.49
547.231	40868.95
547.595	40820.14
547.959	41158.44
548.324	41110.76
548.688	41309.85
549.052	41317.53
549.416	41397.98
549.779	41642.72
550.143	41716.16
550.507	41957.29
550.871	41997.51
551.235	41946.89
551.599	42264.62
551.962	42521.34
552.326	42556.82
552.689	42887.21
553.053	42633.2
553.417	42909.58
553.78	43278.38
554.143	43065.51
554.507	43144.15
554.87	43564.02
555.234	43831.81
555.597	43656.22
555.96	43752.72
556.323	44112.26
556.686	43945.26
557.05	44413.72
557.413	44504.79
557.776	44431.12
558.139	44766.7
558.502	44949.52
558.865	44941.16
559.228	45272.23
559.59	45248.05
559.953	45540.47
560.316	45805.55
560.679	45900.91
561.041	46135.93
561.404	46251.19
561.767	46432.88
562.129	46343.84
562.492	46751.28
562.854	46779.31
563.217	46812.98
563.579	46975.46
563.941	47266.75
564.304	47498.16
564.666	47610.7
565.028	47825.38
565.39	47809.11
565.753	48052.04
566.115	48213.39
566.477	48314.18
566.839	48481.63
567.201	48736.09
567.563	48724.79
567.925	48915.3
568.287	48993.03
568.648	49043.88
569.01	49304.66
569.372	49436.86
569.734	49454.94
570.095	49737.87
570.457	49986.68
570.819	50023.74
571.18	49979.67
571.542	50261.25
571.903	50289.5
572.265	50520.23
572.626	50621.69
572.987	50681.58
573.349	50710.95
573.71	50864.85
574.071	50987.33
574.432	51066.43
574.794	51155.91
575.155	51266.65
575.516	51246.76
575.877	51416.25
576.238	51454.21
576.599	51580.08
576.96	51622.8
577.32	51670.93
577.681	51809
578.042	51984.37
578.403	51912.51
578.763	51933.3
579.124	52057.81
579.485	52132.61
579.845	52237.69
580.206	52229.56
580.566	52264.13
580.927	52273.17
581.287	52425.26
581.648	52336.22
582.008	52539.38
582.368	52443.56
582.728	52578.93
583.089	52451.47
583.449	52540.96
583.809	52628.19
584.169	52722.65
584.529	52610.79
584.889	52913.83
585.249	52698.02
585.609	52592.71
585.969	52826.15
586.329	52755.87
586.688	52792.71
587.048	52822.31
587.408	52744.35
587.768	52782.54
588.127	52819.37
588.487	52873.61
588.846	53061.4
589.206	52799.04
589.565	52834.51
589.925	53023.66
590.284	52980.05
590.643	52970.78
591.003	53072.7
591.362	53165.35
591.721	53128.97
592.08	53097.33
592.44	53257.55
592.799	53179.59
593.158	53126.03
593.517	53210.32
593.876	53259.59
594.235	53199.02
594.593	53232.24
594.952	53372.35
595.311	53182.08
595.67	53372.81
596.029	53465.46
596.387	53513.14
596.746	53546.13
597.104	53428.62
597.463	53408.06
597.822	53585.23
598.18	53473.14
598.538	53456.42
598.897	53658.45
599.255	53411.9
599.613	53853.47
599.972	53623.19
600.33	53728.73
600.688	53603.08
601.046	53728.05
601.404	53775.05
601.762	53694.38
602.12	53921.49
602.478	53910.19
602.836	53864.54
603.194	53737.09
603.552	53752.68
603.91	53705.68
604.268	53903.87
604.625	53844.66
604.983	54044.88
605.341	53994.26
605.698	53966.24
606.056	54000.13
606.413	53954.71
606.771	54091.2
607.128	54109.96
607.485	54004.2
607.843	54130.07
608.2	54199.68
608.557	54316.74
608.914	54173.91
609.272	54311.99
609.629	54278.77
609.986	54466.79
610.343	54286.91
610.7	54497.75
611.057	54474.02
611.414	54449.84
611.771	54444.42
612.127	54505.21
612.484	54538.88
612.841	54666.78
613.198	54544.98
613.554	54549.95
613.911	54719.89
614.267	54731.41
614.624	54672.21
614.98	54750.62
615.337	54821.81
615.693	54813.45
616.05	54718.76
616.406	54898.19
616.762	54764.18
617.118	54735.93
617.475	54723.05
617.831	54918.75
618.187	54896.83
618.543	54877.85
618.899	55072.87
619.255	54975.93
619.611	55034.46
619.967	55118.97
620.323	55174.11
620.678	54991.52
621.034	54993.33
621.39	55016.15
621.746	54978.19
622.101	55322.58
622.457	54993.1
622.812	55076.04
623.168	55170.05
623.523	55162.59
623.879	55280.1
624.234	54996.49
624.589	55126.21
624.945	55167.33
625.3	55185.19
625.655	55144.28
626.01	55163.27
626.365	55187.45
626.72	55142.48
627.075	55092.31
627.43	55079.43
627.785	55103.61
628.14	55148.58
628.495	55133.89
628.85	55198.07
629.205	55069.48
629.559	55264.73
629.914	55093.44
630.269	55101.35
630.623	55091.18
630.978	55060.44
631.332	55201.68
631.687	55149.03
632.041	55104.96
632.396	55123.27
632.75	55015.25
633.104	55073.1
633.459	54877.17
633.813	54945.87
634.167	55002.37
634.521	54916.49
634.875	55043.5
635.229	54940.9
635.583	54850.96
635.937	54887.34
636.291	54825.42
636.645	54780.9
636.999	54713.11
637.352	54935.25
637.706	54703.84
638.06	54838.98
638.413	54656.16
638.767	54627.24
639.121	54757.85
639.474	54617.74
639.828	54602.15
640.181	54635.15
640.534	54622.26
640.888	54577.75
641.241	54443.51
641.594	54606.67
641.947	54546.11
642.301	54515.15
642.654	54651.19
643.007	54573
643.36	54523.74
643.713	54518.99
644.066	54535.71
644.419	54335.27
644.771	54214.37
645.124	53901.83
645.477	53843.75
645.83	53666.13
646.182	53678.33
646.535	53625.91
646.888	53639.92
647.24	53514.04
647.593	53667.04
647.945	53608.28
648.298	53469.3
648.65	53401.51
649.002	53297.55
649.355	53365.57
649.707	53361.28
650.059	53575.29
650.411	53951.32
650.763	53895.73
651.115	54220.92
651.467	54122.62
651.819	54169.17
652.171	54060.02
652.523	54042.84
652.875	53968.95
653.227	53940.47
653.578	54062.73
653.93	54069.28
654.282	53825
654.633	53735.96
654.985	53842.85
655.337	53848.05
655.688	53908.16
656.039	54041.04
656.391	53708.62
656.742	53804.43
657.094	53817.99
657.445	53934.82
657.796	53808.5
658.147	53828.61
658.498	53727.6
658.849	53847.82
659.2	53761.72
659.551	53657.32
659.902	53749.07
660.253	53766.47
660.604	53823.19
660.955	53662.52
661.306	53712.46
661.656	53605.79
662.007	53619.58
662.358	53645.11
662.708	53641.5
663.059	53649.18
663.409	53490.99
663.76	53747.49
664.11	53643.08
664.461	53595.62
664.811	53698.22
665.161	53573.03
665.511	53468.85
665.862	53562.18
666.212	53616.87
666.562	53670.42
666.912	53472.01
667.262	53616.42
667.612	53465.91
667.962	53586.13
668.312	53526.25
668.662	53558.11
669.011	53475.85
669.361	53419.13
669.711	53383.88
670.06	53246.93
670.41	53325.58
670.76	53176.2
671.109	53413.26
671.459	53294.16
671.808	53248.06
672.157	53335.74
672.507	53104.11
672.856	53094.17
673.205	53194.73
673.554	53165.58
673.904	53133.04
674.253	53248.74
674.602	53141.85
674.951	52639.94
675.3	52421.87
675.649	52949.77
675.998	52938.92
676.346	52936.88
676.695	53067.95
677.044	52812.59
677.393	52883.33
677.741	52931.24
678.09	52847.4
678.438	52726.95
678.787	52794.06
679.135	52865.7
679.484	52531.47
679.832	52591.81
680.181	52476.56
680.529	52556.1
680.877	52404.47
681.225	52426.16
681.573	52587.52
681.922	52423.23
682.27	52244.25
682.618	52286.05
682.966	52158.83
683.314	52198.83
683.661	52039.96
684.009	51953.18
684.357	51903.92
684.705	51904.82
685.053	51910.25
685.4	51769.23
685.748	51614.89
686.095	51507.77
686.443	51460.99
686.79	51286.08
687.138	51486.75
687.485	51391.84
687.832	51242.92
688.18	51331.28
688.527	51098.97
688.874	51098.97
689.221	50965.64
689.568	50839.99
689.915	50848.58
690.262	50812.2
690.609	50624.63
690.956	50568.36
691.303	50462.15
691.65	50302.38
691.997	50235.26
692.344	50032.55
692.69	50091.76
693.037	50173.12
693.383	49906.23
693.73	49910.75
694.077	49612.68
694.423	49697.87
694.769	49574.04
695.116	49391.67
695.462	49479.12
695.808	49289.52
696.155	49209.98
696.501	49033.03
696.847	49014.28
697.193	48876.88
697.539	48913.94
697.885	48642.08
698.231	48595.53
698.577	48601.63
698.923	48516.44
699.269	48299.72
699.614	48094.98
699.96	48110.57
700.306	48031.25
700.651	47791.03
700.997	47850.69
701.342	47729.56
701.688	47622.22
702.033	47423.36
702.379	47567.99
702.724	47445.96
703.069	47468.1
703.415	47062.46
703.76	47051.39
704.105	46974.1
704.45	46872.41
704.795	46656.82
705.14	46612.76
705.485	46521.46
705.83	46437.85
706.175	46461.12
706.52	46323.27
706.865	46198.31
707.209	46180
707.554	46056.16
707.899	45932.78
708.243	45822.27
708.588	45840.12
708.932	45616.63
709.277	45636.51
709.621	45481.94
709.966	45217.09
710.31	45234.94
710.654	44995.4
710.998	45041.73
711.342	45123.76
711.687	44863.42
712.031	44812.13
712.375	44732.35
712.719	44581.62
713.063	44565.35
713.407	44798.57
713.75	44448.29
714.094	44397.22
714.438	44285.36
714.782	44394.74
715.125	44122.2
715.469	44083.56
715.812	44041.07
716.156	43813.51
716.499	43830.46
716.843	43844.69
717.186	43556.57
717.53	43873.17
717.873	43831.81
718.216	43645.6
718.559	43512.5
718.902	43148.67
719.246	43302.79
719.589	43089.46
719.932	43045.62
720.275	42956.81
720.617	42994.1
720.96	42898.5
721.303	43017.6
721.646	42991.84
721.989	42650.83
722.331	42799.52
722.674	42566.31
723.016	42537.84
723.359	42483.6
723.701	42457.16
724.044	42138.07
724.386	42127.9
724.729	42186.66
725.071	42220.1
725.413	42184.4
725.755	42114.12
726.097	41868.25
726.439	41724.75
726.782	41898.31
727.124	41993.9
727.465	41697.41
727.807	41620.35
728.149	41550.52
728.491	41384.87
728.833	41600.01
729.175	41414.02
729.516	41289.28
729.858	41188.72
730.199	41222.62
730.541	41151.88
730.882	41092.68
731.224	41231.2
731.565	40910.76
731.906	41075.05
732.248	40910.76
732.589	40808.16
732.93	40619.02
733.271	40685.23
733.612	40668.05
733.953	40791.22
734.294	40545.12
734.635	40433.71
734.976	40565.91
735.317	40328.85
735.658	40237.56
735.999	40194.85
736.339	40161.63
736.68	40396.65
737.021	40115.3
737.361	39950.11
737.702	40167.28
738.042	40139.48
738.383	40026.72
738.723	39997.56
739.063	39827.85
739.404	39824.46
739.744	39732.26
740.084	39607.07
740.424	39613.85
740.764	39515.32
741.104	39652.71
741.444	39400.97
741.784	39358.03
742.124	39540.85
742.464	39333.4
742.804	39357.35
743.143	39240.07
743.483	39211.14
743.823	38903.81
744.162	39022.67
744.502	39159.17
744.841	38879.4
745.181	39019.28
745.52	38899.51
745.86	38890.47
746.199	38805.96
746.538	38692.97
746.877	38791.49
747.216	38700.42
747.556	38559.64
747.895	38681.89
748.234	38413.88
748.573	38490.71
748.911	38413.42
749.25	38246.2
749.589	38159.19
749.928	38173.66
750.267	38073.77
750.605	37966.21
750.944	37946.32
751.283	37812.99
751.621	37970.5
751.96	37748.58
752.298	37824.06
752.636	37731.64
752.975	37432.43
753.313	37422.94
753.651	37523.96
753.989	37412.32
754.327	37185.89
754.666	36990.41
755.004	37155.15
755.342	37145.89
755.679	36957.19
756.017	36790.64
756.355	36843.3
756.693	36639.91
757.031	36792.9
757.368	36492.35
757.706	36617.09
758.044	36407.15
758.381	36404.89
758.719	36228.62
759.056	36261.39
759.394	36054.84
759.731	35874.51
760.068	35863.66
760.405	35780.05
760.743	35643.55
761.08	35610.11
761.417	35488.98
761.754	35367.86
762.091	35238.59
762.428	35160.18
762.765	34961.99
763.102	35046.96
763.438	34862.56
763.775	34749.11
764.112	34870.92
764.449	34685.61
764.785	34517.71
765.122	34284.95
765.458	34223.93
765.795	34123.59
766.131	34206.3
766.467	33950.49
766.804	33861.91
767.14	33729.93
767.476	33680.44
767.812	33486.1
768.148	33477.51
768.485	33272.77
768.821	33134.47
769.157	33218.53
769.492	32991.19
769.828	32971.53
770.164	32674.82
770.5	32682.95
770.836	32623.07
771.171	32532
771.507	32366.35
771.842	32125.91
772.178	32140.14
772.513	32011.11
772.849	31931.56
773.184	31820.15
773.519	31865.35
773.855	31742.87
774.19	31558.01
774.525	31349.2
774.86	31442.53
775.195	31221.07
775.53	31177.23
775.865	31012.94
776.2	30782.44
776.535	30678.04
776.87	30728.66
777.205	30538.6
777.539	30338.16
777.874	30400.98
778.209	30287.54
778.543	30073.31
778.878	29965.51
779.212	30047.54
779.547	29719.87
779.881	29706.31
780.215	29642.58
780.55	29640.32
780.884	29413.66
781.218	29414.57
781.552	29288.69
781.886	29206.89
782.22	28956.27
782.554	28977.06
782.888	28706.79
783.222	28611.42
783.556	28500.69
783.889	28378.66
784.223	28198.1
784.557	28116.52
784.89	28232
785.224	27992
785.557	27879.24
785.891	27831.56
786.224	27791.56
786.558	27743.88
786.891	27412.13
787.224	27328.74
787.557	27366.03
787.891	27239.48
788.224	27171.91
788.557	27135.76
788.89	27008.08
789.223	26995.65
789.556	26907.74
789.888	26823.9
790.221	26709.55
790.554	26442.21
790.887	26416.45
791.219	26454.42
791.552	26284.25
791.884	26180.53
792.217	26075.9
792.549	26024.6
792.882	25762.01
793.214	25654.89
793.546	25801.1
793.879	25622.57
794.211	25522.46
794.543	25582.12
794.875	25497.15
795.207	25469.13
795.539	25241.34
795.871	25328.35
796.203	25074.57
796.535	24983.72
796.867	24858.3
797.198	24820.34
797.53	24766.78
797.862	24689.04
798.193	24665.31
798.525	24570.85
798.856	24688.36
799.188	24415.15
799.519	24196.62
799.85	24127.02
800.182	24203.63
800.513	24186.68
800.844	23857.2
801.175	24005.89
801.506	23920.25
801.837	23807.03
802.168	23665.11
802.499	23668.05
802.83	23597.09
803.161	23493.82
803.491	23424.44
803.822	23462.86
804.153	23241.39
804.483	23139.02
804.814	23100.83
805.145	23103.77
805.475	22956.66
805.805	22973.6
806.136	22796.89
806.466	22977.22
806.796	22716.21
807.126	22593.73
807.457	22536.78
807.787	22659.26
808.117	22501.53
808.447	22366.62
808.777	22504.92
809.107	22357.35
809.436	22246.17
809.766	22314.41
810.096	22052.95
810.426	22142.67
810.755	22054.08
811.085	22069
811.414	21950.36
811.744	21827.87
812.073	21769.79
812.403	21692.73
812.732	21582
813.061	21536.35
813.39	21515.34
813.719	21460.88
814.049	21547.65
814.378	21400.31
814.707	21265.18
815.036	21359.41
815.365	21204.84
815.693	21017.95
816.022	21013.43
816.351	21015.46
816.68	20861.57
817.008	20940.21
817.337	20770.73
817.665	20735.25
817.994	20798.07
818.322	20768.92
818.651	20584.52
818.979	20566.89
819.307	20623.16
819.636	20550.84
819.964	20424.29
820.292	20498.64
820.62	20465.65
820.948	20407.57
821.276	20454.12
821.604	20334.13
821.932	20423.84
822.259	20354.01
822.587	20248.25
822.915	20317.63
823.243	20398.31
823.57	20287.8
823.898	20294.13
824.225	20277.86
824.553	20273.56
824.88	20251.42
825.207	20323.73
825.535	20246.67
825.862	20452.54
826.189	20200.34
826.516	20236.5
826.843	20356.27
827.17	20302.04
827.497	20288.03
827.824	20253.22
828.151	20257.52
828.478	20220.68
828.805	20350.62
829.131	20282.83
829.458	20189.05
829.785	20156.73
830.111	20170.29
830.438	20261.59
830.764	20179.55
831.09	20254.81
831.417	20098.2
831.743	20187.24
832.069	20174.13
832.395	19997.86
832.722	20136.17
833.048	20041.48
833.374	20115.6
833.7	19882.61
834.026	19980.46
834.351	19997.64
834.677	19975.94
835.003	19928.94
835.329	20009.16
835.654	19908.15
835.98	19781.82
836.306	19878.32
836.631	19759.9
836.956	19864.31
837.282	19817.76
837.607	19732.56
837.932	19655.27
838.258	19718.32
838.583	19662.96
838.908	19552.9
839.233	19606.46
839.558	19488.27
839.883	19425.9
840.208	19363.3
840.533	19361.04
840.858	19398.33
841.182	19436.3
841.507	19442.17
841.832	19187.94
842.156	19150.65
842.481	19223.65
842.805	19132.58
843.13	19115.18
843.454	19098.9
843.778	18958.57
844.103	19012.13
844.427	18942.3
844.751	18877.44
845.075	18788.4
845.399	18676.09
845.723	18618.24
846.047	18718.8
846.371	18548.86
846.695	18528.52
847.019	18362.43
847.343	18366.04
847.666	18194.97
847.99	18184.8
848.313	18120.85
848.637	17985.71
848.96	18013.28
849.284	17957.47
849.607	17747.98
849.931	17791.37
850.254	17551.37
850.577	17562.9
850.9	17508.66
851.223	17488.78
851.546	17304.6
851.869	17204.27
852.192	17268.22
852.515	17168.33
852.838	17050.14
853.161	17102.35
853.483	17035.23
853.806	16867.55
854.129	16926.31
854.451	16844.95
854.774	16711.4
855.096	16705.07
855.419	16572.87
855.741	16638.63
856.063	16517.73
856.385	16475.24
856.708	16472.31
857.03	16389.15
857.352	16381.69
857.674	16236.61
857.996	16294.91
858.318	16177.85
858.64	16214.01
858.961	16179.66
859.283	16048.36
859.605	15995.26
859.926	15965.2
860.248	15894.24
860.57	15926.11
860.891	15914.58
861.212	15774.25
861.534	15749.16
861.855	15788.26
862.176	15735.83
862.498	15711.65
862.819	15708.03
863.14	15614.25
863.461	15560.24
863.782	15522.73
864.103	15561.82
864.424	15435.5
864.745	15523.86
865.065	15413.13
865.386	15461.71
865.707	15386.69
866.027	15291.32
866.348	15320.47
866.668	15308.95
866.989	15185.79
867.309	15136.75
867.63	15182.85
867.95	15086.58
868.27	15019.01
868.59	15117.54
868.91	15075.96
869.23	15028.28
869.55	14975.4
869.87	15043.87
870.19	14988.96
870.51	14948.73
870.83	14934.72
871.15	14833.48
871.469	14867.38
871.789	14906.47
872.109	14815.85
872.428	14704.67
872.748	14816.98
873.067	14746.93
873.386	14763.65
873.706	14805.46
874.025	14682.75
874.344	14648.4
874.663	14623.77
874.982	14609.53
875.301	14604.56
875.62	14639.36
875.939	14568.4
876.258	14599.14
876.577	14506.48
876.896	14432.13
877.214	14352.59
877.533	14450.67
877.852	14340.16
878.17	14367.05
878.489	14452.02
878.807	14330.22
879.125	14303.32
879.444	14296.09
879.762	14207.51
880.08	14209.99
880.398	14166.15
880.716	14139.49
881.034	14113.5
881.352	14102.2
881.67	14035.76
881.988	14090.45
882.306	14032.15
882.624	13964.12
882.941	13878.48
883.259	13842.32
883.577	13830.57
883.894	13871.47
884.212	13792.83
884.529	13795.54
884.846	13774.75
885.164	13753.73
885.481	13727.52
885.798	13667.41
886.115	13649.33
886.432	13629.44
886.75	13568.2
887.067	13552.38
887.383	13462.89
887.7	13480.07
888.017	13489.11
888.334	13383.8
888.651	13277.59
888.967	13326.63
889.284	13216.35
889.6	13229.68
889.917	13087.09
890.233	13154.88
890.55	13076.46
890.866	13063.36
891.182	13034.88
891.498	12926.41
891.815	12871.95
892.131	12902.91
892.447	12813.42
892.763	12810.26
893.079	12785.62
893.395	12749.47
893.71	12714.44
894.026	12644.84
894.342	12610.94
894.657	12598.96
894.973	12621.11
895.289	12561.9
895.604	12557.83
895.92	12417.5
896.235	12420.66
896.55	12392.41
896.865	12291.17
897.181	12231.06
897.496	12261.34
897.811	12193.32
898.126	12223.15
898.441	12106.77
898.756	12068.13
899.071	12001.46
899.386	12039.43
899.7	11863.84
900.015	11939.32
900.33	11862.94
900.644	11823.84
900.959	11765.31
901.273	11692.55
901.588	11700.68
901.902	11630.17
902.216	11539.78
902.531	11567.13
902.845	11442.16
903.159	11391.08
903.473	11456.39
903.787	11332.78
904.101	11291.65
904.415	11237.19
904.729	11194.03
905.042	11209.39
905.356	11126.91
905.67	11082.17
905.984	11104.99
906.297	11009.4
906.611	10899.57
906.924	10929.63
907.237	11006.91
907.551	10846.47
907.864	10848.95
908.177	10815.96
908.491	10810.76
908.804	10633.36
909.117	10576.42
909.43	10613.7
909.743	10523.99
910.056	10528.51
910.368	10505.91
910.681	10403.31
910.994	10366.25
911.307	10349.98
911.619	10230.21
911.932	10317.44
912.244	10188.18
912.557	10206.48
912.869	10048.52
913.181	10126.71
913.494	10034.96
913.806	9994.74
914.118	9984.12
914.43	9875.64
914.742	9904.57
915.054	9829.09
915.366	9818.47
915.678	9705.48
915.99	9710.9
916.302	9616.44
916.613	9606.05
916.925	9586.16
917.236	9583.67
917.548	9535.54
917.859	9519.72
918.171	9405.83
918.482	9422.1
918.794	9357.01
919.105	9307.75
919.416	9247.86
919.727	9223.23
920.038	9225.94
920.349	9119.96
920.66	9069.56
920.971	9089.68
921.282	9043.12
921.593	9014.65
921.903	8933.97
922.214	8928.78
922.525	8811.72
922.835	8850.59
923.146	8759.52
923.456	8781.21
923.767	8691.72
924.077	8656.24
924.387	8714.77
924.697	8647.43
925.008	8532.85
925.318	8550.26
925.628	8494.21
925.938	8527.21
926.248	8362.46
926.558	8365.4
926.867	8302.58
927.177	8332.86
927.487	8300.77
927.796	8205.18
928.106	8198.17
928.416	8081.79
928.725	8125.18
929.034	8052.19
929.344	8077.05
929.653	8044.28
929.962	7982.36
930.271	7929.93
930.581	7913.66
930.89	7862.14
931.199	7848.8
931.508	7796.38
931.817	7785.08
932.125	7781.91
932.434	7739.88
932.743	7698.07
933.051	7642.93
933.36	7583.95
933.669	7592.99
933.977	7538.53
934.286	7527.01
934.594	7474.35
934.902	7412.66
935.21	7397.07
935.519	7401.36
935.827	7330.4
936.135	7316.16
936.443	7236.39
936.751	7180.12
937.059	7187.35
937.367	7213.79
937.674	7149.61
937.982	7073.91
938.29	7075.72
938.597	7041.37
938.905	7023.06
939.213	7015.38
939.52	6921.6
939.827	6962.73
940.135	6892.9
940.442	6850.64
940.749	6835.95
941.056	6824.65
941.363	6746.69
941.67	6788.72
941.977	6722.28
942.284	6603.41
942.591	6652.45
942.898	6589.63
943.205	6607.26
943.511	6546.01
943.818	6573.81
944.125	6471.67
944.431	6451.1
944.738	6433.25
945.044	6394.15
945.35	6367.94
945.657	6343.53
945.963	6256.76
946.269	6315.29
946.575	6287.04
946.881	6235.29
947.187	6177.44
947.493	6125.69
947.799	6137.66
948.105	6087.04
948.41	6039.36
948.716	6065.12
949.022	6047.72
949.327	6019.47
949.633	5955.75
949.938	5960.72
950.244	5988.29
950.549	5927.5
950.854	5865.58
951.16	5875.52
951.465	5838.91
951.77	5734.74
952.075	5792.81
952.38	5701.74
952.685	5691.57
952.99	5620.84
953.294	5681.63
953.599	5652.93
953.904	5632.37
954.209	5559.15
954.513	5556.44
954.818	5566.83
955.122	5535.19
955.426	5502.88
955.731	5472.82
956.035	5430.79
956.339	5384.24
956.643	5426.5
956.948	5332.26
957.252	5308.98
957.556	5327.97
957.86	5266.95
958.163	5238.7
958.467	5218.59
958.771	5209.78
959.075	5217.69
959.378	5162.1
959.682	5153.06
959.985	5167.97
960.289	5125.03
960.592	5102.44
960.896	5053.4
961.199	5018.37
961.502	5031.7
961.805	5004.13
962.108	4974.53
962.411	4948.09
962.714	4930.01
963.017	4867.87
963.32	4898.6
963.623	4860.86
963.926	4844.82
964.228	4784.03
964.531	4792.84
964.833	4783.8
965.136	4756.91
965.438	4734.08
965.741	4694.76
966.043	4699.96
966.345	4671.71
966.648	4644.82
966.95	4642.56
967.252	4607.31
967.554	4574.54
967.856	4546.29
968.158	4529.34
968.46	4473.53
968.761	4529.57
969.063	4469.01
969.365	4423.81
969.666	4406.64
969.968	4369.8
970.269	4383.59
970.571	4400.31
970.872	4333.19
971.174	4303.36
971.475	4340.2
971.776	4265.62
972.077	4261.55
972.378	4244.38
972.679	4193.31
972.98	4246.19
973.281	4207.09
973.582	4134.55
973.883	4184.49
974.183	4133.42
974.484	4131.39
974.785	4117.6
975.085	4092.29
975.386	4085.74
975.686	4055.23
975.986	4014.33
976.287	3997.61
976.587	4008.68
976.887	3950.15
977.187	3976.36
977.487	3927.55
977.787	3920.09
978.087	3941.11
978.387	3902.02
978.687	3911.06
978.987	3894.11
979.286	3834.9
979.586	3786.54
979.885	3788.57
980.185	3773.43
980.484	3763.26
980.784	3727.33
981.083	3732.3
981.382	3682.59
981.682	3686.2
981.981	3637.39
982.28	3678.52
982.579	3645.75
982.878	3625.64
983.177	3572.76
983.475	3587.22
983.774	3587.67
984.073	3561.69
984.372	3510.16
984.67	3491.86
984.969	3508.35
985.267	3477.85
985.566	3470.61
985.864	3444.17
986.162	3419.32
986.461	3388.58
986.759	3405.53
987.057	3334.8
987.355	3303.61
987.653	3344.52
987.951	3347
988.249	3314.69
988.547	3348.58
988.844	3328.7
989.142	3303.61
989.44	3277.63
989.737	3242.37
990.035	3208.25
990.332	3224.75
990.63	3201.92
990.927	3172.54
991.224	3185.42
991.521	3150.62
991.819	3148.59
992.116	3141.13
992.413	3096.39
992.71	3121.92
993.006	3088.48
993.303	3093
993.6	3055.26
993.897	3043.06
994.193	3024.98
994.49	3025.43
994.787	3004.86
995.083	2930.52
995.379	2973.68
995.676	2992.21
995.972	2963.96
996.268	2919.22
996.565	2906.11
996.861	2879.44
997.157	2880.12
997.453	2853.68
997.749	2817.52
998.044	2829.05
998.34	2805.32
998.636	2789.5
998.932	2787.24
999.227	2789.5
999.523	2764.87
999.818	2740.46
1000.114	2723.74
1000.409	2727.36
1000.704	2687.58
1001	2667.92
1001.295	2636.06
1001.59	2658.88
1001.885	2619.79
1002.18	2599.23
1002.475	2576.63
1002.77	2554.25
1003.065	2571.88
1003.359	2535.95
1003.654	2552.45
1003.949	2513.8
1004.243	2516.06
1004.538	2494.37
1004.832	2466.8
1005.127	2461.83
1005.421	2453.01
1005.715	2446.46
1006.009	2433.58
1006.304	2407.37
1006.598	2384.77
1006.892	2377.76
1007.186	2358.33
1007.48	2321.49
1007.773	2351.55
1008.067	2287.14
1008.361	2317.42
1008.655	2298.44
1008.948	2254.83
1009.242	2264.32
1009.535	2269.06
1009.829	2239.46
1010.122	2244.43
1010.415	2214.38
1010.708	2209.63
1011.001	2165.11
1011.295	2173.02
1011.588	2157.66
1011.881	2139.35
1012.173	2136.86
1012.466	2152.91
1012.759	2136.41
1013.052	2102.29
1013.344	2081.95
1013.637	2112.68
1013.93	2048.28
1014.222	2061.84
1014.514	1991.11
1014.807	2032.91
1015.099	2019.13
1015.391	2007.83
1015.683	1987.04
1015.976	1983.65
1016.268	1965.57
1016.56	1938
1016.851	1940.26
1017.143	1918.11
1017.435	1960.37
1017.727	1879.47
1018.018	1919.92
1018.31	1893.26
1018.602	1837.66
1018.893	1821.62
1019.185	1817.1
1019.476	1807.16
1019.767	1805.12
1020.058	1817.1
1020.35	1804.44
1020.641	1758.8
1020.932	1784.78
1021.223	1771.68
1021.514	1729.87
1021.804	1719.7
1022.095	1734.39
1022.386	1698.23
1022.677	1678.35
1022.967	1675.63
1023.258	1695.75
1023.548	1668.63
1023.839	1662.07
1024.129	1625.92
1024.419	1634.28
1024.709	1614.62
1025	1582.08
1025.29	1618.69
1025.58	1568.97
1025.87	1565.35
1026.16	1551.34
1026.449	1546.6
1026.739	1528.07
1027.029	1524.68
1027.319	1489.42
1027.608	1501.63
1027.898	1472.02
1028.187	1484.68
1028.477	1487.62
1028.766	1481.06
1029.055	1450.1
1029.344	1444.45
1029.634	1449.65
1029.923	1441.06
1030.212	1406.04
1030.501	1405.81
1030.79	1392.48
1031.078	1389.31
1031.367	1364.91
1031.656	1395.42
1031.945	1356.77
1032.233	1347.73
1032.522	1343.21
1032.81	1314.97
1033.099	1305.47
1033.387	1303.89
1033.675	1298.69
1033.963	1262.09
1034.251	1274.29
1034.54	1291.92
1034.828	1280.84
1035.116	1237.45
1035.403	1236.78
1035.691	1206.95
1035.979	1252.14
1036.267	1258.24
1036.554	1215.76
1036.842	1195.87
1037.129	1196.1
1037.417	1186.83
1037.704	1180.28
1037.992	1160.39
1038.279	1186.38
1038.566	1134.86
1038.853	1134.86
1039.14	1134.86
