Data from White_reflection_standard_FLMS001491_045.txt Node
Date: Tue Feb 07 10:32:04 GMT 2017
User: dcchb
Spectrometer: FLMS00149
Trigger mode: 0
Integration Time (sec): 2.000000E-2
Scans to average: 10
Electric dark correction enabled: true
Nonlinearity correction enabled: false
Boxcar width: 0
XAxis mode: Wavelengths
Number of Pixels in Spectrum: 2048
>>>>>Begin Spectral Data<<<<<
341.393	-21.26
341.776	-21.26
342.16	-21.26
342.543	-72.1
342.927	-78.88
343.31	-66.68
343.693	-68.49
344.077	-48.6
344.46	-63.06
344.843	-62.61
345.226	-39.11
345.61	-23.29
345.993	-16.28
346.376	-13.35
346.759	25.3
347.142	28.23
347.525	41.79
347.908	59.42
348.291	53.54
348.674	85.86
349.057	107.33
349.44	103.03
349.823	139.87
350.206	158.63
350.588	222.58
350.971	264.39
351.354	254.44
351.737	281.33
352.119	281.79
352.502	287.21
352.884	325.63
353.267	318.85
353.65	349.58
354.032	349.58
354.414	366.08
354.797	357.72
355.179	376.47
355.562	392.74
355.944	406.08
356.326	387.32
356.709	391.61
357.091	387.77
357.473	393.42
357.855	398.17
358.238	385.96
358.62	404.95
359.002	418.51
359.384	427.55
359.766	383.03
360.148	410.6
360.53	413.53
360.912	421.67
361.294	398.85
361.676	412.86
362.057	388.45
362.439	401.11
362.821	397.72
363.203	419.64
363.584	418.05
363.966	410.6
364.348	415.57
364.729	411.05
365.111	427.55
365.493	416.25
365.874	402.24
366.256	407.66
366.637	424.16
367.019	404.95
367.4	421.9
367.781	410.14
368.163	423.48
368.544	415.34
368.925	436.36
369.306	440.65
369.688	422.35
370.069	428.9
370.45	432.52
370.831	420.54
371.212	431.16
371.593	440.88
371.974	432.52
372.355	456.92
372.736	433.65
373.117	447.43
373.498	449.24
373.879	446.98
374.26	449.24
374.641	431.39
375.021	451.5
375.402	469.8
375.783	489.92
376.163	510.48
376.544	510.03
376.925	490.37
377.305	486.98
377.686	506.41
378.066	509.35
378.447	513.87
378.827	511.84
379.208	491.5
379.588	535.34
379.968	499.41
380.349	536.92
380.729	514.55
381.109	533.08
381.489	522.68
381.87	528.56
382.25	543.7
382.63	558.84
383.01	553.19
383.39	551.16
383.77	564.49
384.15	561.78
384.53	589.35
384.91	586.86
385.29	585.96
385.67	605.85
386.049	594.09
386.429	603.59
386.809	624.6
387.189	616.69
387.568	642.23
387.948	630.48
388.328	669.8
388.707	659.4
389.087	650.59
389.466	654.88
389.846	688.33
390.225	662.79
390.605	675.22
390.984	698.5
391.363	709.57
391.743	723.13
392.122	715.9
392.501	735.56
392.881	729.01
393.26	748.44
393.639	752.06
394.018	746.63
394.397	762.23
394.776	775.78
395.155	803.13
395.534	807.87
395.913	787.31
396.292	811.04
396.671	803.58
397.05	825.05
397.429	835.67
397.808	833.64
398.186	863.47
398.565	850.81
398.944	854.43
399.323	883.58
399.701	875.9
400.08	896.46
400.458	912.5
400.837	931.94
401.215	949.34
401.594	957.02
401.972	960.86
402.351	961.54
402.729	941.88
403.107	971.26
403.486	977.36
403.864	985.5
404.242	1029.56
404.62	1028.66
404.999	1034.08
405.377	1035.89
405.755	1078.38
406.133	1066.17
406.511	1084.48
406.889	1096.91
407.267	1120.63
407.645	1102.78
408.023	1166.06
408.401	1177.58
408.779	1173.51
409.156	1194.76
409.534	1198.82
409.912	1199.05
410.29	1241.31
410.667	1254.42
411.045	1276.79
411.422	1302.78
411.8	1289.22
412.178	1347.3
412.555	1317.24
412.933	1343.68
413.31	1395.66
413.687	1404.47
414.065	1401.3
414.442	1440.63
414.819	1443.56
415.197	1486.73
415.574	1510.45
415.951	1501.87
416.328	1499.38
416.705	1512.49
417.082	1537.57
417.46	1574.18
417.837	1577.12
418.214	1597.68
418.591	1649.89
418.967	1622.32
419.344	1647.63
419.721	1662.54
420.098	1651.69
420.475	1695.53
420.852	1715.42
421.228	1698.02
421.605	1760.62
421.982	1756.55
422.358	1805.14
422.735	1808.75
423.111	1807.85
423.488	1821.18
423.864	1828.64
424.241	1922.42
424.617	1880.84
424.994	1920.39
425.37	1940.95
425.746	1948.86
426.123	2002.87
426.499	2034.06
426.875	2055.07
427.251	2080.16
427.627	2117.44
428.003	2153.83
428.379	2199.93
428.756	2180.49
429.132	2162.41
429.507	2236.76
429.883	2297.1
430.259	2310.21
430.635	2314.28
431.011	2352.92
431.387	2427.94
431.763	2403.99
432.138	2472.92
432.514	2549.52
432.89	2502.29
433.265	2582.29
433.641	2606.25
434.016	2603.76
434.392	2702.74
434.767	2689.86
435.143	2748.61
435.518	2749.52
435.894	2745.68
436.269	2841.49
436.644	2913.58
437.02	2889.4
437.395	2897.76
437.77	2949.06
438.145	3047.82
438.52	3002.62
438.895	3056.63
439.271	3072
439.646	3128.49
440.021	3198.09
440.395	3202.61
440.77	3142.73
441.145	3214.36
441.52	3248.04
441.895	3272.67
442.27	3327.81
442.645	3331.88
443.019	3369.61
443.394	3378.43
443.769	3379.33
444.143	3380.69
444.518	3514.02
444.892	3454.58
445.267	3492.1
445.641	3513.11
446.016	3558.76
446.39	3592.21
446.764	3574.36
447.139	3638.99
447.513	3673.56
447.887	3683.05
448.262	3690.51
448.636	3750.62
449.01	3754.46
449.384	3803.95
449.758	3855.25
450.132	3911.3
450.506	3893.89
450.88	3944.74
451.254	3989.94
451.628	4002.37
452.002	4065.64
452.376	4083.95
452.75	4149.71
453.123	4169.37
453.497	4254.34
453.871	4320.1
454.244	4389.93
454.618	4432.41
454.992	4426.99
455.365	4489.81
455.739	4630.15
456.112	4609.13
456.486	4659.98
456.859	4777.26
457.232	4774.32
457.606	4798.73
457.979	4897.03
458.352	5003.92
458.725	5003.47
459.099	5073.52
459.472	5135.9
459.845	5255.67
460.218	5300.19
460.591	5299.06
460.964	5331.15
461.337	5480.52
461.71	5531.37
462.083	5612.72
462.456	5664.24
462.829	5728.42
463.201	5767.97
463.574	5819.27
463.947	5960.51
464.32	6080.05
464.692	6100.16
465.065	6142.2
465.438	6234.85
465.81	6267.62
466.183	6428.07
466.555	6546.93
466.928	6514.39
467.3	6579.25
467.672	6676.65
468.045	6861.05
468.417	6870.31
468.789	6961.84
469.161	7046.81
469.534	7164.32
469.906	7329.28
470.278	7366.8
470.65	7456.06
471.022	7592.78
471.394	7709.16
471.766	7784.87
472.138	7903.51
472.51	8036.84
472.882	8230.28
473.253	8292.42
473.625	8394.79
473.997	8614.45
474.369	8715.24
474.74	8715.69
475.112	8949.13
475.484	9093.53
475.855	9326.97
476.227	9316.13
476.598	9690.35
476.97	9613.97
477.341	9899.16
477.713	10048.99
478.084	10080.85
478.455	10418.92
478.827	10459.37
479.198	10866.37
479.569	10775.3
479.94	11149.98
480.311	11200.6
480.682	11499.57
481.053	11738.89
481.424	11931.42
481.795	12089.84
482.166	12195.6
482.537	12448.02
482.908	12651.18
483.279	12791.06
483.65	13024.95
484.021	13329.8
484.391	13461.1
484.762	13598.72
485.133	13715.11
485.503	13814.99
485.874	14229.22
486.244	14293.17
486.615	14684.12
486.985	14757.79
487.356	15083.66
487.726	15190.09
488.097	15503.08
488.467	15555.74
488.837	15925.89
489.207	16154.36
489.578	16394.81
489.948	16521.81
490.318	16666.21
490.688	16721.13
491.058	17043.38
491.428	17335.58
491.798	17394.33
492.168	17798.84
492.538	17914.54
492.908	18093.07
493.278	18252.61
493.648	18371.71
494.017	18607.63
494.387	18772.15
494.757	18877.91
495.126	19089.2
495.496	19201.06
495.866	19368.06
496.235	19588.4
496.605	19758.56
496.974	19879.46
497.344	20099.57
497.713	20262.5
498.082	20327.59
498.452	20632.66
498.821	20690.74
499.19	20836.27
499.559	21047.79
499.928	21147
500.298	21250.95
500.667	21498.86
501.036	21524.62
501.405	21698.17
501.774	21744.5
502.143	21953.31
502.512	22136.35
502.88	22277.59
503.249	22371.83
503.618	22593.97
503.987	22702.21
504.356	22771.36
504.724	22992.83
505.093	23079.15
505.462	23229.43
505.83	23351.01
506.199	23646.37
506.567	23805.46
506.936	23919.81
507.304	24146.24
507.672	24263.75
508.041	24487.03
508.409	24568.38
508.777	24764.76
509.145	24976.05
509.514	25008.14
509.882	25269.38
510.25	25274.8
510.618	25491.74
510.986	25700.1
511.354	26032.52
511.722	26130.82
512.09	26349.58
512.458	26436.13
512.826	26681.77
513.193	26918.37
513.561	26922.67
513.929	27192.04
514.297	27366.27
514.664	27647.62
515.032	27708.64
515.4	27990.89
515.767	28104.33
516.135	28362.4
516.502	28269.3
516.869	28715.62
517.237	28816.18
517.604	28817.53
517.972	29215.49
518.339	29485.99
518.706	29513.11
519.073	29703.84
519.44	29962.14
519.808	30336.14
520.175	30190.6
520.542	30803.02
520.909	30791.72
521.276	30960.98
521.643	31240.75
522.009	31545.6
522.376	31597.57
522.743	31909.88
523.11	32163.43
523.477	32570.2
523.843	32739.01
524.21	33012
524.577	33197.08
524.943	33325.66
525.31	33617.86
525.676	33894.01
526.043	34078.41
526.409	34143.49
526.776	34618.51
527.142	34808.56
527.508	35093.3
527.874	35378.72
528.241	35566.73
528.607	35518.6
528.973	35980.28
529.339	35896.44
529.705	36385.02
530.071	36652.36
530.437	36869.07
530.803	36987.49
531.169	37282.85
531.535	37298.21
531.901	37463.41
532.267	37586.79
532.632	37936.84
532.998	37946.33
533.364	38123.73
533.73	38329.15
534.095	38628.12
534.461	38776.14
534.826	38978.17
535.192	39159.18
535.557	39342.23
535.923	39421.1
536.288	39565.5
536.653	39772.27
537.019	39730.69
537.384	39938.82
537.749	40223.34
538.114	40170
538.479	40320.06
538.845	40606.6
539.21	40572.7
539.575	40737.45
539.94	40925.24
540.305	41180.37
540.67	41037.78
541.034	41403.64
541.399	41538.55
541.764	41555.28
542.129	41801.37
542.494	41841.15
542.858	41970.63
543.223	42082.72
543.587	42332.88
543.952	42245.88
544.316	42562.26
544.681	42569.26
545.045	42699.65
545.41	43006.99
545.774	43135.8
546.138	43142.13
546.503	43275.23
546.867	43303.48
547.231	43721.55
547.595	43632.28
547.959	43996.8
548.324	43959.06
548.688	43999.73
549.052	44166.06
549.416	44281.31
549.779	44472.71
550.143	44451.92
550.507	44848.07
550.871	44929.65
551.235	44886.04
551.599	45349.08
551.962	45321.05
552.326	45561.05
552.689	45777.54
553.053	45676.3
553.417	45827.71
553.78	46352.67
554.143	46115.16
554.507	46248.71
554.87	46456.39
555.234	46850.96
555.597	46755.14
555.96	46855.48
556.323	47063.16
556.686	47214.34
557.05	47487.1
557.413	47565.51
557.776	47701.78
558.139	47935.9
558.502	48022.45
558.865	48129.12
559.228	48471.93
559.59	48561.42
559.953	48554.87
560.316	49064.01
560.679	49080.96
561.041	49142.42
561.404	49388.74
561.767	49633.94
562.129	49603.43
562.492	49981.5
562.854	49906.47
563.217	49977.2
563.579	50115.73
563.941	50390.3
564.304	50459.22
564.666	50714.81
565.028	50798.65
565.39	50987.12
565.753	51118.19
566.115	51182.14
566.477	51442.48
566.839	51538.97
567.201	51690.6
567.563	51782.13
567.925	51949.13
568.287	51881.33
568.648	52049.24
569.01	52296.69
569.372	52412.17
569.734	52435.67
570.095	52634.76
570.457	52666.62
570.819	52753.18
571.18	52860.29
571.542	52928.54
571.903	52932.83
572.265	53227.51
572.626	53234.74
572.987	53349.09
573.349	53353.84
573.71	53534.4
574.071	53597.22
574.432	53664.11
574.794	53815.75
575.155	53766.93
575.516	53834.5
575.877	53957.89
576.238	53941.39
576.599	54105.46
576.96	54110.43
577.32	54080.82
577.681	54226.58
578.042	54360.82
578.403	54387.93
578.763	54262.97
579.124	54357.65
579.485	54499.34
579.845	54559.91
580.206	54518.33
580.566	54598.32
580.927	54592.67
581.287	54782.73
581.648	54561.94
582.008	54666.35
582.368	54648.94
582.728	54742.95
583.089	54670.19
583.449	54705.67
583.809	54761.94
584.169	54714.71
584.529	54715.38
584.889	54937.75
585.249	54755.61
585.609	54672.22
585.969	54941.14
586.329	54856.85
586.688	54833.35
587.048	54796.51
587.408	54814.36
587.768	54786.57
588.127	54813.46
588.487	54666.8
588.846	54948.6
589.206	54670.41
589.565	54811.2
589.925	54882.84
590.284	54826.34
590.643	54860.92
591.003	54965.32
591.362	54993.34
591.721	54896.85
592.08	54941.37
592.44	55062.49
592.799	54996.28
593.158	54983.85
593.517	54974.81
593.876	54964.42
594.235	54969.16
594.593	55016.84
594.952	55144.98
595.311	54949.73
595.67	55031.76
596.029	55214.81
596.387	55213.45
596.746	55182.26
597.104	55061.59
597.463	55172.32
597.822	55251.87
598.18	55130.97
598.538	55107.92
598.897	55196.73
599.255	55053
599.613	55449.83
599.972	55266.56
600.33	55345.2
600.688	55185.2
601.046	55386.78
601.404	55416.61
601.762	55344.07
602.12	55537.96
602.478	55469.49
602.836	55514.91
603.194	55388.59
603.552	55480.79
603.91	55354.91
604.268	55554.68
604.625	55413.9
604.983	55541.8
605.341	55482.59
605.698	55641.69
606.056	55662.25
606.413	55638.3
606.771	55696.83
607.128	55741.35
607.485	55647.34
607.843	55668.13
608.2	55742.7
608.557	55919.42
608.914	55792.19
609.272	55956.25
609.629	56010.72
609.986	56003.49
610.343	55929.14
610.7	56143.37
611.057	56006.2
611.414	56038.06
611.771	56112.18
612.127	56136.36
612.484	56128.45
612.841	56232.63
613.198	56119.19
613.554	56158.74
613.911	56275.12
614.267	56279.64
614.624	56268.11
614.98	56292.97
615.337	56460.2
615.693	56351.95
616.05	56322.8
616.406	56523.47
616.762	56402.57
617.118	56379.07
617.475	56355.79
617.831	56432.85
618.187	56440.76
618.543	56503.81
618.899	56595.33
619.255	56546.97
619.611	56496.35
619.967	56690.7
620.323	56669.91
620.678	56519.63
621.034	56547.43
621.39	56524.38
621.746	56499.97
622.101	56806.85
622.457	56599.85
622.812	56598.27
623.168	56697.7
623.523	56643.92
623.879	56749
624.234	56542
624.589	56620.64
624.945	56633.53
625.3	56678.95
625.655	56650.93
626.01	56602.34
626.365	56670.59
626.72	56572.06
627.075	56584.03
627.43	56605.96
627.785	56504.04
628.14	56687.99
628.495	56525.51
628.85	56536.58
629.205	56510.82
629.559	56647.54
629.914	56481.89
630.269	56551.49
630.623	56410.71
630.978	56423.81
631.332	56399.41
631.687	56502.46
632.041	56371.39
632.396	56431.5
632.75	56221.78
633.104	56288
633.459	56238.73
633.813	56208
634.167	56151.28
634.521	56167.55
634.875	56178.85
635.229	56106.76
635.583	55986.76
635.937	55914.67
636.291	55920.55
636.645	55912.87
636.999	55864.05
637.352	55944.05
637.706	55806.2
638.06	55839.65
638.413	55824.73
638.767	55732.76
639.121	55773.89
639.474	55685.08
639.828	55601.91
640.181	55675.58
640.534	55643.95
640.888	55605.3
641.241	55435.36
641.594	55506.77
641.947	55590.39
642.301	55483.72
642.654	55440.34
643.007	55372.54
643.36	55358.76
643.713	55318.76
644.066	55389.49
644.419	55150.63
644.771	54951.08
645.124	54787.92
645.477	54686.23
645.83	54405.56
646.182	54423.19
646.535	54354.71
646.888	54386.8
647.24	54176.41
647.593	54369.18
647.945	54215.96
648.298	54147.94
648.65	54124.21
649.002	54032.92
649.355	54091.22
649.707	54069.75
650.059	54077.89
650.411	54487.37
650.763	54512.68
651.115	54748.38
651.467	54688.04
651.819	54627.25
652.171	54574.37
652.523	54483.98
652.875	54498.21
653.227	54367.82
653.578	54531.66
653.93	54476.97
654.282	54308.61
654.633	54275.62
654.985	54328.27
655.337	54255.96
655.688	54252.8
656.039	54394.71
656.391	54073.82
656.742	54135.74
657.094	54123.76
657.445	54224.1
657.796	54168.96
658.147	54058.23
658.498	54106.36
658.849	54155.4
659.2	54048.51
659.551	54008.06
659.902	54067.49
660.253	54030.66
660.604	54026.14
660.955	53814.39
661.306	54043.31
661.656	53905.24
662.007	53887.61
662.358	53912.24
662.708	53831.56
663.059	53820.94
663.409	53671.79
663.76	53822.53
664.11	53790.89
664.461	53864.11
664.811	53775.3
665.161	53829.53
665.511	53641.97
665.862	53734.84
666.212	53816.88
666.562	53733.94
666.912	53694.39
667.262	53635.64
667.612	53691.23
667.962	53603.55
668.312	53553.15
668.662	53706.82
669.011	53610.55
669.361	53510.44
669.711	53529.65
670.06	53410.33
670.41	53433.38
670.76	53341.41
671.109	53531.01
671.459	53359.26
671.808	53264.12
672.157	53408.75
672.507	53241.98
672.856	53181.86
673.205	53226.61
673.554	53289.43
673.904	53205.59
674.253	53350.45
674.602	53300.28
674.951	52806.06
675.3	52564.03
675.649	53067.74
675.998	53110
676.346	53078.82
676.695	53168.76
677.044	52955.43
677.393	52965.6
677.741	53032.94
678.09	52960.85
678.438	52826.62
678.787	52893.28
679.135	52803.8
679.484	52724.25
679.832	52836.11
680.181	52584.82
680.529	52612.61
680.877	52596.79
681.225	52551.6
681.573	52719.05
681.922	52429.57
682.27	52299.85
682.618	52459.4
682.966	52317.03
683.314	52371.49
683.661	52254.88
684.009	52084.27
684.357	52030.71
684.705	51846.98
685.053	52006.75
685.4	51874.33
685.748	51778.74
686.095	51781.68
686.443	51619.19
686.79	51581
687.138	51628.01
687.485	51604.96
687.832	51431.85
688.18	51538.74
688.527	51386.21
688.874	51334.23
689.221	51235.25
689.568	51001.81
689.915	51003.62
690.262	50946.89
690.609	50796.16
690.956	50710.06
691.303	50677.98
691.65	50454.03
691.997	50547.58
692.344	50363.86
692.69	50277.99
693.037	50221.26
693.383	49936.53
693.73	50098.78
694.077	49933.14
694.423	49853.59
694.769	49789.64
695.116	49592.35
695.462	49583.54
695.808	49388.97
696.155	49526.14
696.501	49226.04
696.847	49253.38
697.193	48939.72
697.539	49161.18
697.885	48849.55
698.231	48672.83
698.577	48631.93
698.923	48568.43
699.269	48481.2
699.614	48332.27
699.96	48208.66
700.306	48349
700.651	47974.09
700.997	48025.84
701.342	47831.04
701.688	47827.88
702.033	47695.45
702.379	47562.35
702.724	47524.84
703.069	47686.42
703.415	47025.19
703.76	47279.65
704.105	47255.01
704.45	46990.61
704.795	46785.2
705.14	46645.54
705.485	46614.81
705.83	46514.47
706.175	46487.13
706.52	46172.11
706.865	46134.59
707.209	46174.82
707.554	46030.19
707.899	46072.45
708.243	45821.15
708.588	45864.54
708.932	45632.46
709.277	45463.65
709.621	45477.43
709.966	45359.7
710.31	45295.07
710.654	45024.11
710.998	45175.3
711.342	44957.9
711.687	44889.2
712.031	44770.33
712.375	44572.15
712.719	44581.41
713.063	44579.15
713.407	44600.62
713.75	44413.28
714.094	44343.23
714.438	44211.7
714.782	44188.43
715.125	43982.33
715.469	44170.58
715.812	43909.79
716.156	43625.51
716.499	43749.34
716.843	43685.39
717.186	43544.6
717.53	43559.52
717.873	43627.99
718.216	43440.43
718.559	43257.83
718.902	42938.29
719.246	43018.97
719.589	43035.46
719.932	42783.49
720.275	42755.7
720.617	42690.16
720.96	42685.64
721.303	42645.42
721.646	42617.85
721.989	42452.2
722.331	42552.09
722.674	42324.3
723.016	42195.26
723.359	42287.24
723.701	42246.11
724.044	41955.27
724.386	41733.58
724.729	42089.5
725.071	41865.78
725.413	41786.68
725.755	41737.65
726.097	41458.78
726.439	41376.75
726.782	41435.28
727.124	41523.64
727.465	41513.92
727.807	41373.36
728.149	41148.51
728.491	41024.44
728.833	41251.1
729.175	40924.79
729.516	40787.16
729.858	40909.19
730.199	40759.14
730.541	40760.5
730.882	40673.94
731.224	40747.16
731.565	40436.21
731.906	40468.75
732.248	40552.14
732.589	40303.78
732.93	40247.52
733.271	40134.52
733.612	40288.19
733.953	40139.72
734.294	40053.85
734.635	39941.99
734.976	39899.05
735.317	39781.31
735.658	39630.36
735.999	39682.33
736.339	39622.9
736.68	39798.94
737.021	39659.73
737.361	39434.43
737.702	39476.91
738.042	39277.82
738.383	39386.52
738.723	39368.44
739.063	39157.37
739.404	39130.03
739.744	39197.6
740.084	39013.42
740.424	39015.01
740.764	38812.75
741.104	39090.03
741.444	38876.25
741.784	38639.42
742.124	38700.21
742.464	38581.12
742.804	38494.57
743.143	38364.63
743.483	38450.05
743.823	38316.72
744.162	38179.55
744.502	38286.66
744.841	38069.72
745.181	38189.72
745.52	38095.93
745.86	38013.22
746.199	37911.98
746.538	37928.48
746.877	37855.71
747.216	37825.21
747.556	37778.43
747.895	37580.92
748.234	37521.26
748.573	37480.13
748.911	37392.67
749.25	37358.1
749.589	37181.83
749.928	37211.44
750.267	37226.13
750.605	37041.72
750.944	37017.09
751.283	36813.48
751.621	37017.77
751.96	36812.13
752.298	36811.22
752.636	36765.57
752.975	36470.67
753.313	36560.61
753.651	36645.35
753.989	36294.17
754.327	36185.7
754.666	36033.61
755.004	36184.12
755.342	36036.33
755.679	35945.71
756.017	35731.25
756.355	35903.67
756.693	35560.86
757.031	35791.81
757.368	35373.29
757.706	35310.47
758.044	35187.08
758.381	35191.15
758.719	34991.38
759.056	35121.55
759.394	34924.27
759.731	34799.3
760.068	34647.44
760.405	34578.06
760.743	34347.56
761.08	34501
761.417	34244.96
761.754	34185.75
762.091	34157.73
762.428	33927.68
762.765	33818.76
763.102	33888.36
763.438	33822.15
763.775	33552.1
764.112	33580.57
764.449	33420.8
764.785	33336.06
765.122	33174.03
765.458	32970.64
765.795	33037.54
766.131	33125.22
766.467	32920.02
766.804	32647.26
767.14	32749.18
767.476	32560.26
767.812	32405.69
768.148	32368.85
768.485	32126.82
768.821	31995.75
769.157	32009.31
769.492	31882.99
769.828	31767.51
770.164	31466.96
770.5	31537.91
770.836	31473.06
771.171	31267.64
771.507	31222.44
771.842	30949.45
772.178	30998.27
772.513	30932.05
772.849	30828.78
773.184	30641.89
773.519	30616.81
773.855	30436.02
774.19	30406.42
774.525	30157.16
774.86	30188.34
775.195	30085.07
775.53	29925.98
775.865	29795.13
776.2	29737.74
776.535	29399.44
776.87	29481.24
777.205	29377.07
777.539	29157.86
777.874	29231.31
778.209	28998.09
778.543	28895.27
778.878	28666.58
779.212	28744.99
779.547	28618.67
779.881	28523.53
780.215	28391.33
780.55	28454.83
780.884	28208.06
781.218	28218.23
781.552	28106.59
781.886	28007.61
782.22	27861.17
782.554	27717.9
782.888	27517.91
783.222	27395.65
783.556	27295.09
783.889	27258.25
784.223	27104.36
784.557	26954.98
784.89	27060.97
785.224	26879.96
785.557	26708.89
785.891	26671.15
786.224	26663.24
786.558	26545.5
786.891	26367.43
787.224	26220.77
787.557	26272.29
787.891	26144.38
788.224	26101.67
788.557	25968.34
788.89	26029.58
789.223	25921.56
789.556	25542.14
789.888	25543.5
790.221	25540.56
790.554	25291.75
790.887	25250.4
791.219	25159.1
791.552	25174.92
791.884	25039.78
792.217	24886.56
792.549	24870.74
792.882	24608.15
793.214	24554.37
793.546	24592.79
793.879	24508.72
794.211	24372.9
794.543	24440.7
794.875	24308.05
795.207	24402.96
795.539	24137.2
795.871	24133.59
796.203	23945.34
796.535	23835.29
796.867	23786.25
797.198	23624.22
797.53	23759.14
797.862	23469.43
798.193	23546.49
798.525	23403.89
798.856	23409.09
799.188	23158.92
799.519	22993.96
799.85	22820.4
800.182	23078.02
800.513	23082.54
800.844	22767.07
801.175	22861.53
801.506	22774.53
801.837	22704.02
802.168	22669.9
802.499	22590.13
802.83	22397.14
803.161	22371.15
803.491	22463.12
803.822	22367.08
804.153	22283.69
804.483	22036.47
804.814	22067.65
805.145	21975.23
805.475	22002.8
805.805	21924.16
806.136	21832.18
806.466	21870.15
806.796	21775.46
807.126	21685.74
807.457	21478.52
807.787	21608.68
808.117	21452.76
808.447	21340.22
808.777	21510.83
809.107	21342.25
809.436	21234
809.766	21124.63
810.096	21104.29
810.426	21054.57
810.755	21000.34
811.085	20975.71
811.414	20799.44
811.744	20742.72
812.073	20692.78
812.403	20593.79
812.732	20549.5
813.061	20596.51
813.39	20429.73
813.719	20456.85
814.049	20524.87
814.378	20320.13
814.707	20272
815.036	20311.54
815.365	20183.86
815.693	19960.36
816.022	19977.77
816.351	19949.29
816.68	19846.92
817.008	19904.55
817.337	19652.35
817.665	19661.62
817.994	19746.13
818.322	19684.44
818.651	19613.48
818.979	19490.32
819.307	19635.85
819.636	19549.98
819.964	19499.59
820.292	19520.6
820.62	19446.48
820.948	19398.12
821.276	19465.69
821.604	19340.95
821.932	19386.82
822.259	19385.01
822.587	19367.61
822.915	19294.39
823.243	19349.99
823.57	19254.85
823.898	19339.82
824.225	19164.91
824.553	19281.51
824.88	19261.17
825.207	19346.37
825.535	19380.95
825.862	19270.44
826.189	19200.61
826.516	19285.81
826.843	19356.77
827.17	19272.7
827.497	19314.05
827.824	19357.89
828.151	19316.54
828.478	19213.04
828.805	19281.29
829.131	19250.78
829.458	19217.56
829.785	19095.3
830.111	19149.31
830.438	19191.35
830.764	19220.27
831.09	19118.13
831.417	19102.31
831.743	19145.92
832.069	19213.27
832.395	19050.78
832.722	19181.18
833.048	19009.2
833.374	19072.03
833.7	18989.32
834.026	18979.6
834.351	18928.75
834.677	19011.01
835.003	19022.76
835.329	18950.67
835.654	18919.26
835.98	18882.2
836.306	18873.16
836.631	18773.5
836.956	18889.88
837.282	18761.98
837.607	18642.43
837.932	18743.45
838.258	18722.43
838.583	18674.07
838.908	18571.7
839.233	18568.99
839.558	18584.13
839.883	18383.91
840.208	18425.72
840.533	18425.49
840.858	18380.97
841.182	18484.92
841.507	18461.65
841.832	18240.18
842.156	18245.38
842.481	18212.84
842.805	18145.27
843.13	18130.81
843.454	18074.99
843.778	18027.53
844.103	17889.01
844.427	17997.48
844.751	17898.95
845.075	17801.78
845.399	17807.43
845.723	17780.08
846.047	17751.16
846.371	17529.92
846.695	17613.76
847.019	17471.62
847.343	17406.31
847.666	17273.43
847.99	17290.38
848.313	17238.63
848.637	17146.88
848.96	17125.41
849.284	17037.5
849.607	16879.09
849.931	16815.14
850.254	16695.14
850.577	16587.8
850.9	16468.71
851.223	16505.99
851.546	16433.9
851.869	16310.07
852.192	16449.5
852.515	16213.8
852.838	16179.67
853.161	16181.93
853.483	16118.66
853.806	16052.67
854.129	16003.63
854.451	15884.31
854.774	15858.78
855.096	15804.09
855.419	15809.06
855.741	15799.57
856.063	15592.57
856.385	15598.45
856.708	15586.02
857.03	15477.55
857.352	15468.05
857.674	15415.17
857.996	15380.37
858.318	15331.11
858.64	15327.49
858.961	15255.4
859.283	15176.76
859.605	15104.9
859.926	15146.71
860.248	15065.13
860.57	15015.64
860.891	15080.04
861.212	14964.56
861.534	14938.8
861.855	14933.6
862.176	14947.39
862.498	14972.7
862.819	14887.96
863.14	14838.69
863.461	14805.7
863.782	14713.72
864.103	14714.63
864.424	14641.86
864.745	14634.4
865.065	14585.14
865.386	14547.63
865.707	14559.38
866.027	14568.64
866.348	14455.65
866.668	14537
866.989	14406.84
867.309	14312.6
867.63	14325.48
867.95	14371.13
868.27	14250.46
868.59	14349.67
868.91	14238.93
869.23	14224.02
869.55	14159.84
869.87	14292.72
870.19	14147.41
870.51	14181.31
870.83	14177.69
871.15	14006.85
871.469	14063.34
871.789	14163.68
872.109	14075.55
872.428	14025.38
872.748	14031.48
873.067	13967.53
873.386	14032.61
873.706	13939.51
874.025	13845.72
874.344	13840.07
874.663	13869.23
874.982	13836.23
875.301	13799.85
875.62	13730.25
875.939	13719.4
876.258	13760.08
876.577	13652.28
876.896	13707.42
877.214	13549.01
877.533	13616.35
877.852	13564.83
878.17	13618.38
878.489	13602.11
878.807	13585.84
879.125	13511.72
879.444	13519.86
879.762	13436.47
880.08	13523.02
880.398	13430.82
880.716	13418.84
881.034	13397.15
881.352	13333.65
881.67	13298.62
881.988	13353.53
882.306	13270.82
882.624	13201.45
882.941	13147.21
883.259	13137.95
883.577	13098.4
883.894	13069.47
884.212	13021.79
884.529	13115.12
884.846	13022.47
885.164	12959.19
885.481	12928.46
885.798	12924.84
886.115	12841.91
886.432	12852.3
886.75	12803.72
887.067	12819.76
887.383	12718.97
887.7	12812.98
888.017	12780.67
888.334	12716.71
888.651	12578.41
888.967	12528.92
889.284	12568.47
889.6	12503.39
889.917	12485.99
890.233	12433.78
890.55	12370.06
890.866	12430.62
891.182	12354.69
891.498	12327.57
891.815	12208.7
892.131	12249.16
892.447	12190.63
892.763	12166.67
893.079	12082.83
893.395	12097.29
893.71	12017.07
894.026	12000.8
894.342	12014.81
894.657	11920.12
894.973	11945.89
895.289	11857.08
895.604	11856.62
895.92	11752.67
896.235	11694.37
896.55	11813.69
896.865	11598.55
897.181	11629.28
897.496	11629.74
897.811	11589.29
898.126	11547.93
898.441	11474.26
898.756	11419.12
899.071	11414.38
899.386	11343.19
899.7	11289.86
900.015	11213.48
900.33	11125.57
900.644	11112.24
900.959	11212.8
901.273	11101.16
901.588	11063.65
901.902	10991.79
902.216	10925.12
902.531	11000.37
902.845	10905.46
903.159	10843.77
903.473	10758.35
903.787	10799.48
904.101	10702.76
904.415	10678.35
904.729	10627.05
905.042	10627.73
905.356	10492.14
905.67	10541.63
905.984	10536.66
906.297	10435.19
906.611	10404.46
906.924	10353.61
907.237	10363.1
907.551	10389.54
907.864	10281.75
908.177	10219.6
908.491	10178.7
908.804	10139.61
909.117	10023.68
909.43	10066.84
909.743	9950.68
910.056	9960.18
910.368	9969.89
910.681	9925.15
910.994	9888.31
911.307	9858.03
911.619	9721.76
911.932	9698.49
912.244	9609.9
912.557	9718.83
912.869	9633.63
913.181	9526.29
913.494	9485.84
913.806	9484.26
914.118	9429.34
914.43	9349.57
914.742	9339.63
915.054	9324.03
915.366	9309.57
915.678	9206.07
915.99	9215.56
916.302	9073.19
916.613	9077.94
916.925	9114.77
917.236	9017.15
917.548	9010.37
917.859	8946.87
918.171	8955.23
918.482	8895.35
918.794	8866.87
919.105	8795.91
919.416	8744.61
919.727	8790.26
920.038	8672.98
920.349	8669.59
920.66	8599.53
920.971	8535.35
921.282	8614.45
921.593	8465.07
921.903	8424.4
922.214	8463.49
922.525	8365.87
922.835	8364.29
923.146	8265.76
923.456	8320.67
923.767	8268.02
924.077	8212.88
924.387	8138.08
924.697	8142.14
925.008	8117.96
925.318	8112.77
925.628	8089.94
925.938	8003.39
926.248	7994.35
926.558	7953.22
926.867	7853.11
927.177	7838.65
927.487	7795.71
927.796	7769.73
928.106	7762.27
928.416	7729.5
928.725	7714.13
929.034	7717.98
929.344	7642.72
929.653	7629.39
929.962	7561.37
930.271	7549.39
930.581	7519.56
930.89	7424.2
931.199	7351.88
931.508	7389.17
931.817	7355.05
932.125	7326.57
932.434	7350.3
932.743	7260.81
933.051	7199.12
933.36	7218.78
933.669	7122.96
933.977	7095.39
934.286	7143.75
934.594	7043.42
934.902	7021.95
935.21	6967.94
935.519	6968.62
935.827	6987.6
936.135	6923.87
936.443	6886.58
936.751	6842.29
937.059	6833.25
937.367	6752.58
937.674	6769.53
937.982	6710.09
938.29	6692.24
938.597	6672.58
938.905	6622.86
939.213	6588.06
939.52	6598.23
939.827	6552.81
940.135	6518.01
940.442	6532.47
940.749	6516.42
941.056	6509.42
941.363	6367.05
941.67	6369.54
941.977	6360.72
942.284	6292.25
942.591	6324.11
942.898	6278.69
943.205	6286.83
943.511	6210.9
943.818	6164.34
944.125	6147.62
944.431	6119.37
944.738	6129.09
945.044	6113.27
945.35	5995.31
945.657	6015.42
945.963	6006.61
946.269	5939.72
946.575	5920.51
946.881	5903.33
947.187	5848.42
947.493	5854.3
947.799	5836.89
948.105	5796.67
948.41	5742.89
948.716	5784.47
949.022	5763.45
949.327	5732.72
949.633	5626.5
949.938	5651.59
950.244	5660.4
950.549	5601.42
950.854	5538.15
951.16	5547.41
951.465	5515.1
951.77	5481.65
952.075	5480.97
952.38	5444.81
952.685	5463.57
952.99	5321.65
953.294	5394.87
953.599	5327.76
953.904	5301.32
954.209	5310.13
954.513	5313.97
954.818	5251.37
955.122	5257.7
955.426	5234.42
955.731	5205.72
956.035	5111.26
956.339	5164.6
956.643	5149.68
956.948	5086.18
957.252	5077.82
957.556	5070.36
957.86	5025.16
958.163	4964.6
958.467	4990.36
958.771	4997.14
959.075	4947.2
959.378	4864.72
959.682	4908.78
959.985	4907.88
960.289	4840.99
960.592	4830.82
960.896	4856.81
961.199	4811.61
961.502	4754.66
961.805	4747.66
962.108	4709.69
962.411	4700.2
962.714	4673.99
963.017	4696.81
963.32	4676.25
963.623	4612.29
963.926	4601.22
964.228	4555.8
964.531	4567.78
964.833	4560.77
965.136	4518.06
965.438	4541.56
965.741	4464.95
966.043	4443.03
966.345	4419.3
966.648	4450.72
966.95	4379.98
967.252	4371.85
967.554	4337.72
967.856	4335.92
968.158	4299.08
968.46	4297.73
968.761	4308.57
969.063	4313.54
969.365	4274
969.666	4200.55
969.968	4155.58
970.269	4177.05
970.571	4177.96
970.872	4159.42
971.174	4135.92
971.475	4086.66
971.776	4065.42
972.077	4079.2
972.378	4073.78
972.679	4058.86
972.98	4016.6
973.281	4004.4
973.582	3994.46
973.883	3954.46
974.183	3965.31
974.484	3947.45
974.785	3883.05
975.085	3871.97
975.386	3887.34
975.686	3887.57
975.986	3833.11
976.287	3841.01
976.587	3766.21
976.887	3763.95
977.187	3807.57
977.487	3731.41
977.787	3719.44
978.087	3739.32
978.387	3724.86
978.687	3698.87
978.987	3675.37
979.286	3632.88
979.586	3649.61
979.885	3588.14
980.185	3619.78
980.484	3572.32
980.784	3547.46
981.083	3525.99
981.382	3558.54
981.682	3513.57
981.981	3488.03
982.28	3505.2
982.579	3414.36
982.878	3463.85
983.177	3457.97
983.475	3427.01
983.774	3372.33
984.073	3376.39
984.372	3382.04
984.67	3347.02
984.969	3360.8
985.267	3312.89
985.566	3313.35
985.864	3308.37
986.162	3257.08
986.461	3257.08
986.759	3226.79
987.057	3223.63
987.355	3202.39
987.653	3197.19
987.951	3187.25
988.249	3177.08
988.547	3173.01
988.844	3141.82
989.142	3160.58
989.44	3051.66
989.737	3108.15
990.035	3061.83
990.332	3059.34
990.63	3072.9
990.927	3100.92
991.224	3040.58
991.521	3015.05
991.819	3000.81
992.116	2997.42
992.413	2986.8
992.71	2936.86
993.006	2983.86
993.303	2938.67
993.6	2933.47
993.897	2932.11
994.193	2872.23
994.49	2883.07
994.787	2875.16
995.083	2816.18
995.379	2821.61
995.676	2775.05
995.972	2771.89
996.268	2769.18
996.565	2795.39
996.861	2744.09
997.157	2757.65
997.453	2709.52
997.749	2742.51
998.044	2675.85
998.34	2695.96
998.636	2654.38
998.932	2678.79
999.227	2615.51
999.523	2646.02
999.818	2629.52
1000.114	2636.75
1000.409	2597.88
1000.704	2556.98
1001	2579.81
1001.295	2521.73
1001.59	2538.9
1001.885	2541.61
1002.18	2477.21
1002.475	2485.57
1002.77	2449.41
1003.065	2444.89
1003.359	2451.45
1003.654	2444.67
1003.949	2433.14
1004.243	2422.97
1004.538	2366.25
1004.832	2391.56
1005.127	2380.26
1005.421	2345.69
1005.715	2314.73
1006.009	2322.64
1006.304	2321.51
1006.598	2283.54
1006.892	2286.93
1007.186	2277.44
1007.48	2267.27
1007.773	2246.25
1008.067	2243.77
1008.361	2215.97
1008.655	2167.16
1008.948	2198.57
1009.242	2207.16
1009.535	2149.08
1009.829	2157.22
1010.122	2129.65
1010.415	2118.12
1010.708	2122.64
1011.001	2110.21
1011.295	2071.12
1011.588	2089.87
1011.881	2062.76
1012.173	2054.4
1012.466	2040.16
1012.759	2025.24
1013.052	1996.09
1013.344	1999.26
1013.637	1950.22
1013.93	1979.82
1014.222	1950.9
1014.514	1951.57
1014.807	1939.37
1015.099	1931.91
1015.391	1942.76
1015.683	1899.14
1015.976	1893.04
1016.268	1863.89
1016.56	1851.69
1016.851	1862.54
1017.143	1827.73
1017.435	1836.55
1017.727	1800.39
1018.018	1789.77
1018.31	1804.91
1018.602	1804.46
1018.893	1761.97
1019.185	1752.93
1019.476	1733.95
1019.767	1747.74
1020.058	1732.14
1020.35	1687.4
1020.641	1686.95
1020.932	1720.39
1021.223	1688.08
1021.514	1673.39
1021.804	1624.8
1022.095	1651.24
1022.386	1637.23
1022.677	1625.71
1022.967	1586.61
1023.258	1595.88
1023.548	1579.83
1023.839	1558.36
1024.129	1575.09
1024.419	1550.45
1024.709	1562.66
1025	1521.08
1025.29	1519.49
1025.58	1512.49
1025.87	1488.53
1026.16	1506.39
1026.449	1468.65
1026.739	1467.74
1027.029	1467.97
1027.319	1460.96
1027.608	1446.73
1027.898	1434.75
1028.187	1405.15
1028.477	1426.84
1028.766	1394.07
1029.055	1364.7
1029.344	1405.82
1029.634	1350.46
1029.923	1369.89
1030.212	1384.36
1030.501	1345.26
1030.79	1316.34
1031.078	1321.08
1031.367	1321.53
1031.656	1318.82
1031.945	1297.35
1032.233	1281.08
1032.522	1276.11
1032.81	1248.99
1033.099	1237.24
1033.387	1265.72
1033.675	1234.08
1033.963	1248.31
1034.251	1217.58
1034.54	1220.29
1034.828	1201.54
1035.116	1216.45
1035.403	1207.64
1035.691	1185.94
1035.979	1189.11
1036.267	1151.59
1036.554	1168.32
1036.842	1149.33
1037.129	1146.17
1037.417	1138.71
1037.704	1166.96
1037.992	1109.56
1038.279	1101.43
1038.566	1103.23
1038.853	1103.23
1039.14	1103.23
