Data from whiteboard_FLMS001491_00084.txt Node
Date: Wed Feb 08 11:28:29 GMT 2017
User: dcchb
Spectrometer: FLMS00149
Trigger mode: 0
Integration Time (sec): 2.000000E-2
Scans to average: 10
Electric dark correction enabled: true
Nonlinearity correction enabled: false
Boxcar width: 0
XAxis mode: Wavelengths
Number of Pixels in Spectrum: 2048
>>>>>Begin Spectral Data<<<<<
341.393	0.18
341.776	0.18
342.16	0.18
342.543	-43.66
342.927	-66.48
343.31	-76.42
343.693	-70.1
344.077	-73.49
344.46	-63.77
344.843	-47.27
345.226	-33.94
345.61	-48.63
345.993	-35.3
346.376	-10.89
346.759	20.75
347.142	23.23
347.525	43.57
347.908	71.37
348.291	91.25
348.674	95.32
349.057	114.3
349.44	141.2
349.823	134.87
350.206	166.28
350.588	225.49
350.971	239.5
351.354	260.74
351.737	276.79
352.119	274.07
352.502	294.41
352.884	301.42
353.267	307.52
353.65	316.11
354.032	327.86
354.414	332.83
354.797	348.42
355.179	364.92
355.562	348.2
355.944	355.43
356.326	360.17
356.709	393.85
357.091	373.06
357.473	379.16
357.855	375.31
358.238	391.59
358.62	376.9
359.002	371.7
359.384	373.06
359.766	388.65
360.148	370.8
360.53	394.3
360.912	380.29
361.294	378.48
361.676	378.25
362.057	371.47
362.439	367.18
362.821	387.29
363.203	386.61
363.584	355.65
363.966	365.6
364.348	364.02
364.729	363.56
365.111	345.71
365.493	347.52
365.874	345.26
366.256	372.38
366.637	368.31
367.019	361.53
367.4	368.31
367.781	368.31
368.163	362.43
368.544	371.47
368.925	361.98
369.306	346.39
369.688	338.03
370.069	357.69
370.45	368.54
370.831	372.38
371.212	342.1
371.593	362.66
371.974	361.76
372.355	362.43
372.736	356.56
373.117	374.41
373.498	374.19
373.879	368.99
374.26	363.11
374.641	382.77
375.021	371.93
375.402	373.28
375.783	393.62
376.163	393.62
376.544	385.03
376.925	381.87
377.305	400.4
377.686	399.27
378.066	387.74
378.447	395.2
378.827	414.41
379.208	378.25
379.588	425.48
379.968	403.56
380.349	414.64
380.729	417.12
381.109	413.73
381.489	404.92
381.87	415.77
382.25	408.76
382.63	434.3
383.01	422.55
383.39	422.77
383.77	435.43
384.15	424.35
384.53	452.83
384.91	430.68
385.29	437.46
385.67	468.19
386.049	472.94
386.429	454.18
386.809	444.01
387.189	472.04
387.568	455.99
387.948	442.88
388.328	472.26
388.707	495.54
389.087	484.69
389.466	477.01
389.846	486.5
390.225	490.79
390.605	508.87
390.984	503.45
391.363	497.57
391.743	515.2
392.122	525.37
392.501	550
392.881	541.19
393.26	569.21
393.639	557.68
394.018	574.41
394.397	576.44
394.776	578.47
395.155	572.37
395.534	594.29
395.913	603.33
396.292	613.95
396.671	603.56
397.05	641.07
397.429	634.74
397.808	646.49
398.186	671.58
398.565	657.34
398.944	645.14
399.323	661.86
399.701	670.22
400.08	725.36
400.458	718.81
400.837	717.23
401.215	726.94
401.594	742.54
401.972	739.83
402.351	733.72
402.729	769.65
403.107	789.09
403.486	803.33
403.864	808.3
404.242	829.31
404.62	833.38
404.999	858.47
405.377	885.13
405.755	865.92
406.133	908.41
406.511	925.36
406.889	921.06
407.267	988.86
407.645	980.5
408.023	985.02
408.401	1007.16
408.779	1036.31
409.156	1068.4
409.534	1088.52
409.912	1105.24
410.29	1127.61
410.667	1128.06
411.045	1168.29
411.422	1182.75
411.8	1216.2
412.178	1247.16
412.555	1256.87
412.933	1287.38
413.31	1319.7
413.687	1313.14
414.065	1356.76
414.442	1335.74
414.819	1354.95
415.197	1398.79
415.574	1420.94
415.951	1448.96
416.328	1471.33
416.705	1498.45
417.082	1506.58
417.46	1513.82
417.837	1564.66
418.214	1539.58
418.591	1568.28
418.967	1618.67
419.344	1610.54
419.721	1677.2
420.098	1640.14
420.475	1674.26
420.852	1688.05
421.228	1719.46
421.605	1710.87
421.982	1796.29
422.358	1773.7
422.735	1816.63
423.111	1828.84
423.488	1867.03
423.864	1860.47
424.241	1908.61
424.617	1928.27
424.994	1934.6
425.37	1953.13
425.746	1961.49
426.123	1997.87
426.499	2019.34
426.875	2014.59
427.251	2064.76
427.627	2081.26
428.003	2123.74
428.379	2175.04
428.756	2218.2
429.132	2209.62
429.507	2220.24
429.883	2288.26
430.259	2323.29
430.635	2359.67
431.011	2403.06
431.387	2475.82
431.763	2493.23
432.138	2500.68
432.514	2546.56
432.89	2565.99
433.265	2633.11
433.641	2663.16
434.016	2623.84
434.392	2712.2
434.767	2783.39
435.143	2766.66
435.518	2787.23
435.894	2831.52
436.269	2867
436.644	2894.8
437.02	2933.67
437.395	2957.17
437.77	2998.75
438.145	3032.19
438.52	3095.24
438.895	3120.55
439.271	3122.14
439.646	3209.59
440.021	3237.61
440.395	3197.61
440.77	3205.07
441.145	3281.68
441.52	3335.92
441.895	3302.47
442.27	3344.95
442.645	3372.98
443.019	3397.83
443.394	3396.03
443.769	3467.89
444.143	3455.01
444.518	3516.7
444.892	3502.69
445.267	3516.25
445.641	3587.43
446.016	3626.08
446.39	3632.86
446.764	3669.24
447.139	3642.12
447.513	3737.26
447.887	3708.79
448.262	3713.76
448.636	3773.42
449.01	3838.95
449.384	3867.65
449.758	3898.16
450.132	3916.01
450.506	3962.79
450.88	3976.8
451.254	4031.94
451.628	4057.7
452.002	4142.22
452.376	4146.97
452.75	4185.16
453.123	4199.17
453.497	4281.2
453.871	4317.36
454.244	4399.84
454.618	4483
454.992	4524.13
455.365	4521.65
455.739	4657.01
456.112	4698.82
456.486	4722.77
456.859	4795.76
457.232	4897.46
457.606	4862.43
457.979	4975.65
458.352	5067.17
458.725	5092.48
459.099	5109.88
459.472	5285.47
459.845	5247.73
460.218	5314.17
460.591	5375.41
460.964	5444.33
461.337	5520.26
461.71	5614.27
462.083	5650.66
462.456	5714.16
462.829	5731.11
463.201	5837.32
463.574	5867.6
463.947	5974.49
464.32	6099.91
464.692	6158.44
465.065	6222.17
465.438	6323.63
465.81	6411.54
466.183	6402.5
466.555	6559.11
466.928	6638.88
467.3	6618.54
467.672	6766.79
468.045	6936.05
468.417	6918.65
468.789	6991.41
469.161	7115.25
469.534	7196.6
469.906	7375.36
470.278	7431.4
470.65	7456.48
471.022	7625.75
471.394	7804.5
471.766	7868.45
472.138	7984.15
472.51	8144.83
472.882	8279.74
473.253	8345.95
473.625	8462.56
473.997	8677.24
474.369	8676.34
474.74	8806.51
475.112	8978.25
475.484	9123.79
475.855	9245.59
476.227	9387.51
476.598	9704.11
476.97	9644.9
477.341	9979.13
477.713	10068.39
478.084	10093.48
478.455	10494.37
478.827	10465.67
479.198	10875.6
479.569	10819.33
479.94	11154.24
480.311	11238.08
480.682	11564.4
481.053	11719.88
481.424	11858.4
481.795	12049.36
482.166	12225.85
482.537	12338.16
482.908	12678.95
483.279	12772.05
483.65	13046.39
484.021	13276.67
484.391	13467.85
484.762	13481.19
485.133	13714.17
485.503	13865.36
485.874	14235.06
486.244	14287.72
486.615	14553.7
486.985	14805.9
487.356	14997.3
487.726	15271.87
488.097	15460.57
488.467	15519.55
488.837	15858.3
489.207	16020.55
489.578	16240.21
489.948	16379.64
490.318	16660.99
490.688	16717.94
491.058	17016.01
491.428	17208.32
491.798	17371.25
492.168	17733.5
492.538	17796.78
492.908	17954.29
493.278	18226.82
493.648	18267.73
494.017	18524.67
494.387	18619.58
494.757	18860.93
495.126	18992.45
495.496	19110.42
495.866	19248.27
496.235	19375.49
496.605	19650.74
496.974	19728.93
497.344	19858.87
497.713	20106.77
498.082	20145.64
498.452	20330.72
498.821	20517.38
499.19	20548.12
499.559	20824.72
499.928	20790.6
500.298	21085.73
500.667	21340.41
501.036	21239.63
501.405	21525.49
501.774	21622.89
502.143	21722.78
502.512	21855.65
502.88	22131.58
503.249	22115.53
503.618	22268.3
503.987	22467.62
504.356	22575.41
504.724	22635.07
505.093	22860.6
505.462	23005.23
505.83	23125.68
506.199	23372
506.567	23586.68
506.936	23581.94
507.304	23934.47
507.672	23946.45
508.041	23970.63
508.409	24239.55
508.777	24399.32
509.145	24664.39
509.514	24571.51
509.882	24829.14
510.25	24946.19
510.618	25176.47
510.986	25180.54
511.354	25422.11
511.722	25686.51
512.09	25887.86
512.458	25935.32
512.826	26253.05
513.193	26274.3
513.561	26420.51
513.929	26690.1
514.297	26810.33
514.664	26969.87
515.032	27236.53
515.4	27534.37
515.767	27465.45
516.135	27616.41
516.502	27535.05
516.869	28124.87
517.237	28222.94
517.604	28219.1
517.972	28605.76
518.339	28688.69
518.706	28921.46
519.073	29113.99
519.44	29392.18
519.808	29559.18
520.175	29605.51
520.542	30034.2
520.909	30157.58
521.276	30217.47
521.643	30626.27
522.009	30714.63
522.376	30910.78
522.743	31231.9
523.11	31487.49
523.477	31794.38
523.843	31867.82
524.21	32260.58
524.577	32447.69
524.943	32498.54
525.31	32660.79
525.676	32943.95
526.043	33187.79
526.409	33400.89
526.776	33652.41
527.142	33768.79
527.508	34089.68
527.874	34204.71
528.241	34323.35
528.607	34508.65
528.973	34915.65
529.339	34853.28
529.705	35280.39
530.071	35563.09
530.437	35764.44
530.803	35871.1
531.169	36046.92
531.535	36145
531.901	36375.95
532.267	36661.37
532.632	36818.65
532.998	36966.44
533.364	37225.87
533.73	37311.52
534.095	37524.39
534.461	37626.31
534.826	37892.07
535.192	38029.47
535.557	38303.58
535.923	38300.87
536.288	38324.37
536.653	38593.75
537.019	38664.25
537.384	38628.77
537.749	38984.92
538.114	38994.86
538.479	39191.7
538.845	39541.97
539.21	39373.61
539.575	39517.56
539.94	39701.06
540.305	40000.94
540.67	39867.16
541.034	40095.85
541.399	40173.82
541.764	40429.86
542.129	40365.22
542.494	40506.92
542.858	40560.47
543.223	40720.02
543.587	41033.23
543.952	40945.1
544.316	41167.01
544.681	41153.68
545.045	41513.89
545.41	41677.28
545.774	41853.55
546.138	41754.57
546.503	41958.85
546.867	41900.1
547.231	42392.52
547.595	42395.23
547.959	42559.74
548.324	42740.08
548.688	42757.93
549.052	42953.18
549.416	43001.99
549.779	43098.94
550.143	43283.34
550.507	43655.76
550.871	43736.66
551.235	43677.45
551.599	44153.6
551.962	44161.51
552.326	44175.97
552.689	44513.36
553.053	44356.08
553.417	44514.95
553.78	44938.21
554.143	44731.66
554.507	44987.7
554.87	45220.92
555.234	45498.65
555.597	45428.14
555.96	45534.35
556.323	45697.29
556.686	45808.24
557.05	46053.21
557.413	46129.14
557.776	46274.67
558.139	46495.68
558.502	46633.08
558.865	46720.99
559.228	46904.94
559.59	46996.01
559.953	47163.46
560.316	47525.94
560.679	47529.1
561.041	47772.03
561.404	47965.25
561.767	48084.57
562.129	48091.35
562.492	48552.81
562.854	48573.82
563.217	48554.61
563.579	48642.52
563.941	48990.53
564.304	49245.44
564.666	49350.98
565.028	49435.49
565.39	49464.65
565.753	49701.25
566.115	49855.82
566.477	49987.8
566.839	50045.42
567.201	50412.87
567.563	50451.51
567.925	50682.92
568.287	50709.13
568.648	50780.77
569.01	50956.58
569.372	51173.75
569.734	51049.91
570.095	51306.86
570.457	51395.22
570.819	51489.9
571.18	51474.76
571.542	51643.57
571.903	51797.92
572.265	51899.38
572.626	51958.14
572.987	52069.77
573.349	52148.64
573.71	52104.35
574.071	52304.57
574.432	52470.22
574.794	52630.66
575.155	52582.76
575.516	52555.86
575.877	52620.72
576.238	52766.71
576.599	52904.56
576.96	52876.99
577.32	52914.72
577.681	53051.9
578.042	53107.71
578.403	53160.59
578.763	53220.93
579.124	53288.73
579.485	53253.92
579.845	53479
580.206	53322.17
580.566	53340.93
580.927	53476.74
581.287	53564.42
581.648	53413.47
582.008	53537.76
582.368	53485.78
582.728	53671.99
583.089	53500.7
583.449	53569.85
583.809	53606.23
584.169	53684.42
584.529	53569.4
584.889	53848.03
585.249	53661.15
585.609	53589.51
585.969	53790.86
586.329	53752.67
586.688	53725.55
587.048	53711.77
587.408	53641.71
587.768	53681.26
588.127	53693.01
588.487	53649.85
588.846	53836.73
589.206	53556.52
589.565	53694.14
589.925	53750.86
590.284	53663.63
590.643	53828.15
591.003	53912.66
591.362	53930.29
591.721	53952.66
592.08	53821.59
592.44	53918.54
592.799	53984.07
593.158	53873.12
593.517	53987.46
593.876	53975.26
594.235	53801.25
594.593	53798.77
594.952	53874.25
595.311	53903.4
595.67	53933.45
596.029	54035.82
596.387	54051.42
596.746	54100.68
597.104	53939.33
597.463	54016.16
597.822	54072.21
598.18	53989.95
598.538	54051.19
598.897	54195.59
599.255	54004.87
599.613	54300.68
599.972	54251.41
600.33	54324.4
600.688	54221.58
601.046	54275.14
601.404	54357.17
601.762	54367.12
602.12	54446.89
602.478	54451.18
602.836	54439.43
603.194	54352.43
603.552	54314.01
603.91	54242.37
604.268	54409.6
604.625	54314.91
604.983	54464.74
605.341	54258.42
605.698	54387.23
606.056	54360.56
606.413	54397.85
606.771	54464.97
607.128	54481.24
607.485	54418.87
607.843	54470.16
608.2	54556.26
608.557	54651.63
608.914	54572.76
609.272	54753.09
609.629	54674.23
609.986	54830.61
610.343	54685.53
610.7	54851.4
611.057	54737.5
611.414	54702.93
611.771	54794
612.127	54953.31
612.484	54893.43
612.841	54958.51
613.198	54818.63
613.554	54915.58
613.911	55067.66
614.267	55013.43
614.624	54987.44
614.98	55017.27
615.337	55170.71
615.693	55150.37
616.05	55144.72
616.406	55318.28
616.762	55222.91
617.118	55183.82
617.475	55141.11
617.831	55249.8
618.187	55300.42
618.543	55230.14
618.899	55464.71
619.255	55417.48
619.611	55330.48
619.967	55434.66
620.323	55512.85
620.678	55388.78
621.034	55328.67
621.39	55304.72
621.746	55212.74
622.101	55515.33
622.457	55344.04
622.812	55272.85
623.168	55338.62
623.523	55391.72
623.879	55472.4
624.234	55284.15
624.589	55337.94
624.945	55360.99
625.3	55382
625.655	55305.85
626.01	55406.41
626.365	55359.41
626.72	55308.56
627.075	55245.96
627.43	55273.98
627.785	55114.21
628.14	55262.23
628.495	55271.27
628.85	55231.27
629.205	55109.24
629.559	55210.48
629.914	55099.07
630.269	55054.33
630.623	55019.98
630.978	54916.93
631.332	55055.91
631.687	55076.7
632.041	54871.51
632.396	54935.91
632.75	54886.88
633.104	54932.07
633.459	54757.39
633.813	54811.4
634.167	54894.33
634.521	54859.08
634.875	54818.4
635.229	54734.34
635.583	54578.86
635.937	54653.44
636.291	54663.83
636.645	54575.7
636.999	54527.56
637.352	54692.08
637.706	54442.14
638.06	54584.96
638.413	54494.12
638.767	54322.15
639.121	54471.07
639.474	54263.16
639.828	54334.57
640.181	54337.29
640.534	54256.16
640.888	54183.39
641.241	54083.96
641.594	54138.65
641.947	54241.02
642.301	54113.34
642.654	54112.21
643.007	54089.38
643.36	54121.92
643.713	53942.04
644.066	54109.72
644.419	53911.76
644.771	53728.04
645.124	53264.77
645.477	53246.24
645.83	53081.5
646.182	53001.05
646.535	52881.96
646.888	53000.15
647.24	52837.44
647.593	52983.2
647.945	52964.44
648.298	52702.98
648.65	52709.76
649.002	52610.33
649.355	52625.47
649.707	52551.57
650.059	52642.19
650.411	52991.33
650.763	53089.41
651.115	53379.8
651.467	53191.1
651.819	53198.56
652.171	53064.78
652.523	53089.41
652.875	53077.66
653.227	52888.28
653.578	53107.49
653.93	53018.9
654.282	52921.5
654.633	52868.17
654.985	52898
655.337	52863.2
655.688	52868.62
656.039	52902.3
656.391	52727.16
656.742	52659.14
657.094	52668.63
657.445	52692.81
657.796	52666.82
658.147	52564.68
658.498	52649.42
658.849	52666.14
659.2	52564
659.551	52515.41
659.902	52573.04
660.253	52518.35
660.604	52530.33
660.955	52349.54
661.306	52497.11
661.656	52418.47
662.007	52392.03
662.358	52430.9
662.708	52443.1
663.059	52314.97
663.409	52170.34
663.76	52446.71
664.11	52426.15
664.461	52345.02
664.811	52444.23
665.161	52401.29
665.511	52205.59
665.862	52224.57
666.212	52347.96
666.562	52293.05
666.912	52211.24
667.262	52215.76
667.612	52137.8
667.962	52184.8
668.312	52087.18
668.662	52378.02
669.011	52117.91
669.361	52063.45
669.711	52017.57
670.06	52009.66
670.41	51895.77
670.76	51871.36
671.109	51886.73
671.459	51898.71
671.808	51780.74
672.157	51919.27
672.507	51642.22
672.856	51622.56
673.205	51658.94
673.554	51750.46
673.904	51585.04
674.253	51770.12
674.602	51629.11
674.951	51100.76
675.3	50954.78
675.649	51420.3
675.998	51382.34
676.346	51479.06
676.695	51429.11
677.044	51174.88
677.393	51234.99
677.741	51297.82
678.09	51207.2
678.438	51001.33
678.787	51219.4
679.135	51208.78
679.484	50905.51
679.832	51037.71
680.181	50783.48
680.529	50973.53
680.877	50825.74
681.225	50779.87
681.573	50945.51
681.922	50680.66
682.27	50557.95
682.618	50587.78
682.966	50370.61
683.314	50466.43
683.661	50370.16
684.009	50257.62
684.357	50075.7
684.705	50020.34
685.053	50103.5
685.4	50048.13
685.748	49932.43
686.095	49869.38
686.443	49894.01
686.79	49717.75
687.138	49834.58
687.485	49815.6
687.832	49529.5
688.18	49525.66
688.527	49477.07
688.874	49465.32
689.221	49231.66
689.568	49096.07
689.915	49023.75
690.262	48946.69
690.609	48902.63
690.956	48778.11
691.303	48734.27
691.65	48591.67
691.997	48597.78
692.344	48313.72
692.69	48292.47
693.037	48358.91
693.383	47886.38
693.73	48025.81
694.077	47929.54
694.423	47763.67
694.769	47615.88
695.116	47505.38
695.462	47496.34
695.808	47390.58
696.155	47544.47
696.501	47228.09
696.847	47240.07
697.193	46930.7
697.539	46982.23
697.885	46850.48
698.231	46659.52
698.577	46634.44
698.923	46477.83
699.269	46348.57
699.614	46143.83
699.96	45997.17
700.306	46078.75
700.651	45884.17
700.997	45677.17
701.342	45606.44
701.688	45488.93
702.033	45406.45
702.379	45332.1
702.724	45160.13
703.069	45268.6
703.415	44720.36
703.76	44803.98
704.105	44872.68
704.45	44875.16
704.795	44453.48
705.14	44384.33
705.485	44271.79
705.83	44107.27
706.175	44316.31
706.52	44049.19
706.865	43872.25
707.209	43861.18
707.554	43706.15
707.899	43813.95
708.243	43644.69
708.588	43494.86
708.932	43214.64
709.277	43190.91
709.621	43185.71
709.966	43087.64
710.31	42962.22
710.654	42627.54
710.998	42767.42
711.342	42764.03
711.687	42544.38
712.031	42356.58
712.375	42235.46
712.719	42399.97
713.063	42133.09
713.407	42310.71
713.75	42090.38
714.094	42005.41
714.438	41854.22
714.782	41862.81
715.125	41695.58
715.469	41668.47
715.812	41366.1
716.156	41209.95
716.499	41414.91
716.843	41326.78
717.186	41045.21
717.53	41157.29
717.873	40947.58
718.216	41089.05
718.559	40775.61
718.902	40634.14
719.246	40630.75
719.589	40517.31
719.932	40293.81
720.275	40352.12
720.617	40330.87
720.96	40185.79
721.303	40132.69
721.646	40279.8
721.989	40131.78
722.331	40079.58
722.674	39887.95
723.016	39794.62
723.359	39610.22
723.701	39888.4
724.044	39617
724.386	39396.89
724.729	39539.03
725.071	39402.76
725.413	39368.87
725.755	39333.61
726.097	39093.84
726.439	38938.82
726.782	38976.11
727.124	39107.86
727.465	38816.11
727.807	38817.69
728.149	38722.78
728.491	38757.36
728.833	38691.14
729.175	38486.63
729.516	38527.08
729.858	38359.85
730.199	38376.35
730.541	38252.06
730.882	38259.06
731.224	38351.04
731.565	37904.95
731.906	37987.21
732.248	38061.33
732.589	37888.68
732.93	37691.62
733.271	37674.22
733.612	37867.66
733.953	37728.91
734.294	37649.59
734.635	37532.98
734.976	37527.33
735.317	37433.32
735.658	37345.87
735.999	37368.01
736.339	37205.76
736.68	37181.58
737.021	37130.51
737.361	36933.68
737.702	37096.84
738.042	37033.33
738.383	36853.23
738.723	36956.73
739.063	36731.65
739.404	36737.3
739.744	36689.16
740.084	36400.36
740.424	36468.15
740.764	36475.61
741.104	36558.77
741.444	36395.16
741.784	36137.99
742.124	36276.29
742.464	36187.48
742.804	36028.16
743.143	36042.4
743.483	36064.32
743.823	35810.77
744.162	35700.94
744.502	35798.56
744.841	35587.27
745.181	35692.8
745.52	35591.79
745.86	35598.12
746.199	35453.04
746.538	35325.81
746.877	35420.27
747.216	35306.6
747.556	35192.25
747.895	35231.35
748.234	34949.77
748.573	34945.25
748.911	35005.36
749.25	34919.27
749.589	34814.41
749.928	34604.47
750.267	34748.87
750.605	34634.75
750.944	34411.48
751.283	34356.57
751.621	34341.88
751.96	34154.99
752.298	34251.49
752.636	34132.39
752.975	33983.02
753.313	33845.85
753.651	33922.91
753.989	33823.48
754.327	33694.66
754.666	33524.05
755.004	33565.4
755.342	33460.77
755.679	33309.14
756.017	33268.46
756.355	33189.59
756.693	33009.03
757.031	33080.9
757.368	32843.84
757.706	32828.47
758.044	32675.03
758.381	32653.11
758.719	32463.28
759.056	32690.17
759.394	32525.88
759.731	32299.9
760.068	32208.15
760.405	32031.43
760.743	31994.37
761.08	31973.13
761.417	31950.76
761.754	31829.86
762.091	31697.43
762.428	31583.31
762.765	31374.27
763.102	31494.95
763.438	31354.16
763.775	31158.46
764.112	31095.64
764.449	31213.6
764.785	31009.76
765.122	30788.53
765.458	30698.36
765.795	30703.33
766.131	30489.1
766.467	30385.37
766.804	30438.25
767.14	30195.55
767.476	30164.81
767.812	30035.33
768.148	29995.1
768.485	29855.44
768.821	29623.81
769.157	29540.42
769.492	29482.12
769.828	29494.32
770.164	29382.24
770.5	29322.58
770.836	29222.69
771.171	29014.56
771.507	28939.08
771.842	28774.34
772.178	28739.54
772.513	28630.39
772.849	28547.91
773.184	28470.17
773.519	28483.5
773.855	28187.01
774.19	28194.24
774.525	28039.67
774.86	28101.82
775.195	27922.16
775.53	27825.89
775.865	27716.52
776.2	27503.19
776.535	27261.61
776.87	27459.12
777.205	27300.71
777.539	27154.5
777.874	27167.15
778.209	26885.58
778.543	26809.42
778.878	26645.81
779.212	26669.99
779.547	26442.88
779.881	26512.71
780.215	26368.98
780.55	26396.1
780.884	26187.29
781.218	26161.3
781.552	25999.95
781.886	25801.77
782.22	25872.95
782.554	25674.31
782.888	25547.76
783.222	25400.19
783.556	25254.43
783.889	25208.56
784.223	24902.13
784.557	24761.79
784.89	24922.69
785.224	24850.38
785.557	24734.9
785.891	24600.21
786.224	24615.13
786.558	24518.18
786.891	24243.84
787.224	24099.89
787.557	24111.41
787.891	24055.14
788.224	23947.35
788.557	23948.03
788.89	23784.87
789.223	23793.23
789.556	23632.78
789.888	23507.36
790.221	23412.68
790.554	23196.18
790.887	23288.84
791.219	23117.32
791.552	23114.38
791.884	22978.79
792.217	22937.43
792.549	22859.24
792.882	22796.87
793.214	22649.08
793.546	22574.96
793.879	22452.93
794.211	22402.76
794.543	22590.1
794.875	22373.15
795.207	22400.95
795.539	22233.72
795.871	22202.54
796.203	22089.32
796.535	21924.35
796.867	21911.92
797.198	21806.84
797.53	21706.51
797.862	21588.54
798.193	21637.13
798.525	21518.26
798.856	21561.42
799.188	21297.02
799.519	21234.2
799.85	21109.23
800.182	21167.54
800.513	21101.32
800.844	20953.53
801.175	20995.11
801.506	20959.41
801.837	20765.29
802.168	20795.57
802.499	20648.91
802.83	20617.04
803.161	20434
803.491	20491.4
803.822	20452.08
804.153	20338.86
804.483	20239.88
804.814	20068.13
805.145	20231.52
805.475	20138.41
805.805	20044.85
806.136	20050.5
806.466	20004.63
806.796	19970.73
807.126	19791.3
807.457	19840.57
807.787	19802.83
808.117	19587.01
808.447	19552.21
808.777	19687.58
809.107	19459.56
809.436	19516.51
809.766	19398.32
810.096	19366.23
810.426	19345.44
810.755	19332.1
811.085	19267.25
811.414	19270.19
811.744	19054.15
812.073	18966.46
812.403	19057.76
812.732	18896.86
813.061	18882.85
813.39	18773.02
813.719	18721.27
814.049	18789.97
814.378	18749.52
814.707	18650.31
815.036	18641.05
815.365	18469.98
815.693	18386.37
816.022	18410.32
816.351	18291.91
816.68	18209.2
817.008	18325.8
817.337	18126.71
817.665	18045.36
817.994	18062.08
818.322	17991.8
818.651	17976.21
818.979	17877
819.307	18017.79
819.636	17948.86
819.964	17873.84
820.292	17792.48
820.62	17734.63
820.948	17678.81
821.276	17699.15
821.604	17686.27
821.932	17769.43
822.259	17624.58
822.587	17596.11
822.915	17577.35
823.243	17629.55
823.57	17591.36
823.898	17575.09
824.225	17537.58
824.553	17549.55
824.88	17604.24
825.207	17621.42
825.535	17556.33
825.862	17647.4
826.189	17531.93
826.516	17666.61
826.843	17577.12
827.17	17504.58
827.497	17546.84
827.824	17620.74
828.151	17549.55
828.478	17551.36
828.805	17604.92
829.131	17484.02
829.458	17408.31
829.785	17418.93
830.111	17410.57
830.438	17509.55
830.764	17493.51
831.09	17587.74
831.417	17372.83
831.743	17407.18
832.069	17422.1
832.395	17332.16
832.722	17486.5
833.048	17370.57
833.374	17359.95
833.7	17312.04
834.026	17244.93
834.351	17353.4
834.677	17273.63
835.003	17295.1
835.329	17275.21
835.654	17166.96
835.98	17092.39
836.306	17115.44
836.631	17090.36
836.956	17120.64
837.282	17224.14
837.607	17038.15
837.932	17004.26
838.258	16938.27
838.583	16997.25
838.908	16880.87
839.233	16844.49
839.558	16811.27
839.883	16711.16
840.208	16730.82
840.533	16758.61
840.858	16656.24
841.182	16728.11
841.507	16679.07
841.832	16649.92
842.156	16528.34
842.481	16570.37
842.805	16432.52
843.13	16430.49
843.454	16450.37
843.778	16360.88
844.103	16258.74
844.427	16138.06
844.751	16362.24
845.075	16199.08
845.399	16099.2
845.723	16020.55
846.047	16035.24
846.371	15868.24
846.695	15924.28
847.019	15797.28
847.343	15674.8
847.666	15674.35
847.99	15605.65
848.313	15676.38
848.637	15519.55
848.96	15438.65
849.284	15367.69
849.607	15361.14
849.931	15322.49
850.254	15164.53
850.577	15086.34
850.9	14992.78
851.223	15020.58
851.546	14947.81
851.869	14775.61
852.192	14931.09
852.515	14698.78
852.838	14602.06
853.161	14637.54
853.483	14498.56
853.806	14504.44
854.129	14403.87
854.451	14364.33
854.774	14340.82
855.096	14351.22
855.419	14344.21
855.741	14215.86
856.063	14180.6
856.385	14164.1
856.708	14126.37
857.03	14083.66
857.352	14082.53
857.674	14038.46
857.996	13974.05
858.318	13876.43
858.64	13867.39
858.961	13859.25
859.283	13727.05
859.605	13756.88
859.926	13683.67
860.248	13649.99
860.57	13678.24
860.891	13629.88
861.212	13624.46
861.534	13630.79
861.855	13465.37
862.176	13518.92
862.498	13513.05
862.819	13526.61
863.14	13403.67
863.461	13368.87
863.782	13317.57
864.103	13346.73
864.424	13240.97
864.745	13323.22
865.065	13209.33
865.386	13176.56
865.707	13145.6
866.027	13183.34
866.348	13121.19
866.668	13144.24
866.989	13165.04
867.309	13023.12
867.63	13076.68
867.95	13039.61
868.27	12892.5
868.59	12942.89
868.91	12874.65
869.23	12982.89
869.55	12853.18
869.87	12927.75
870.19	12847.53
870.51	12881.43
870.83	12830.58
871.15	12687.99
871.469	12712.84
871.789	12681.88
872.109	12678.95
872.428	12639.4
872.748	12675.33
873.067	12623.13
873.386	12571.6
873.706	12601.21
874.025	12519.63
874.344	12501.78
874.663	12480.31
874.982	12473.53
875.301	12484.6
875.62	12362.12
875.939	12359.41
876.258	12415.45
876.577	12321.67
876.896	12313.08
877.214	12398.05
877.533	12351.5
877.852	12288.9
878.17	12171.84
878.489	12204.83
878.807	12245.06
879.125	12219.75
879.444	12141.79
879.762	12125.51
880.08	12166.19
880.398	12085.97
880.716	12112.63
881.034	11990.6
881.352	12018.4
881.67	12049.13
881.988	12003.26
882.306	11892.98
882.624	11926.65
882.941	11832.19
883.259	11855.92
883.577	11859.76
883.894	11754.9
884.212	11693.89
884.529	11738.86
884.846	11709.71
885.164	11674.9
885.481	11641.46
885.798	11608.69
886.115	11512.88
886.432	11574.57
886.75	11524.85
887.067	11542.93
887.383	11482.82
887.7	11452.54
888.017	11410.96
888.334	11391.52
888.651	11329.6
888.967	11329.83
889.284	11246.89
889.6	11240.79
889.917	11118.54
890.233	11233.11
890.55	11045.09
890.866	11068.59
891.182	11094.13
891.498	11014.58
891.815	10994.47
892.131	10984.53
892.447	10950.86
892.763	10913.79
893.079	10917.41
893.395	10802.84
893.71	10823.4
894.026	10749.28
894.342	10697.98
894.657	10692.56
894.973	10704.31
895.289	10583.63
895.604	10636.51
895.92	10517.87
896.235	10412.34
896.55	10427.48
896.865	10441.04
897.181	10315.39
897.496	10363.98
897.811	10353.81
898.126	10231.78
898.441	10256.19
898.756	10216.19
899.071	10149.07
899.386	10206.24
899.7	10096.64
900.015	10121.05
900.33	9980.03
900.644	10041.73
900.959	9906.14
901.273	9962.18
901.588	9848.06
901.902	9808.29
902.216	9752.47
902.531	9798.12
902.845	9694.84
903.159	9685.58
903.473	9673.15
903.787	9673.83
904.101	9521.74
904.415	9609.42
904.729	9506.15
905.042	9422.99
905.356	9455.75
905.67	9429.54
905.984	9478.58
906.297	9335.98
906.611	9309.32
906.924	9232.71
907.237	9228.42
907.551	9333.72
907.864	9092.83
908.177	9161.98
908.491	9103.22
908.804	9034.52
909.117	8961.08
909.43	8965.37
909.743	8919.05
910.056	8969.21
910.368	8822.1
910.681	8806.73
910.994	8861.87
911.307	8773.96
911.619	8734.19
911.932	8708.2
912.244	8698.03
912.557	8630.47
912.869	8564.7
913.181	8510.92
913.494	8495.55
913.806	8491.49
914.118	8451.71
914.43	8429.57
914.742	8391.38
915.054	8329.68
915.366	8246.97
915.678	8273.19
915.99	8216.46
916.302	8176.47
916.613	8088.11
916.925	8142.12
917.236	8039.52
917.548	8084.04
917.859	8052.4
918.171	7988.22
918.482	7897.38
918.794	7851.95
919.105	7938.73
919.416	7813.76
919.727	7825.06
920.038	7772.86
920.349	7696.7
920.66	7650.38
920.971	7712.75
921.282	7635.01
921.593	7582.81
921.903	7561.34
922.214	7493.09
922.525	7436.37
922.835	7441.8
923.146	7437.05
923.456	7366.77
923.767	7319.31
924.077	7331.29
924.387	7314.12
924.697	7275.47
925.008	7226.66
925.318	7227.34
925.628	7178.3
925.938	7077.06
926.248	7078.64
926.558	7021.47
926.867	7010.85
927.177	6987.8
927.487	6952.77
927.796	6924.52
928.106	6935.59
928.416	6860.12
928.725	6886.1
929.034	6857.18
929.344	6785.77
929.653	6783.73
929.962	6680.01
930.271	6669.16
930.581	6702.15
930.89	6594.13
931.199	6577.19
931.508	6653.79
931.817	6531.09
932.125	6567.02
932.434	6491.54
932.743	6482.05
933.051	6411.09
933.36	6424.65
933.669	6369.28
933.977	6364.99
934.286	6318.89
934.594	6270.08
934.902	6254.03
935.21	6233.92
935.519	6220.36
935.827	6175.39
936.135	6159.57
936.443	6089.06
936.751	6048.61
937.059	6009.29
937.367	6035.73
937.674	6048.16
937.982	5956.19
938.29	5974.94
938.597	5900.14
938.905	5878.45
939.213	5887.26
939.52	5860.82
939.827	5834.38
940.135	5789.64
940.442	5743.31
940.749	5749.41
941.056	5802.29
941.363	5711.67
941.67	5724.78
941.977	5660.37
942.284	5586.25
942.591	5587.61
942.898	5534.5
943.205	5548.06
943.511	5509.19
943.818	5510.55
944.125	5421.74
944.431	5412.7
944.738	5434.17
945.044	5412.02
945.35	5351
945.657	5300.61
945.963	5293.38
946.269	5235.53
946.575	5273.72
946.881	5247.73
947.187	5230.1
947.493	5136.55
947.799	5169.99
948.105	5144.68
948.41	5080.28
948.716	5096.77
949.022	5067.62
949.327	5063.1
949.633	5016.55
949.938	5014.29
950.244	5001.63
950.549	4955.31
950.854	4993.5
951.16	4898.13
951.465	4918.7
951.77	4880.06
952.075	4857.46
952.38	4831.69
952.685	4845.71
952.99	4754.86
953.294	4772.04
953.599	4779.04
953.904	4695.88
954.209	4733.62
954.513	4654.3
954.818	4668.76
955.122	4643.68
955.426	4644.81
955.731	4577.69
956.035	4548.09
956.339	4524.81
956.643	4558.48
956.948	4506.05
957.252	4486.39
957.556	4477.58
957.86	4457.69
958.163	4439.61
958.467	4464.47
958.771	4453.63
959.075	4379.28
959.378	4309.9
959.682	4380.86
959.985	4356
960.289	4250.02
960.592	4277.13
960.896	4264.25
961.199	4238.04
961.502	4238.04
961.805	4205.04
962.108	4175.67
962.411	4159.17
962.714	4137.02
963.017	4145.61
963.32	4163.24
963.623	4085.27
963.926	4078.04
964.228	4086.18
964.531	4014.77
964.833	4080.98
965.136	4023.35
965.438	3974.54
965.741	3979.74
966.043	3948.33
966.345	3946.52
966.648	3911.04
966.95	3899.74
967.252	3856.81
967.554	3821.78
967.856	3866.75
968.158	3822.46
968.46	3789.24
968.761	3805.96
969.063	3741.1
969.365	3706.3
969.666	3703.59
969.968	3689.35
970.269	3695.45
970.571	3673.31
970.872	3689.13
971.174	3622.46
971.475	3657.04
971.776	3607.55
972.077	3585.85
972.378	3573.2
972.679	3562.8
972.98	3539.75
973.281	3565.06
973.582	3523.25
973.883	3528.68
974.183	3507.44
974.484	3454.78
974.785	3461.11
975.085	3465.63
975.386	3451.39
975.686	3422.69
975.986	3397.61
976.287	3419.3
976.587	3358.74
976.887	3318.29
977.187	3328.23
977.487	3281.91
977.787	3301.34
978.087	3295.69
978.387	3289.14
978.687	3298.85
978.987	3245.75
979.286	3222.47
979.586	3239.65
979.885	3172.76
980.185	3183.83
980.484	3162.13
980.784	3169.82
981.083	3154
981.382	3110.61
981.682	3129.59
981.981	3125.07
982.28	3082.36
982.579	3055.47
982.878	3029.93
983.177	3017.05
983.475	3016.6
983.774	2970.05
984.073	2987.45
984.372	2970.05
984.67	2963.95
984.969	2994.23
985.267	2918.07
985.566	2938.86
985.864	2915.81
986.162	2903.38
986.461	2905.87
986.759	2910.84
987.057	2826.78
987.355	2824.06
987.653	2846.44
987.951	2820.67
988.249	2797.62
988.547	2774.12
988.844	2808.25
989.142	2784.97
989.44	2768.02
989.737	2744.97
990.035	2752.43
990.332	2723.73
990.63	2706.1
990.927	2690.96
991.224	2682.6
991.521	2679.21
991.819	2645.76
992.116	2636.5
992.413	2650.96
992.71	2635.59
993.006	2625.43
993.303	2605.54
993.6	2612.54
993.897	2555.37
994.193	2560.57
994.49	2543.85
994.787	2523.06
995.083	2499.78
995.379	2479.67
995.676	2457.75
995.972	2484.19
996.268	2453.68
996.565	2444.19
996.861	2416.62
997.157	2430.63
997.453	2411.19
997.749	2387.69
998.044	2348.14
998.34	2353.79
998.636	2323.96
998.932	2355.38
999.227	2348.6
999.523	2287.13
999.818	2302.04
1000.114	2283.74
1000.409	2322.61
1000.704	2255.04
1001	2262.95
1001.295	2241.03
1001.59	2237.41
1001.885	2220.01
1002.18	2179.11
1002.475	2179.56
1002.77	2179.11
1003.065	2160.35
1003.359	2146.57
1003.654	2136.4
1003.949	2141.37
1004.243	2136.85
1004.538	2078.32
1004.832	2107.47
1005.127	2103.41
1005.421	2086.68
1005.715	2062.05
1006.009	2033.12
1006.304	2028.38
1006.598	2010.98
1006.892	2010.53
1007.186	2021.15
1007.48	1987.25
1007.773	1978.44
1008.067	1977.31
1008.361	1979.11
1008.655	1911.77
1008.948	1897.76
1009.242	1930.08
1009.535	1888.5
1009.829	1924.43
1010.122	1891.21
1010.415	1844.43
1010.708	1860.02
1011.001	1900.25
1011.295	1862.96
1011.588	1835.39
1011.881	1840.14
1012.173	1834.71
1012.466	1786.35
1012.759	1800.59
1013.052	1767.14
1013.344	1752.23
1013.637	1772.57
1013.93	1764.66
1014.222	1737.77
1014.514	1756.3
1014.807	1722.4
1015.099	1690.53
1015.391	1725.11
1015.683	1697.77
1015.976	1678.78
1016.268	1670.42
1016.56	1641.95
1016.851	1639.91
1017.143	1630.42
1017.435	1635.62
1017.727	1611.21
1018.018	1617.77
1018.31	1572.35
1018.602	1633.14
1018.893	1580.71
1019.185	1573.48
1019.476	1535.06
1019.767	1544.55
1020.058	1535.28
1020.35	1534.15
1020.641	1542.06
1020.932	1516.75
1021.223	1534.15
1021.514	1498.9
1021.804	1497.32
1022.095	1484.44
1022.386	1458
1022.677	1445.34
1022.967	1421.62
1023.258	1424.55
1023.548	1412.58
1023.839	1413.25
1024.129	1422.97
1024.419	1414.16
1024.709	1378.45
1025	1361.96
1025.29	1348.17
1025.58	1341.17
1025.87	1339.58
1026.16	1330.09
1026.449	1307.72
1026.739	1320.6
1027.029	1307.72
1027.319	1284.44
1027.608	1290.32
1027.898	1271.11
1028.187	1259.13
1028.477	1262.3
1028.766	1259.81
1029.055	1251
1029.344	1219.81
1029.634	1225.24
1029.923	1243.09
1030.212	1190.21
1030.501	1212.81
1030.79	1211.45
1031.078	1181.85
1031.367	1168.29
1031.656	1147.05
1031.945	1163.09
1032.233	1162.64
1032.522	1150.66
1032.81	1163.32
1033.099	1120.38
1033.387	1139.59
1033.675	1121.96
1033.963	1142.98
1034.251	1105.01
1034.54	1091.91
1034.828	1084.22
1035.116	1052.13
1035.403	1093.26
1035.691	1062.53
1035.979	1065.01
1036.267	1058.23
1036.554	1050.55
1036.842	1060.49
1037.129	1037.22
1037.417	1030.21
1037.704	1030.21
1037.992	1018.46
1038.279	1001.74
1038.566	1004.9
1038.853	1004.9
1039.14	1004.9
