Data from White_paper_FLMS001491_039.txt Node
Date: Tue Feb 07 10:35:01 GMT 2017
User: dcchb
Spectrometer: FLMS00149
Trigger mode: 0
Integration Time (sec): 2.000000E-2
Scans to average: 10
Electric dark correction enabled: true
Nonlinearity correction enabled: false
Boxcar width: 0
XAxis mode: Wavelengths
Number of Pixels in Spectrum: 2048
>>>>>Begin Spectral Data<<<<<
341.393	-13.53
341.776	-13.53
342.16	-13.53
342.543	-49.69
342.927	-71.61
343.31	-54.43
343.693	-73.64
344.077	-64.83
344.46	-44.26
344.843	-65.73
345.226	-38.61
345.61	-35.68
345.993	-20.99
346.376	2.74
346.759	-8.11
347.142	30.76
347.525	38.45
347.908	56.75
348.291	76.86
348.674	87.26
349.057	113.47
349.44	120.48
349.823	128.61
350.206	173.58
350.588	215.16
350.971	215.62
351.354	262.39
351.737	274.15
352.119	268.5
352.502	281.15
352.884	304.43
353.267	291.77
353.65	308.27
354.032	313.24
354.414	337.65
354.797	316.63
355.179	351.66
355.562	340.58
355.944	340.36
356.326	359.57
356.709	360.7
357.091	367.93
357.473	377.65
357.855	368.15
358.238	390.75
358.62	379.23
359.002	367.7
359.384	370.41
359.766	386.68
360.148	379.91
360.53	388.72
360.912	393.92
361.294	357.08
361.676	352.34
362.057	351.66
362.439	397.08
362.821	363.63
363.203	356.86
363.584	355.27
363.966	363.63
364.348	374.48
364.729	379.45
365.111	364.54
365.493	349.85
365.874	353.47
366.256	353.24
366.637	351.43
367.019	357.76
367.4	378.32
367.781	359.79
368.163	367.25
368.544	349.4
368.925	381.26
369.306	373.35
369.688	373.13
370.069	365.89
370.45	366.8
370.831	361.37
371.212	368.38
371.593	382.17
371.974	365.44
372.355	390.07
372.736	372.45
373.117	390.75
373.498	373.8
373.879	379.45
374.26	364.09
374.641	386.01
375.021	395.72
375.402	388.94
375.783	402.5
376.163	408.83
376.544	395.5
376.925	395.5
377.305	411.99
377.686	407.48
378.066	392.11
378.447	403.18
378.827	401.15
379.208	429.85
379.588	406.57
379.968	381.04
380.349	413.12
380.729	408.15
381.109	414.71
381.489	409.51
381.87	405.44
382.25	431.43
382.63	426.68
383.01	416.29
383.39	426.23
383.77	442.05
384.15	437.76
384.53	424.42
384.91	466.23
385.29	429.17
385.67	460.58
386.049	468.04
386.429	461.71
386.809	465.33
387.189	480.02
387.568	455.84
387.948	486.12
388.328	464.87
388.707	481.82
389.087	466.23
389.466	500.58
389.846	502.61
390.225	497.64
390.605	493.57
390.984	503.07
391.363	518.88
391.743	510.52
392.122	504.87
392.501	527.25
392.881	530.18
393.26	525.89
393.639	525.66
394.018	557.75
394.397	569.5
394.776	564.53
395.155	574.7
395.534	577.87
395.913	578.54
396.292	568.6
396.671	576.51
397.05	621.25
397.429	586.23
397.808	589.84
398.186	591.65
398.565	628.49
398.944	625.77
399.323	649.5
399.701	644.08
400.08	631.2
400.458	654.93
400.837	650.18
401.215	693.12
401.594	656.51
401.972	668.71
402.351	708.71
402.729	717.98
403.107	729.05
403.486	707.58
403.864	719.33
404.242	735.83
404.62	768.14
404.999	760.69
405.377	777.18
405.755	811.31
406.133	796.17
406.511	818.31
406.889	883.39
407.267	855.37
407.645	909.83
408.023	896.05
408.401	927.91
408.779	938.31
409.156	964.3
409.534	971.3
409.912	1001.36
410.29	1041.81
410.667	1070.06
411.045	1069.38
411.422	1112.09
411.8	1131.98
412.178	1156.16
412.555	1164.29
412.933	1178.75
413.31	1237.74
413.687	1278.86
414.065	1311.86
414.442	1276.15
414.819	1326.55
415.197	1355.25
415.574	1416.04
415.951	1432.98
416.328	1438.63
416.705	1480.44
417.082	1485.64
417.46	1530.84
417.837	1586.43
418.214	1598.4
418.591	1607.44
418.967	1646.31
419.344	1677.5
419.721	1702.36
420.098	1703.49
420.475	1736.03
420.852	1765.63
421.228	1797.72
421.605	1787.78
421.982	1862.8
422.358	1879.98
422.735	1909.13
423.111	1891.28
423.488	1932.18
423.864	1950.03
424.241	2005.63
424.617	2001.11
424.994	2041.33
425.37	2055.34
425.746	2086.75
426.123	2129.46
426.499	2148.9
426.875	2152.97
427.251	2223.92
427.627	2281.55
428.003	2262.57
428.379	2289.91
428.756	2355.9
429.132	2409.46
429.507	2385.73
429.883	2462.11
430.259	2481.77
430.635	2514.31
431.011	2533.97
431.387	2599.28
431.763	2673.63
432.138	2695.78
432.514	2746.17
432.89	2769.45
433.265	2785.04
433.641	2816.68
434.016	2900.52
434.392	2917.01
434.767	2975.32
435.143	2953.4
435.518	3018.25
435.894	3045.6
436.269	3126.5
436.644	3137.12
437.02	3227.74
437.395	3194.52
437.77	3222.54
438.145	3265.93
438.52	3331.92
438.895	3317.23
439.271	3387.06
439.646	3500.5
440.021	3486.26
440.395	3482.87
440.77	3447.17
441.145	3510.44
441.52	3584.34
441.895	3575.98
442.27	3637.9
442.645	3614.4
443.019	3650.55
443.394	3655.98
443.769	3721.51
444.143	3676.09
444.518	3768.97
444.892	3758.57
445.267	3793.83
445.641	3800.38
446.016	3820.94
446.39	3914.28
446.764	3881.06
447.139	3907.5
447.513	3980.04
447.887	3947.5
448.262	3966.48
448.636	3963.77
449.01	4062.29
449.384	4090.54
449.758	4132.12
450.132	4191.1
450.506	4219.13
450.88	4201.73
451.254	4248.5
451.628	4278.79
452.002	4300.93
452.376	4354.94
452.75	4421.15
453.123	4408.5
453.497	4530.76
453.871	4547.93
454.244	4634.48
454.618	4676.29
454.992	4750.86
455.365	4732.33
455.739	4876.51
456.112	4921.93
456.486	4957.86
456.859	5006.9
457.232	5100.01
457.606	5051.87
457.979	5176.16
458.352	5254.58
458.725	5310.4
459.099	5315.14
459.472	5448.47
459.845	5495.03
460.218	5569.37
460.591	5587.45
460.964	5624.29
461.337	5791.51
461.71	5885.98
462.083	5912.87
462.456	5948.8
462.829	5954.22
463.201	6065.86
463.574	6059.76
463.947	6222.24
464.32	6299.3
464.692	6428.33
465.065	6396.02
465.438	6549.46
465.81	6613.64
466.183	6711.49
466.555	6822.45
466.928	6819.74
467.3	6862.45
467.672	7006.85
468.045	7184.25
468.417	7211.82
468.789	7257.01
469.161	7357.12
469.534	7520.51
469.906	7605.03
470.278	7721.63
470.65	7759.37
471.022	7904.91
471.394	8072.81
471.766	8097.67
472.138	8233.03
472.51	8404.1
472.882	8583.53
473.253	8569.07
473.625	8766.58
473.997	8900.59
474.369	8993.24
474.74	9121.6
475.112	9338.99
475.484	9415.83
475.855	9599.32
476.227	9672.32
476.598	9957.28
476.97	9974.23
477.341	10224.17
477.713	10392.07
478.084	10446.76
478.455	10707.32
478.827	10729.92
479.198	11089.23
479.569	11105.27
479.94	11470.24
480.311	11619.16
480.682	11797.68
481.053	11982.99
481.424	12272.93
481.795	12318.8
482.166	12528.29
482.537	12721.73
482.908	12946.81
483.279	13079.91
483.65	13366.46
484.021	13593.34
484.391	13754.92
484.762	13900.23
485.133	14003.05
485.503	14162.82
485.874	14448.91
486.244	14630.83
486.615	14927.55
486.985	15031.72
487.356	15348.55
487.726	15415.89
488.097	15685.94
488.467	15786.51
488.837	16171.81
489.207	16230.79
489.578	16567.05
489.948	16618.8
490.318	16963.42
490.688	16950.09
491.058	17242.29
491.428	17540.13
491.798	17560.92
492.168	17926.56
492.538	17997.07
492.908	18167.69
493.278	18438.19
493.648	18402.03
494.017	18694.68
494.387	18869.14
494.757	19054.89
495.126	19340.76
495.496	19204.04
495.866	19451.04
496.235	19704.59
496.605	19921.76
496.974	19925.15
497.344	20085.15
497.713	20244.92
498.082	20408.08
498.452	20586.61
498.821	20726.04
499.19	20779.82
499.559	20965.35
499.928	21150.88
500.298	21167.83
500.667	21481.95
501.036	21392.23
501.405	21731.89
501.774	21622.96
502.143	22032.9
502.512	21943.63
502.88	22208.94
503.249	22070.63
503.618	22451.42
503.987	22396.5
504.356	22648.92
504.724	22837.39
505.093	22882.59
505.462	23009.14
505.83	23245.52
506.199	23332.07
506.567	23693.64
506.936	23687.77
507.304	23916.91
507.672	24007.53
508.041	24202.33
508.409	24259.5
508.777	24507.41
509.145	24611.36
509.514	24654.75
509.882	24915.98
510.25	24947.85
510.618	25161.63
510.986	25265.13
511.354	25572.92
511.722	25700.37
512.09	25904.88
512.458	25901.49
512.826	26162.5
513.193	26268.94
513.561	26296.29
513.929	26673.68
514.297	26885.87
514.664	27058.07
515.032	27069.37
515.4	27342.13
515.767	27428.69
516.135	27654.67
516.502	27600.21
516.869	28004.26
517.237	28069.35
517.604	27998.61
517.972	28543.01
518.339	28475.89
518.706	28698.26
519.073	28711.82
519.44	29029.77
519.808	29264.8
520.175	29331.01
520.542	29685.12
520.909	29813.26
521.276	29886.93
521.643	30280.14
522.009	30417.76
522.376	30583.18
522.743	30815.26
523.11	31043.51
523.477	31466.09
523.843	31428.35
524.21	31800.77
524.577	31963.93
524.943	32230.82
525.31	32321.21
525.676	32723.01
526.043	32795.55
526.409	32898.37
526.776	33237.12
527.142	33426.27
527.508	33533.84
527.874	33901.28
528.241	34028.96
528.607	34094.5
528.973	34385.79
529.339	34447.03
529.705	34879.79
530.071	35163.62
530.437	35143.74
530.803	35458.08
531.169	35578.53
531.535	35605.65
531.901	35833.44
532.267	36047.67
532.632	36107.33
532.998	36364.95
533.364	36608.11
533.73	36518.16
534.095	36961.99
534.461	37136.68
534.826	37124.25
535.192	37370.12
535.557	37510
535.923	37647.17
536.288	37884.46
536.653	38119.03
537.019	37933.04
537.384	38057.33
537.749	38307.5
538.114	38370.54
538.479	38494.61
538.845	38796.07
539.21	38669.29
539.575	38923.3
539.94	39064.99
540.305	39192.67
540.67	39227.47
541.034	39414.59
541.399	39587.69
541.764	39771.19
542.129	39881.47
542.494	40001.91
542.858	40134.57
543.223	40159.42
543.587	40493.88
543.952	40404.39
544.316	40573.42
544.681	40550.6
545.045	40939.29
545.41	41137.25
545.774	41191.26
546.138	41318.72
546.503	41326.17
546.867	41336.34
547.231	41734.98
547.595	41744.24
547.959	42004.35
548.324	42004.8
548.688	42028.3
549.052	42293.83
549.416	42293.61
549.779	42431
550.143	42632.13
550.507	42884.55
550.871	42967.03
551.235	42983.76
551.599	43195.5
551.962	43399.57
552.326	43383.75
552.689	43778.09
553.053	43514.14
553.417	43766.79
553.78	44374.23
554.143	43953.45
554.507	44342.82
554.87	44449.48
555.234	44848.57
555.597	44658.29
555.96	44740.09
556.323	44847.21
556.686	45172.85
557.05	45292.62
557.413	45430.25
557.776	45495.78
558.139	45972.83
558.502	45777.13
558.865	45877.24
559.228	46219.38
559.59	46395.19
559.953	46335.08
560.316	46808.74
560.679	46688.97
561.041	47058.45
561.404	47174.61
561.767	47489.85
562.129	47295.51
562.492	47740.92
562.854	47755.38
563.217	47796.06
563.579	48036.28
563.941	48278.08
564.304	48335.03
564.666	48491.18
565.028	48629.94
565.39	48739.09
565.753	48942.24
566.115	49136.82
566.477	49302.01
566.839	49393.53
567.201	49653.64
567.563	49548.33
567.925	49850.92
568.287	49952.16
568.648	50051.14
569.01	50168.43
569.372	50397.12
569.734	50300.17
570.095	50544.01
570.457	50680.28
570.819	50786.72
571.18	50859.48
571.542	51016.77
571.903	51013.6
572.265	51284.33
572.626	51289.3
572.987	51427.6
573.349	51523.19
573.71	51589.18
574.071	51733.13
574.432	51935.16
574.794	52017.87
575.155	52077.53
575.516	51962.96
575.877	52136.96
576.238	52314.36
576.599	52426.45
576.96	52437.29
577.32	52394.36
577.681	52499.44
578.042	52687.91
578.403	52720.68
578.763	52680.45
579.124	52839.77
579.485	52984.17
579.845	53077.5
580.206	52978.97
580.566	52955.92
580.927	53033.21
581.287	53125.19
581.648	53045.64
582.008	53223.49
582.368	53276.14
582.728	53308.68
583.089	53254.22
583.449	53272.53
583.809	53346.2
584.169	53420.09
584.529	53348.91
584.889	53630.03
585.249	53383.03
585.609	53425.29
585.969	53612.4
586.329	53377.61
586.688	53591.16
587.048	53537.6
587.408	53513.65
587.768	53509.36
588.127	53487.44
588.487	53499.41
588.846	53795.22
589.206	53542.35
589.565	53717.26
589.925	53731.5
590.284	53644.27
590.643	53743.7
591.003	53818.73
591.362	53962
591.721	53804.26
592.08	53877.03
592.44	53956.12
592.799	53891.94
593.158	53939.4
593.517	53875.67
593.876	54031.15
594.235	53976.01
594.593	53936.69
594.952	54058.04
595.311	53887.88
595.67	53915.9
596.029	54159.96
596.387	54244.25
596.746	54251.94
597.104	54134.42
597.463	54146.4
597.822	54350.24
598.18	54183.69
598.538	54183.69
598.897	54353.85
599.255	54144.14
599.613	54481.31
599.972	54327.64
600.33	54417.13
600.688	54391.37
601.046	54433.4
601.404	54501.65
601.762	54510.69
602.12	54559.95
602.478	54498.48
602.836	54567.41
603.194	54480.86
603.552	54445.6
603.91	54473.85
604.268	54585.94
604.625	54404.7
604.983	54716.56
605.341	54528.09
605.698	54722.43
606.056	54774.63
606.413	54665.03
606.771	54780.06
607.128	54870.22
607.485	54696.67
607.843	54783.67
608.2	54967.62
608.557	54979.37
608.914	54795.88
609.272	54980.28
609.629	55077.9
609.986	55191.35
610.343	55007.4
610.7	55214.17
611.057	55136.66
611.414	55075.64
611.771	55192.7
612.127	55281.06
612.484	55229.54
612.841	55306.14
613.198	55223.43
613.554	55264.11
613.911	55399.48
614.267	55407.84
614.624	55388.63
614.98	55345.24
615.337	55472.92
615.693	55444.45
616.05	55381.85
616.406	55692.35
616.762	55425.92
617.118	55514.5
617.475	55454.84
617.831	55532.13
618.187	55549.75
618.543	55570.77
618.899	55693.93
619.255	55672.24
619.611	55657.1
619.967	55705.91
620.323	55794.49
620.678	55766.25
621.034	55581.62
621.39	55708.62
621.746	55616.42
622.101	55943.42
622.457	55657.55
622.812	55734.61
623.168	55782.52
623.523	55786.81
623.879	55868.39
624.234	55709.52
624.589	55820.03
624.945	55746.13
625.3	55860.93
625.655	55765.34
626.01	55768.05
626.365	55855.06
626.72	55809.63
627.075	55830.88
627.43	55778
627.785	55816.19
628.14	55780.48
628.495	55937.31
628.85	55776.19
629.205	55716.08
629.559	55932.34
629.914	55764.66
630.269	55746.36
630.623	55739.81
630.978	55701.61
631.332	55802.85
631.687	55871.55
632.041	55683.76
632.396	55742.07
632.75	55644.44
633.104	55710.65
633.459	55584.56
633.813	55592.92
634.167	55607.61
634.521	55550.21
634.875	55594.5
635.229	55629.98
635.583	55453.26
635.937	55475.41
636.291	55461.85
636.645	55480.38
636.999	55395.41
637.352	55523.99
637.706	55342.53
638.06	55534.39
638.413	55396.54
638.767	55310.44
639.121	55382.98
639.474	55252.59
639.828	55245.81
640.181	55285.13
640.534	55363.32
640.888	55222.31
641.241	55108.41
641.594	55243.32
641.947	55230.67
642.301	55188.18
642.654	55121.06
643.007	55152.25
643.36	55127.39
643.713	55100.73
644.066	55200.38
644.419	55006.49
644.771	54802.66
645.124	54570.57
645.477	54537.35
645.83	54392.95
646.182	54313.18
646.535	54169.9
646.888	54292.84
647.24	54119.96
647.593	54348.43
647.945	54332.84
648.298	54083.58
648.65	54089
649.002	54046.06
649.355	54139.85
649.707	54123.58
650.059	54217.59
650.411	54585.03
650.763	54628.42
651.115	54868.87
651.467	54801.3
651.819	54803.33
652.171	54708.42
652.523	54678.14
652.875	54661.87
653.227	54493.06
653.578	54769.44
653.93	54707.06
654.282	54589.33
654.633	54551.14
654.985	54508.2
655.337	54540.97
655.688	54631.13
656.039	54671.81
656.391	54352.95
656.742	54409.67
657.094	54433.17
657.445	54537.13
657.796	54505.94
658.147	54348.88
658.498	54420.29
658.849	54439.73
659.2	54425.94
659.551	54378.71
659.902	54417.58
660.253	54368.99
660.604	54423.91
660.955	54305.27
661.306	54403.57
661.656	54430.24
662.007	54339.39
662.358	54373.74
662.708	54294.65
663.059	54300.97
663.409	54176.23
663.76	54302.33
664.11	54294.65
664.461	54289.67
664.811	54287.41
665.161	54318.83
665.511	54156.8
665.862	54226.63
666.212	54278.15
666.562	54227.08
666.912	54236.12
667.262	54077.7
667.612	54158.6
667.962	54185.72
668.312	54087.65
668.662	54279.96
669.011	54162.9
669.361	54104.37
669.711	54015.11
670.06	53983.69
670.41	54039.29
670.76	53869.35
671.109	54030.25
671.459	53901.89
671.808	53913.64
672.157	53919.06
672.507	53762.68
672.856	53784.6
673.205	53745.96
673.554	53851.95
673.904	53824.6
674.253	53799.52
674.602	53779.86
674.951	53348.91
675.3	53092.64
675.649	53652.63
675.998	53565.17
676.346	53550.94
676.695	53687.43
677.044	53469.36
677.393	53563.82
677.741	53593.42
678.09	53441.79
678.438	53390.04
678.787	53423.71
679.135	53509.58
679.484	53134.45
679.832	53406.99
680.181	53148.91
680.529	53194.34
680.877	53129.93
681.225	53174.45
681.573	53232.3
681.922	52982.36
682.27	53003.15
682.618	52943.95
682.966	52800.45
683.314	52916.83
683.661	52798.41
684.009	52610.17
684.357	52627.8
684.705	52602.49
685.053	52603.16
685.4	52559.55
685.748	52330.4
686.095	52284.53
686.443	52164.31
686.79	52128.38
687.138	52212.21
687.485	52198.43
687.832	52022.62
688.18	52145.78
688.527	51818.78
688.874	51869.17
689.221	51724.32
689.568	51628.28
689.915	51610.42
690.262	51497.88
690.609	51387.38
690.956	51279.13
691.303	51321.16
691.65	51135.41
691.997	51061.06
692.344	50886.6
692.69	50844.12
693.037	50806.38
693.383	50486.38
693.73	50660.39
694.077	50439.15
694.423	50412.26
694.769	50362.55
695.116	50257.92
695.462	50260.4
695.808	50144.25
696.155	50165.94
696.501	49801.88
696.847	49894.54
697.193	49664.49
697.539	49721.43
697.885	49543.58
698.231	49397.15
698.577	49403.93
698.923	49418.39
699.269	49178.62
699.614	48939.53
699.96	48940.89
700.306	48856.82
700.651	48700.44
700.997	48627.68
701.342	48615.47
701.688	48486.21
702.033	48449.83
702.379	48307.01
702.724	48307.46
703.069	48372.09
703.415	47855.49
703.76	47829.05
704.105	47903.63
704.45	47808.71
704.795	47482.85
705.14	47440.59
705.485	47449.4
705.83	47142.07
706.175	47370.31
706.52	47139.13
706.865	47109.52
707.209	46987.49
707.554	46958.12
707.899	46899.59
708.243	46684
708.588	46607.16
708.932	46451.24
709.277	46425.93
709.621	46592.48
709.966	46042.89
710.31	46268.42
710.654	45832.5
710.998	45908.43
711.342	45938.48
711.687	45783.46
712.031	45717.02
712.375	45531.49
712.719	45622.11
713.063	45669.79
713.407	45559.51
713.75	45392.96
714.094	45345.5
714.438	45248.1
714.782	45197.03
715.125	44916.59
715.469	45066.19
715.812	44782.81
716.156	44558.63
716.499	44565.64
716.843	44809.7
717.186	44465.07
717.53	44710.49
717.873	44585.3
718.216	44413.55
718.559	44273.44
718.902	44100.56
719.246	44174.01
719.589	44029.83
719.932	43880.68
720.275	43857.41
720.617	43899.21
720.96	43692.89
721.303	43792.78
721.646	43670.97
721.989	43472.78
722.331	43577.41
722.674	43448.38
723.016	43535.38
723.359	43452.67
723.701	43339.45
724.044	43118.22
724.386	43027.37
724.729	43093.13
725.071	42965.9
725.413	42898.56
725.755	42908.28
726.097	42704.44
726.439	42544.22
726.782	42614.95
727.124	42672.35
727.465	42522.98
727.807	42405.47
728.149	42362.76
728.491	42308.29
728.833	42317.56
729.175	42095.19
729.516	42171.12
729.858	41986.95
730.199	42151.91
730.541	41896.1
730.882	41990.34
731.224	41974.97
731.565	41693.4
731.906	41791.02
732.248	41818.59
732.589	41694.3
732.93	41551.93
733.271	41497.69
733.612	41477.13
733.953	41540.18
734.294	41418.15
734.635	41283.91
734.976	41325.04
735.317	41134.99
735.658	41124.37
735.999	41099.51
736.339	40919.86
736.68	41083.69
737.021	41040.08
737.361	40698.85
737.702	40979.52
738.042	40717.38
738.383	40735.45
738.723	40678.51
739.063	40533.43
739.404	40702.23
739.744	40497.04
740.084	40395.35
740.424	40444.61
740.764	40286.88
741.104	40426.76
741.444	40312.19
741.784	40061.8
742.124	40235.58
742.464	40092.53
742.804	40089.6
743.143	39948.36
743.483	39976.38
743.823	39838.53
744.162	39807.34
744.502	39794.01
744.841	39643.28
745.181	39765.99
745.52	39618.42
745.86	39744.52
746.199	39582.26
746.538	39558.31
746.877	39596.5
747.216	39397.64
747.556	39318.09
747.895	39370.74
748.234	39033.58
748.573	39184.76
748.911	39028.61
749.25	39194.48
749.589	38966.69
749.928	38968.04
750.267	39052.33
750.605	38759.46
750.944	38707.26
751.283	38523.99
751.621	38799.01
751.96	38468.85
752.298	38505.68
752.636	38565.57
752.975	38282.64
753.313	38210.1
753.651	38314.28
753.989	37986.37
754.327	38039.48
754.666	37897.11
755.004	37833.84
755.342	37858.69
755.679	37931.01
756.017	37569.66
756.355	37661.41
756.693	37403.34
757.031	37585.71
757.368	37232.5
757.706	37267.07
758.044	37148.2
758.381	37212.61
758.719	36960.86
759.056	37020.75
759.394	36834.99
759.731	36553.42
760.068	36685.39
760.405	36380.99
760.743	36337.15
761.08	36447.43
761.417	36246.08
761.754	36042.7
762.091	35981.91
762.428	35848.35
762.765	35766.32
763.102	35915.92
763.438	35602.03
763.775	35399.55
764.112	35423.96
764.449	35531.07
764.785	35315.26
765.122	35171.31
765.458	35052.21
765.795	34934.25
766.131	34836.4
766.467	34709.17
766.804	34643.41
767.14	34498.78
767.476	34514.83
767.812	34288.62
768.148	34293.14
768.485	34228.51
768.821	33807.73
769.157	33902.19
769.492	33742.42
769.828	33733.38
770.164	33424.01
770.5	33347.4
770.836	33311.69
771.171	33217.01
771.507	33038.93
771.842	32937.02
772.178	32876.68
772.513	32828.09
772.849	32669.68
773.184	32500.87
773.519	32525.27
773.855	32325.51
774.19	32131.84
774.525	32131.16
774.86	32036.25
775.195	32144.27
775.53	31699.53
775.865	31736.37
776.2	31544.06
776.535	31301.35
776.87	31196.72
777.205	31157.85
777.539	31111.07
777.874	31051.87
778.209	30884.64
778.543	30733.68
778.878	30535.04
779.212	30599.45
779.547	30458.89
779.881	30432
780.215	30155.39
780.55	30373.69
780.884	30039.92
781.218	30014.83
781.552	29993.14
781.886	29777.78
782.22	29568.06
782.554	29590.44
782.888	29302.76
783.222	29199.94
783.556	29097.12
783.889	29051.92
784.223	28930.79
784.557	28918.36
784.89	28776.67
785.224	28742.1
785.557	28527.87
785.891	28419.17
786.224	28390.02
786.558	28343.69
786.891	28077.93
787.224	27954.1
787.557	28081.78
787.891	27868.45
788.224	27860.76
788.557	27801.33
788.89	27675.23
789.223	27663.93
789.556	27388.46
789.888	27262.59
790.221	27293.77
790.554	27153.44
790.887	27162.03
791.219	26947.12
791.552	26950.96
791.884	26718.65
792.217	26729.27
792.549	26498.09
792.882	26428.26
793.214	26314.36
793.546	26412.89
793.879	26213.8
794.211	26113.24
794.543	26227.36
794.875	25953.47
795.207	26004.09
795.539	25785.34
795.871	25810.2
796.203	25675.96
796.535	25429.19
796.867	25539.47
797.198	25376.08
797.53	25433.03
797.862	25248.63
798.193	25249.76
798.525	25033.04
798.856	25111.68
799.188	24768.64
799.519	24717.57
799.85	24699.04
800.182	24603.45
800.513	24644.35
800.844	24394.64
801.175	24528.87
801.506	24469.89
801.837	24341.76
802.168	24339.73
802.499	24195.78
802.83	24030.58
803.161	23985.84
803.491	23999.4
803.822	24020.19
804.153	23773.41
804.483	23638.95
804.814	23583.81
805.145	23658.39
805.475	23570.26
805.805	23417.72
806.136	23525.29
806.466	23414.33
806.796	23385.63
807.126	23219.76
807.457	23114.22
807.787	23021.8
808.117	22974.57
808.447	22910.16
808.777	22932.76
809.107	22808.47
809.436	22776.6
809.766	22736.83
810.096	22678.08
810.426	22469.49
810.755	22657.74
811.085	22470.85
811.414	22491.19
811.744	22206.68
812.073	22258.65
812.403	22212.1
812.732	21990.41
813.061	22183.63
813.39	21954.03
813.719	21962.39
814.049	21942.95
814.378	21770.76
814.707	21739.12
815.036	21719.23
815.365	21629.52
815.693	21408.05
816.022	21407.37
816.351	21415.74
816.68	21322.63
817.008	21372.8
817.337	21152.24
817.665	21120.15
817.994	21194.5
818.322	21119.25
818.651	21028.63
818.979	21036.31
819.307	21016.65
819.636	20964.67
819.964	20783.89
820.292	20950.44
820.62	20861.4
820.948	20822.08
821.276	20913.6
821.604	20726.04
821.932	20880.38
822.259	20931.91
822.587	20759.48
822.915	20702.99
823.243	20734.4
823.57	20706.38
823.898	20775.53
824.225	20660.5
824.553	20593.39
824.88	20684.23
825.207	20773.95
825.535	20654.4
825.862	20691.24
826.189	20571.69
826.516	20686.04
826.843	20756.77
827.17	20793.83
827.497	20763.55
827.824	20698.92
828.151	20745.02
828.478	20618.47
828.805	20799.26
829.131	20643.1
829.458	20616.21
829.785	20545.02
830.111	20614.4
830.438	20603.33
830.764	20558.36
831.09	20704.34
831.417	20485.59
831.743	20597
832.069	20565.82
832.395	20470.9
832.722	20513.39
833.048	20420.06
833.374	20565.14
833.7	20411.24
834.026	20372.37
834.351	20436.33
834.677	20339.61
835.003	20452.37
835.329	20471.35
835.654	20439.72
835.98	20317.23
836.306	20225.71
836.631	20207.86
836.956	20275.88
837.282	20216.22
837.607	20195.88
837.932	20006.51
838.258	20022.1
838.583	19961.76
838.908	19884.48
839.233	19929.67
839.558	19936
839.883	19841.77
840.208	19832.05
840.533	19865.95
840.858	19813.74
841.182	19792.28
841.507	19692.17
841.832	19707.76
842.156	19623.92
842.481	19612.85
842.805	19605.16
843.13	19511.83
843.454	19511.61
843.778	19440.87
844.103	19308.67
844.427	19279.07
844.751	19309.13
845.075	19185.06
845.399	19187.09
845.723	18991.62
846.047	19087.89
846.371	18865.75
846.695	18894.45
847.019	18817.84
847.343	18716.82
847.666	18558.18
847.99	18421.69
848.313	18532.42
848.637	18392.99
848.96	18364.97
849.284	18303.05
849.607	18223.05
849.931	18065.54
850.254	17968.82
850.577	17919.56
850.9	17795.94
851.223	17733.12
851.546	17725.89
851.869	17538.32
852.192	17712.33
852.515	17488.16
852.838	17435.28
853.161	17420.59
853.483	17357.31
853.806	17263.76
854.129	17205.68
854.451	17185.79
854.774	17110.99
855.096	16943.99
855.419	16962.29
855.741	16924.55
856.063	16810.66
856.385	16854.95
856.708	16852.47
857.03	16645.24
857.352	16690.89
857.674	16576.09
857.996	16591.91
858.318	16538.58
858.64	16506.94
858.961	16443.44
859.283	16389.2
859.605	16324.57
859.926	16341.75
860.248	16255.65
860.57	16149.89
860.891	16271.92
861.212	16065.82
861.534	16070.34
861.855	16077.35
862.176	16033.5
862.498	16029.66
862.819	16039.61
863.14	15904.69
863.461	15913.51
863.782	15803.23
864.103	15893.4
864.424	15713.06
864.745	15885.94
865.065	15714.87
865.386	15718.03
865.707	15699.5
866.027	15674.42
866.348	15617.47
866.668	15569.56
866.989	15530.02
867.309	15491.82
867.63	15470.58
867.95	15496.8
868.27	15393.97
868.59	15445.5
868.91	15379.74
869.23	15306.07
869.55	15191.04
869.87	15373.86
870.19	15319.4
870.51	15268.78
870.83	15266.07
871.15	15212.74
871.469	15137.03
871.789	15215
872.109	15167.99
872.428	15082.12
872.748	15113.98
873.067	14992.4
873.386	15080.08
873.706	15003.25
874.025	14971.61
874.344	14910.82
874.663	14965.96
874.982	14929.13
875.301	14952.63
875.62	14837.38
875.939	14723.26
876.258	14874.89
876.577	14800.54
876.896	14770.71
877.214	14711.28
877.533	14727.78
877.852	14671.96
878.17	14688
878.489	14704.05
878.807	14628.34
879.125	14613.88
879.444	14590.15
879.762	14500.66
880.08	14565.75
880.398	14513.32
880.716	14486.88
881.034	14350.84
881.352	14399.42
881.67	14310.39
881.988	14381.12
882.306	14360.1
882.624	14287.34
882.941	14196.49
883.259	14067
883.577	14134.57
883.894	14102.26
884.212	14095.02
884.529	14098.64
884.846	13994.46
885.164	13951.53
885.481	13881.47
885.798	13972.77
886.115	13852.32
886.432	13855.48
886.75	13816.84
887.067	13861.13
887.383	13762.38
887.7	13812.77
888.017	13724.19
888.334	13704.53
888.651	13622.95
888.967	13582.04
889.284	13549.95
889.6	13504.76
889.917	13412.33
890.233	13449.84
890.55	13397.64
890.866	13412.78
891.182	13307.7
891.498	13284.88
891.815	13282.16
892.131	13220.7
892.447	13210.75
892.763	13080.36
893.079	13045.33
893.395	13052.11
893.71	12972.34
894.026	12947.71
894.342	12950.65
894.657	12882.85
894.973	12793.36
895.289	12848.96
895.604	12813.7
895.92	12695.06
896.235	12685.8
896.55	12636.31
896.865	12681.05
897.181	12592.47
897.496	12580.94
897.811	12544.78
898.126	12409.87
898.441	12336.65
898.756	12344.56
899.071	12280.61
899.386	12259.59
899.7	12186.6
900.015	12144.79
900.33	12043.55
900.644	12055.76
900.959	12066.15
901.273	12045.14
901.588	11950
901.902	11799.72
902.216	11811.7
902.531	11815.76
902.845	11708.42
903.159	11742.54
903.473	11678.59
903.787	11530.12
904.101	11597.24
904.415	11557.92
904.729	11500.97
905.042	11472.27
905.356	11298.94
905.67	11384.14
905.984	11355.21
906.297	11242.44
906.611	11194.54
906.924	11180.53
907.237	11150.47
907.551	11113.18
907.864	11061.43
908.177	10981.21
908.491	10976.01
908.804	11003.81
909.117	10858.27
909.43	10827.31
909.743	10690.82
910.056	10771.72
910.368	10713.19
910.681	10694.66
910.994	10662.12
911.307	10567.89
911.619	10487.66
911.932	10480.43
912.244	10398.85
912.557	10472.75
912.869	10308.01
913.181	10251.06
913.494	10250.83
913.806	10206.09
914.118	10163.15
914.43	10072.98
914.742	10077.73
915.054	10022.59
915.366	9971.97
915.678	9893.33
915.99	9932.87
916.302	9824.85
916.613	9814.69
916.925	9755.93
917.236	9733.78
917.548	9688.14
917.859	9676.84
918.171	9585.54
918.482	9600.23
918.794	9541.47
919.105	9537.4
919.416	9499.44
919.727	9411.98
920.038	9358.43
920.349	9283.4
920.66	9291.76
920.971	9248.82
921.282	9275.04
921.593	9160.01
921.903	9166.34
922.214	9141.71
922.525	9066
922.835	9048.6
923.146	8938.32
923.456	8972
923.767	8875.05
924.077	8921.15
924.387	8871.21
924.697	8781.72
925.008	8741.49
925.318	8736.3
925.628	8702.85
925.938	8658.56
926.248	8541.27
926.558	8543.76
926.867	8596.86
927.177	8468.51
927.487	8463.08
927.796	8388.73
928.106	8386.02
928.416	8307.83
928.725	8288.4
929.034	8289.08
929.344	8252.47
929.653	8203.88
929.962	8092.92
930.271	8104.67
930.581	8078.46
930.89	8034.17
931.199	8018.35
931.508	7913.27
931.817	7997.78
932.125	7924.11
932.434	7881.18
932.743	7776.32
933.051	7831.01
933.36	7721.41
933.669	7725.25
933.977	7693.84
934.286	7669.21
934.594	7632.6
934.902	7529.55
935.21	7516.89
935.519	7512.6
935.827	7547.63
936.135	7463.11
936.443	7355.77
936.751	7312.83
937.059	7324.58
937.367	7331.59
937.674	7334.07
937.982	7310.12
938.29	7251.59
938.597	7226.73
938.905	7153.51
939.213	7170.01
939.52	7055.66
939.827	7102.21
940.135	7055.44
940.442	6995.1
940.749	7002.56
941.056	6945.61
941.363	6879.85
941.67	6914.42
941.977	6878.04
942.284	6841.66
942.591	6774.99
942.898	6755.56
943.205	6718.5
943.511	6706.07
943.818	6694.77
944.125	6662.68
944.431	6615.45
944.738	6563.92
945.044	6547.65
945.35	6474.21
945.657	6432.18
945.963	6421.78
946.269	6418.62
946.575	6382.91
946.881	6338.62
947.187	6342.91
947.493	6270.37
947.799	6268.34
948.105	6196.93
948.41	6218.17
948.716	6206.19
949.022	6137.04
949.327	6112.64
949.633	6107.44
949.938	6102.24
950.244	6057.95
950.549	6028.12
950.854	5986.99
951.16	5991.96
951.465	5949.48
951.77	5840.55
952.075	5874
952.38	5856.82
952.685	5905.18
952.99	5794.23
953.294	5730.95
953.599	5778.41
953.904	5707.22
954.209	5698.41
954.513	5679.2
954.818	5668.13
955.122	5662.48
955.426	5572.99
955.731	5621.35
956.035	5541.35
956.339	5513.33
956.643	5508.58
956.948	5469.26
957.252	5441.47
957.556	5504.97
957.86	5430.85
958.163	5394.24
958.467	5311.53
958.771	5379.77
959.075	5292.09
959.378	5276.27
959.682	5270.17
959.985	5281.92
960.289	5246.67
960.592	5189.27
960.896	5136.16
961.199	5143.62
961.502	5158.08
961.805	5115.6
962.108	5054.36
962.411	5026.11
962.714	5085.09
963.017	5010.97
963.32	4942.5
963.623	4949.28
963.926	4944.53
964.228	4897.98
964.531	4898.88
964.833	4940.69
965.136	4843.74
965.438	4825.21
965.741	4814.82
966.043	4774.14
966.345	4755.84
966.648	4736.85
966.95	4721.03
967.252	4704.99
967.554	4716.06
967.856	4653.47
968.158	4636.74
968.46	4621.6
968.761	4594.94
969.063	4563.52
969.365	4570.98
969.666	4540.93
969.968	4531.43
970.269	4457.09
970.571	4456.41
970.872	4448.95
971.174	4420.48
971.475	4351.33
971.776	4377.31
972.077	4361.5
972.378	4338.67
972.679	4310.42
972.98	4326.47
973.281	4312.91
973.582	4290.31
973.883	4229.3
974.183	4209.18
974.484	4218
974.785	4179.35
975.085	4169.86
975.386	4177.32
975.686	4134.16
975.986	4128.73
976.287	4114.5
976.587	4012.58
976.887	4011.67
977.187	4050.09
977.487	4072.01
977.787	4042.86
978.087	4024.1
978.387	3973.48
978.687	3963.99
978.987	3943.88
979.286	3918.12
979.586	3886.25
979.885	3891.45
980.185	3857.33
980.484	3831.79
980.784	3833.83
981.083	3745.47
981.382	3782.75
981.682	3790.66
981.981	3740.04
982.28	3702.08
982.579	3719.7
982.878	3702.08
983.177	3675.86
983.475	3665.47
983.774	3631.35
984.073	3620.5
984.372	3618.92
984.67	3552.7
984.969	3557
985.267	3537.34
985.566	3549.54
985.864	3547.28
986.162	3561.06
986.461	3517.22
986.759	3468.64
987.057	3491.24
987.355	3445.59
987.653	3476.77
987.951	3431.12
988.249	3402.65
988.547	3382.99
988.844	3328.98
989.142	3370.79
989.44	3320.17
989.737	3278.59
990.035	3318.81
990.332	3267.51
990.63	3275.65
990.927	3244.24
991.224	3240.62
991.521	3239.49
991.819	3197.91
992.116	3137.57
992.413	3156.78
992.71	3196.1
993.006	3173.96
993.303	3134.86
993.6	3097.12
993.897	3121.53
994.193	3156.56
994.49	3071.13
994.787	3037.24
995.083	3060.51
995.379	3014.64
995.676	2980.97
995.972	2948.65
996.268	2973.74
996.565	2968.54
996.861	2936.67
997.157	2931.25
997.453	2921.99
997.749	2890.57
998.044	2893.51
998.34	2863
998.636	2860.97
998.932	2857.81
999.227	2815.32
999.523	2803.8
999.818	2813.29
1000.114	2800.86
1000.409	2733.52
1000.704	2736.23
1001	2732.39
1001.295	2690.8
1001.59	2715.21
1001.885	2678.38
1002.18	2679.05
1002.475	2684.93
1002.77	2646.96
1003.065	2604.93
1003.359	2591.82
1003.654	2622.78
1003.949	2569
1004.243	2580.75
1004.538	2529.45
1004.832	2558.38
1005.127	2546.63
1005.421	2503.47
1005.715	2456.69
1006.009	2494.2
1006.304	2471.15
1006.598	2453.3
1006.892	2408.78
1007.186	2444.94
1007.48	2420.53
1007.773	2381.66
1008.067	2340.08
1008.361	2359.97
1008.655	2356.12
1008.948	2319.97
1009.242	2306.18
1009.535	2308.22
1009.829	2286.07
1010.122	2259.18
1010.415	2268.22
1010.708	2238.84
1011.001	2226.64
1011.295	2209.91
1011.588	2210.37
1011.881	2179.63
1012.173	2183.93
1012.466	2173.98
1012.759	2152.51
1013.052	2154.77
1013.344	2140.54
1013.637	2136.92
1013.93	2105.96
1014.222	2080.43
1014.514	2069.58
1014.807	2020.31
1015.099	2028.22
1015.391	2030.03
1015.683	2022.12
1015.976	2008.11
1016.268	1987.77
1016.56	1961.11
1016.851	1965.85
1017.143	1941.9
1017.435	1936.25
1017.727	1934.44
1018.018	1919.07
1018.31	1887.89
1018.602	1937.38
1018.893	1897.15
1019.185	1878.4
1019.476	1874.56
1019.767	1866.19
1020.058	1846.99
1020.35	1837.72
1020.641	1788.91
1020.932	1792.07
1021.223	1787.33
1021.514	1765.18
1021.804	1753.43
1022.095	1769.02
1022.386	1765.18
1022.677	1725.41
1022.967	1735.12
1023.258	1685.18
1023.548	1631.85
1023.839	1692.64
1024.129	1655.8
1024.419	1615.58
1024.709	1604.96
1025	1617.39
1025.29	1627.33
1025.58	1579.65
1025.87	1563.38
1026.16	1569.03
1026.449	1545.52
1026.739	1575.35
1027.029	1535.36
1027.319	1531.97
1027.608	1542.81
1027.898	1522.02
1028.187	1522.02
1028.477	1507.11
1028.766	1477.96
1029.055	1464.4
1029.344	1499.65
1029.634	1438.18
1029.923	1464.4
1030.212	1463.94
1030.501	1426.88
1030.79	1429.14
1031.078	1389.82
1031.367	1388.47
1031.656	1375.81
1031.945	1382.59
1032.233	1351.18
1032.522	1364.96
1032.81	1375.13
1033.099	1332.2
1033.387	1342.59
1033.675	1314.34
1033.963	1313.89
1034.251	1307.34
1034.54	1277.28
1034.828	1293.1
1035.116	1273.44
1035.403	1288.81
1035.691	1263.5
1035.979	1232.09
1036.267	1233.44
1036.554	1233.89
1036.842	1203.16
1037.129	1220.79
1037.417	1214.46
1037.704	1207.68
1037.992	1206.32
1038.279	1182.37
1038.566	1164.07
1038.853	1164.07
1039.14	1164.07
