Data from whiteboard_FLMS001491_00009.txt Node
Date: Wed Feb 08 11:24:56 GMT 2017
User: dcchb
Spectrometer: FLMS00149
Trigger mode: 0
Integration Time (sec): 2.000000E-2
Scans to average: 10
Electric dark correction enabled: true
Nonlinearity correction enabled: false
Boxcar width: 0
XAxis mode: Wavelengths
Number of Pixels in Spectrum: 2048
>>>>>Begin Spectral Data<<<<<
341.393	2.84
341.776	2.84
342.16	2.84
342.543	-69.25
342.927	-65.63
343.31	-74.45
343.693	-57.72
344.077	-62.24
344.46	-67.89
344.843	-51.17
345.226	-29.7
345.61	-14.34
345.993	-24.51
346.376	-2.13
346.759	4.65
347.142	21.14
347.525	35.83
347.908	60.01
348.291	67.92
348.674	92.78
349.057	101.82
349.44	99.33
349.823	147.47
350.206	180.69
350.588	225.88
350.971	224.98
351.354	236.28
351.737	266.33
352.119	264.3
352.502	297.29
352.884	328.48
353.267	323.06
353.65	345.43
354.032	316.28
354.414	349.04
354.797	348.14
355.179	356.73
355.562	351.3
355.944	364.41
356.326	383.62
356.709	354.24
357.091	369.38
357.473	387.69
357.855	380.91
358.238	378.42
358.62	382.72
359.002	383.85
359.384	386.78
359.766	395.14
360.148	376.39
360.53	366.67
360.912	379.78
361.294	383.17
361.676	374.81
362.057	380
362.439	353.11
362.821	382.72
363.203	370.29
363.584	393.11
363.966	373.45
364.348	365.32
364.729	383.62
365.111	358.31
365.493	379.78
365.874	385.65
366.256	376.61
366.637	387.91
367.019	364.86
367.4	390.85
367.781	384.98
368.163	388.14
368.544	382.26
368.925	370.96
369.306	389.72
369.688	359.89
370.069	369.83
370.45	376.84
370.831	389.95
371.212	382.72
371.593	362.83
371.974	384.52
372.355	409.38
372.736	403.73
373.117	377.52
373.498	410.29
373.879	379.78
374.26	379.55
374.641	385.43
375.021	391.98
375.402	407.8
375.783	406.67
376.163	422.04
376.544	418.42
376.925	419.55
377.305	406.9
377.686	429.27
378.066	417.07
378.447	413
378.827	427.01
379.208	447.35
379.588	451.41
379.968	441.7
380.349	442.6
380.729	421.36
381.109	461.36
381.489	445.54
381.87	467.01
382.25	443.05
382.63	451.41
383.01	460.68
383.39	482.37
383.77	462.26
384.15	477.4
384.53	483.05
384.91	504.75
385.29	488.93
385.67	508.36
386.049	507.68
386.429	510.17
386.809	526.89
387.189	527.57
387.568	524.41
387.948	537.06
388.328	509.72
388.707	533.67
389.087	568.93
389.466	552.2
389.846	566.21
390.225	567.8
390.605	567.12
390.984	564.18
391.363	563.28
391.743	575.93
392.122	593.56
392.501	619.32
392.881	638.98
393.26	620.68
393.639	652.09
394.018	648.7
394.397	638.98
394.776	664.97
395.155	669.04
395.534	651.86
395.913	654.35
396.292	688.24
396.671	690.5
397.05	705.42
397.429	700
397.808	697.96
398.186	707
398.565	752.88
398.944	738.64
399.323	770.05
399.701	757.62
400.08	765.98
400.458	787
400.837	760.79
401.215	822.03
401.594	813.21
401.972	816.15
402.351	835.13
402.729	870.84
403.107	866.32
403.486	871.97
403.864	886.21
404.242	899.76
404.62	895.24
404.999	935.02
405.377	952.42
405.755	968.24
406.133	980.67
406.511	982.47
406.889	1004.39
407.267	1036.48
407.645	1043.04
408.023	1054.34
408.401	1082.81
408.779	1122.58
409.156	1111.96
409.534	1127.33
409.912	1168.01
410.29	1192.64
410.667	1233.99
411.045	1226.54
411.422	1259.76
411.8	1252.75
412.178	1299.53
412.555	1308.57
412.933	1332.3
413.31	1382.24
413.687	1367.55
414.065	1420.88
414.442	1417.04
414.819	1446.19
415.197	1478.05
415.574	1485.51
415.951	1502.91
416.328	1548.79
416.705	1557.37
417.082	1551.72
417.46	1605.73
417.837	1592.18
418.214	1612.51
418.591	1620.2
418.967	1650.25
419.344	1676.24
419.721	1694.77
420.098	1741.78
420.475	1744.04
420.852	1775.9
421.228	1760.08
421.605	1805.28
421.982	1831.72
422.358	1838.27
422.735	1874.43
423.111	1888.44
423.488	1909.46
423.864	1942
424.241	1977.25
424.617	1990.36
424.994	1993.3
425.37	1995.55
425.746	2019.51
426.123	2045.27
426.499	2090.69
426.875	2138.38
427.251	2157.58
427.627	2207.98
428.003	2211.59
428.379	2238.49
428.756	2283
429.132	2316.68
429.507	2342.89
429.883	2352.38
430.259	2417.46
430.635	2438.48
431.011	2457.46
431.387	2554.86
431.763	2537.24
432.138	2581.08
432.514	2650.23
432.89	2643.67
433.265	2691.36
433.641	2747.85
434.016	2798.92
434.392	2845.25
434.767	2863.1
435.143	2872.37
435.518	2916.43
435.894	2958.02
436.269	3008.41
436.644	3047.73
437.02	3096.54
437.395	3084.11
437.77	3170.67
438.145	3172.25
438.52	3252.02
438.895	3278.01
439.271	3301.06
439.646	3349.64
440.021	3401.39
440.395	3395.52
440.77	3385.35
441.145	3429.42
441.52	3527.72
441.895	3486.59
442.27	3557.77
442.645	3549.19
443.019	3610.43
443.394	3619.24
443.769	3681.16
444.143	3667.83
444.518	3719.8
444.892	3663.99
445.267	3761.61
445.641	3769.75
446.016	3820.59
446.39	3868.27
446.764	3918.89
447.139	3867.37
447.513	3935.39
447.887	3967.48
448.262	3961.6
448.636	3965.67
449.01	4021.26
449.384	4117.98
449.758	4089.29
450.132	4196.17
450.506	4209.73
450.88	4234.82
451.254	4230.07
451.628	4370.63
452.002	4362.95
452.376	4419.9
452.75	4444.08
453.123	4510.29
453.497	4552.55
453.871	4581.93
454.244	4625.77
454.618	4767.91
454.992	4815.37
455.365	4854.46
455.739	4907.79
456.112	5034.8
456.486	5040.22
456.859	5081.12
457.232	5219.88
457.606	5187.34
457.979	5300.1
458.352	5382.13
458.725	5427.33
459.099	5548.91
459.472	5634.33
459.845	5635.69
460.218	5727.21
460.591	5789.35
460.964	5851.05
461.337	5954.77
461.71	6027.31
462.083	6109.8
462.456	6151.6
462.829	6212.17
463.201	6362.22
463.574	6355.67
463.947	6420.98
464.32	6581.87
464.692	6665.71
465.065	6719.72
465.438	6820.06
465.81	6943.45
466.183	6993.62
466.555	7184.57
466.928	7184.57
467.3	7186.6
467.672	7293.49
468.045	7475.18
468.417	7492.13
468.789	7617.1
469.161	7725.8
469.534	7827.94
469.906	8016.87
470.278	8067.03
470.65	8170.08
471.022	8329.4
471.394	8547.92
471.766	8612.1
472.138	8728.94
472.51	8838.31
472.882	8970.74
473.253	9147.01
473.625	9279.43
473.997	9479.88
474.369	9535.7
474.74	9629.48
475.112	9812.07
475.484	9936.59
475.855	10185.17
476.227	10305.39
476.598	10561.66
476.97	10636.23
477.341	10887.75
477.713	11070.57
478.084	11186.95
478.455	11506.27
478.827	11597.11
479.198	11905.12
479.569	11913.94
479.94	12379.91
480.311	12424.21
480.682	12726.8
481.053	12950.52
481.424	13211.08
481.795	13250.85
482.166	13540.79
482.537	13733.1
482.908	14016.26
483.279	14113.65
483.65	14360.88
484.021	14713.19
484.391	14770.59
484.762	14987.3
485.133	15142.33
485.503	15324.7
485.874	15726.27
486.244	15764.91
486.615	16240.38
486.985	16354.5
487.356	16587.71
487.726	16801.49
488.097	17245.32
488.467	17253.68
488.837	17596.27
489.207	17821.81
489.578	18119.42
489.948	18316.71
490.318	18460.21
490.688	18698.84
491.058	18976.58
491.428	19208.89
491.798	19403.91
492.168	19788.99
492.538	19861.53
492.908	20070.56
493.278	20341.06
493.648	20453.37
494.017	20641.84
494.387	20853.14
494.757	21046.81
495.126	21348.72
495.496	21364.31
495.866	21552.33
496.235	21905.54
496.605	22024.63
496.974	22193.22
497.344	22412.87
497.713	22557.5
498.082	22748.91
498.452	23041.1
498.821	22965.85
499.19	23172.85
499.559	23394.54
499.928	23593.63
500.298	23705.94
500.667	23885.6
501.036	23861.65
501.405	24227.96
501.774	24168.76
502.143	24436.55
502.512	24511.57
502.88	24855.52
503.249	24865.01
503.618	24940.04
503.987	25190.2
504.356	25283.98
504.724	25514.48
505.093	25471.1
505.462	25677.42
505.83	26068.14
506.199	26108.14
506.567	26429.71
506.936	26450.28
507.304	26760.1
507.672	26980.21
508.041	27010.04
508.409	27336.13
508.777	27519.63
509.145	27722.79
509.514	27774.76
509.882	28175.43
510.25	28205.94
510.618	28371.13
510.986	28598.47
511.354	28935.41
511.722	29239.58
512.09	29540.82
512.458	29478.67
512.826	29805.45
513.193	29872.56
513.561	30000.47
513.929	30271.87
514.297	30616.95
514.664	30750.28
515.032	30959.54
515.4	31003.83
515.767	31321.34
516.135	31580.99
516.502	31457.61
516.869	32092.62
517.237	32157.93
517.604	32276.11
517.972	32612.6
518.339	32831.35
518.706	32875.87
519.073	33152.25
519.44	33262.08
519.808	33592.69
520.175	33675.63
520.542	34019.57
520.909	34187.25
521.276	34134.82
521.643	34715.37
522.009	34875.59
522.376	35050.05
522.743	35361.91
523.11	35619.76
523.477	35924.61
523.843	36167.99
524.21	36541.99
524.577	36767.52
524.943	36867.18
525.31	37147.4
525.676	37477.56
526.043	37602.53
526.409	37874.39
526.776	38163.19
527.142	38416.74
527.508	38611.54
527.874	38967.24
528.241	39125.43
528.607	39349.15
528.973	39712.3
529.339	39758.63
529.705	40052.63
530.071	40390.48
530.437	40416.69
530.803	40908.2
531.169	40990.01
531.535	41147.07
531.901	41242.66
532.267	41491.69
532.632	41782.08
532.998	42046.93
533.364	42211.22
533.73	42254.84
534.095	42627.71
534.461	42899.11
534.826	43024.53
535.192	43238.99
535.557	43514.92
535.923	43512.66
536.288	43654.12
536.653	43798.3
537.019	43797.17
537.384	43994.45
537.749	44279.41
538.114	44443.93
538.479	44380.88
538.845	44672.85
539.21	44719.63
539.575	44887.99
539.94	45097.7
540.305	45384.7
540.67	45309.22
541.034	45401.65
541.399	45773.39
541.764	45791.01
542.129	45802.31
542.494	46097.45
542.858	46115.52
543.223	46238.23
543.587	46482.75
543.952	46347.84
544.316	46569.07
544.681	46560.26
545.045	46790.54
545.41	46975.16
545.774	47011.55
546.138	46969.74
546.503	47148.27
546.867	47225.33
547.231	47595.26
547.595	47487.69
547.959	47741.24
548.324	47741.02
548.688	47963.16
549.052	47994.57
549.416	48120.44
549.779	48101.46
550.143	48275.24
550.507	48461.23
550.871	48637.49
551.235	48609.24
551.599	48946.86
551.962	48976.92
552.326	49081.32
552.689	49283.13
553.053	49128.55
553.417	49270.92
553.78	49857.57
554.143	49668.2
554.507	49962.66
554.87	50091.01
555.234	50411.91
555.597	50267.73
555.96	50308.18
556.323	50609.19
556.686	50646.03
557.05	50967.15
557.413	51002.85
557.776	51067.26
558.139	51371.43
558.502	51440.13
558.865	51498.43
559.228	51867.69
559.59	51964.18
559.953	52049.83
560.316	52413.89
560.679	52467
561.041	52704.5
561.404	52665.18
561.767	52968.68
562.129	52750.38
562.492	53142.01
562.854	53105.85
563.217	53278.05
563.579	53360.98
563.941	53561.88
564.304	53678.49
564.666	53852.72
565.028	53854.53
565.39	53909.67
565.753	54107.18
566.115	54190.11
566.477	54246.61
566.839	54320.96
567.201	54522.99
567.563	54482.99
567.925	54720.5
568.287	54770.89
568.648	54710.33
569.01	54954.84
569.372	55071.22
569.734	54950.55
570.095	55143.76
570.457	55256.98
570.819	55257.21
571.18	55215.17
571.542	55456.07
571.903	55455.39
572.265	55591.43
572.626	55698.1
572.987	55754.82
573.349	55739.9
573.71	55813.35
574.071	55954.14
574.432	56002.95
574.794	56186.22
575.155	56156.62
575.516	56093.12
575.877	56264.86
576.238	56353.22
576.599	56349.83
576.96	56458.53
577.32	56442.71
577.681	56519.54
578.042	56613.78
578.403	56667.11
578.763	56658.3
579.124	56742.14
579.485	56883.38
579.845	56906.88
580.206	56800.67
580.566	56870.27
580.927	56971.96
581.287	57053.32
581.648	56909.82
582.008	57119.53
582.368	57091.51
582.728	57188.23
583.089	57166.08
583.449	57207.89
583.809	57208.57
584.169	57298.51
584.529	57262.8
584.889	57475
585.249	57293.54
585.609	57266.19
585.969	57421.67
586.329	57321.33
586.688	57419.18
587.048	57380.31
587.408	57349.81
587.768	57373.53
588.127	57344.83
588.487	57318.85
588.846	57436.81
589.206	57272.75
589.565	57349.81
589.925	57489.91
590.284	57397.71
590.643	57372.63
591.003	57408.79
591.362	57503.93
591.721	57435.91
592.08	57389.8
592.44	57520.65
592.799	57523.36
593.158	57439.52
593.517	57441.1
593.876	57472.51
594.235	57470.48
594.593	57482.23
594.952	57423.02
595.311	57379.86
595.67	57440.42
596.029	57586.18
596.387	57531.5
596.746	57618.95
597.104	57478.16
597.463	57448.33
597.822	57533.76
598.18	57494.43
598.538	57484.49
598.897	57622.34
599.255	57400.65
599.613	57722
599.972	57598.16
600.33	57642.91
600.688	57555.9
601.046	57647.42
601.404	57683.13
601.762	57726.29
602.12	57856.91
602.478	57767.65
602.836	57845.16
603.194	57677.93
603.552	57794.54
603.91	57679.06
604.268	57817.14
604.625	57788.44
604.983	57844.93
605.341	57768.55
605.698	57852.39
606.056	57990.47
606.413	57839.96
606.771	58023.01
607.128	58039.05
607.485	57961.31
607.843	58027.3
608.2	58143.23
608.557	58155.21
608.914	58093.51
609.272	58250.35
609.629	58314.07
609.986	58318.82
610.343	58219.16
610.7	58469.1
611.057	58365.6
611.414	58306.62
611.771	58447.63
612.127	58455.09
612.484	58402.89
612.841	58466.84
613.198	58435.88
613.554	58417.8
613.911	58526.95
614.267	58615.08
614.624	58553.39
614.98	58588.64
615.337	58710.22
615.693	58613.5
616.05	58572.82
616.406	58712.26
616.762	58628.87
617.118	58666.16
617.475	58690.79
617.831	58774.85
618.187	58716.78
618.543	58709.54
618.899	58839.03
619.255	58812.82
619.611	58781.63
619.967	58851.91
620.323	58823.44
620.678	58775.3
621.034	58726.04
621.39	58887.62
621.746	58844.23
622.101	59066.82
622.457	58856.43
622.812	58917.67
623.168	58956.54
623.523	58928.75
623.879	59014.17
624.234	58886.04
624.589	58946.83
624.945	58956.09
625.3	58957.9
625.655	58949.99
626.01	58959.48
626.365	58982.31
626.72	58880.39
627.075	58953.38
627.43	58879.26
627.785	58833.61
628.14	58889.2
628.495	58928.75
628.85	58853.04
629.205	58803.1
629.559	58961.51
629.914	58784.57
630.269	58889.88
630.623	58778.02
630.978	58673.84
631.332	58755.19
631.687	58745.93
632.041	58652.14
632.396	58773.72
632.75	58640.17
633.104	58675.19
633.459	58527.85
633.813	58485.14
634.167	58422.55
634.521	58458.25
634.875	58453.05
635.229	58413.51
635.583	58275.43
635.937	58244.92
636.291	58212.61
636.645	58258.93
636.999	58133.06
637.352	58167.86
637.706	58044.02
638.06	58136.9
638.413	58003.57
638.767	57993.18
639.121	57973.74
639.474	57863.46
639.828	57852.62
640.181	57920.41
640.534	57834.99
640.888	57731.94
641.241	57702.56
641.594	57697.59
641.947	57676.8
642.301	57644.71
642.654	57632.96
643.007	57629.35
643.36	57621.89
643.713	57576.24
644.066	57738.5
644.419	57446.07
644.771	57348.9
645.124	57061.68
645.477	57150.49
645.83	56989.59
646.182	56879.76
646.535	56718.41
646.888	56757.05
647.24	56648.58
647.593	56762.93
647.945	56746.21
648.298	56616.94
648.65	56567.23
649.002	56497.62
649.355	56690.61
649.707	56644.97
650.059	56715.47
650.411	57077.5
650.763	57142.13
651.115	57347.09
651.467	57201.11
651.819	57257.15
652.171	57161.11
652.523	57112.3
652.875	57142.35
653.227	57096.93
653.578	57337.83
653.93	57161.34
654.282	57047.21
654.633	57088.12
654.985	57069.59
655.337	57096.25
655.688	57072.98
656.039	57139.87
656.391	56899.42
656.742	56987.56
657.094	56987.1
657.445	57015.58
657.796	56909.82
658.147	56860.1
658.498	56982.58
658.849	56871.17
659.2	56771.29
659.551	56763.61
659.902	56783.94
660.253	56664.63
660.604	56754.79
660.955	56612.42
661.306	56691.97
661.656	56492.2
662.007	56595.25
662.358	56467.12
662.708	56498.08
663.059	56478.87
663.409	56269.61
663.76	56458.98
664.11	56399.32
664.461	56352.54
664.811	56335.82
665.161	56324.52
665.511	56219.21
665.862	56327.69
666.212	56312.77
666.562	56172.44
666.912	56236.16
667.262	56157.97
667.612	56088.14
667.962	56160.91
668.312	56038.2
668.662	56144.41
669.011	56065.32
669.361	55957.53
669.711	55976.06
670.06	55964.53
670.41	55934.48
670.76	55865.55
671.109	55985.1
671.459	55906.68
671.808	55878.88
672.157	55886.79
672.507	55725.44
672.856	55698.32
673.205	55885.66
673.554	55862.61
673.904	55828.26
674.253	55908.94
674.602	55798.66
674.951	55394.6
675.3	55195.29
675.649	55746.23
675.998	55617.65
676.346	55631.43
676.695	55795.04
677.044	55548.72
677.393	55703.75
677.741	55737.42
678.09	55610.42
678.438	55597.99
678.787	55613.35
679.135	55566.8
679.484	55386.92
679.832	55669.85
680.181	55385.34
680.529	55521.15
680.877	55358.9
681.225	55307.83
681.573	55544.66
681.922	55296.98
682.27	55209.75
682.618	55219.69
682.966	55193.25
683.314	55164.33
683.661	55092.24
684.009	54936.08
684.357	54900.38
684.705	54904.67
685.053	54865.13
685.4	54788.07
685.748	54618.58
686.095	54634.17
686.443	54625.81
686.79	54532.7
687.138	54586.26
687.485	54541.07
687.832	54383.56
688.18	54402.76
688.527	54180.85
688.874	54229.44
689.221	54095.43
689.568	54108.08
689.915	53994.19
690.262	53995.54
690.609	53883.68
690.956	53675.33
691.303	53670.13
691.65	53585.16
691.997	53537.7
692.344	53293.64
692.69	53302.68
693.037	53300.19
693.383	53007.55
693.73	53245.73
694.077	52935.68
694.423	53007.55
694.769	52794.22
695.116	52699.53
695.462	52760.32
695.808	52648.23
696.155	52669.02
696.501	52447.56
696.847	52377.06
697.193	52145.65
697.539	52252.99
697.885	52083.73
698.231	51965.54
698.577	51915.82
698.923	51895.26
699.269	51693.46
699.614	51471.99
699.96	51471.77
700.306	51550.86
700.651	51297.54
700.997	51257.08
701.342	51096.64
701.688	51100.93
702.033	50964.66
702.379	50995.85
702.724	50856.42
703.069	50969.18
703.415	50690.32
703.76	50649.42
704.105	50740.94
704.45	50547.95
704.795	50364.9
705.14	50245.81
705.485	50229.77
705.83	50008.53
706.175	50070.67
706.52	49910.23
706.865	49807.18
707.209	49806.73
707.554	49806.73
707.899	49780.29
708.243	49594.76
708.588	49531.48
708.932	49338.94
709.277	49231.83
709.621	49326.29
709.966	49037.48
710.31	49182.11
710.654	48816.02
710.998	48782.12
711.342	48822.35
711.687	48778.96
712.031	48647.89
712.375	48443.83
712.719	48477.27
713.063	48344.62
713.407	48487.67
713.75	48244.51
714.094	48287.22
714.438	47977.4
714.782	48017.85
715.125	47838.42
715.469	47832.77
715.812	47733.11
716.156	47437.07
716.499	47598.2
716.843	47479.1
717.186	47030.75
717.53	47213.8
717.873	47162.28
718.216	47042.96
718.559	46905.11
718.902	46668.73
719.246	46680.03
719.589	46493.37
719.932	46433.03
720.275	46410.88
720.617	46385.35
720.96	46215.86
721.303	46235.3
721.646	46273.26
721.989	46048.18
722.331	46096.77
722.674	45925.7
723.016	46023.32
723.359	45843.44
723.701	45773.39
724.044	45626.05
724.386	45284.36
724.729	45673.05
725.071	45405.26
725.413	45334.08
725.755	45228.77
726.097	45123.01
726.439	44982.9
726.782	45011.82
727.124	45095.44
727.465	44880.53
727.807	44793.75
728.149	44723.47
728.491	44797.37
728.833	44720.99
729.175	44521.44
729.516	44482.12
729.858	44280.77
730.199	44307.21
730.541	44233.54
730.882	44266.76
731.224	44306.31
731.565	44036.94
731.906	44074.45
732.248	44067.22
732.589	43988.35
732.93	43624.74
733.271	43740.9
733.612	43708.13
733.953	43822.25
734.294	43486.89
734.635	43302.94
734.976	43560.34
735.317	43323.51
735.658	43340.91
735.999	43403.28
736.339	43246.9
736.68	43372.55
737.021	43229.95
737.361	43172.33
737.702	43241.93
738.042	43100.01
738.383	42909.28
738.723	42987.47
739.063	42841.03
739.404	43010.75
739.744	42892.11
740.084	42673.13
740.424	42754.71
740.764	42599.68
741.104	42854.59
741.444	42470.42
741.784	42397.2
742.124	42311.1
742.464	42250.99
742.804	42298.9
743.143	42248.96
743.483	42227.04
743.823	41949.53
744.162	41977.78
744.502	42105.91
744.841	41806.49
745.181	41980.94
745.52	41852.81
745.86	41745.47
746.199	41841.29
746.538	41714.28
746.877	41737.11
747.216	41496.44
747.556	41264.8
747.895	41528.3
748.234	41096.9
748.573	41004.02
748.911	41107.75
749.25	41084.24
749.589	40741.43
749.928	40853.97
750.267	40918.15
750.605	40619.4
750.944	40649.45
751.283	40415.34
751.621	40564.48
751.96	40176.25
752.298	40194.55
752.636	40183.03
752.975	39914.11
753.313	39888.8
753.651	39967.44
753.989	39704.17
754.327	39647.22
754.666	39342.37
755.004	39398.64
755.342	39333.78
755.679	39139.89
756.017	38931.08
756.355	39055.6
756.693	38892.66
757.031	38980.35
757.368	38644.31
757.706	38471.66
758.044	38361.15
758.381	38299.46
758.719	38188.28
759.056	38110.09
759.394	38078.67
759.731	37714.62
760.068	37808.4
760.405	37566.6
760.743	37459.71
761.08	37392.59
761.417	37113.95
761.754	37241.41
762.091	37078.93
762.428	36860.63
762.765	36732.49
763.102	36821.31
763.438	36529.56
763.775	36354.2
764.112	36410.02
764.449	36446.63
764.785	36378.83
765.122	36072.62
765.458	35830.6
765.795	35872.18
766.131	35836.02
766.467	35636.03
766.804	35353.55
767.14	35428.35
767.476	35368.91
767.812	35040.11
768.148	35361.01
768.485	34996.27
768.821	34801.7
769.157	34821.36
769.492	34566.45
769.828	34681.48
770.164	34420.92
770.5	34334.14
770.836	34224.99
771.171	34059.34
771.507	34000.59
771.842	33805.11
772.178	33948.84
772.513	33735.51
772.849	33563.09
773.184	33513.82
773.519	33630.2
773.855	33407.38
774.19	33157.45
774.525	33049.2
774.86	33069.09
775.195	33001.97
775.53	32812.37
775.865	32642.21
776.2	32533.28
776.535	32443.57
776.87	32345.49
777.205	32178.26
777.539	32121.77
777.874	32283.57
778.209	31918.84
778.543	31790.93
778.878	31727.65
779.212	31707.77
779.547	31423.71
779.881	31546.64
780.215	31280.43
780.55	31423.71
780.884	31091.29
781.218	30956.38
781.552	30988.92
781.886	30780.56
782.22	30656.72
782.554	30425.09
782.888	30129.96
783.222	30063.74
783.556	30131.31
783.889	30013.35
784.223	29830.98
784.557	29751.44
784.89	29742.17
785.224	29593.47
785.557	29422.63
785.891	29418.56
786.224	29299.7
786.558	29290.66
786.891	29052.24
787.224	28983.09
787.557	28885.92
787.891	28759.6
788.224	28701.52
788.557	28817.9
788.89	28540.39
789.223	28465.14
789.556	28254.75
789.888	28337.69
790.221	28116.22
790.554	27846.63
790.887	27869.22
791.219	27699.74
791.552	27598.5
791.884	27600.98
792.217	27369.8
792.549	27261.11
792.882	26965.97
793.214	27064.27
793.546	27048
793.879	26822.92
794.211	26617.96
794.543	26731.85
794.875	26698.86
795.207	26631.97
795.539	26427
795.871	26426.78
796.203	26121.47
796.535	25847.13
796.867	25933.46
797.198	25861.82
797.53	25754.03
797.862	25506.35
798.193	25680.58
798.525	25374.15
798.856	25427.71
799.188	25207.37
799.519	25096.42
799.85	25032.46
800.182	24916.53
800.513	24867.72
800.844	24672.25
801.175	24775.29
801.506	24735.52
801.837	24642.42
802.168	24552.02
802.499	24504.34
802.83	24274.97
803.161	24291.47
803.491	24260.05
803.822	24270.22
804.153	24036.78
804.483	23885.37
804.814	23817.35
805.145	23803.8
805.475	23643.35
805.805	23670.24
806.136	23611.26
806.466	23579.17
806.796	23559.06
807.126	23449.68
807.457	23355.67
807.787	23367.2
808.117	23382.56
808.447	23226.86
808.777	23265.73
809.107	23124.04
809.436	23042.23
809.766	22982.8
810.096	22962.24
810.426	22796.14
810.755	22881.11
811.085	22821.9
811.414	22778.96
811.744	22706.42
812.073	22677.04
812.403	22701.23
812.732	22428.69
813.061	22646.54
813.39	22388.69
813.719	22357.05
814.049	22502.59
814.378	22345.98
814.707	22330.16
815.036	22240.67
815.365	22130.84
815.693	21901.02
816.022	22045.88
816.351	21973.79
816.68	21808.59
817.008	21875.26
817.337	21652.89
817.665	21740.8
817.994	21829.16
818.322	21820.8
818.651	21640.24
818.979	21517.53
819.307	21618.32
819.636	21501.93
819.964	21456.51
820.292	21484.08
820.62	21428.49
820.948	21450.64
821.276	21555.49
821.604	21409.96
821.932	21447.47
822.259	21464.65
822.587	21398.43
822.915	21331.32
823.243	21387.14
823.57	21356.18
823.898	21435.72
824.225	21331.77
824.553	21326.57
824.88	21457.64
825.207	21480.24
825.535	21419.45
825.862	21430.75
826.189	21354.82
826.516	21472.56
826.843	21510.97
827.17	21469.39
827.497	21430.52
827.824	21526.57
828.151	21554.36
828.478	21390.75
828.805	21459.9
829.131	21370.86
829.458	21303.52
829.785	21318.21
830.111	21323.41
830.438	21410.86
830.764	21206.12
831.09	21242.51
831.417	21108.5
831.743	21311.43
832.069	21174.49
832.395	21179.91
832.722	21185.33
833.048	20967.03
833.374	20985.11
833.7	20861.73
834.026	20925
834.351	20970.65
834.677	20904.89
835.003	20890.2
835.329	20791.44
835.654	20824.44
835.98	20655.63
836.306	20722.75
836.631	20674.39
836.956	20685.46
837.282	20528.85
837.607	20520.04
837.932	20464.22
838.258	20498.57
838.583	20400.49
838.908	20366.6
839.233	20337.9
839.558	20226.04
839.883	20186.26
840.208	20086.38
840.533	20076.44
840.858	19995.53
841.182	19888.87
841.507	19999.15
841.832	19937
842.156	19808.87
842.481	19845.26
842.805	19602.78
843.13	19668.31
843.454	19611.36
843.778	19543.12
844.103	19515.55
844.427	19451.37
844.751	19410.01
845.075	19379.73
845.399	19376.79
845.723	19213.41
846.047	19200.98
846.371	18953.53
846.695	19093.86
847.019	18931.61
847.343	18873.98
847.666	18710.14
847.99	18671.73
848.313	18612.07
848.637	18401.9
848.96	18461.79
849.284	18436.25
849.607	18198.29
849.931	18303.6
850.254	18182.7
850.577	18027
850.9	17914.68
851.223	17868.58
851.546	17865.42
851.869	17801.92
852.192	17893.22
852.515	17745.2
852.838	17587.46
853.161	17580.46
853.483	17482.38
853.806	17440.8
854.129	17472.21
854.451	17358.77
854.774	17306.79
855.096	17159
855.419	17193.12
855.741	17151.77
856.063	17035.84
856.385	17004.88
856.708	17010.08
857.03	17110.64
857.352	16880.59
857.674	16862.96
857.996	16914.71
858.318	16759.91
858.64	16812.11
858.961	16771.89
859.283	16672.46
859.605	16592.23
859.926	16634.49
860.248	16601.72
860.57	16549.52
860.891	16553.59
861.212	16516.53
861.534	16486.25
861.855	16473.14
862.176	16456.64
862.498	16366.02
862.819	16458.9
863.14	16271.11
863.461	16305.91
863.782	16297.78
864.103	16338.45
864.424	16127.61
864.745	16234.5
865.065	16115.18
865.386	16081.96
865.707	16104.34
866.027	16161.96
866.348	16025.69
866.668	16026.6
866.989	15996.99
867.309	15909.99
867.63	15874.29
867.95	15928.3
868.27	15860.73
868.59	15957.67
868.91	15966.26
869.23	15829.99
869.55	15777.79
869.87	15953.38
870.19	15740.96
870.51	15901.18
870.83	15884.68
871.15	15783.67
871.469	15688.08
871.789	15803.55
872.109	15747.06
872.428	15615.54
872.748	15708.64
873.067	15673.16
873.386	15669.09
873.706	15604.24
874.025	15499.38
874.344	15500.28
874.663	15535.54
874.982	15550.45
875.301	15458.25
875.62	15485.14
875.939	15264.36
876.258	15314.07
876.577	15250.35
876.896	15270.01
877.214	15243.12
877.533	15223.68
877.852	15140.07
878.17	15172.84
878.489	15036.34
878.807	15170.12
879.125	15061.88
879.444	14992.95
879.762	14856.23
880.08	14879.96
880.398	14799.96
880.716	14793.86
881.034	14749.34
881.352	14750.7
881.67	14697.59
881.988	14745.95
882.306	14707.54
882.624	14635.9
882.941	14513.64
883.259	14464.38
883.577	14464.15
883.894	14475.45
884.212	14466.64
884.529	14407.88
884.846	14280.2
885.164	14285.63
885.481	14171.28
885.798	14221.45
886.115	14112.98
886.432	14048.57
886.75	14009.48
887.067	14044.73
887.383	13930.61
887.7	13892.64
888.017	13830.72
888.334	13792.76
888.651	13796.83
888.967	13774
889.284	13705.3
889.6	13665.08
889.917	13567.23
890.233	13529.71
890.55	13484.52
890.866	13554.35
891.182	13451.98
891.498	13365.88
891.815	13370.62
892.131	13317.52
892.447	13239.78
892.763	13225.54
893.079	13214.69
893.395	13161.14
893.71	13170.85
894.026	13049.28
894.342	13037.52
894.657	12892.67
894.973	12968.15
895.289	12897.42
895.604	12829.17
895.92	12780.58
896.235	12756.18
896.55	12757.98
896.865	12688.83
897.181	12595.28
897.496	12644.09
897.811	12668.95
898.126	12594.15
898.441	12518.44
898.756	12474.15
899.071	12421.27
899.386	12396.19
899.7	12283.65
900.015	12281.61
900.33	12149.41
900.644	12167.04
900.959	12203.2
901.273	12154.16
901.588	12135.63
901.902	12000.94
902.216	12050.88
902.531	11934.05
902.845	11903.99
903.159	11812.47
903.473	11783.55
903.787	11754.39
904.101	11704.23
904.415	11769.76
904.729	11772.02
905.042	11633.49
905.356	11664.45
905.67	11640.95
905.984	11570.67
906.297	11554.4
906.611	11452.26
906.924	11366.61
907.237	11361.64
907.551	11354.4
907.864	11321.19
908.177	11290.9
908.491	11214.07
908.804	11118.7
909.117	11087.07
909.43	11086.84
909.743	11069.44
910.056	10899.95
910.368	10895.66
910.681	10880.29
910.994	10875.55
911.307	10869.67
911.619	10710.35
911.932	10754.42
912.244	10634.88
912.557	10705.38
912.869	10603.24
913.181	10589
913.494	10625.16
913.806	10454.77
914.118	10453.86
914.43	10401.89
914.742	10419.97
915.054	10301.1
915.366	10315.11
915.678	10339.29
915.99	10238.95
916.302	10169.13
916.613	10183.81
916.925	10041.45
917.236	10153.08
917.548	10039.86
917.859	10043.25
918.171	9981.11
918.482	9935.23
918.794	9913.54
919.105	9876.25
919.416	9868.79
919.727	9823.82
920.038	9777.72
920.349	9669.25
920.66	9693.66
920.971	9680.78
921.282	9633.77
921.593	9490.5
921.903	9514.45
922.214	9473.78
922.525	9524.17
922.835	9433.33
923.146	9417.73
923.456	9355.36
923.767	9336.83
924.077	9351.97
924.387	9261.58
924.697	9197.63
925.008	9144.97
925.318	9043.73
925.628	9058.87
925.938	8973.9
926.248	8951.76
926.558	8947.01
926.867	8895.26
927.177	8820.01
927.487	8756.51
927.796	8725.55
928.106	8714.7
928.416	8636.51
928.725	8676.51
929.034	8553.12
929.344	8597.19
929.653	8514.93
929.962	8460.92
930.271	8371.66
930.581	8371.66
930.89	8353.13
931.199	8297.54
931.508	8242.62
931.817	8164.43
932.125	8215.5
932.434	8133.7
932.743	8051.21
933.051	7986.58
933.36	8013.25
933.669	7895.96
933.977	7869.52
934.286	7840.6
934.594	7872.69
934.902	7809.64
935.21	7736.19
935.519	7751.56
935.827	7755.18
936.135	7664.11
936.443	7565.8
936.751	7577.78
937.059	7491.91
937.367	7434.96
937.674	7395.86
937.982	7399.71
938.29	7369.2
938.597	7324.45
938.905	7199.26
939.213	7230.67
939.52	7237.22
939.827	7223.67
940.135	7117.91
940.442	7102.99
940.749	7033.16
941.056	7085.59
941.363	6984.58
941.67	7014.86
941.977	6971.24
942.284	6943.67
942.591	6895.54
942.898	6863.45
943.205	6827.52
943.511	6764.02
943.818	6673.4
944.125	6688.09
944.431	6705.26
944.738	6628.65
945.044	6694.41
945.35	6639.95
945.657	6546.62
945.963	6582.78
946.269	6519.73
946.575	6468.66
946.881	6448.55
947.187	6470.47
947.493	6451.26
947.799	6378.49
948.105	6354.76
948.41	6320.64
948.716	6355.67
949.022	6321.09
949.327	6269.79
949.633	6241.09
949.938	6231.38
950.244	6223.69
950.549	6189.57
950.854	6169.68
951.16	6172.17
951.465	6107.54
951.77	6027.54
952.075	6028.67
952.38	6008.78
952.685	5975.56
952.99	5983.25
953.294	5936.02
953.599	5879.75
953.904	5897.37
954.209	5840.65
954.513	5871.61
954.818	5821.44
955.122	5783.03
955.426	5798.17
955.731	5736.25
956.035	5717.26
956.339	5687.89
956.643	5674.78
956.948	5590.04
957.252	5606.76
957.556	5602.92
957.86	5527.21
958.163	5539.19
958.467	5538.29
958.771	5510.26
959.075	5527.89
959.378	5463.03
959.682	5412.64
959.985	5430.94
960.289	5378.06
960.592	5332.87
960.896	5333.77
961.199	5373.09
961.502	5297.16
961.805	5348.01
962.108	5282.47
962.411	5242.7
962.714	5160.44
963.017	5222.59
963.32	5184.62
963.623	5098.98
963.926	5104.4
964.228	5134
964.531	5122.25
964.833	5097.17
965.136	5044.97
965.438	5040.22
965.741	4992.99
966.043	5037.51
966.345	4976.72
966.648	4977.4
966.95	4946.44
967.252	4878.42
967.554	4913.44
967.856	4842.94
968.158	4831.19
968.46	4884.74
968.761	4855.37
969.063	4819.21
969.365	4732.21
969.666	4726.56
969.968	4706.22
970.269	4753
970.571	4716.16
970.872	4682.49
971.174	4690.85
971.475	4676.61
971.776	4604.75
972.077	4604.07
972.378	4547.58
972.679	4544.41
972.98	4566.11
973.281	4571.53
973.582	4552.55
973.883	4491.99
974.183	4503.74
974.484	4442.95
974.785	4460.35
975.085	4438.65
975.386	4468.03
975.686	4397.07
975.986	4361.82
976.287	4360.69
976.587	4362.05
976.887	4352.56
977.187	4330.41
977.487	4326.57
977.787	4307.13
978.087	4289.05
978.387	4291.54
978.687	4254.93
978.987	4206.8
979.286	4180.58
979.586	4147.81
979.885	4148.27
980.185	4128.83
980.484	4087.7
980.784	4117.53
981.083	4087.93
981.382	4044.31
981.682	4092.67
981.981	4031.43
982.28	4012.23
982.579	3984.2
982.878	3968.16
983.177	3918.89
983.475	3921.61
983.774	3856.3
984.073	3873.7
984.372	3857.88
984.67	3815.85
984.969	3822.17
985.267	3762.06
985.566	3785.79
985.864	3720.03
986.162	3691.78
986.461	3673.93
986.759	3635.51
987.057	3620.82
987.355	3604.1
987.653	3615.17
987.951	3596.42
988.249	3546.25
988.547	3535.4
988.844	3558.45
989.142	3537.21
989.44	3474.39
989.737	3445.23
990.035	3382.86
990.332	3425.35
990.63	3386.7
990.927	3345.58
991.224	3355.29
991.521	3346.03
991.819	3311.23
992.116	3297.89
992.413	3289.53
992.71	3237.33
993.006	3251.79
993.303	3228.06
993.6	3206.82
993.897	3186.26
994.193	3177.9
994.49	3144.9
994.787	3110.1
995.083	3098.58
995.379	3106.49
995.676	3065.81
995.972	3129.54
996.268	3043.44
996.565	3049.31
996.861	3033.49
997.157	3020.84
997.453	2939.48
997.749	2981.74
998.044	2975.87
998.34	2876.44
998.636	2898.58
998.932	2932.48
999.227	2860.39
999.523	2859.26
999.818	2818.58
1000.114	2843.22
1000.409	2820.39
1000.704	2778.81
1001	2764.35
1001.295	2801.64
1001.59	2736.55
1001.885	2719.15
1002.18	2746.27
1002.475	2730.22
1002.77	2694.52
1003.065	2684.58
1003.359	2657.01
1003.654	2686.16
1003.949	2625.14
1004.243	2640.28
1004.538	2600.96
1004.832	2608.65
1005.127	2578.59
1005.421	2598.93
1005.715	2549.89
1006.009	2537.91
1006.304	2537.01
1006.598	2528.42
1006.892	2480.06
1007.186	2475.99
1007.48	2480.74
1007.773	2478.93
1008.067	2440.51
1008.361	2415.43
1008.655	2388.09
1008.948	2405.04
1009.242	2393.06
1009.535	2327.52
1009.829	2377.01
1010.122	2353.74
1010.415	2319.39
1010.708	2330.91
1011.001	2304.93
1011.295	2320.74
1011.588	2299.95
1011.881	2265.15
1012.173	2263.12
1012.466	2268.99
1012.759	2228.32
1013.052	2225.83
1013.344	2197.13
1013.637	2201.65
1013.93	2198.26
1014.222	2153.52
1014.514	2151.71
1014.807	2156.68
1015.099	2126.17
1015.391	2131.37
1015.683	2127.3
1015.976	2082.33
1016.268	2093.18
1016.56	2055.21
1016.851	2063.8
1017.143	2066.97
1017.435	2021.77
1017.727	2016.35
1018.018	2003.92
1018.31	1979.28
1018.602	1994.88
1018.893	1955.1
1019.185	1959.17
1019.476	1929.34
1019.767	1939.06
1020.058	1920.98
1020.35	1885.28
1020.641	1858.38
1020.932	1843.02
1021.223	1849.12
1021.514	1862
1021.804	1830.14
1022.095	1848.67
1022.386	1812.06
1022.677	1788.78
1022.967	1734.54
1023.258	1761.44
1023.548	1765.05
1023.839	1748.33
1024.129	1742.91
1024.419	1692.96
1024.709	1700.87
1025	1718.27
1025.29	1689.57
1025.58	1679.4
1025.87	1684.6
1026.16	1643.25
1026.449	1664.94
1026.739	1646.86
1027.029	1628.33
1027.319	1627.88
1027.608	1607.77
1027.898	1614.55
1028.187	1616.13
1028.477	1590.14
1028.766	1546.98
1029.055	1557.37
1029.344	1574.1
1029.634	1537.26
1029.923	1545.17
1030.212	1529.8
1030.501	1512.86
1030.79	1510.82
1031.078	1521.9
1031.367	1489.13
1031.656	1469.24
1031.945	1500.88
1032.233	1453.87
1032.522	1455.23
1032.81	1452.74
1033.099	1421.78
1033.387	1425.63
1033.675	1439.19
1033.963	1401.45
1034.251	1406.42
1034.54	1396.7
1034.828	1398.96
1035.116	1384.27
1035.403	1361
1035.691	1334.56
1035.979	1339.53
1036.267	1340.2
1036.554	1321.67
1036.842	1323.93
1037.129	1313.99
1037.417	1321.9
1037.704	1302.01
1037.992	1281.9
1038.279	1275.8
1038.566	1269.7
1038.853	1269.7
1039.14	1269.7
