Data from white_steel_sheet_FLMS001491_003.txt Node
Date: Tue Feb 07 10:57:18 GMT 2017
User: dcchb
Spectrometer: FLMS00149
Trigger mode: 0
Integration Time (sec): 2.000000E-2
Scans to average: 10
Electric dark correction enabled: true
Nonlinearity correction enabled: false
Boxcar width: 0
XAxis mode: Wavelengths
Number of Pixels in Spectrum: 2048
>>>>>Begin Spectral Data<<<<<
341.393	0.83
341.776	0.83
342.16	0.83
342.543	-53.18
342.927	-65.15
343.31	-64.25
343.693	-62.22
344.077	-72.16
344.46	-59.73
344.843	-53.85
345.226	-42.78
345.61	-26.96
345.993	-22.44
346.376	10.78
346.759	17.33
347.142	22.3
347.525	39.02
347.908	68.18
348.291	67.95
348.674	98.01
349.057	80.83
349.44	110.66
349.823	145.01
350.206	157.21
350.588	190.43
350.971	191.34
351.354	239.47
351.737	237.21
352.119	247.15
352.502	259.13
352.884	279.24
353.267	300.26
353.65	324.44
354.032	291.22
354.414	303.88
354.797	310.2
355.179	325.8
355.562	317.21
355.944	320.15
356.326	316.98
356.709	344.78
357.091	348.62
357.473	361.05
357.855	350.43
358.238	344.78
358.62	347.94
359.002	359.92
359.384	360.37
359.766	347.49
360.148	338.68
360.53	343.65
360.912	332.8
361.294	360.15
361.676	340.03
362.057	321.05
362.439	339.58
362.821	345.23
363.203	345.46
363.584	330.09
363.966	293.93
364.348	335.74
364.729	311.11
365.111	345.68
365.493	329.86
365.874	318.79
366.256	341.39
366.637	340.49
367.019	314.95
367.4	337.55
367.781	318.34
368.163	338.45
368.544	322.63
368.925	310.43
369.306	323.31
369.688	332.35
370.069	322.63
370.45	340.71
370.831	333.25
371.212	318.79
371.593	326.7
371.974	329.41
372.355	302.97
372.736	325.57
373.117	344.33
373.498	334.61
373.879	310.43
374.26	333.03
374.641	341.39
375.021	347.26
375.402	340.49
375.783	351.33
376.163	345.23
376.544	358.79
376.925	344.33
377.305	345.46
377.686	333.71
378.066	338.23
378.447	344.33
378.827	369.86
379.208	356.53
379.588	338.23
379.968	368.28
380.349	364.89
380.729	356.53
381.109	374.83
381.489	349.3
381.87	360.6
382.25	364.89
382.63	346.59
383.01	380.94
383.39	361.73
383.77	370.32
384.15	382.29
384.53	378
384.91	383.87
385.29	368.96
385.67	395.63
386.049	384.33
386.429	378
386.809	404.21
387.189	388.17
387.568	387.49
387.948	401.5
388.328	406.47
388.707	401.5
389.087	408.28
389.466	396.08
389.846	405.12
390.225	423.42
390.605	432.46
390.984	408.05
391.363	421.61
391.743	416.64
392.122	455.74
392.501	440.14
392.881	460.48
393.26	448.28
393.639	460.71
394.018	487.6
394.397	450.09
394.776	464.1
395.155	469.07
395.534	462.52
395.913	477.66
396.292	494.38
396.671	514.49
397.05	486.7
397.429	498.45
397.808	536.86
398.186	527.37
398.565	517.2
398.944	540.25
399.323	537.09
399.701	528.73
400.08	541.38
400.458	544.77
400.837	568.95
401.215	558.56
401.594	571.44
401.972	589.97
402.351	596.07
402.729	583.87
403.107	596.75
403.486	623.19
403.864	623.87
404.242	632.23
404.62	660.7
404.999	636.75
405.377	677.43
405.755	635.84
406.133	674.94
406.511	681.95
406.889	702.06
407.267	702.06
407.645	697.54
408.023	734.15
408.401	774.37
408.779	767.82
409.156	787.25
409.534	765.56
409.912	792.22
410.29	782.51
410.667	797.65
411.045	832.68
411.422	827.93
411.8	823.41
412.178	862.96
412.555	901.37
412.933	865.9
413.31	902.73
413.687	901.6
414.065	935.05
414.442	941.6
414.819	920.13
415.197	960.13
415.574	989.28
415.951	971.88
416.328	973.46
416.705	981.15
417.082	1006.68
417.46	1027.92
417.837	1050.52
418.214	1030.41
418.591	1066.34
418.967	1052.56
419.344	1049.17
419.721	1093.91
420.098	1082.84
420.475	1118.09
420.852	1123.74
421.228	1161.03
421.605	1144.76
421.982	1142.72
422.358	1153.35
422.735	1163.74
423.111	1160.58
423.488	1179.79
423.864	1187.02
424.241	1215.04
424.617	1247.58
424.994	1232.89
425.37	1250.07
425.746	1279.67
426.123	1285.55
426.499	1306.34
426.875	1295.71
427.251	1321.7
427.627	1333
428.003	1349.5
428.379	1369.38
428.756	1402.15
429.132	1416.39
429.507	1432.66
429.883	1443.96
430.259	1462.94
430.635	1519.89
431.011	1495.48
431.387	1543.62
431.763	1550.4
432.138	1551.75
432.514	1572.54
432.89	1629.27
433.265	1643.95
433.641	1672.88
434.016	1660.45
434.392	1703.61
434.767	1729.83
435.143	1745.65
435.518	1764.85
435.894	1758.53
436.269	1815.93
436.644	1830.16
437.02	1843.04
437.395	1832.65
437.77	1843.04
438.145	1916.94
438.52	1931.63
438.895	1924.85
439.271	1932.53
439.646	2005.98
440.021	2024.96
440.395	2004.62
440.77	2019.76
441.145	2029.03
441.52	2057.28
441.895	2073.1
442.27	2073.1
442.645	2105.64
443.019	2147.67
443.394	2170.04
443.769	2144.28
444.143	2122.13
444.518	2197.16
444.892	2195.8
445.267	2234.45
445.641	2246.2
446.016	2238.74
446.39	2246.42
446.764	2299.08
447.139	2300.89
447.513	2325.07
447.887	2337.27
448.262	2361.22
448.636	2370.71
449.01	2393.76
449.384	2416.14
449.758	2440.77
450.132	2494.33
450.506	2501.33
450.88	2508.79
451.254	2489.36
451.628	2551.5
452.002	2533.42
452.376	2575
452.75	2624.49
453.123	2647.54
453.497	2693.87
453.871	2689.35
454.244	2728.9
454.618	2759.86
454.992	2786.3
455.365	2809.57
455.739	2871.27
456.112	2920.76
456.486	2933.41
456.859	2948.1
457.232	2969.79
457.606	3027.42
457.979	3058.38
458.352	3104.71
458.725	3144.93
459.099	3157.13
459.472	3253.18
459.845	3261.31
460.218	3318.94
460.591	3286.4
460.964	3331.14
461.337	3413.85
461.71	3455.66
462.083	3492.94
462.456	3521.19
462.829	3546.5
463.201	3645.71
463.574	3658.82
463.947	3659.72
464.32	3744.24
464.692	3759.38
465.065	3781.52
465.438	3894.74
465.81	3904.01
466.183	3927.96
466.555	4018.58
466.928	4067.17
467.3	4042.53
467.672	4103.1
468.045	4228.74
468.417	4265.58
468.789	4299.25
469.161	4365.24
469.534	4427.38
469.906	4468.74
470.278	4524.56
470.65	4577.21
471.022	4667.83
471.394	4745.57
471.766	4810.88
472.138	4878.67
472.51	4902.4
472.882	5058.1
473.253	5054.49
473.625	5140.59
473.997	5269.4
474.369	5249.51
474.74	5333.57
475.112	5407.7
475.484	5538.54
475.855	5674.36
476.227	5642.94
476.598	5784.86
476.97	5869.15
477.341	6011.52
477.713	6107.79
478.084	6124.97
478.455	6295.13
478.827	6328.58
479.198	6517.95
479.569	6548.91
479.94	6744.61
480.311	6754.78
480.682	6929.92
481.053	7076.81
481.424	7183.47
481.795	7181.66
482.166	7420.53
482.537	7492.39
482.908	7671.14
483.279	7745.26
483.65	7894.64
484.021	8030
484.391	8092.6
484.762	8180.51
485.133	8266.38
485.503	8411.69
485.874	8590.21
486.244	8693.94
486.615	8790.88
486.985	8908.4
487.356	9083.76
487.726	9170.54
488.097	9393.35
488.467	9367.37
488.837	9563.97
489.207	9695.95
489.578	9824.53
489.948	9860.01
490.318	10089.38
490.688	10143.17
491.058	10271.3
491.428	10477.62
491.798	10535.7
492.168	10736.82
492.538	10755.13
492.908	10891.17
493.278	11050.94
493.648	11063.14
494.017	11228.79
494.387	11345.62
494.757	11455.45
495.126	11529.12
495.496	11555.11
495.866	11712.62
496.235	11831.93
496.605	11989.9
496.974	12018.82
497.344	12167.97
497.713	12220.4
498.082	12322.32
498.452	12552.14
498.821	12505.82
499.19	12646.38
499.559	12666.26
499.928	12791.23
500.298	12894.96
500.667	13034.61
501.036	13023.09
501.405	13185.57
501.774	13275.29
502.143	13369.52
502.512	13447.26
502.88	13526.81
503.249	13560.93
503.618	13755.73
503.987	13746.46
504.356	13845.44
504.724	14052.89
505.093	14050.86
505.462	14112.33
505.83	14245.88
506.199	14370.4
506.567	14591.18
506.936	14487.46
507.304	14737.17
507.672	14790.73
508.041	14841.8
508.409	14971.74
508.777	15171.96
509.145	15182.81
509.514	15288.11
509.882	15413.08
510.25	15503.02
510.618	15595
510.986	15690.59
511.354	15842
511.722	16001.99
512.09	16163.57
512.458	16236.11
512.826	16298.94
513.193	16383.45
513.561	16551.58
513.929	16664.8
514.297	16898.02
514.664	16928.98
515.032	16978.24
515.4	17151.79
515.767	17296.42
516.135	17398.79
516.502	17424.1
516.869	17659.35
517.237	17690.54
517.604	17675.85
517.972	17864.09
518.339	18062.05
518.706	18068.61
519.073	18279.67
519.44	18482.61
519.808	18633.34
520.175	18677.18
520.542	18963.5
520.909	19027.23
521.276	19039.65
521.643	19234.68
522.009	19452.3
522.376	19458.63
522.743	19647.77
523.11	19960.31
523.477	20065.16
523.843	20191.04
524.21	20485.49
524.577	20427.19
524.943	20638.03
525.31	20843.9
525.676	20979.72
526.043	21157.34
526.409	21318.69
526.776	21465.58
527.142	21577.89
527.508	21765.91
527.874	21870.77
528.241	21997.77
528.607	22083.42
528.973	22395.95
529.339	22335.16
529.705	22573.8
530.071	22643.18
530.437	22844.07
530.803	22934.02
531.169	23070.96
531.535	23179.43
531.901	23291.52
532.267	23348.47
532.632	23625.07
532.998	23666.2
533.364	23856.93
533.73	23905.06
534.095	24090.6
534.461	24149.58
534.826	24290.82
535.192	24355.22
535.557	24616.46
535.923	24478.16
536.288	24706.62
536.653	24794.08
537.019	24784.36
537.384	24922.89
537.749	25063.68
538.114	25131.47
538.479	25115.2
538.845	25397.23
539.21	25231.58
539.575	25419.37
539.94	25482.2
540.305	25672.02
540.67	25702.76
541.034	25785.01
541.399	26021.84
541.764	26095.29
542.129	26118.11
542.494	26197.43
542.858	26250.76
543.223	26331.21
543.587	26632.45
543.952	26493.92
544.316	26672
544.681	26754.48
545.045	26804.42
545.41	26963.97
545.774	27062.04
546.138	27111.53
546.503	27096.39
546.867	27292.77
547.231	27517.62
547.595	27437.85
547.959	27622.71
548.324	27718.75
548.688	27684.17
549.052	27904.73
549.416	27784.06
549.779	27956.03
550.143	28013.2
550.507	28283.71
550.871	28352.63
551.235	28355.57
551.599	28589.23
551.962	28758.95
552.326	28687.99
552.689	28742.68
553.053	28795.56
553.417	28914.88
553.78	29204.81
554.143	29103.12
554.507	29310.8
554.87	29448.87
555.234	29750.79
555.597	29627.4
555.96	29649.32
556.323	29774.06
556.686	29877.56
557.05	30234.16
557.413	30293.6
557.776	30466.25
558.139	30617.43
558.502	30645.68
558.865	30643.87
559.228	30849.51
559.59	31013.8
559.953	31040.47
560.316	31254.47
560.679	31254.93
561.041	31519.1
561.404	31637.52
561.767	31836.61
562.129	31677.97
562.492	32037.51
562.854	32068.24
563.217	32276.14
563.579	32316.59
563.941	32604.5
564.304	32737.83
564.666	32804.26
565.028	32837.48
565.39	33085.39
565.753	33018.04
566.115	33336.91
566.477	33513.62
566.839	33563.79
567.201	33714.98
567.563	33783.22
567.925	33993.39
568.287	33998.58
568.648	34204
569.01	34216.43
569.372	34392.92
569.734	34338.01
570.095	34672.24
570.457	34725.34
570.819	34807.38
571.18	34925.34
571.542	35011.66
571.903	34942.06
572.265	35241.71
572.626	35377.53
572.987	35299.57
573.349	35514.93
573.71	35591.31
574.071	35663.17
574.432	35759.22
574.794	36026.33
575.155	35914.69
575.516	35992.88
575.877	36091.41
576.238	35988.81
576.599	36251.63
576.96	36246.89
577.32	36234.68
577.681	36291.63
578.042	36529.36
578.403	36499.99
578.763	36533.43
579.124	36482.13
579.485	36721.45
579.845	36768.68
580.206	36673.32
580.566	36695.69
580.927	36566.65
581.287	36903.59
581.648	36863.14
582.008	36913.54
582.368	36857.49
582.728	36952.86
583.089	36909.02
583.449	36921.9
583.809	37058.84
584.169	37142
584.529	36859.75
584.889	37221.1
585.249	36950.82
585.609	36935.68
585.969	37209.35
586.329	37030.82
586.688	37042.12
587.048	36947.88
587.408	37057.49
587.768	36848.9
588.127	37044.83
588.487	36963.93
588.846	37136.58
589.206	36888.68
589.565	36891.84
589.925	37176.58
590.284	37074.66
590.643	37120.54
591.003	37161.44
591.362	37412.96
591.721	37070.37
592.08	37146.3
592.44	37289.12
592.799	37265.84
593.158	37102.68
593.517	37156.01
593.876	37275.79
594.235	37182.68
594.593	37107.88
594.952	37102
595.311	37027.2
595.67	37052.29
596.029	37366.4
596.387	37272.62
596.746	37442.33
597.104	37317.59
597.463	37272.4
597.822	37478.94
598.18	37139.97
598.538	37273.07
598.897	37508.77
599.255	37180.19
599.613	37771.14
599.972	37444.59
600.33	37479.17
600.688	37348.78
601.046	37523.24
601.404	37602.78
601.762	37558.26
602.12	37687.07
602.478	37704.02
602.836	37420.64
603.194	37456.12
603.552	37473.29
603.91	37373.41
604.268	37619.73
604.625	37557.81
604.983	37746.28
605.341	37581.99
605.698	37747.64
606.056	37687.98
606.413	37648.88
606.771	37875.09
607.128	37816.79
607.485	37712.84
607.843	37701.54
608.2	37943.11
608.557	37965.26
608.914	37823.57
609.272	38165.03
609.629	38011.36
609.986	38224.24
610.343	38166.16
610.7	38226.49
611.057	38200.51
611.414	38228.75
611.771	38088.19
612.127	38402.54
612.484	38418.81
612.841	38401.18
613.198	38361.18
613.554	38423.33
613.911	38562.08
614.267	38605.02
614.624	38544
614.98	38653.38
615.337	38769.76
615.693	38591.91
616.05	38749.87
616.406	38910.77
616.762	38612.25
617.118	38783.99
617.475	38835.97
617.831	38917.55
618.187	38987.6
618.543	38834.16
618.899	39088.85
619.255	39119.13
619.611	39055.63
619.967	39243.19
620.323	39159.8
620.678	39013.37
621.034	39117.77
621.39	39046.59
621.746	39001.84
622.101	39432.34
622.457	39093.59
622.812	39230.54
623.168	39314.83
623.523	39362.96
623.879	39501.49
624.234	39129.75
624.589	39328.16
624.945	39381.27
625.3	39402.96
625.655	39275.96
626.01	39231.21
626.365	39391.44
626.72	39197.09
627.075	39091.33
627.43	39169.52
627.785	39014.72
628.14	39141.05
628.495	39110.99
628.85	39263.3
629.205	38985.34
629.559	39216.75
629.914	39102.18
630.269	39059.24
630.623	38937.66
630.978	38927.72
631.332	39026.25
631.687	39137.21
632.041	39100.14
632.396	39033.93
632.75	38813.82
633.104	38829.87
633.459	38760.72
633.813	38785.8
634.167	38708.29
634.521	38666.26
634.875	38733.6
635.229	38669.65
635.583	38401.86
635.937	38557.11
636.291	38469.65
636.645	38393.5
636.999	38380.62
637.352	38508.3
637.706	38037.57
638.06	38361.63
638.413	38095.88
638.767	38115.99
639.121	38135.42
639.474	37942.66
639.828	37876.22
640.181	37916.67
640.534	37932.72
640.888	38010.23
641.241	37611.37
641.594	37705.6
641.947	37798.26
642.301	37725.04
642.654	37717.58
643.007	37622.67
643.36	37554.65
643.713	37499.28
644.066	37537.7
644.419	37451.37
644.771	37311.26
645.124	36778.85
645.477	36740.88
645.83	36455.47
646.182	36287.11
646.535	36274.46
646.888	36290.73
647.24	36230.39
647.593	36407.33
647.945	36327.11
648.298	36030.62
648.65	36033.11
649.002	35983.39
649.355	36044.41
649.707	35939.32
650.059	36004.63
650.411	36527.56
650.763	36561
651.115	36776.82
651.467	36619.53
651.819	36690.04
652.171	36668.57
652.523	36722.13
652.875	36749.7
653.227	36482.59
653.578	36688
653.93	36594.67
654.282	36428.35
654.633	36264.96
654.985	36302.03
655.337	36363.27
655.688	36270.84
656.039	36320.33
656.391	35959.66
656.742	36177.28
657.094	36250.95
657.445	36306.09
657.796	36158.53
658.147	36085.31
658.498	35995.59
658.849	36132.99
659.2	35958.08
659.551	35974.35
659.902	36015.93
660.253	35941.58
660.604	35926.67
660.955	35727.58
661.306	35892.09
661.656	35723.28
662.007	35730.52
662.358	35664.98
662.708	35648.48
663.059	35516.74
663.409	35292.56
663.76	35607.35
664.11	35547.92
664.461	35490.52
664.811	35370.98
665.161	35254.37
665.511	35226.8
665.862	35221.83
666.212	35251.88
666.562	35213.69
666.912	35031.55
667.262	34802.18
667.612	34903.87
667.962	34787.49
668.312	34782.07
668.662	34818.45
669.011	34719.24
669.361	34688.73
669.711	34579.13
670.06	34519.93
670.41	34274.51
670.76	34174.85
671.109	34368.29
671.459	34219.14
671.808	34182.99
672.157	34205.58
672.507	33938.92
672.856	33899.83
673.205	33848.76
673.554	33940.73
673.904	33705.48
674.253	33883.78
674.602	33716.11
674.951	33367.64
675.3	32894.21
675.649	33430.01
675.998	33412.16
676.346	33480.18
676.695	33565.15
677.044	33291.48
677.393	33320.41
677.741	33307.98
678.09	33164.48
678.438	33154.99
678.787	33264.82
679.135	33242.67
679.484	33089.68
679.832	33183.69
680.181	33127.19
680.529	33117.48
680.877	33071.38
681.225	33005.62
681.573	33242.45
681.922	33008.1
682.27	33068.44
682.618	32999.51
682.966	32944.37
683.314	33068.44
683.661	33013.98
684.009	32948.44
684.357	32869.12
684.705	32899.4
685.053	32994.09
685.4	32912.96
685.748	32735.79
686.095	32942.79
686.443	32659.64
686.79	32672.52
687.138	32811.95
687.485	32910.48
687.832	32870.7
688.18	32823.7
688.527	32818.73
688.874	32806.75
689.221	32816.02
689.568	32661.22
689.915	32629.13
690.262	32602.69
690.609	32513.42
690.956	32526.53
691.303	32550.49
691.65	32410.83
691.997	32514.33
692.344	32405.63
692.69	32359.76
693.037	32329.47
693.383	32093.1
693.73	32359.53
694.077	32153.43
694.423	32115.24
694.769	32044.51
695.116	31925.42
695.462	32061.69
695.808	31954.8
696.155	31933.55
696.501	31786.44
696.847	31752.31
697.193	31681.13
697.539	31633.9
697.885	31491.53
698.231	31452.21
698.577	31379.44
698.923	31437.07
699.269	31243.4
699.614	31091.54
699.96	31155.04
700.306	31135.83
700.651	31058.1
700.997	31026.23
701.342	30942.62
701.688	30831.89
702.033	30768.84
702.379	30712.34
702.724	30506.02
703.069	30658.33
703.415	30375.4
703.76	30419.02
704.105	30225.12
704.45	30169.98
704.795	30120.04
705.14	29926.6
705.485	29974.28
705.83	29812.7
706.175	29912.82
706.52	29840.73
706.865	29765.93
707.209	29650.68
707.554	29476.22
707.899	29516.89
708.243	29496.55
708.588	29464.47
708.932	29293.4
709.277	29239.61
709.621	29303.79
709.966	29052.5
710.31	29285.49
710.654	28860.41
710.998	28891.15
711.342	28878.94
711.687	28727.54
712.031	28841.88
712.375	28624.04
712.719	28595.56
713.063	28553.3
713.407	28652.74
713.75	28412.06
714.094	28467.2
714.438	28379.52
714.782	28379.3
715.125	28289.13
715.469	28262.24
715.812	28182.24
716.156	28015.01
716.499	28041.45
716.843	28049.14
717.186	27863.38
717.53	27999.65
717.873	28002.58
718.216	27803.04
718.559	27810.72
718.902	27528.92
719.246	27660.67
719.589	27607.34
719.932	27425.65
720.275	27551.3
720.617	27362.6
720.96	27326.44
721.303	27402.6
721.646	27306.56
721.989	27197.18
722.331	27220.23
722.674	27109.27
723.016	27082.38
723.359	27070.86
723.701	27156.96
724.044	26890.75
724.386	26799.45
724.729	26909.28
725.071	26798.55
725.413	26834.03
725.755	26728.04
726.097	26688.95
726.439	26591.32
726.782	26604.43
727.124	26636.52
727.465	26497.99
727.807	26523.98
728.149	26439.23
728.491	26447.37
728.833	26464.32
729.175	26235.17
729.516	26280.37
729.858	26267.94
730.199	26289.18
730.541	26043.99
730.882	26079.47
731.224	26103.42
731.565	26056.65
731.906	25861.17
732.248	26025.46
732.589	25811.23
732.93	25723.32
733.271	25758.8
733.612	25754.05
733.953	25809.42
734.294	25649.65
734.635	25573.95
734.976	25649.2
735.317	25527.39
735.658	25552.93
735.999	25474.97
736.339	25472.71
736.68	25561.97
737.021	25442.65
737.361	25242.43
737.702	25415.53
738.042	25344.8
738.383	25236.78
738.723	25322.65
739.063	25156.33
739.404	25267.97
739.744	25192.71
740.084	25063.23
740.424	25143.22
740.764	24999.5
741.104	25139.83
741.444	24916.56
741.784	24827.98
742.124	24811.71
742.464	24741.2
742.804	24721.77
743.143	24817.58
743.483	24727.19
743.823	24624.37
744.162	24669.11
744.502	24633.18
744.841	24512.05
745.181	24641.54
745.52	24450.13
745.86	24467.76
746.199	24408.55
746.538	24424.15
746.877	24359.06
747.216	24358.38
747.556	24295.79
747.895	24238.84
748.234	24193.87
748.573	24035.23
748.911	24047.88
749.25	24009.02
749.589	24025.06
749.928	23900.32
750.267	24000.65
750.605	23910.26
750.944	23722.7
751.283	23693.09
751.621	23696.71
751.96	23759.76
752.298	23666.43
752.636	23634.11
752.975	23512.08
753.313	23463.27
753.651	23527.67
753.989	23415.58
754.327	23395.7
754.666	23249.94
755.004	23257.17
755.342	23221.01
755.679	23221.47
756.017	22969.49
756.355	23078.87
756.693	22942.15
757.031	23030.96
757.368	22718.2
757.706	22828.03
758.044	22642.95
758.381	22797.52
758.719	22651.31
759.056	22630.97
759.394	22554.82
759.731	22365.89
760.068	22341.26
760.405	22248.84
760.743	22223.3
761.08	22212
761.417	22132.91
761.754	22065.11
762.091	22052.46
762.428	21910.99
762.765	21844.55
763.102	21839.81
763.438	21621.73
763.775	21625.35
764.112	21612.92
764.449	21580.83
764.785	21511.23
765.122	21248.86
765.458	21299.93
765.795	21222.65
766.131	21272.14
766.467	21162.54
766.804	21049.77
767.14	20880.96
767.476	20968.87
767.812	20795.31
768.148	20851.58
768.485	20728.88
768.821	20622.89
769.157	20530.91
769.492	20525.49
769.828	20454.08
770.164	20364.14
770.5	20300.64
770.836	20245.27
771.171	20155.78
771.507	20204.14
771.842	19982.45
772.178	19975.68
772.513	19856.81
772.849	19856.36
773.184	19796.7
773.519	19762.35
773.855	19613.88
774.19	19512.86
774.525	19512.41
774.86	19531.85
775.195	19326.43
775.53	19249.59
775.865	19217.05
776.2	19045.98
776.535	18880.56
776.87	19008.24
777.205	18829.94
777.539	18827.46
777.874	18868.81
778.209	18755.59
778.543	18632.21
778.878	18547.01
779.212	18464.3
779.547	18389.73
779.881	18419.56
780.215	18260.69
780.55	18309.5
780.884	18098.89
781.218	18151.54
781.552	18061.38
781.886	17948.84
782.22	17836.52
782.554	17802.17
782.888	17809.4
783.222	17582.97
783.556	17539.58
783.889	17447.83
784.223	17339.59
784.557	17459.36
784.89	17498.45
785.224	17239.93
785.557	17215.52
785.891	17208.06
786.224	17104.11
786.558	17059.59
786.891	16975.08
787.224	16847.85
787.557	16835.42
787.891	16738.25
788.224	16822.31
788.557	16789.77
788.89	16637.23
789.223	16672.94
789.556	16613.28
789.888	16512.26
790.221	16357.24
790.554	16326.73
790.887	16280.63
791.219	16268.43
791.552	16184.59
791.884	16058.04
792.217	16053.74
792.549	15971.26
792.882	15793.19
793.214	15814.43
793.546	15824.82
793.879	15680.42
794.211	15700.99
794.543	15660.08
794.875	15625.73
795.207	15689.91
795.539	15505.74
795.871	15466.64
796.203	15348.9
796.535	15252.64
796.867	15281.56
797.198	15186.2
797.53	15213.31
797.862	15157.04
798.193	15121.57
798.525	15005.86
798.856	15014
799.188	14961.12
799.519	14783.72
799.85	14762.48
800.182	14800.44
800.513	14802.48
800.844	14621.92
801.175	14719.77
801.506	14712.76
801.837	14603.61
802.168	14536.5
802.499	14476.16
802.83	14353.22
803.161	14304.19
803.491	14382.6
803.822	14371.53
804.153	14277.29
804.483	14107.13
804.814	14181.7
805.145	14101.03
805.475	14067.36
805.805	14029.84
806.136	14032.78
806.466	13992.33
806.796	14027.36
807.126	13847.02
807.457	13795.5
807.787	13844.31
808.117	13797.08
808.447	13714.6
808.777	13729.96
809.107	13626.01
809.436	13704.2
809.766	13587.14
810.096	13440.48
810.426	13398.45
810.755	13507.82
811.085	13482.74
811.414	13503.08
811.744	13348.5
812.073	13327.94
812.403	13372.23
812.732	13209.53
813.061	13227.15
813.39	13106.93
813.719	13029.19
814.049	13201.62
814.378	13101.51
814.707	13099.02
815.036	13057.67
815.365	13033.94
815.693	12824
816.022	12814.51
816.351	12774.96
816.68	12714.62
817.008	12796.43
817.337	12658.81
817.665	12658.81
817.994	12749.2
818.322	12647.05
818.651	12635.76
818.979	12529.54
819.307	12606.83
819.636	12619.48
819.964	12495.19
820.292	12522.99
820.62	12532.03
820.948	12411.35
821.276	12534.06
821.604	12463.33
821.932	12499.26
822.259	12462.2
822.587	12450.9
822.915	12346.5
823.243	12452.48
823.57	12419.49
823.898	12395.54
824.225	12315.99
824.553	12391.92
824.88	12384.91
825.207	12437.34
825.535	12348.53
825.862	12405.48
826.189	12341.75
826.516	12377.46
826.843	12458.36
827.17	12456.55
827.497	12417.91
827.824	12408.87
828.151	12379.49
828.478	12390.79
828.805	12428.98
829.131	12313.05
829.458	12349.89
829.785	12362.77
830.111	12375.65
830.438	12373.62
830.764	12306.27
831.09	12282.32
831.417	12254.07
831.743	12278.48
832.069	12279.15
832.395	12240.74
832.722	12198.48
833.048	12273.73
833.374	12265.14
833.7	12128.88
834.026	12254.07
834.351	12290.68
834.677	12169.78
835.003	12224.47
835.329	12215.88
835.654	12180.4
835.98	12109.67
836.306	12179.5
836.631	12096.11
836.956	12090.23
837.282	12078.48
837.607	12099.27
837.932	11992.38
838.258	12056.79
838.583	11941.08
838.908	11856.11
839.233	11911.48
839.558	11889.11
839.883	11839.17
840.208	11869
840.533	11848.21
840.858	11841.43
841.182	11821.77
841.507	11781.54
841.832	11753.07
842.156	11705.61
842.481	11682.56
842.805	11718.27
843.13	11639.4
843.454	11704.25
843.778	11529.8
844.103	11528.21
844.427	11466.52
844.751	11497.03
845.075	11459.29
845.399	11448.22
845.723	11326.64
846.047	11387.43
846.371	11288.45
846.695	11236.7
847.019	11278.95
847.343	11205.06
847.666	11167.32
847.99	11083.93
848.313	11071.5
848.637	11022.69
848.96	10981.56
849.284	11009.81
849.607	10886.87
849.931	10839.87
850.254	10774.11
850.577	10823.15
850.9	10693.43
851.223	10667.22
851.546	10583.15
851.869	10528.69
852.192	10564.4
852.515	10431.52
852.838	10405.08
853.161	10360.79
853.483	10365.53
853.806	10403.27
854.129	10349.04
854.451	10346.55
854.774	10257.06
855.096	10215.48
855.419	10165.76
855.741	10121.7
856.063	10063.62
856.385	10088.48
856.708	10042.83
857.03	10021.59
857.352	10040.57
857.674	10024.07
857.996	9940.01
858.318	9876.05
858.64	9893.91
858.961	9867.47
859.283	9823.63
859.605	9774.81
859.926	9777.98
860.248	9726.91
860.57	9692.78
860.891	9691.43
861.212	9618.66
861.534	9671.99
861.855	9645.55
862.176	9615.27
862.498	9671.09
862.819	9550.64
863.14	9573.46
863.461	9575.72
863.782	9507.7
864.103	9591.09
864.424	9392.68
864.745	9460.25
865.065	9443.52
865.386	9404.88
865.707	9415.28
866.027	9396.52
866.348	9335.73
866.668	9380.7
866.989	9308.16
867.309	9324.88
867.63	9309.29
867.95	9243.75
868.27	9194.04
868.59	9196.07
868.91	9248.27
869.23	9170.08
869.55	9157.65
869.87	9264.77
870.19	9160.14
870.51	9145.45
870.83	9176.19
871.15	9108.39
871.469	9117.88
871.789	9127.37
872.109	9095.51
872.428	9050.09
872.748	9060.71
873.067	9098
873.386	9038.34
873.706	9014.16
874.025	8954.95
874.344	8957.43
874.663	9013.03
874.982	8941.84
875.301	8870.88
875.62	8859.58
875.939	8800.15
876.258	8840.37
876.577	8806.03
876.896	8884.44
877.214	8796.08
877.533	8784.33
877.852	8805.57
878.17	8785.91
878.489	8804.22
878.807	8770.32
879.125	8817.55
879.444	8786.59
879.762	8771.9
880.08	8716.31
880.398	8658.23
880.716	8667.72
881.034	8647.61
881.352	8647.39
881.67	8617.78
881.988	8605.35
882.306	8599.25
882.624	8567.16
882.941	8508.41
883.259	8455.07
883.577	8473.15
883.894	8487.16
884.212	8482.87
884.529	8433.61
884.846	8459.59
885.164	8416.21
885.481	8381.18
885.798	8366.72
886.115	8348.18
886.432	8340.05
886.75	8302.76
887.067	8343.66
887.383	8252.37
887.7	8249.88
888.017	8255.08
888.334	8242.88
888.651	8192.03
888.967	8191.58
889.284	8158.58
889.6	8164.69
889.917	8084.46
890.233	8119.49
890.55	8022.32
890.866	7982.54
891.182	7996.33
891.498	7944.81
891.815	7980.74
892.131	7913.62
892.447	7922.88
892.763	7853.51
893.079	7866.62
893.395	7842.44
893.71	7819.61
894.026	7793.17
894.342	7754.75
894.657	7722.21
894.973	7708.2
895.289	7696
895.604	7725.38
895.92	7653.74
896.235	7665.04
896.55	7604.93
896.865	7596.11
897.181	7487.87
897.496	7533.74
897.811	7512.73
898.126	7448.55
898.441	7391.6
898.756	7390.92
899.071	7332.62
899.386	7354.54
899.7	7291.72
900.015	7263.02
900.33	7275.67
900.644	7239.06
900.959	7250.13
901.273	7201.1
901.588	7200.42
901.902	7188.44
902.216	7092.62
902.531	7126.97
902.845	7112.74
903.159	7035
903.473	7030.03
903.787	6959.07
904.101	6928.11
904.415	6962.68
904.729	6926.53
905.042	6846.3
905.356	6877.26
905.67	6849.24
905.984	6807.66
906.297	6826.87
906.611	6714.1
906.924	6717.04
907.237	6675.23
907.551	6689.25
907.864	6642.24
908.177	6608.57
908.491	6586.65
908.804	6614.67
909.117	6505.52
909.43	6478.18
909.743	6526.54
910.056	6439.76
910.368	6482.7
910.681	6421.91
910.994	6353.89
911.307	6323.38
911.619	6351.4
911.932	6344.62
912.244	6298.52
912.557	6271.4
912.869	6258.97
913.181	6197.51
913.494	6193.21
913.806	6154.12
914.118	6141.01
914.43	6123.16
914.742	6104.85
915.054	6094.46
915.366	6063.95
915.678	6066.66
915.99	5971.3
916.302	5976.27
916.613	5926.1
916.925	5937.63
917.236	5934.24
917.548	5863.05
917.859	5862.37
918.171	5832.32
918.482	5810.85
918.794	5773.56
919.105	5778.31
919.416	5761.59
919.727	5759.55
920.038	5691.31
920.349	5628.26
920.66	5584.87
920.971	5605.21
921.282	5616.05
921.593	5552.78
921.903	5520.69
922.214	5506.68
922.525	5476.62
922.835	5520.46
923.146	5440.69
923.456	5442.5
923.767	5399.79
924.077	5392.33
924.387	5336.06
924.697	5325.67
925.008	5308.49
925.318	5290.86
925.628	5322.5
925.938	5246.57
926.248	5215.16
926.558	5230.07
926.867	5157.99
927.177	5209.74
927.487	5175.16
927.796	5150.3
928.106	5058.78
928.416	5062.4
928.725	5061.49
929.034	5025.33
929.344	5062.62
929.653	4969.52
929.962	4995.05
930.271	4923.87
930.581	4888.39
930.89	4913.25
931.199	4842.97
931.508	4891.55
931.817	4813.59
932.125	4812.46
932.434	4773.59
932.743	4795.28
933.051	4760.26
933.36	4716.87
933.669	4662.41
933.977	4709.86
934.286	4678.9
934.594	4690.43
934.902	4605.91
935.21	4608.85
935.519	4609.75
935.827	4599.13
936.135	4587.61
936.443	4507.61
936.751	4525.01
937.059	4527.27
937.367	4499.02
937.674	4488.4
937.982	4447.72
938.29	4413.82
938.597	4410.43
938.905	4370.21
939.213	4380.38
939.52	4334.96
939.827	4372.47
940.135	4319.59
940.442	4346.03
940.749	4227.84
941.056	4319.36
941.363	4258.35
941.67	4246.15
941.977	4226.26
942.284	4188.97
942.591	4224.9
942.898	4181.97
943.205	4170.67
943.511	4133.61
943.818	4142.42
944.125	4051.8
944.431	4073.95
944.738	4053.61
945.044	4055.19
945.35	4002.31
945.657	4014.06
945.963	3967.73
946.269	3936.1
946.575	3957.79
946.881	3906.95
947.187	3886.61
947.493	3887.28
947.799	3919.6
948.105	3871.92
948.41	3848.64
948.716	3835.76
949.022	3794.41
949.327	3782.43
949.633	3761.19
949.938	3731.13
950.244	3765.71
950.549	3741.07
950.854	3717.35
951.16	3714.18
951.465	3685.03
951.77	3690
952.075	3647.07
952.38	3641.64
952.685	3614.52
952.99	3608.65
953.294	3610.46
953.599	3579.72
953.904	3508.31
954.209	3541.53
954.513	3518.48
954.818	3497.46
955.122	3484.81
955.426	3520.06
955.731	3472.15
956.035	3462.66
956.339	3431.25
956.643	3419.5
956.948	3362.55
957.252	3350.58
957.556	3394.42
957.86	3377.02
958.163	3342.67
958.467	3306.28
958.771	3315.32
959.075	3280.3
959.378	3309.67
959.682	3254.53
959.985	3277.13
960.289	3251.37
960.592	3205.72
960.896	3208.66
961.199	3199.62
961.502	3186.29
961.805	3196.46
962.108	3164.37
962.411	3123.92
962.714	3143.35
963.017	3116.91
963.32	3088.89
963.623	3116.46
963.926	3083.92
964.228	3076.23
964.531	3032.62
964.833	3017.03
965.136	3019.06
965.438	3012.05
965.741	3022.67
966.043	3002.11
966.345	2968.21
966.648	2971.6
966.95	2980.19
967.252	2962.11
967.554	2942.45
967.856	2934.77
968.158	2896.58
968.46	2885.28
968.761	2923.24
969.063	2864.03
969.365	2843.02
969.666	2830.14
969.968	2819.06
970.269	2813.64
970.571	2822.91
970.872	2807.54
971.174	2788.33
971.475	2793.08
971.776	2783.36
972.077	2745.39
972.378	2747.2
972.679	2706.98
972.98	2719.41
973.281	2728.45
973.582	2705.17
973.883	2672.18
974.183	2676.24
974.484	2671.27
974.785	2624.04
975.085	2636.92
975.386	2621.1
975.686	2613.19
975.986	2608.9
976.287	2593.31
976.587	2557.38
976.887	2565.74
977.187	2594.21
977.487	2553.76
977.787	2492.07
978.087	2517.83
978.387	2513.08
978.687	2484.84
978.987	2517.15
979.286	2477.15
979.586	2457.94
979.885	2465.63
980.185	2451.39
980.484	2461.11
980.784	2427.21
981.083	2412.07
981.382	2401
981.682	2409.36
981.981	2383.6
982.28	2375.46
982.579	2344.27
982.878	2378.4
983.177	2336.82
983.475	2360.77
983.774	2340.21
984.073	2271.06
984.372	2266.99
984.67	2257.95
984.969	2274.22
985.267	2278.29
985.566	2272.64
985.864	2249.59
986.162	2239.19
986.461	2232.19
986.759	2260.21
987.057	2182.47
987.355	2178.86
987.653	2186.99
987.951	2158.06
988.249	2184.5
988.547	2177.5
988.844	2159.19
989.142	2169.82
989.44	2095.92
989.737	2148.8
990.035	2128.01
990.332	2107.67
990.63	2090.5
990.927	2070.16
991.224	2051.4
991.521	2067.22
991.819	2067.22
992.116	2040.78
992.413	2061.12
992.71	2053.89
993.006	2019.54
993.303	2039.42
993.6	1989.71
993.897	1978.18
994.193	1994
994.49	1972.76
994.787	1964.4
995.083	1941.12
995.379	1938.64
995.676	1912.42
995.972	1881.69
996.268	1964.17
996.565	1872.2
996.861	1904.06
997.157	1884.63
997.453	1885.98
997.749	1889.82
998.044	1885.76
998.34	1844.17
998.636	1851.86
998.932	1831.07
999.227	1821.12
999.523	1824.51
999.818	1817.73
1000.114	1808.24
1000.409	1782.71
1000.704	1806.21
1001	1760.56
1001.295	1786.32
1001.59	1757.62
1001.885	1733.44
1002.18	1741.8
1002.475	1722.14
1002.77	1712.65
1003.065	1717.85
1003.359	1724.86
1003.654	1719.66
1003.949	1680.11
1004.243	1681.92
1004.538	1665.65
1004.832	1661.58
1005.127	1661.81
1005.421	1630.17
1005.715	1595.82
1006.009	1639.43
1006.304	1622.71
1006.598	1593.79
1006.892	1577.52
1007.186	1566.22
1007.48	1577.52
1007.773	1569.15
1008.067	1551.3
1008.361	1540.68
1008.655	1521.92
1008.948	1512.43
1009.242	1496.39
1009.535	1491.87
1009.829	1515.37
1010.122	1490.29
1010.415	1474.92
1010.708	1501.81
1011.001	1453.22
1011.295	1453
1011.588	1434.24
1011.881	1427.91
1012.173	1441.02
1012.466	1466.78
1012.759	1418.42
1013.052	1415.71
1013.344	1401.93
1013.637	1422.72
1013.93	1403.28
1014.222	1404.86
1014.514	1381.59
1014.807	1356.05
1015.099	1377.29
1015.391	1363.51
1015.683	1364.87
1015.976	1334.36
1016.268	1306.34
1016.56	1309.95
1016.851	1299.56
1017.143	1322.83
1017.435	1285.32
1017.727	1297.3
1018.018	1286.9
1018.31	1275.83
1018.602	1267.47
1018.893	1247.81
1019.185	1238.77
1019.476	1253.68
1019.767	1228.6
1020.058	1240.35
1020.35	1206
1020.641	1234.47
1020.932	1212.55
1021.223	1171.65
1021.514	1180.46
1021.804	1177.3
1022.095	1178.88
1022.386	1179.56
1022.677	1176.17
1022.967	1152.22
1023.258	1151.54
1023.548	1133.68
1023.839	1098.88
1024.129	1147.47
1024.419	1111.09
1024.709	1123.97
1025	1104.99
1025.29	1095.27
1025.58	1101.82
1025.87	1093.01
1026.16	1070.41
1026.449	1055.49
1026.739	1083.97
1027.029	1056.62
1027.319	1026.57
1027.608	1053.46
1027.898	1056.85
1028.187	1037.19
1028.477	1030.86
1028.766	1048.49
1029.055	1051.43
1029.344	1002.39
1029.634	1013.69
1029.923	1000.13
1030.212	1002.84
1030.501	968.94
1030.79	948.61
1031.078	965.55
1031.367	971.66
1031.656	949.51
1031.945	967.14
1032.233	965.55
1032.522	949.96
1032.81	941.6
1033.099	935.95
1033.387	929.85
1033.675	918.78
1033.963	923.97
1034.251	949.28
1034.54	887.36
1034.828	887.59
1035.116	903.63
1035.403	896.85
1035.691	869.96
1035.979	893.92
1036.267	872
1036.554	860.92
1036.842	874.93
1037.129	870.87
1037.417	871.54
1037.704	847.36
1037.992	834.26
1038.279	854.37
1038.566	824.09
1038.853	824.09
1039.14	824.09
