Data from white_wall_FLMS001491_052.txt Node
Date: Tue Feb 07 11:04:57 GMT 2017
User: dcchb
Spectrometer: FLMS00149
Trigger mode: 0
Integration Time (sec): 2.000000E-2
Scans to average: 10
Electric dark correction enabled: true
Nonlinearity correction enabled: false
Boxcar width: 0
XAxis mode: Wavelengths
Number of Pixels in Spectrum: 2048
>>>>>Begin Spectral Data<<<<<
341.393	-11.84
341.776	-11.84
342.16	-11.84
342.543	-67.88
342.927	-64.26
343.31	-62.68
343.693	-68.78
344.077	-54.77
344.46	-55.9
344.843	-62.68
345.226	-43.47
345.61	-28.11
345.993	-7.54
346.376	-17.94
346.759	10.99
347.142	18.45
347.525	42.85
347.908	57.31
348.291	75.17
348.674	88.73
349.057	108.39
349.44	121.04
349.823	146.58
350.206	157.88
350.588	205.11
350.971	210.76
351.354	235.16
351.737	236.97
352.119	264.09
352.502	237.42
352.884	282.62
353.267	271.09
353.65	290.76
354.032	294.14
354.414	317.42
354.797	314.48
355.179	315.84
355.562	325.78
355.944	327.14
356.326	342.96
356.709	319
357.091	339.34
357.473	366.69
357.855	328.95
358.238	336.4
358.62	345.67
359.002	339.12
359.384	344.99
359.766	320.58
360.148	337.53
360.53	342.73
360.912	333.24
361.294	336.4
361.676	324.43
362.057	338.21
362.439	333.47
362.821	349.28
363.203	313.58
363.584	320.13
363.966	317.2
364.348	328.72
364.729	313.81
365.111	324.65
365.493	311.09
365.874	315.84
366.256	344.54
366.637	317.2
367.019	309.51
367.4	322.62
367.781	333.69
368.163	315.39
368.544	331.66
368.925	307.48
369.306	336.86
369.688	325.78
370.069	322.62
370.45	308.38
370.831	311.32
371.212	305.22
371.593	313.58
371.974	316.29
372.355	318.32
372.736	303.18
373.117	331.43
373.498	315.84
373.879	318.78
374.26	326.23
374.641	315.16
375.021	307.7
375.402	312.9
375.783	325.78
376.163	348.83
376.544	339.12
376.925	344.09
377.305	331.43
377.686	330.75
378.066	344.99
378.447	342.51
378.827	368.04
379.208	333.24
379.588	353.35
379.968	358.78
380.349	346.35
380.729	328.72
381.109	330.98
381.489	353.35
381.87	352.45
382.25	335.73
382.63	348.83
383.01	354.71
383.39	341.6
383.77	359.23
384.15	352.45
384.53	355.84
384.91	372.11
385.29	359.23
385.67	349.28
386.049	348.38
386.429	355.39
386.809	391.77
387.189	384.99
387.568	367.14
387.948	374.37
388.328	374.14
388.707	369.4
389.087	387.7
389.466	377.31
389.846	387.25
390.225	390.87
390.605	399.9
390.984	397.87
391.363	380.24
391.743	386.12
392.122	427.7
392.501	426.34
392.881	416.63
393.26	419.79
393.639	439
394.018	426.12
394.397	431.99
394.776	449.17
395.155	450.3
395.534	443.97
395.913	475.61
396.292	476.74
396.671	479.68
397.05	467.93
397.429	494.37
397.808	465.21
398.186	497.08
398.565	512.22
398.944	502.73
399.323	507.92
399.701	537.75
400.08	511.54
400.458	523.97
400.837	533.01
401.215	537.3
401.594	548.6
401.972	552.44
402.351	554.7
402.729	585.89
403.107	573.46
403.486	607.81
403.864	591.09
404.242	608.71
404.62	608.26
404.999	632.89
405.377	618.88
405.755	646.45
406.133	655.49
406.511	663.85
406.889	667.47
407.267	676.73
407.645	714.25
408.023	696.39
408.401	690.97
408.779	718.54
409.156	738.88
409.534	739.1
409.912	754.25
410.29	773.91
410.667	793.57
411.045	781.82
411.422	776.39
411.8	795.37
412.178	831.98
412.555	836.73
412.933	844.86
413.31	831.08
413.687	872.66
414.065	909.27
414.442	888.71
414.819	928.25
415.197	914.69
415.574	935.26
415.951	947.23
416.328	942.49
416.705	973.45
417.082	948.59
417.46	969.61
417.837	1015.03
418.214	1013
418.591	1013.22
418.967	1027.23
419.344	1010.74
419.721	1037.63
420.098	1064.97
420.475	1064.52
420.852	1051.64
421.228	1079.21
421.605	1121.92
421.982	1128.93
422.358	1088.25
422.735	1131.18
423.111	1125.99
423.488	1149.49
423.864	1173.44
424.241	1172.99
424.617	1173.22
424.994	1196.27
425.37	1193.78
425.746	1222.26
426.123	1221.35
426.499	1208.47
426.875	1251.41
427.251	1295.02
427.627	1285.08
428.003	1329.82
428.379	1311.07
428.756	1328.92
429.132	1349.71
429.507	1391.97
429.883	1365.53
430.259	1370.5
430.635	1396.26
431.011	1430.39
431.387	1479.65
431.763	1491.4
432.138	1469.26
432.514	1495.7
432.89	1519.42
433.265	1531.17
433.641	1544.06
434.016	1574.56
434.392	1635.58
434.767	1671.74
435.143	1636.48
435.518	1641.23
435.894	1645.52
436.269	1682.13
436.644	1721.9
437.02	1727.1
437.395	1738.4
437.77	1754.22
438.145	1785.86
438.52	1807.55
438.895	1829.47
439.271	1822.69
439.646	1870.15
440.021	1887.32
440.395	1883.93
440.77	1891.84
441.145	1920.54
441.52	1947.21
441.895	1911.96
442.27	1932.75
442.645	1965.29
443.019	2011.61
443.394	2021.78
443.769	2019.3
444.143	2017.72
444.518	2039.41
444.892	2051.84
445.267	2079.41
445.641	2094.32
446.016	2125.96
446.39	2128.45
446.764	2115.34
447.139	2126.86
447.513	2167.09
447.887	2175.68
448.262	2175.9
448.636	2207.31
449.01	2240.99
449.384	2295.9
449.758	2270.36
450.132	2275.11
450.506	2283.92
450.88	2314.66
451.254	2320.76
451.628	2364.82
452.002	2404.82
452.376	2415.67
452.75	2452.96
453.123	2438.95
453.497	2472.17
453.871	2499.28
454.244	2542.45
454.618	2561.2
454.992	2643.46
455.365	2647.3
455.739	2692.27
456.112	2732.5
456.486	2707.19
456.859	2758.94
457.232	2805.72
457.606	2833.74
457.979	2892.49
458.352	2920.06
458.725	2919.61
459.099	2957.35
459.472	3029.67
459.845	3026.95
460.218	3100.4
460.591	3111.47
460.964	3139.04
461.337	3191.24
461.71	3241.64
462.083	3292.94
462.456	3318.47
462.829	3282.31
463.201	3383.1
463.574	3385.36
463.947	3471.69
464.32	3528.18
464.692	3539.26
465.065	3605.24
465.438	3617.67
465.81	3689.54
466.183	3739.93
466.555	3799.82
466.928	3838.68
467.3	3808.18
467.672	3927.04
468.045	4007.49
468.417	4006.59
468.789	4019.02
469.161	4107.15
469.534	4156.87
469.906	4269.41
470.278	4250.65
470.65	4332.91
471.022	4384.66
471.394	4504.66
471.766	4527.93
472.138	4602.51
472.51	4690.64
472.882	4739.23
473.253	4833.69
473.625	4903.52
473.997	4978.32
474.369	5052.66
474.74	5069.39
475.112	5202.26
475.484	5239.33
475.855	5406.33
476.227	5403.61
476.598	5527.23
476.97	5614.68
477.341	5724.51
477.713	5847.45
478.084	5862.13
478.455	6000.66
478.827	6058.96
479.198	6263.48
479.569	6235.46
479.94	6422.35
480.311	6501.21
480.682	6625.73
481.053	6839.96
481.424	6849.45
481.795	6966.74
482.166	7075.21
482.537	7167.64
482.908	7312.49
483.279	7431.58
483.65	7575.54
484.021	7692.37
484.391	7830.22
484.762	7835.42
485.133	7960.61
485.503	8054.62
485.874	8182.75
486.244	8286.25
486.615	8447.83
486.985	8594.27
487.356	8705.45
487.726	8814.6
488.097	8993.35
488.467	9021.82
488.837	9178.43
489.207	9411.42
489.578	9468.59
489.948	9517.86
490.318	9687.8
490.688	9748.59
491.058	9937.51
491.428	9988.35
491.798	10097.73
492.168	10345.41
492.538	10439.19
492.908	10489.36
493.278	10672.18
493.648	10647.32
494.017	10865.62
494.387	10931.61
494.757	11063.81
495.126	11194.2
495.496	11238.04
495.866	11314.87
496.235	11452.95
496.605	11511.7
496.974	11612.49
497.344	11734.07
497.713	11814.29
498.082	11898.13
498.452	12130.67
498.821	12058.81
499.19	12162.76
499.559	12301.74
499.928	12372.02
500.298	12465.58
500.667	12604.78
501.036	12655.4
501.405	12775.4
501.774	12796.41
502.143	12910.76
502.512	12992.79
502.88	13110.08
503.249	13137.42
503.618	13351.65
503.987	13351.88
504.356	13488.83
504.724	13573.34
505.093	13623.06
505.462	13662.61
505.83	13831.42
506.199	13880.91
506.567	14134.68
506.936	14120.9
507.304	14304.17
507.672	14357.5
508.041	14468.46
508.409	14613.09
508.777	14653.09
509.145	14830.94
509.514	14908.9
509.882	15047.43
510.25	15078.61
510.618	15188.89
510.986	15230.93
511.354	15436.8
511.722	15486.74
512.09	15715.43
512.458	15689.9
512.826	15825.49
513.193	15862.32
513.561	16056.89
513.929	16143.45
514.297	16299.15
514.664	16505.24
515.032	16539.14
515.4	16628.18
515.767	16698.01
516.135	16822.75
516.502	16748.4
516.869	17161.27
517.237	17144.55
517.604	17117.66
517.972	17429.97
518.339	17552.22
518.706	17542.5
519.073	17644.88
519.44	17805.55
519.808	17972.55
520.175	18059.78
520.542	18265.42
520.909	18255.71
521.276	18443.95
521.643	18523.04
522.009	18746.09
522.376	18966.2
522.743	19057.72
523.11	19229.24
523.477	19422.46
523.843	19499.97
524.21	19589.91
524.577	19859.05
524.943	19925.94
525.31	20010.01
525.676	20274.86
526.043	20490.22
526.409	20519.38
526.776	20705.13
527.142	20688.64
527.508	20983.77
527.874	21135.63
528.241	21195.52
528.607	21270.77
528.973	21455.17
529.339	21526.81
529.705	21735.61
530.071	21873.46
530.437	21960.02
530.803	22129.73
531.169	22209.73
531.535	22209.95
531.901	22403.39
532.267	22588.47
532.632	22615.14
532.998	22644.29
533.364	22871.63
533.73	22946.43
534.095	23169.02
534.461	23195.46
534.826	23280.89
535.192	23432.29
535.557	23598.84
535.923	23684.72
536.288	23733.53
536.653	23787.54
537.019	23765.84
537.384	23966.06
537.749	24072.05
538.114	24160.64
538.479	24184.59
538.845	24270.69
539.21	24310.46
539.575	24510.23
539.94	24577.35
540.305	24799.49
540.67	24692.6
541.034	24852.37
541.399	24976.89
541.764	25017.79
542.129	25188.18
542.494	25188.86
542.858	25311.57
543.223	25256.2
543.587	25525.57
543.952	25582.97
544.316	25647.15
544.681	25703.65
545.045	25919.23
545.41	26015.95
545.774	26010.53
546.138	26237.42
546.503	26372.1
546.867	26227.02
547.231	26457.07
547.595	26533.91
547.959	26700.23
548.324	26738.42
548.688	26908.59
549.052	26982.71
549.416	26975.93
549.779	27077.17
550.143	27212.08
550.507	27419.53
550.871	27409.59
551.235	27550.38
551.599	27784.72
551.962	27881.67
552.326	27956.02
552.689	28053.64
553.053	28064.04
553.417	28229.91
553.78	28585.15
554.143	28488.43
554.507	28631.7
554.87	28812.49
555.234	29171.8
555.597	28957.57
555.96	29060.62
556.323	29268.3
556.686	29358.01
557.05	29623.32
557.413	29707.61
557.776	29679.81
558.139	29913.7
558.502	29929.98
558.865	29990.09
559.228	30273.47
559.59	30472.56
559.953	30565.44
560.316	30882.72
560.679	30846.34
561.041	31092.88
561.404	31229.15
561.767	31345.76
562.129	31277.06
562.492	31552.76
562.854	31610.61
563.217	31796.82
563.579	31759.31
563.941	32110.03
564.304	32178.96
564.666	32446.75
565.028	32505.95
565.39	32606.74
565.753	32737.81
566.115	32892.61
566.477	32896.9
566.839	32992.49
567.201	33391.81
567.563	33288.08
567.925	33621.86
568.287	33631.8
568.648	33728.07
569.01	33846.03
569.372	34185.68
569.734	34094.16
570.095	34306.36
570.457	34527.59
570.819	34485.56
571.18	34512.68
571.542	34682.17
571.903	34704.77
572.265	34879.9
572.626	35130.97
572.987	35067.24
573.349	35339.55
573.71	35228.14
574.071	35328.25
574.432	35528.25
574.794	35730.95
575.155	35679.88
575.516	35695.7
575.877	35785.19
576.238	35879.88
576.599	35972.3
576.96	36010.04
577.32	36128.68
577.681	36335.46
578.042	36269.7
578.403	36254.33
578.763	36307.89
579.124	36455
579.485	36484.15
579.845	36510.37
580.206	36464.49
580.566	36485.51
580.927	36570.48
581.287	36562.34
581.648	36520.76
582.008	36610.03
582.368	36643.02
582.728	36820.64
583.089	36752.17
583.449	36645.73
583.809	36803.69
584.169	36928.21
584.529	36874.2
584.889	37194.42
585.249	36862.67
585.609	36726.18
585.969	37075.55
586.329	36914.42
586.688	37042.78
587.048	36930.24
587.408	36775.45
587.768	37063.12
588.127	36972.73
588.487	36894.99
588.846	36993.07
589.206	36891.6
589.565	36832.17
589.925	37202.1
590.284	37148.77
590.643	37165.94
591.003	37105.83
591.362	37185.15
591.721	37085.49
592.08	37122.1
592.44	37207.98
592.799	37212.95
593.158	37187.41
593.517	37217.47
593.876	37297.69
594.235	37228.77
594.593	37214.3
594.952	37256.79
595.311	37190.35
595.67	37243.91
596.029	37350.12
596.387	37486.84
596.746	37374.98
597.104	37259.5
597.463	37224.93
597.822	37405.49
598.18	37329.33
598.538	37508.99
598.897	37726.61
599.255	37362.55
599.613	37896.09
599.972	37540.4
600.33	37680.73
600.688	37478.93
601.046	37593.5
601.404	37647.96
601.762	37623.33
602.12	37713.73
602.478	37758.24
602.836	37786.04
603.194	37576.55
603.552	37756.66
603.91	37653.61
604.268	37957.11
604.625	37845.02
604.983	37937.45
605.341	37909.88
605.698	38007.96
606.056	38068.97
606.413	38050.89
606.771	38246.14
607.128	38368.62
607.485	37975.87
607.843	38135.18
608.2	38222.41
608.557	38393.26
608.914	38316.65
609.272	38463.99
609.629	38335.63
609.986	38472.8
610.343	38347.16
610.7	38675.28
611.057	38560.71
611.414	38663.76
611.771	38659.01
612.127	38936.52
612.484	38701.72
612.841	38837.54
613.198	38780.82
613.554	38846.35
613.911	38962.73
614.267	39011.54
614.624	38967.25
614.98	39014.26
615.337	39202.73
615.693	39132.9
616.05	39058.32
616.406	39315.94
616.762	39192.11
617.118	39278.88
617.475	39299.67
617.831	39285.21
618.187	39241.37
618.543	39406.34
618.899	39570.85
619.255	39386.45
619.611	39433.68
619.967	39477.75
620.323	39511.42
620.678	39523.62
621.034	39315.49
621.39	39383.96
621.746	39398.43
622.101	39943.72
622.457	39486.79
622.812	39604.07
623.168	39708.02
623.523	39778.76
623.879	39836.61
624.234	39595.26
624.589	39736.05
624.945	39774.46
625.3	39747.8
625.655	39668.25
626.01	39731.98
626.365	39806.55
626.72	39723.39
627.075	39594.13
627.43	39732.2
627.785	39557.52
628.14	39726.78
628.495	39741.92
628.85	39665.99
629.205	39492.44
629.559	39771.3
629.914	39636.16
630.269	39574.47
630.623	39631.64
630.978	39359.78
631.332	39488.82
631.687	39740.79
632.041	39378.31
632.396	39541.02
632.75	39306
633.104	39369.73
633.459	39251.99
633.813	39200.92
634.167	39231.65
634.521	39257.87
634.875	39388.48
635.229	39136.51
635.583	39066.23
635.937	38969.29
636.291	39004.09
636.645	39105.55
636.999	38930.87
637.352	39067.14
637.706	38819.01
638.06	38792.12
638.413	38818.1
638.767	38713.02
639.121	38783.08
639.474	38546.7
639.828	38550.99
640.181	38642.97
640.534	38650.88
640.888	38466.02
641.241	38397.1
641.594	38342.41
641.947	38587.83
642.301	38360.71
642.654	38436.64
643.007	38343.31
643.36	38257.67
643.713	38122.75
644.066	38381.96
644.419	38126.14
644.771	37867.17
645.124	37508.53
645.477	37488.87
645.83	37159.84
646.182	37135.89
646.535	36996.91
646.888	37127.3
647.24	36842.79
647.593	37071.48
647.945	36930.24
648.298	36902.45
648.65	36776.58
649.002	36522.12
649.355	36709.01
649.707	36770.02
650.059	36861.77
650.411	37193.06
650.763	37165.72
651.115	37581.07
651.467	37422.66
651.819	37452.94
652.171	37383.11
652.523	37324.13
652.875	37297.01
653.227	37103.8
653.578	37380.85
653.93	37320.06
654.282	37129.79
654.633	37011.15
654.985	37135.21
655.337	37222.21
655.688	37249.33
656.039	37310.35
656.391	36883.47
656.742	37036.46
657.094	36926.18
657.445	37084.14
657.796	36917.36
658.147	36857.48
658.498	36919.62
658.849	36900.19
659.2	36865.16
659.551	36844.14
659.902	36914.88
660.253	36712.4
660.604	36866.52
660.955	36668.1
661.306	36765.5
661.656	36663.58
662.007	36684.15
662.358	36767.99
662.708	36603.92
663.059	36704.03
663.409	36434.44
663.76	36629.01
664.11	36609.57
664.461	36623.81
664.811	36530.25
665.161	36543.36
665.511	36357.38
665.862	36377.04
666.212	36552.4
666.562	36533.87
666.912	36511.72
667.262	36424.95
667.612	36382.69
667.962	36390.6
668.312	36403.93
668.662	36503.59
669.011	36364.61
669.361	36390.6
669.711	36222.69
670.06	36224.05
670.41	36268.11
670.76	36126.65
671.109	36224.27
671.459	36090.72
671.808	36124.84
672.157	36140.21
672.507	35986.31
672.856	35934.79
673.205	35997.16
673.554	36099.98
673.904	35920.55
674.253	36087.55
674.602	35980.21
674.951	35456.38
675.3	35183.62
675.649	35892.08
675.998	35838.52
676.346	35749.03
676.695	35848.92
677.044	35656.38
677.393	35590.84
677.741	35739.77
678.09	35627.23
678.438	35443.96
678.787	35641.92
679.135	35565.53
679.484	35307.69
679.832	35416.16
680.181	35239.44
680.529	35260.46
680.877	35048.03
681.225	35151.53
681.573	35314.24
681.922	35050.52
682.27	34966.91
682.618	35003.51
682.966	34864.31
683.314	34910.86
683.661	34831.99
684.009	34595.39
684.357	34667.48
684.705	34558.78
685.053	34523.98
685.4	34578.44
685.748	34297.77
686.095	34369.86
686.443	34231.78
686.79	34079.02
687.138	34234.95
687.485	34267.94
687.832	33996.76
688.18	34006.25
688.527	33894.17
688.874	33798.8
689.221	33709.09
689.568	33711.57
689.915	33655.98
690.262	33589.99
690.609	33315.42
690.956	33275.65
691.303	33288.08
691.65	33315.88
691.997	33146.61
692.344	32999.27
692.69	32903.23
693.037	32947.98
693.383	32606.52
693.73	32779.39
694.077	32485.16
694.423	32655.1
694.769	32472.73
695.116	32407.42
695.462	32365.84
695.808	32175.11
696.155	32216.24
696.501	32078.39
696.847	32016.25
697.193	31764.73
697.539	31931.51
697.885	31782.13
698.231	31597.73
698.577	31661.91
698.923	31520.67
699.269	31423.04
699.614	31387.56
699.96	31221.02
700.306	31242.71
700.651	30960.46
700.997	30944.86
701.342	30841.36
701.688	30926.33
702.033	30935.6
702.379	30714.14
702.724	30745.55
703.069	30764.53
703.415	30356.63
703.76	30424.2
704.105	30321.15
704.45	30255.39
704.795	30153.92
705.14	29959.13
705.485	30048.16
705.83	29904.67
706.175	29892.46
706.52	29910.09
706.865	29717.55
707.209	29617.89
707.554	29528.4
707.899	29694.28
708.243	29297.9
708.588	29508.97
708.932	29209.77
709.277	29198.24
709.621	29203.22
709.966	29028.76
710.31	29066.04
710.654	28846.61
710.998	28894.3
711.342	28946.72
711.687	28742.89
712.031	28686.84
712.375	28605.04
712.719	28633.06
713.063	28524.36
713.407	28589.9
713.75	28587.19
714.094	28421.31
714.438	28363.24
714.782	28326.85
715.125	28248.21
715.469	28232.39
715.812	28123.24
716.156	27982.23
716.499	28087.54
716.843	28077.82
717.186	27939.52
717.53	28004.6
717.873	27876.7
718.216	27786.53
718.559	27713.99
718.902	27443.49
719.246	27652.52
719.589	27494.11
719.932	27402.36
720.275	27543.37
720.617	27404.84
720.96	27474.9
721.303	27221.35
721.646	27424.5
721.989	27176.6
722.331	27271.29
722.674	27133.89
723.016	27114.23
723.359	27003.5
723.701	27101.12
724.044	26928.92
724.386	26731.87
724.729	26928.02
725.071	26825.88
725.413	26869.94
725.755	26718.76
726.097	26699.55
726.439	26556.51
726.782	26497.3
727.124	26574.58
727.465	26450.52
727.807	26443.06
728.149	26362.16
728.491	26327.36
728.833	26262.73
729.175	26267.25
729.516	26230.41
729.858	26153.35
730.199	26111.55
730.541	26095.73
730.882	25971.21
731.224	26180.02
731.565	25855.28
731.906	26027.93
732.248	25916.75
732.589	25808.28
732.93	25709.07
733.271	25760.37
733.612	25786.81
733.953	25785
734.294	25708.84
734.635	25567.6
734.976	25615.51
735.317	25521.28
735.658	25551.56
735.999	25419.36
736.339	25382.07
736.68	25532.13
737.021	25370.1
737.361	25292.58
737.702	25332.58
738.042	25290.32
738.383	25264.56
738.723	25282.87
739.063	24997.45
739.404	25098.01
739.744	25131.46
740.084	25010.11
740.424	25018.92
740.764	25052.59
741.104	25092.59
741.444	24874.52
741.784	24863.67
742.124	24863.22
742.464	24803.1
742.804	24853.73
743.143	24739.15
743.483	24696.44
743.823	24606.5
744.162	24560.4
744.502	24600.17
744.841	24540.51
745.181	24641.08
745.52	24484.24
745.86	24489.44
746.199	24452.83
746.538	24308.65
746.877	24348.65
747.216	24434.3
747.556	24150.47
747.895	24338.48
748.234	24089.68
748.573	23990.24
748.911	24128.55
749.25	23954.77
749.589	23963.58
749.928	23994.99
750.267	23966.52
750.605	23909.8
750.944	23883.81
751.283	23753.19
751.621	23739.4
751.96	23725.62
752.298	23624.83
752.636	23671.61
752.975	23472.74
753.313	23439.98
753.651	23473.2
753.989	23333.99
754.327	23397.72
754.666	23253.77
755.004	23286.76
755.342	23275.24
755.679	23267.55
756.017	23086.77
756.355	23155.46
756.693	23059.65
757.031	23159.76
757.368	22840.44
757.706	22763.84
758.044	22653.56
758.381	22755.7
758.719	22593.9
759.056	22690.17
759.394	22564.97
759.731	22492.21
760.068	22401.36
760.405	22375.37
760.743	22206.56
761.08	22294.24
761.417	22306.9
761.754	22068.94
762.091	22199.56
762.428	22010.64
762.765	21909.17
763.102	21906.23
763.438	21834.82
763.775	21646.58
764.112	21751.43
764.449	21586.69
764.785	21534.94
765.122	21406.81
765.458	21425.11
765.795	21260.83
766.131	21352.35
766.467	21285.46
766.804	21075.75
767.14	21021.06
767.476	21017.44
767.812	20926.82
768.148	20953.71
768.485	20896.31
768.821	20732.03
769.157	20582.88
769.492	20628.53
769.828	20552.14
770.164	20419.27
770.5	20341.75
770.836	20376.55
771.171	20264.02
771.507	20189.21
771.842	20085.49
772.178	20029.45
772.513	20001.2
772.849	19937.47
773.184	19814.54
773.519	19922.1
773.855	19770.47
774.19	19640.08
774.525	19548.55
774.86	19546.75
775.195	19446.64
775.53	19438.27
775.865	19236.7
776.2	19155.8
776.535	19056.59
776.87	18972.52
777.205	18997.61
777.539	18884.16
777.874	18941.79
778.209	18699.99
778.543	18626.77
778.878	18529.6
779.212	18565.98
779.547	18434.91
779.881	18525.76
780.215	18352.43
780.55	18418.87
780.884	18291.19
781.218	18163.96
781.552	18173.67
781.886	18048.25
782.22	17936.39
782.554	17935.49
782.888	17728.94
783.222	17758.32
783.556	17697.08
783.889	17597.64
784.223	17514.48
784.557	17482.62
784.89	17512.68
785.224	17299.57
785.557	17237.43
785.891	17321.04
786.224	17174.38
786.558	17164.21
786.891	17050.77
787.224	16954.05
787.557	17001.5
787.891	16894.39
788.224	16866.14
788.557	16830.89
788.89	16772.36
789.223	16704.11
789.556	16513.38
789.888	16575.98
790.221	16523.77
790.554	16381.63
790.887	16403.55
791.219	16316.32
791.552	16195.65
791.884	16173.5
792.217	16197.23
792.549	15999.95
792.882	16059.15
793.214	15931.02
793.546	15924.69
793.879	15890.34
794.211	15726.73
794.543	15758.6
794.875	15768.77
795.207	15758.37
795.539	15638.83
795.871	15716.11
796.203	15501.2
796.535	15421.88
796.867	15420.53
797.198	15290.36
797.53	15328.1
797.862	15221.66
798.193	15284.03
798.525	15138.73
798.856	15149.8
799.188	14990.93
799.519	14912.52
799.85	14850.82
800.182	14934.44
800.513	14891.05
800.844	14767.44
801.175	14842.91
801.506	14814.67
801.837	14732.18
802.168	14748.23
802.499	14519.53
802.83	14514.11
803.161	14621.45
803.491	14453.09
803.822	14563.37
804.153	14475.24
804.483	14339.43
804.814	14266.66
805.145	14286.77
805.475	14267.79
805.805	14179.66
806.136	14165.19
806.466	14156.83
806.796	14047
807.126	13954.8
807.457	13955.03
807.787	14000.45
808.117	13917.29
808.447	13876.16
808.777	13871.87
809.107	13876.84
809.436	13726.11
809.766	13802.72
810.096	13704.87
810.426	13605.89
810.755	13675.26
811.085	13619.67
811.414	13614.47
811.744	13483.85
812.073	13465.32
812.403	13451.09
812.732	13406.12
813.061	13349.17
813.39	13331.32
813.719	13221.71
814.049	13316.18
814.378	13289.96
814.707	13112.79
815.036	13150.08
815.365	13150.53
815.693	12955.05
816.022	12997.09
816.351	12983.08
816.68	12914.6
817.008	12962.51
817.337	12775.62
817.665	12834.15
817.994	12904.21
818.322	12829.86
818.651	12755.51
818.979	12737.66
819.307	12738.11
819.636	12786.47
819.964	12657.44
820.292	12686.81
820.62	12680.03
820.948	12618.11
821.276	12653.82
821.604	12570.88
821.932	12572.01
822.259	12541.96
822.587	12535.63
822.915	12569.3
823.243	12570.88
823.57	12599.36
823.898	12530.21
824.225	12502.64
824.553	12471.68
824.88	12544.44
825.207	12487.95
825.535	12580.15
825.862	12516.87
826.189	12552.35
826.516	12539.02
826.843	12520.72
827.17	12615.63
827.497	12541.51
827.824	12562.75
828.151	12467.61
828.478	12582.41
828.805	12651.79
829.131	12574.73
829.458	12494.05
829.785	12379.48
830.111	12401.62
830.438	12500.6
830.764	12421.06
831.09	12498.12
831.417	12385.35
831.743	12418.57
832.069	12451.11
832.395	12363.88
832.722	12447.72
833.048	12390.78
833.374	12443.43
833.7	12349.2
834.026	12336.31
834.351	12392.13
834.677	12309.65
835.003	12327.95
835.329	12331.79
835.654	12313.72
835.98	12312.13
836.306	12338.8
836.631	12209.31
836.956	12275.75
837.282	12192.81
837.607	12116.66
837.932	12209.09
838.258	12140.61
838.583	12042.31
838.908	12033.5
839.233	12106.94
839.558	12090.44
839.883	12055.19
840.208	11989.66
840.533	11965.02
840.858	11882.31
841.182	12038.02
841.507	11942.65
841.832	11844.58
842.156	11834.63
842.481	11897.46
842.805	11848.42
843.13	11822.2
843.454	11813.39
843.778	11684.81
844.103	11718.03
844.427	11650
844.751	11706.05
845.075	11689.55
845.399	11643.45
845.723	11566.62
846.047	11546.73
846.371	11396.68
846.695	11456.79
847.019	11437.13
847.343	11339.28
847.666	11287.3
847.99	11279.17
848.313	11163.24
848.637	11133.63
848.96	11132.73
849.284	11060.19
849.607	10988.33
849.931	10928.44
850.254	10917.59
850.577	10824.72
850.9	10758.28
851.223	10741.33
851.546	10647.32
851.869	10623.59
852.192	10642.57
852.515	10636.02
852.838	10631.95
853.161	10513.31
853.483	10484.84
853.806	10450.94
854.129	10468.79
854.451	10424.27
854.774	10295.46
855.096	10311.96
855.419	10323.26
855.741	10325.75
856.063	10234
856.385	10143.15
856.708	10169.14
857.03	10103.38
857.352	10128.46
857.674	10161.23
857.996	10061.57
858.318	9984.96
858.64	10026.77
858.961	10014.34
859.283	9936.83
859.605	9728.25
859.926	9922.37
860.248	9874.23
860.57	9827
860.891	9775.93
861.212	9685.54
861.534	9744.07
861.855	9725.54
862.176	9735.03
862.498	9673.79
862.819	9734.12
863.14	9620.91
863.461	9623.62
863.782	9624.07
864.103	9638.31
864.424	9568.48
864.745	9604.18
865.065	9496.16
865.386	9460.01
865.707	9487.12
866.027	9482.6
866.348	9429.27
866.668	9525.99
866.989	9401.25
867.309	9394.02
867.63	9353.34
867.95	9396.05
868.27	9357.86
868.59	9367.8
868.91	9279.22
869.23	9248.94
869.55	9262.95
869.87	9307.02
870.19	9320.35
870.51	9288.94
870.83	9259.78
871.15	9201.48
871.469	9233.34
871.789	9224.31
872.109	9227.24
872.428	9136.62
872.748	9156.51
873.067	9114.93
873.386	9138.88
873.706	9173.69
874.025	9116.74
874.344	9047.59
874.663	9062.05
874.982	9024.76
875.301	9104.53
875.62	9015.05
875.939	8941.6
876.258	9042.16
876.577	8928.72
876.896	9007.14
877.214	8894.37
877.533	8873.81
877.852	8895.5
878.17	8878.1
878.489	8879
878.807	8927.59
879.125	8837.87
879.444	8833.36
879.762	8785.45
880.08	8820.02
880.398	8738.44
880.716	8834.26
881.034	8762.85
881.352	8752
881.67	8690.99
881.988	8763.53
882.306	8744.32
882.624	8718.56
882.941	8659.35
883.259	8676.07
883.577	8568.96
883.894	8603.76
884.212	8588.39
884.529	8542.52
884.846	8504.78
885.164	8509.75
885.481	8455.74
885.798	8471.33
886.115	8421.61
886.432	8442.86
886.75	8363.99
887.067	8382.97
887.383	8356.08
887.7	8352.01
888.017	8356.31
888.334	8314.5
888.651	8259.36
888.967	8175.52
889.284	8209.19
889.6	8215.97
889.917	8178.68
890.233	8112.02
890.55	8167.16
890.866	8114.73
891.182	8179.36
891.498	8071.12
891.815	8054.62
892.131	8018.46
892.447	7939.37
892.763	7993.15
893.079	7959.25
893.395	7896.66
893.71	7964.9
894.026	7934.17
894.342	7905.92
894.657	7839.71
894.973	7768.07
895.289	7779.82
895.604	7693.5
895.92	7746.38
896.235	7724.68
896.55	7762.2
896.865	7742.76
897.181	7655.99
897.496	7604.46
897.811	7616.89
898.126	7516.78
898.441	7519.72
898.756	7567.85
899.071	7481.98
899.386	7444.69
899.7	7379.38
900.015	7440.4
900.33	7285.6
900.644	7338.03
900.959	7270.23
901.273	7237.24
901.588	7257.35
901.902	7223.68
902.216	7240.18
902.531	7165.83
902.845	7208.09
903.159	7086.51
903.473	7096
903.787	7094.19
904.101	7015.1
904.415	6984.82
904.729	7003.57
905.042	6965.38
905.356	6977.81
905.67	6935.78
905.984	6938.72
906.297	6876.34
906.611	6809.45
906.924	6863.24
907.237	6821.2
907.551	6794.76
907.864	6724.26
908.177	6719.96
908.491	6703.92
908.804	6688.33
909.117	6667.31
909.43	6597.26
909.743	6630.25
910.056	6556.35
910.368	6515
910.681	6498.95
910.994	6505.73
911.307	6503.93
911.619	6415.57
911.932	6414.44
912.244	6352.74
912.557	6384.15
912.869	6301.9
913.181	6334.21
913.494	6234.33
913.806	6240.43
914.118	6226.42
914.43	6184.16
914.742	6182.35
915.054	6156.82
915.366	6146.87
915.678	6105.97
915.99	6048.12
916.302	6024.39
916.613	6034.11
916.925	6039.98
917.236	5954.79
917.548	5925.64
917.859	5988.23
918.171	5881.34
918.482	5894.9
918.794	5810.16
919.105	5849.25
919.416	5724.06
919.727	5759.54
920.038	5814.23
920.349	5710.5
920.66	5738.75
920.971	5693.32
921.282	5692.65
921.593	5649.03
921.903	5581.01
922.214	5600.22
922.525	5541.69
922.835	5572.2
923.146	5519.54
923.456	5534.91
923.767	5491.97
924.077	5493.33
924.387	5477.51
924.697	5469.15
925.008	5382.82
925.318	5362.71
925.628	5380.79
925.938	5303.05
926.248	5288.59
926.558	5305.76
926.867	5277.97
927.177	5272.77
927.487	5226.67
927.796	5184.41
928.106	5172.66
928.416	5175.37
928.725	5140.12
929.034	5148.25
929.344	5093.57
929.653	5044.75
929.962	5037.97
930.271	4981.25
930.581	5028.03
930.89	4962.72
931.199	4986.22
931.508	4932.21
931.817	4967.02
932.125	4949.16
932.434	4919.56
932.743	4856.28
933.051	4873.23
933.36	4864.65
933.669	4754.14
933.977	4765.67
934.286	4759.79
934.594	4743.97
934.902	4662.39
935.21	4670.07
935.519	4699.68
935.827	4649.51
936.135	4621.49
936.443	4556.86
936.751	4600.7
937.059	4562.06
937.367	4553.24
937.674	4542.17
937.982	4538.33
938.29	4468.27
938.597	4507.37
938.905	4444.32
939.213	4454.26
939.52	4430.31
939.827	4430.31
940.135	4372.23
940.442	4326.81
940.749	4339.46
941.056	4341.27
941.363	4297.2
941.67	4285.45
941.977	4241.61
942.284	4251.33
942.591	4246.13
942.898	4218.11
943.205	4191.67
943.511	4193.48
943.818	4205.91
944.125	4170.88
944.431	4133.14
944.738	4121.84
945.044	4079.13
945.35	4082.75
945.657	4027.15
945.963	4038.91
946.269	3978.12
946.575	4040.71
946.881	4027.83
947.187	3960.26
947.493	3990.54
947.799	3926.59
948.105	3960.49
948.41	3939.25
948.716	3924.78
949.022	3854.28
949.327	3829.19
949.633	3814.28
949.938	3835.07
950.244	3819.48
950.549	3782.19
950.854	3773.6
951.16	3742.64
951.465	3705.81
951.77	3756.88
952.075	3725.92
952.38	3635.98
952.685	3671.01
952.99	3669.42
953.294	3656.99
953.599	3565.92
953.904	3613.83
954.209	3579.71
954.513	3591.01
954.818	3542.42
955.122	3552.36
955.426	3507.39
955.731	3507.39
956.035	3512.14
956.339	3468.75
956.643	3488.64
956.948	3414.06
957.252	3448.64
957.556	3491.57
957.86	3445.02
958.163	3452.25
958.467	3404.35
958.771	3370
959.075	3386.49
959.378	3368.19
959.682	3312.14
959.985	3297
960.289	3302.43
960.592	3297.23
960.896	3263.33
961.199	3267.63
961.502	3243.9
961.805	3219.27
962.108	3190.11
962.411	3190.34
962.714	3205.03
963.017	3185.37
963.32	3187.18
963.623	3131.36
963.926	3160.96
964.228	3123.9
964.531	3132.04
964.833	3112.83
965.136	3079.83
965.438	3040.06
965.741	3056.11
966.043	3035.54
966.345	3065.37
966.648	3026.95
966.95	2995.54
967.252	3009.78
967.554	2962.55
967.856	2976.79
968.158	2919.84
968.46	2909.22
968.761	2948.54
969.063	2939.95
969.365	2920.52
969.666	2887.97
969.968	2882.33
970.269	2862.44
970.571	2855.66
970.872	2858.37
971.174	2839.16
971.475	2848.2
971.776	2807.07
972.077	2812.04
972.378	2782.21
972.679	2786.51
972.98	2791.48
973.281	2751.93
973.582	2709.9
973.883	2695.21
974.183	2670.58
974.484	2716.23
974.785	2673.52
975.085	2654.99
975.386	2646.63
975.686	2661.99
975.986	2650.02
976.287	2658.15
976.587	2609.56
976.887	2628.55
977.187	2591.03
977.487	2580.41
977.787	2575.67
978.087	2578.83
978.387	2547.64
978.687	2578.15
978.987	2526.18
979.286	2512.39
979.586	2531.37
979.885	2496.35
980.185	2493.41
980.484	2468.78
980.784	2477.82
981.083	2435.78
981.382	2438.5
981.682	2452.28
981.981	2437.59
982.28	2444.14
982.579	2414.99
982.878	2401.21
983.177	2419.96
983.475	2395.33
983.774	2351.94
984.073	2348.78
984.372	2297.03
984.67	2325.96
984.969	2324.83
985.267	2340.64
985.566	2320.31
985.864	2283.02
986.162	2306.75
986.461	2269.46
986.759	2265.39
987.057	2238.05
987.355	2224.26
987.653	2255.68
987.951	2245.05
988.249	2208.22
988.547	2221.55
988.844	2192.85
989.142	2196.02
989.44	2162.12
989.737	2153.08
990.035	2174.32
990.332	2132.51
990.63	2132.29
990.927	2134.1
991.224	2102.46
991.521	2082.8
991.819	2094.78
992.116	2091.16
992.413	2086.19
992.71	2109.92
993.006	2056.81
993.303	2048.45
993.6	2029.01
993.897	2031.73
994.193	2041.44
994.49	2028.79
994.787	2001.67
995.083	1962.8
995.379	1983.14
995.676	1984.72
995.972	1968.23
996.268	1928.23
996.565	1939.98
996.861	1950.15
997.157	1953.99
997.453	1913.76
997.749	1921.22
998.044	1881
998.34	1896.59
998.636	1877.15
998.932	1891.84
999.227	1868.34
999.523	1838.28
999.818	1862.47
1000.114	1812.07
1000.409	1826.31
1000.704	1818.17
1001	1820.88
1001.295	1823.14
1001.59	1760.55
1001.885	1808
1002.18	1780.21
1002.475	1776.37
1002.77	1737.72
1003.065	1723.49
1003.359	1734.78
1003.654	1704.05
1003.949	1717.16
1004.243	1727.55
1004.538	1721.45
1004.832	1697.27
1005.127	1685.29
1005.421	1694.56
1005.715	1672.19
1006.009	1638.52
1006.304	1623.15
1006.598	1643.26
1006.892	1636.48
1007.186	1614.11
1007.48	1599.42
1007.773	1617.73
1008.067	1584.05
1008.361	1579.08
1008.655	1597.84
1008.948	1563.49
1009.242	1564.17
1009.535	1551.96
1009.829	1541.34
1010.122	1523.94
1010.415	1536.82
1010.708	1468.13
1011.001	1485.98
1011.295	1518.29
1011.588	1499.54
1011.881	1480.55
1012.173	1464.28
1012.466	1481.91
1012.759	1455.02
1013.052	1473.1
1013.344	1427.22
1013.637	1454.57
1013.93	1425.64
1014.222	1420.89
1014.514	1396.94
1014.807	1413.44
1015.099	1391.29
1015.391	1399.2
1015.683	1398.07
1015.976	1383.38
1016.268	1371.86
1016.56	1360.11
1016.851	1333.21
1017.143	1345.64
1017.435	1336.15
1017.727	1300.9
1018.018	1347.68
1018.31	1288.24
1018.602	1304.74
1018.893	1284.18
1019.185	1268.58
1019.476	1267.68
1019.767	1275.59
1020.058	1251.18
1020.35	1262.93
1020.641	1243.05
1020.932	1241.46
1021.223	1204.18
1021.514	1216.61
1021.804	1201.92
1022.095	1192.43
1022.386	1210.28
1022.677	1195.36
1022.967	1181.13
1023.258	1168.92
1023.548	1187
1023.839	1159.88
1024.129	1150.62
1024.419	1148.36
1024.709	1158.98
1025	1126.67
1025.29	1119.89
1025.58	1106.33
1025.87	1108.36
1026.16	1102.03
1026.449	1114.91
1026.739	1086.89
1027.029	1082.6
1027.319	1088.7
1027.608	1086.21
1027.898	1055.25
1028.187	1043.05
1028.477	1063.16
1028.766	1030.62
1029.055	1017.74
1029.344	1008.02
1029.634	994.69
1029.923	1026.78
1030.212	986.33
1030.501	991.08
1030.79	979.32
1031.078	1010.28
1031.367	982.71
1031.656	974.13
1031.945	989.72
1032.233	972.55
1032.522	967.57
1032.81	957.86
1033.099	933.22
1033.387	978.19
1033.675	942.49
1033.963	951.3
1034.251	934.58
1034.54	935.26
1034.828	900.91
1035.116	880.8
1035.403	909.04
1035.691	909.95
1035.979	872.21
1036.267	877.86
1036.554	871.08
1036.842	862.94
1037.129	876.05
1037.417	874.24
1037.704	866.33
1037.992	865.43
1038.279	849.16
1038.566	831.53
1038.853	831.53
1039.14	831.53
