Data from white_wall_FLMS001491_069.txt Node
Date: Tue Feb 07 11:05:24 GMT 2017
User: dcchb
Spectrometer: FLMS00149
Trigger mode: 0
Integration Time (sec): 2.000000E-2
Scans to average: 10
Electric dark correction enabled: true
Nonlinearity correction enabled: false
Boxcar width: 0
XAxis mode: Wavelengths
Number of Pixels in Spectrum: 2048
>>>>>Begin Spectral Data<<<<<
341.393	-21.27
341.776	-21.27
342.16	-21.27
342.543	-45.22
342.927	-64.66
343.31	-47.94
343.693	-79.35
344.077	-49.07
344.46	-78.44
344.843	-44.77
345.226	-39.35
345.61	-38.9
345.993	-17.65
346.376	5.62
346.759	-0.48
347.142	22.12
347.525	37.03
347.908	55.11
348.291	69.12
348.674	97.82
349.057	109.12
349.44	123.13
349.823	150.25
350.206	156.35
350.588	207.42
350.971	227.54
351.354	258.04
351.737	263.24
352.119	258.5
352.502	291.04
352.884	301.88
353.267	280.64
353.65	310.92
354.032	314.09
354.414	328.78
354.797	328.55
355.179	338.27
355.562	355.44
355.944	367.42
356.326	339.17
356.709	359.96
357.091	362
357.473	349.34
357.855	353.86
358.238	349.12
358.62	366.97
359.002	343.47
359.384	321.55
359.766	353.63
360.148	351.15
360.53	346.18
360.912	343.69
361.294	351.15
361.676	347.76
362.057	347.31
362.439	350.92
362.821	364.26
363.203	341.43
363.584	358.83
363.966	360.41
364.348	358.61
364.729	334.2
365.111	362.67
365.493	348.21
365.874	324.03
366.256	336.23
366.637	343.01
367.019	318.38
367.4	352.73
367.781	319.29
368.163	333.97
368.544	336.01
368.925	332.17
369.306	348.21
369.688	351.83
370.069	338.04
370.45	342.79
370.831	319.96
371.212	346.18
371.593	336.46
371.974	339.4
372.355	342.56
372.736	343.24
373.117	352.05
373.498	345.95
373.879	340.98
374.26	344.37
374.641	340.75
375.021	357.48
375.402	364.71
375.783	343.47
376.163	343.47
376.544	348.44
376.925	387.53
377.305	352.05
377.686	371.94
378.066	353.18
378.447	366.29
378.827	353.63
379.208	383.24
379.588	370.81
379.968	379.85
380.349	373.52
380.729	392.05
381.109	354.09
381.489	378.49
381.87	393.18
382.25	387.53
382.63	396.57
383.01	384.59
383.39	391.83
383.77	381.2
384.15	396.12
384.53	383.92
384.91	397.48
385.29	403.12
385.67	394.31
386.049	424.59
386.429	407.42
386.809	413.52
387.189	430.69
387.568	414.42
387.948	430.02
388.328	430.02
388.707	437.47
389.087	422.33
389.466	445.84
389.846	453.52
390.225	448.32
390.605	438.15
390.984	466.17
391.363	457.13
391.743	459.62
392.122	487.42
392.501	478.15
392.881	491.71
393.26	524.03
393.639	491.26
394.018	507.3
394.397	504.14
394.776	517.92
395.155	518.38
395.534	523.35
395.913	531.03
396.292	564.48
396.671	559.51
397.05	569.67
397.429	576.45
397.808	566.51
398.186	580.75
398.565	600.18
398.944	594.08
399.323	622.55
399.701	622.33
400.08	639.05
400.458	657.36
400.837	690.58
401.215	688.54
401.594	700.29
401.972	695.77
402.351	714.98
402.729	709.33
403.107	745.49
403.486	756.56
403.864	757.92
404.242	787.52
404.62	797.01
404.999	816
405.377	810.35
405.755	823
406.133	849.67
406.511	870.46
406.889	877.24
407.267	914.52
407.645	930.12
408.023	952.94
408.401	959.49
408.779	975.99
409.156	1006.27
409.534	991.13
409.912	1001.75
410.29	1049.89
410.667	1047.18
411.045	1072.26
411.422	1099.83
411.8	1119.26
412.178	1141.64
412.555	1133.28
412.933	1157.46
413.31	1172.82
413.687	1157
414.065	1194.52
414.442	1253.27
414.819	1226.83
415.197	1225.48
415.574	1277.68
415.951	1290.56
416.328	1299.82
416.705	1319.26
417.082	1327.85
417.46	1339.37
417.837	1364.23
418.214	1369.65
418.591	1417.34
418.967	1422.53
419.344	1410.33
419.721	1437.22
420.098	1421.4
420.475	1471.12
420.852	1484.9
421.228	1496.43
421.605	1533.72
421.982	1552.93
422.358	1559.93
422.735	1556.77
423.111	1564.22
423.488	1626.14
423.864	1623.66
424.241	1644.45
424.617	1651.45
424.994	1687.84
425.37	1674.5
425.746	1706.59
426.123	1736.42
426.499	1730.55
426.875	1760.83
427.251	1814.84
427.627	1826.59
428.003	1859.13
428.379	1867.04
428.756	1892.8
429.132	1941.62
429.507	1962.18
429.883	1997.21
430.259	2034.27
430.635	2054.16
431.011	2072.01
431.387	2111.78
431.763	2159.46
432.138	2143.42
432.514	2192.46
432.89	2151.55
433.265	2260.93
433.641	2251.66
434.016	2293.92
434.392	2347.48
434.767	2385.67
435.143	2342.74
435.518	2421.15
435.894	2438.33
436.269	2450.08
436.644	2480.36
437.02	2542.28
437.395	2551.77
437.77	2600.13
438.145	2644.2
438.52	2623.41
438.895	2657.53
439.271	2669.73
439.646	2714.93
440.021	2745.89
440.395	2784.31
440.77	2738.43
441.145	2790.86
441.52	2867.47
441.895	2828.15
442.27	2876.51
442.645	2876.28
443.019	2924.64
443.394	2933.91
443.769	2957.86
444.143	2983.4
444.518	3048.93
444.892	3023.85
445.267	3072.66
445.641	3089.38
446.016	3158.08
446.39	3158.76
446.764	3169.61
447.139	3179.78
447.513	3207.12
447.887	3264.52
448.262	3255.93
448.636	3261.35
449.01	3328.92
449.384	3341.8
449.758	3384.97
450.132	3423.16
450.506	3426.32
450.88	3430.39
451.254	3477.85
451.628	3536.38
452.002	3558.75
452.376	3657.95
452.75	3654.11
453.123	3668.8
453.497	3742.7
453.871	3752.19
454.244	3816.59
454.618	3899.98
454.992	3920.32
455.365	3958.96
455.739	4059.3
456.112	4083.25
456.486	4099.3
456.859	4185.85
457.232	4222.23
457.606	4242.35
457.979	4286.41
458.352	4385.85
458.725	4440.76
459.099	4469.46
459.472	4534.32
459.845	4643.92
460.218	4670.81
460.591	4688.66
460.964	4713.07
461.337	4849.56
461.71	4879.84
462.083	4996.22
462.456	4986.28
462.829	5027.86
463.201	5105.15
463.574	5147.18
463.947	5257.69
464.32	5364.8
464.692	5378.81
465.065	5447.29
465.438	5519.83
465.81	5606.6
466.183	5688.41
466.555	5807.95
466.928	5803.43
467.3	5821.97
467.672	5903.55
468.045	6156.19
468.417	6099.7
468.789	6162.07
469.161	6259.02
469.534	6388.96
469.906	6494.04
470.278	6550.31
470.65	6627.59
471.022	6760.02
471.394	6921.6
471.766	6966.79
472.138	7073.68
472.51	7235.49
472.882	7270.74
473.253	7389.16
473.625	7512.77
473.997	7692.65
474.369	7695.59
474.74	7788.24
475.112	8029.59
475.484	8151.17
475.855	8221.68
476.227	8324.27
476.598	8607.2
476.97	8678.39
477.341	8868.44
477.713	8978.49
478.084	9060.07
478.455	9304.13
478.827	9372.15
479.198	9657.12
479.569	9652.15
479.94	9910.22
480.311	10068.18
480.682	10302.53
481.053	10540.71
481.424	10747.49
481.795	10829.07
482.166	11009.85
482.537	11141.15
482.908	11427.02
483.279	11574.81
483.65	11763.5
484.021	11932.99
484.391	12121.46
484.762	12196.94
485.133	12329.59
485.503	12606.87
485.874	12860.65
486.244	12910.82
486.615	13272.62
486.985	13369.34
487.356	13666.28
487.726	13769.78
488.097	14081.86
488.467	14110.34
488.837	14330.67
489.207	14575.18
489.578	14791.67
489.948	14891.11
490.318	15138.78
490.688	15262.62
491.058	15535.61
491.428	15649.96
491.798	15853.79
492.168	16206.1
492.538	16272.54
492.908	16515.47
493.278	16640.44
493.648	16722.02
494.017	17007.43
494.387	17137.37
494.757	17335.34
495.126	17504.14
495.496	17568.32
495.866	17712.27
496.235	17909.56
496.605	18162.66
496.974	18229.32
497.344	18391.35
497.713	18577.56
498.082	18613.49
498.452	18916.31
498.821	18905.01
499.19	19035.63
499.559	19218.68
499.928	19518.78
500.298	19603.98
500.667	19796.06
501.036	19829.73
501.405	20018.2
501.774	20126.45
502.143	20282.38
502.512	20339.32
502.88	20652.31
503.249	20712.87
503.618	20769.14
503.987	20972.75
504.356	21130.49
504.724	21271.05
505.093	21444.15
505.462	21428.79
505.83	21675.56
506.199	21816.57
506.567	22168.43
506.936	22147.19
507.304	22525.26
507.672	22541.07
508.041	22586.72
508.409	22752.82
508.777	23065.13
509.145	23203.2
509.514	23295.18
509.882	23460.37
510.25	23577.2
510.618	23807.26
510.986	23969.51
511.354	24187.81
511.722	24281.14
512.09	24577.63
512.458	24592.09
512.826	24915.47
513.193	24835.25
513.561	25097.39
513.929	25290.83
514.297	25469.81
514.664	25685.17
515.032	25893.98
515.4	26040.64
515.767	26214.88
516.135	26377.58
516.502	26270.02
516.869	26748.65
517.237	27025.48
517.604	26907.96
517.972	27373.72
518.339	27490.32
518.706	27566.93
519.073	27749.75
519.44	27953.36
519.808	28246.01
520.175	28284.88
520.542	28585.43
520.909	28784.3
521.276	28743.4
521.643	29184.97
522.009	29384.06
522.376	29580.89
522.743	29746.08
523.11	30153.3
523.477	30364.15
523.843	30487.53
524.21	30738.82
524.577	30944.69
524.943	31224.69
525.31	31311.69
525.676	31746.03
526.043	31907.61
526.409	31890.21
526.776	32297.65
527.142	32403.41
527.508	32705.55
527.874	32896.28
528.241	33043.85
528.607	33276.38
528.973	33555.02
529.339	33518.19
529.705	33950.72
530.071	34201.78
530.437	34277.71
530.803	34473.19
531.169	34759.96
531.535	34696.69
531.901	34743.01
532.267	34995.21
532.632	35281.76
532.998	35442.88
533.364	35563.33
533.73	35671.58
534.095	35980.72
534.461	36072.47
534.826	36338.9
535.192	36579.57
535.557	36733.7
535.923	36631.32
536.288	36912.22
536.653	36987.7
537.019	37079.67
537.384	37324.19
537.749	37521.47
538.114	37568.48
538.479	37610.28
538.845	37808.02
539.21	38006.43
539.575	38140.21
539.94	38273.54
540.305	38440.99
540.67	38466.76
541.034	38608.22
541.399	38831.27
541.764	38843.7
542.129	39097.93
542.494	39171.82
542.858	39275.32
543.223	39389.9
543.587	39705.37
543.952	39669.66
544.316	39946.72
544.681	39790.79
545.045	40197.11
545.41	40338.8
545.774	40667.6
546.138	40446.37
546.503	40668.05
546.867	40741.27
547.231	41116.86
547.595	41150.53
547.959	41308.94
548.324	41379.22
548.688	41448.37
549.052	41592.55
549.416	41795.93
549.779	41916.38
550.143	42065.76
550.507	42376.26
550.871	42534.22
551.235	42516.14
551.599	42961.1
551.962	42936.24
552.326	43072.51
552.689	43406.06
553.053	43297.14
553.417	43384.59
553.78	44136.89
554.143	43974.41
554.507	44041.75
554.87	44386.83
555.234	44653.26
555.597	44533.04
555.96	44860.94
556.323	44999.47
556.686	45111.78
557.05	45395.84
557.413	45457.53
557.776	45733.01
558.139	45959.67
558.502	46120.12
558.865	46187.91
559.228	46607.11
559.59	46628.12
559.953	46716.94
560.316	47132.97
560.679	47134.1
561.041	47424.71
561.404	47653.86
561.767	47866.96
562.129	47739.73
562.492	48184.24
562.854	48105.15
563.217	48134.53
563.579	48425.14
563.941	48588.75
564.304	48925.01
564.666	49087.04
565.028	49065.8
565.39	49278.68
565.753	49451.33
566.115	49543.98
566.477	49682.96
566.839	49820.13
567.201	50017.19
567.563	50084.3
567.925	50230.06
568.287	50280.23
568.648	50359.33
569.01	50642.03
569.372	50734
569.734	50717.28
570.095	50986.43
570.457	51166.99
570.819	51188.91
571.18	51272.3
571.542	51355.68
571.903	51382.8
572.265	51583.02
572.626	51688.1
572.987	51743.24
573.349	51921.77
573.71	51952.73
574.071	52108.21
574.432	52196.11
574.794	52365.37
575.155	52322.89
575.516	52254.19
575.877	52506.84
576.238	52546.16
576.599	52632.71
576.96	52554.07
577.32	52567.4
577.681	52773.5
578.042	52805.59
578.403	52828.64
578.763	52782.76
579.124	52920.61
579.485	53003.78
579.845	53093.49
580.206	53081.51
580.566	53082.42
580.927	53033.61
581.287	53254.16
581.648	53198.57
582.008	53312.92
582.368	53244.9
582.728	53356.99
583.089	53235.86
583.449	53231.11
583.809	53296.42
584.169	53362.41
584.529	53238.35
584.889	53588.17
585.249	53355.63
585.609	53346.82
585.969	53461.16
586.329	53419.81
586.688	53407.38
587.048	53404.67
587.408	53364.44
587.768	53439.92
588.127	53409.87
588.487	53379.13
588.846	53585.46
589.206	53328.06
589.565	53373.71
589.925	53533.25
590.284	53394.27
590.643	53509.07
591.003	53482.41
591.362	53643.31
591.721	53524.21
592.08	53553.59
592.44	53587.49
592.799	53642.4
593.158	53569.41
593.517	53594.72
593.876	53669.3
594.235	53472.24
594.593	53589.75
594.952	53728.95
595.311	53622.06
595.67	53687.37
596.029	53839.91
596.387	53810.99
596.746	53850.99
597.104	53675.62
597.463	53729.41
597.822	53840.36
598.18	53764.43
598.538	53627.94
598.897	53932.56
599.255	53629.97
599.613	54156.29
599.972	53825
600.33	53956.97
600.688	53879.68
601.046	53992.45
601.404	54006.46
601.762	54009.85
602.12	54078.78
602.478	54187.25
602.836	54136.18
603.194	53974.15
603.552	54043.52
603.91	54124.65
604.268	54181.82
604.625	54120.81
604.983	54219.11
605.341	54074.93
605.698	54281.03
606.056	54337.98
606.413	54314.02
606.771	54341.37
607.128	54398.99
607.485	54225.21
607.843	54305.66
608.2	54504.3
608.557	54593.11
608.914	54475.38
609.272	54708.59
609.629	54652.77
609.986	54818.19
610.343	54604.41
610.7	54896.61
611.057	54781.81
611.414	54731.87
611.771	54766.44
612.127	54834.69
612.484	54799.66
612.841	54851.64
613.198	54848.25
613.554	54808.47
613.911	55028.81
614.267	54920.34
614.624	54933.67
614.98	55064.06
615.337	55083.72
615.693	55091.18
616.05	55030.62
616.406	55284.17
616.762	55129.37
617.118	55136.83
617.475	55123.72
617.831	55301.57
618.187	55288.91
618.543	55296.6
618.899	55495.46
619.255	55394.45
619.611	55419.76
619.967	55532.75
620.323	55463.6
620.678	55392.41
621.034	55346.54
621.39	55389.7
621.746	55380.44
622.101	55728.22
622.457	55371.85
622.812	55535.46
623.168	55554.22
623.523	55509.02
623.879	55613.2
624.234	55374.79
624.589	55489.13
624.945	55582.01
625.3	55541.79
625.655	55506.99
626.01	55536.14
626.365	55553.77
626.72	55553.54
627.075	55543.82
627.43	55434.9
627.785	55453.43
628.14	55544.05
628.495	55538.4
628.85	55467.21
629.205	55355.8
629.559	55550.6
629.914	55394.22
630.269	55420.89
630.623	55366.88
630.978	55283.26
631.332	55372.98
631.687	55435.12
632.041	55296.37
632.396	55365.97
632.75	55171.18
633.104	55255.92
633.459	55148.8
633.813	55140.67
634.167	55099.99
634.521	55106.55
634.875	55142.25
635.229	55083.95
635.583	55037.62
635.937	54958.53
636.291	55044.63
636.645	55022.25
636.999	54947.23
637.352	54977.74
637.706	54827
638.06	54942.03
638.413	54891.64
638.767	54846.89
639.121	54840.34
639.474	54696.16
639.828	54707.91
640.181	54754.69
640.534	54732.77
640.888	54641.25
641.241	54545.88
641.594	54601.02
641.947	54644.18
642.301	54502.95
642.654	54479.44
643.007	54482.16
643.36	54474.02
643.713	54369.16
644.066	54484.64
644.419	54334.14
644.771	54103.18
645.124	53820.25
645.477	53808.5
645.83	53616.64
646.182	53434.5
646.535	53403.99
646.888	53450.09
647.24	53212.58
647.593	53443.54
647.945	53333.26
648.298	53214.17
648.65	53097.78
649.002	53074.96
649.355	53234.73
649.707	53099.59
650.059	53227.27
650.411	53701.38
650.763	53613.03
651.115	53960.81
651.467	53821.16
651.819	53846.69
652.171	53674.94
652.523	53765.79
652.875	53703.19
653.227	53603.76
653.578	53792.91
653.93	53730.99
654.282	53545
654.633	53473.37
654.985	53469.07
655.337	53453.48
655.688	53499.13
656.039	53634.27
656.391	53254.84
656.742	53394.27
657.094	53408.28
657.445	53493.48
657.796	53399.02
658.147	53236.09
658.498	53367.38
658.849	53304.11
659.2	53314.05
659.551	53211.45
659.902	53236.99
660.253	53237.89
660.604	53293.49
660.955	53099.59
661.306	53212.36
661.656	53058.46
662.007	53058.24
662.358	53033.83
662.708	52982.08
663.059	53032.25
663.409	52746.38
663.76	53082.42
664.11	52884.91
664.461	53044.68
664.811	53006.26
665.161	52939.82
665.511	52874.06
665.862	52832.25
666.212	52986.38
666.562	52990.89
666.912	52804.46
667.262	52823.67
667.612	52953.61
667.962	52907.51
668.312	52760.17
668.662	52883.78
669.011	52790.9
669.361	52756.78
669.711	52724.46
670.06	52672.71
670.41	52620.28
670.76	52549.1
671.109	52776.21
671.459	52655.54
671.808	52473.39
672.157	52735.53
672.507	52435.2
672.856	52506.16
673.205	52435.2
673.554	52585.93
673.904	52409.67
674.253	52524.24
674.602	52479.04
674.951	51933.3
675.3	51847.65
675.649	52347.75
675.998	52204.25
676.346	52265.72
676.695	52441.3
677.044	52113.86
677.393	52245.38
677.741	52264.81
678.09	52124.48
678.438	52037.7
678.787	52061.65
679.135	52092.84
679.484	51824.15
679.832	52028.21
680.181	51880.64
680.529	52011.71
680.877	51824.15
681.225	51843.58
681.573	51978.72
681.922	51734.43
682.27	51599.07
682.618	51696.47
682.966	51577.15
683.314	51517.26
683.661	51460.77
684.009	51224.61
684.357	51176.71
684.705	51027.56
685.053	51143.26
685.4	51169.7
685.748	51012.42
686.095	50924.73
686.443	50823.04
686.79	50765.42
687.138	50781.01
687.485	50766.77
687.832	50657.62
688.18	50651.07
688.527	50390.51
688.874	50377.63
689.221	50344.18
689.568	50197.52
689.915	50177.41
690.262	50066
690.609	50048.15
690.956	49737.65
691.303	49833.24
691.65	49548.73
691.997	49601.83
692.344	49422.85
692.69	49408.62
693.037	49291.78
693.383	49045.91
693.73	49157.55
694.077	48978.8
694.423	48964.11
694.769	48895.64
695.116	48798.24
695.462	48675.3
695.808	48615.19
696.155	48631.46
696.501	48290.23
696.847	48384.01
697.193	48191.47
697.539	48428.3
697.885	47958.48
698.231	47833.74
698.577	47765.27
698.923	47596.23
699.269	47605.27
699.614	47488.44
699.96	47455.67
700.306	47380.65
700.651	47142.91
700.997	47113.99
701.342	46989.92
701.688	46789.25
702.033	46841.9
702.379	46659.54
702.724	46704.28
703.069	46617.73
703.415	46175.93
703.76	46192.43
704.105	46248.47
704.45	46123.05
704.795	45914.7
705.14	45925.09
705.485	45868.6
705.83	45648.94
706.175	45698.43
706.52	45460.02
706.865	45338.44
707.209	45425.22
707.554	45233.81
707.899	45311.1
708.243	45113.81
708.588	44986.13
708.932	44783.88
709.277	44863.88
709.621	44855.97
709.966	44449.2
710.31	44700.94
710.654	44304.57
710.998	44347.51
711.342	44359.03
711.687	44273.38
712.031	44150.45
712.375	43918.36
712.719	44046.27
713.063	44012.15
713.407	43910.91
713.75	43696
714.094	43717.01
714.438	43420.07
714.782	43604.7
715.125	43311.38
715.469	43458.72
715.812	43089.69
716.156	43026.41
716.499	43095.79
716.843	42929.24
717.186	42777.38
717.53	42884.27
717.873	42817.38
718.216	42726.31
718.559	42525.63
718.902	42435.47
719.246	42496.26
719.589	42285.19
719.932	42085.42
720.275	42213.55
720.617	42070.05
720.96	42040.9
721.303	42042.03
721.646	41982.37
721.989	41783.96
722.331	41871.19
722.674	41592.55
723.016	41616.5
723.359	41822.15
723.701	41661.25
724.044	41327.92
724.386	41285.89
724.729	41453.12
725.071	41341.94
725.413	41151.43
725.755	41213.58
726.097	41066.91
726.439	40784.66
726.782	40773.81
727.124	40952.79
727.465	40779.01
727.807	40839.12
728.149	40673.93
728.491	40563.88
728.833	40627.15
729.175	40439.81
729.516	40362.3
729.858	40241.4
730.199	40378.57
730.541	40412.02
730.882	40214.06
731.224	40394.62
731.565	40059.03
731.906	40044.12
732.248	39973.16
732.589	39696.33
732.93	39664.47
733.271	39645.71
733.612	39607.52
733.953	39738.59
734.294	39496.11
734.635	39599.38
734.976	39537.01
735.317	39332.72
735.658	39273.29
735.999	39284.59
736.339	39159.85
736.68	39382.67
737.021	39192.39
737.361	38944.48
737.702	39221.99
738.042	38994.43
738.383	38794.43
738.723	38926.86
739.063	38819.97
739.404	38745.39
739.744	38723.47
740.084	38630.82
740.424	38591.73
740.764	38595.57
741.104	38669.69
741.444	38369.36
741.784	38203.04
742.124	38375.69
742.464	38368.91
742.804	38281.45
743.143	38086.2
743.483	38140.44
743.823	37906.32
744.162	37979.31
744.502	37878.98
744.841	37746.78
745.181	37832.65
745.52	37591.07
745.86	37835.59
746.199	37624.52
746.538	37549.04
746.877	37593.56
747.216	37674.24
747.556	37543.39
747.895	37497.06
748.234	37197.41
748.573	37290.97
748.911	37046
749.25	37043.07
749.589	36977.08
749.928	36985.89
750.267	37077.87
750.605	36860.02
750.944	36757.42
751.283	36657.76
751.621	36789.06
751.96	36549.07
752.298	36550.2
752.636	36570.31
752.975	36256.42
753.313	36224.56
753.651	36422.06
753.989	36218.45
754.327	36034.28
754.666	35973.49
755.004	35951.12
755.342	35960.61
755.679	35772.82
756.017	35538.92
756.355	35602.88
756.693	35392.94
757.031	35566.95
757.368	35254.41
757.706	35301.87
758.044	35074.08
758.381	35177.35
758.719	35056.68
759.056	35074.53
759.394	34941.2
759.731	34742.34
760.068	34632.51
760.405	34555.45
760.743	34372.85
761.08	34350.48
761.417	34422.34
761.754	34138.51
762.091	34048.79
762.428	33892.41
762.765	33857.84
763.102	33953.66
763.438	33694.68
763.775	33583.72
764.112	33534.91
764.449	33479.54
764.785	33273.9
765.122	33090.63
765.458	33005.21
765.795	32942.38
766.131	32922.95
766.467	32879.79
766.804	32593.92
767.14	32604.31
767.476	32529.51
767.812	32282.51
768.148	32266.69
768.485	32096.08
768.821	31991.9
769.157	32014.5
769.492	31930.43
769.828	31915.97
770.164	31560.95
770.5	31390.78
770.836	31501.52
771.171	31225.37
771.507	31304.91
771.842	30836.9
772.178	30972.72
772.513	30820.18
772.849	30846.62
773.184	30745.83
773.519	30753.74
773.855	30480.53
774.19	30356.46
774.525	30247.99
774.86	30200.08
775.195	30099.29
775.53	30072.18
775.865	29750.83
776.2	29667.67
776.535	29507.22
776.87	29492.53
777.205	29384.28
777.539	29250.73
777.874	29301.57
778.209	28963.05
778.543	28961.47
778.878	28788.14
779.212	28749.5
779.547	28702.72
779.881	28671.76
780.215	28440.81
780.55	28425.67
780.884	28279.23
781.218	28231.77
781.552	28152.9
781.886	28074.49
782.22	27827.94
782.554	27756.76
782.888	27493.26
783.222	27482.86
783.556	27377.56
783.889	27261.4
784.223	27209.65
784.557	27011.92
784.89	27085.36
785.224	26914.97
785.557	26806.27
785.891	26778.7
786.224	26625.94
786.558	26672.26
786.891	26335.55
787.224	26378.49
787.557	26258.04
787.891	26229.56
788.224	26184.14
788.557	26133.52
788.89	26018.72
789.223	25977.82
789.556	25665.29
789.888	25766.07
790.221	25517.72
790.554	25346.2
790.887	25376.71
791.219	25181.46
791.552	25229.59
791.884	24971.74
792.217	24995.92
792.549	24953.67
792.882	24653.56
793.214	24705.76
793.546	24758.19
793.879	24632.09
794.211	24424.19
794.543	24481.14
794.875	24334.25
795.207	24463.51
795.539	24203.86
795.871	24252.89
796.203	24066.68
796.535	23917.08
796.867	23948.95
797.198	24006.35
797.53	23822.4
797.862	23683.64
798.193	23667.6
798.525	23445.91
798.856	23498.34
799.188	23325.69
799.519	23206.14
799.85	23188.97
800.182	23107.84
800.513	23123.66
800.844	22784.46
801.175	23035.3
801.506	22975.86
801.837	22807.73
802.168	22703.78
802.499	22709.66
802.83	22510.57
803.161	22499.04
803.491	22454.3
803.822	22442.32
804.153	22346.05
804.483	22146.28
804.814	22125.49
805.145	22074.65
805.475	22095.66
805.805	21880.75
806.136	21955.78
806.466	21878.72
806.796	21898.15
807.126	21590.36
807.457	21671.49
807.787	21668.55
808.117	21571.16
808.447	21440.76
808.777	21507.43
809.107	21323.25
809.436	21306.98
809.766	21363.7
810.096	21218.4
810.426	21066.76
810.755	21110.6
811.085	21112.41
811.414	20944.05
811.744	20886.2
812.073	20794.23
812.403	20738.86
812.732	20688.47
813.061	20780.44
813.39	20521.69
813.719	20561.01
814.049	20581.58
814.378	20600.11
814.707	20324.86
815.036	20371.19
815.365	20242.6
815.693	20083.51
816.022	20149.95
816.351	20151.76
816.68	19972.1
817.008	20009.16
817.337	19889.84
817.665	19908.15
817.994	19877.64
818.322	19775.27
818.651	19760.81
818.979	19644.2
819.307	19779.56
819.636	19642.62
819.964	19428.16
820.292	19641.49
820.62	19525.79
820.948	19544.54
821.276	19490.31
821.604	19504.09
821.932	19512.68
822.259	19552.45
822.587	19523.3
822.915	19334.83
823.243	19535.28
823.57	19436.97
823.898	19457.54
824.225	19349.97
824.553	19378.9
824.88	19420.48
825.207	19361.95
825.535	19357.65
825.862	19358.78
826.189	19331.44
826.516	19377.09
826.843	19435.39
827.17	19300.03
827.497	19347.71
827.824	19330.08
828.151	19379.35
828.478	19304.32
828.805	19370.54
829.131	19320.14
829.458	19353.59
829.785	19203.08
830.111	19302.06
830.438	19360.14
830.764	19234.04
831.09	19209.86
831.417	19233.14
831.743	19263.19
832.069	19248.51
832.395	19154.72
832.722	19244.44
833.048	19175.96
833.374	19169.64
833.7	19088.96
834.026	19086.02
834.351	19174.16
834.677	19186.13
835.003	19162.18
835.329	19082.86
835.654	19135.51
835.98	18912.92
836.306	18973.71
836.631	18846.26
836.956	18948.63
837.282	18986.37
837.607	18788.63
837.932	18757.9
838.258	18875.18
838.583	18758.12
838.908	18666.6
839.233	18761.06
839.558	18689.65
839.883	18650.33
840.208	18527.85
840.533	18581.86
840.858	18540.73
841.182	18454.4
841.507	18377.12
841.832	18342.31
842.156	18337.57
842.481	18335.08
842.805	18205.82
843.13	18254.86
843.454	18267.06
843.778	18114.07
844.103	18204.46
844.427	18105.03
844.751	18066.39
845.075	17919.27
845.399	17864.59
845.723	17848.09
846.047	17950.01
846.371	17780.3
846.695	17737.36
847.019	17618.72
847.343	17490.36
847.666	17373.53
847.99	17253.76
848.313	17349.12
848.637	17183.02
848.96	17148.22
849.284	17134.89
849.607	17041.11
849.931	17009.92
850.254	16779.42
850.577	16838.85
850.9	16651.06
851.223	16588.46
851.546	16593.89
851.869	16494.91
852.192	16571.51
852.515	16363.16
852.838	16301.69
853.161	16334.23
853.483	16228.7
853.806	16221.24
854.129	16101.02
854.451	16096.27
854.774	16029.15
855.096	15962.94
855.419	15951.19
855.741	15916.39
856.063	15870.74
856.385	15844.75
856.708	15713.23
857.03	15716.85
857.352	15604.08
857.674	15637.07
857.996	15444.76
858.318	15496.51
858.64	15488.15
858.961	15511.88
859.283	15384.43
859.605	15324.77
859.926	15359.57
860.248	15241.83
860.57	15165.67
860.891	15163.19
861.212	15181.27
861.534	15019.92
861.855	15018.56
862.176	15043.64
862.498	15026.24
862.819	15007.94
863.14	14925.91
863.461	14960.03
863.782	14803.65
864.103	14899.92
864.424	14773.82
864.745	14767.49
865.065	14718.45
865.386	14671
865.707	14637.33
866.027	14669.87
866.348	14595.97
866.668	14568.63
866.989	14597.78
867.309	14458.8
867.63	14589.19
867.95	14530.21
868.27	14343.32
868.59	14470.55
868.91	14357.33
869.23	14422.64
869.55	14351.01
869.87	14421.29
870.19	14277.56
870.51	14323.66
870.83	14270.11
871.15	14206.6
871.469	14229.88
871.789	14203.21
872.109	14225.59
872.428	14117.57
872.748	14145.36
873.067	14146.94
873.386	14093.84
873.706	14037.34
874.025	14004.12
874.344	13934.07
874.663	14046.61
874.982	13927.29
875.301	14010
875.62	13917.35
875.939	13956.67
876.258	13819.72
876.577	13872.15
876.896	13857.23
877.214	13838.93
877.533	13812.04
877.852	13774.07
878.17	13775.2
878.489	13770.01
878.807	13730.01
879.125	13678.03
879.444	13699.5
879.762	13605.26
880.08	13669.44
880.398	13588.77
880.716	13461.99
881.034	13509
881.352	13389.45
881.67	13336.12
881.988	13355.33
882.306	13326.4
882.624	13348.55
882.941	13304.25
883.259	13241.43
883.577	13244.6
883.894	13264.03
884.212	13230.81
884.529	13205.27
884.846	13088.67
885.164	13009.12
885.481	12993.75
885.798	13066.29
886.115	13015.45
886.432	12967.54
886.75	12915.56
887.067	12875.34
887.383	12830.59
887.7	12927.77
888.017	12822.91
888.334	12842.35
888.651	12679.86
888.967	12798.05
889.284	12663.14
889.6	12634.22
889.917	12563.48
890.233	12565.29
890.55	12442.81
890.866	12556.7
891.182	12428.57
891.498	12329.37
891.815	12409.36
892.131	12294.79
892.447	12275.13
892.763	12293.89
893.079	12295.02
893.395	12207.79
893.71	12218.86
894.026	12129.14
894.342	12110.16
894.657	12027.45
894.973	11994.46
895.289	11961.47
895.604	11988.81
895.92	11943.84
896.235	11821.58
896.55	11827.23
896.865	11789.72
897.181	11766.89
897.496	11709.49
897.811	11753.56
898.126	11614.58
898.441	11586.33
898.756	11538.88
899.071	11441.7
899.386	11521.25
899.7	11382.72
900.015	11328.04
900.33	11269.51
900.644	11311.99
900.959	11309.28
901.273	11224.76
901.588	11188.83
901.902	11144.31
902.216	11042.62
902.531	11045.11
902.845	10947.71
903.159	10988.61
903.473	10870.19
903.787	10858.22
904.101	10851.89
904.415	10809.63
904.729	10744.77
905.042	10656.19
905.356	10614.38
905.67	10614.16
905.984	10649.18
906.297	10619.13
906.611	10577.32
906.924	10524.44
907.237	10470.43
907.551	10402.86
907.864	10374.39
908.177	10279.25
908.491	10292.13
908.804	10283.77
909.117	10187.05
909.43	10127.84
909.743	10114.28
910.056	10027.28
910.368	9971.46
910.681	9964.23
910.994	9961.29
911.307	9931.24
911.619	9801.52
911.932	9867.96
912.244	9741.86
912.557	9795.19
912.869	9678.36
913.181	9657.12
913.494	9626.84
913.806	9535.77
914.118	9533.05
914.43	9469.33
914.742	9459.84
915.054	9401.08
915.366	9426.84
915.678	9315.43
915.99	9290.8
916.302	9232.27
916.613	9185.04
916.925	9179.84
917.236	9141.65
917.548	9096
917.859	9039.51
918.171	9047.64
918.482	8988.44
918.794	8950.24
919.105	8927.42
919.416	8824.37
919.727	8817.37
920.038	8845.39
920.349	8770.81
920.66	8738.27
920.971	8702.12
921.282	8646.07
921.593	8592.06
921.903	8559.52
922.214	8569.46
922.525	8507.32
922.835	8504.83
923.146	8400.65
923.456	8406.08
923.767	8305.74
924.077	8333.31
924.387	8319.53
924.697	8251.05
925.008	8219.19
925.318	8228.23
925.628	8229.81
925.938	8131.51
926.248	8033.88
926.558	8014.45
926.867	8027.78
927.177	7975.81
927.487	7922.25
927.796	7833.21
928.106	7873.44
928.416	7872.31
928.725	7833.89
929.034	7747.11
929.344	7768.81
929.653	7750.05
929.962	7702.82
930.271	7613.1
930.581	7591.18
930.89	7582.82
931.199	7468.25
931.508	7471.64
931.817	7520.68
932.125	7397.97
932.434	7431.87
932.743	7369.95
933.051	7272.32
933.36	7277.52
933.669	7214.25
933.977	7208.37
934.286	7151.2
934.594	7155.94
934.902	7068.26
935.21	7102.16
935.519	7071.88
935.827	7056.06
936.135	6992.56
936.443	6893.8
936.751	6951.88
937.059	6913.24
937.367	6885.21
937.674	6836.85
937.982	6825.55
938.29	6769.51
938.597	6769.51
938.905	6718.89
939.213	6683.86
939.52	6646.12
939.827	6626.46
940.135	6591.44
940.442	6613.13
940.749	6519.12
941.056	6506.47
941.363	6428.05
941.67	6426.7
941.977	6380.82
942.284	6395.06
942.591	6283.42
942.898	6317.09
943.205	6358.45
943.511	6280.03
943.818	6269.19
944.125	6158.23
944.431	6207.72
944.738	6137.89
945.044	6118.91
945.35	6118.91
945.657	6066.03
945.963	6065.8
946.269	6003.2
946.575	6022.86
946.881	5941.51
947.187	5933.15
947.493	5904
947.799	5916.88
948.105	5864.68
948.41	5798.24
948.716	5788.97
949.022	5798.01
949.327	5778.12
949.633	5763.66
949.938	5649.31
950.244	5709.65
950.549	5634.85
950.854	5605.93
951.16	5658.35
951.465	5634.17
951.77	5576.55
952.075	5529.77
952.38	5517.34
952.685	5510.79
952.99	5445.93
953.294	5443.44
953.599	5440.05
953.904	5394.41
954.209	5416.1
954.513	5384.69
954.818	5323.22
955.122	5280.06
955.426	5295.43
955.731	5277.57
956.035	5237.8
956.339	5194.64
956.643	5201.87
956.948	5085.04
957.252	5130.01
957.556	5140.4
957.86	5090.01
958.163	5072.38
958.467	5036.45
958.771	5080.06
959.075	5069.67
959.378	4925.04
959.682	4957.58
959.985	4947.19
960.289	4919.16
960.592	4914.87
960.896	4868.54
961.199	4842.33
961.502	4818.38
961.805	4813.63
962.108	4783.12
962.411	4807.3
962.714	4723.46
963.017	4735.89
963.32	4720.75
963.623	4716.46
963.926	4692.5
964.228	4638.72
964.531	4626.06
964.833	4625.39
965.136	4561.89
965.438	4575.9
965.741	4545.16
966.043	4522.79
966.345	4483.24
966.648	4476.01
966.95	4473.3
967.252	4463.58
967.554	4463.81
967.856	4421.32
968.158	4392.62
968.46	4308.11
968.761	4356.69
969.063	4355.11
969.365	4302.68
969.666	4316.69
969.968	4245.74
970.269	4226.75
970.571	4242.35
970.872	4191.05
971.174	4171.84
971.475	4173.87
971.776	4135.68
972.077	4170.48
972.378	4137.26
972.679	4100.65
972.98	4070.15
973.281	4059.3
973.582	4065.4
973.883	4035.57
974.183	3982.47
974.484	4011.84
974.785	3958.06
975.085	3978.17
975.386	3971.62
975.686	3939.08
975.986	3903.37
976.287	3910.38
976.587	3841
976.887	3830.15
977.187	3845.75
977.487	3812.07
977.787	3837.61
978.087	3803.26
978.387	3796.48
978.687	3787.22
978.987	3727.56
979.286	3708.35
979.586	3686.43
979.885	3676.26
980.185	3666.09
980.484	3632.87
980.784	3618.18
981.083	3613.44
981.382	3606.2
981.682	3598.07
981.981	3559.88
982.28	3556.71
982.579	3523.95
982.878	3555.58
983.177	3496.15
983.475	3496.15
983.774	3461.8
984.073	3398.53
984.372	3430.39
984.67	3381.35
984.969	3384.74
985.267	3383.39
985.566	3401.92
985.864	3332.54
986.162	3373.67
986.461	3357.62
986.759	3310.62
987.057	3314.69
987.355	3273.56
987.653	3245.54
987.951	3210.06
988.249	3239.21
988.547	3181.81
988.844	3165.99
989.142	3210.06
989.44	3133
989.737	3175.71
990.035	3128.48
990.332	3125.31
990.63	3122.83
990.927	3059.33
991.224	3097.97
991.521	3081.47
991.819	3070.4
992.116	3040.34
992.413	3043.51
992.71	3039.89
993.006	2970.97
993.303	2993.34
993.6	2973.45
993.897	2982.27
994.193	2966
994.49	2935.04
994.787	2927.58
995.083	2887.35
995.379	2835.6
995.676	2836.51
995.972	2826.79
996.268	2865.43
996.565	2823.4
996.861	2766.68
997.157	2774.36
997.453	2788.82
997.749	2768.26
998.044	2718.09
998.34	2734.82
998.636	2708.15
998.932	2679.9
999.227	2719.9
999.523	2676.51
999.818	2670.86
1000.114	2621.6
1000.409	2625.21
1000.704	2632.22
1001	2607.59
1001.295	2575.5
1001.59	2593.12
1001.885	2554.71
1002.18	2540.02
1002.475	2527.14
1002.77	2515.84
1003.065	2471.09
1003.359	2489.17
1003.654	2497.53
1003.949	2454.14
1004.243	2464.09
1004.538	2429.74
1004.832	2432.45
1005.127	2401.04
1005.421	2372.79
1005.715	2363.53
1006.009	2373.47
1006.304	2306.58
1006.598	2341.15
1006.892	2306.8
1007.186	2285.56
1007.48	2329.63
1007.773	2284.88
1008.067	2255.28
1008.361	2253.25
1008.655	2218.22
1008.948	2233.36
1009.242	2238.33
1009.535	2179.8
1009.829	2186.35
1010.122	2154.94
1010.415	2132.35
1010.708	2157.66
1011.001	2139.8
1011.295	2108.62
1011.588	2086.24
1011.881	2095.06
1012.173	2062.74
1012.466	2031.33
1012.759	2066.36
1013.052	2047.83
1013.344	2058.67
1013.637	2041.05
1013.93	2019.81
1014.222	1991.33
1014.514	1968.96
1014.807	1955.85
1015.099	1957.89
1015.391	1940.26
1015.683	1952.69
1015.976	1964.89
1016.268	1921.05
1016.56	1922.18
1016.851	1877.66
1017.143	1844.44
1017.435	1830.88
1017.727	1857.55
1018.018	1832.01
1018.31	1834.27
1018.602	1805.57
1018.893	1785.24
1019.185	1778
1019.476	1778.68
1019.767	1778
1020.058	1735.75
1020.35	1727.16
1020.641	1705.01
1020.932	1710.66
1021.223	1741.39
1021.514	1703.66
1021.804	1674.5
1022.095	1671.57
1022.386	1650.55
1022.677	1632.47
1022.967	1625.69
1023.258	1611.45
1023.548	1596.77
1023.839	1608.74
1024.129	1579.59
1024.419	1594.05
1024.709	1563.77
1025	1548.18
1025.29	1563.77
1025.58	1562.42
1025.87	1563.32
1026.16	1523.77
1026.449	1524.9
1026.739	1508.41
1027.029	1503.21
1027.319	1466.6
1027.608	1459.82
1027.898	1467.28
1028.187	1468.18
1028.477	1441.29
1028.766	1438.58
1029.055	1403.1
1029.344	1420.95
1029.634	1415.08
1029.923	1389.54
1030.212	1398.81
1030.501	1367.62
1030.79	1368.75
1031.078	1405.58
1031.367	1330.56
1031.656	1361.52
1031.945	1338.47
1032.233	1326.94
1032.522	1301.18
1032.81	1273.84
1033.099	1284.46
1033.387	1277.23
1033.675	1263.44
1033.963	1269.09
1034.251	1250.56
1034.54	1226.61
1034.828	1235.87
1035.116	1244.23
1035.403	1221.41
1035.691	1224.12
1035.979	1192.48
1036.267	1169.88
1036.554	1161.75
1036.842	1191.13
1037.129	1200.17
1037.417	1142.31
1037.704	1171.69
1037.992	1154.52
1038.279	1158.36
1038.566	1152.71
1038.853	1152.71
1039.14	1152.71
