Data from white_wall_FLMS001491_062.txt Node
Date: Tue Feb 07 11:05:23 GMT 2017
User: dcchb
Spectrometer: FLMS00149
Trigger mode: 0
Integration Time (sec): 2.000000E-2
Scans to average: 10
Electric dark correction enabled: true
Nonlinearity correction enabled: false
Boxcar width: 0
XAxis mode: Wavelengths
Number of Pixels in Spectrum: 2048
>>>>>Begin Spectral Data<<<<<
341.393	-14.48
341.776	-14.48
342.16	-14.48
342.543	-54.02
342.927	-75.94
343.31	-64.65
343.693	-73.23
344.077	-62.16
344.46	-61.71
344.843	-52.89
345.226	-38.43
345.61	-36.85
345.993	-21.26
346.376	8.12
346.759	-0.24
347.142	14.22
347.525	28.46
347.908	79.31
348.291	83.6
348.674	75.24
349.057	122.47
349.44	138.74
349.823	155.69
350.206	179.87
350.588	212.64
350.971	227.78
351.354	237.95
351.737	248.79
352.119	264.84
352.502	267.1
352.884	286.53
353.267	317.04
353.65	305.97
354.032	322.92
354.414	324.72
354.797	330.15
355.179	327.89
355.562	338.96
355.944	354.55
356.326	328.79
356.709	352.52
357.091	357.04
357.473	372.41
357.855	368.11
358.238	349.58
358.62	369.47
359.002	360.65
359.384	364.27
359.766	371.05
360.148	364.95
360.53	353.2
360.912	375.12
361.294	367.43
361.676	357.04
362.057	355.46
362.439	390.94
362.821	373.99
363.203	356.59
363.584	342.8
363.966	340.32
364.348	346.87
364.729	329.24
365.111	369.02
365.493	363.82
365.874	333.08
366.256	342.12
366.637	355.23
367.019	328.11
367.4	343.93
367.781	341.22
368.163	337.6
368.544	331.28
368.925	348.9
369.306	333.31
369.688	335.34
370.069	342.12
370.45	343.93
370.831	336.93
371.212	350.71
371.593	344.84
371.974	341.22
372.355	349.81
372.736	360.2
373.117	345.06
373.498	338.06
373.879	361.11
374.26	344.38
374.641	351.16
375.021	340.54
375.402	335.12
375.783	346.42
376.163	373.54
376.544	365.4
376.925	352.29
377.305	371.73
377.686	360.65
378.066	348.23
378.447	359.98
378.827	374.21
379.208	371.5
379.588	346.87
379.968	348.23
380.349	359.75
380.729	390.26
381.109	387.09
381.489	366.53
381.87	380.31
382.25	382.57
382.63	403.14
383.01	411.5
383.39	388.68
383.77	393.65
384.15	399.07
384.53	406.08
384.91	406.53
385.29	419.64
385.67	395.68
386.049	406.3
386.429	417.83
386.809	421.44
387.189	410.14
387.568	418.51
387.948	397.49
388.328	438.39
388.707	432.74
389.087	444.49
389.466	459.86
389.846	469.8
390.225	455.79
390.605	447.66
390.984	472.97
391.363	489.24
391.743	467.77
392.122	490.14
392.501	499.41
392.881	493.53
393.26	509.35
393.639	512.97
394.018	508.67
394.397	503.02
394.776	505.06
395.155	521.33
395.534	533.76
395.913	557.26
396.292	560.2
396.671	566.75
397.05	570.82
397.429	591.38
397.808	604.26
398.186	617.6
398.565	604.04
398.944	612.63
399.323	618.05
399.701	641.55
400.08	650.36
400.458	656.47
400.837	690.14
401.215	687.2
401.594	701.89
401.972	704.37
402.351	722.23
402.729	711.61
403.107	748.89
403.486	759.51
403.864	764.03
404.242	794.09
404.62	778.04
404.999	806.97
405.377	818.27
405.755	827.76
406.133	853.97
406.511	860.08
406.889	867.99
407.267	907.08
407.645	929.45
408.023	923.13
408.401	936.01
408.779	974.2
409.156	1002.45
409.534	1009.68
409.912	1040.41
410.29	1039.96
410.667	1076.12
411.045	1078.38
411.422	1056.23
411.8	1110.92
412.178	1120.63
412.555	1164.02
412.933	1189.79
413.31	1176.23
413.687	1206.28
414.065	1204.25
414.442	1228.2
414.819	1234.3
415.197	1247.64
415.574	1315.21
415.951	1294.42
416.328	1326.28
416.705	1332.61
417.082	1317.24
417.46	1364.92
417.837	1361.53
418.214	1376.67
418.591	1391.36
418.967	1437.01
419.344	1411.25
419.721	1459.61
420.098	1438.37
420.475	1482.43
420.852	1465.26
421.228	1513.62
421.605	1511.58
421.982	1554.3
422.358	1574.41
422.735	1577.57
423.111	1612.37
423.488	1645.37
423.864	1622.99
424.241	1653.5
424.617	1674.29
424.994	1721.07
425.37	1700.28
425.746	1708.42
426.123	1734.4
426.499	1731.47
426.875	1765.36
427.251	1835.19
427.627	1862.99
428.003	1874.96
428.379	1869.54
428.756	1908.64
429.132	1934.85
429.507	1968.75
429.883	1970.56
430.259	2016.43
430.635	2001.29
431.011	2021.4
431.387	2084.45
431.763	2123.09
432.138	2155.86
432.514	2183.21
432.89	2168.74
433.265	2228.4
433.641	2234.96
434.016	2312.69
434.392	2326.25
434.767	2393.37
435.143	2378.45
435.518	2417.32
435.894	2454.84
436.269	2450.09
436.644	2467.04
437.02	2557.88
437.395	2552.24
437.77	2572.57
438.145	2584.1
438.52	2610.99
438.895	2693.47
439.271	2672.91
439.646	2743.42
440.021	2778.22
440.395	2771.44
440.77	2766.92
441.145	2792.45
441.52	2875.84
441.895	2873.13
442.27	2887.59
442.645	2941.83
443.019	2967.59
443.394	2976.18
443.769	2969.85
444.143	2962.39
444.518	3031.32
444.892	3037.87
445.267	3081.26
445.641	3077.19
446.016	3111.77
446.39	3148.15
446.764	3183.4
447.139	3180.92
447.513	3217.98
447.887	3270.18
448.262	3197.19
448.636	3274.25
449.01	3327.13
449.384	3314.7
449.758	3367.81
450.132	3424.75
450.506	3466.56
450.88	3476.73
451.254	3480.35
451.628	3580.68
452.002	3611.42
452.376	3581.36
452.75	3638.53
453.123	3696.61
453.497	3749.72
453.871	3786.1
454.244	3818.64
454.618	3886.21
454.992	3928.7
455.365	3934.57
455.739	4073.1
456.112	4102.25
456.486	4154.23
456.859	4154.45
457.232	4235.13
457.606	4273.55
457.979	4305.18
458.352	4382.92
458.725	4429.93
459.099	4479.64
459.472	4547.44
459.845	4601.45
460.218	4672.63
460.591	4693.2
460.964	4673.99
461.337	4856.81
461.71	4929.57
462.083	4980.19
462.456	5026.52
462.829	5033.75
463.201	5096.8
463.574	5112.17
463.947	5200.3
464.32	5314.42
464.692	5406.17
465.065	5440.97
465.438	5498.82
465.81	5605.04
466.183	5677.58
466.555	5766.84
466.928	5848.19
467.3	5775.43
467.672	5945.82
468.045	6156.21
468.417	6096.77
468.789	6129.09
469.161	6213.16
469.534	6390.78
469.906	6518.01
470.278	6530.89
470.65	6636.65
471.022	6798
471.394	6804.55
471.766	6914.15
472.138	7055.17
472.51	7162.74
472.882	7282.96
473.253	7348.04
473.625	7559.34
473.997	7667.35
474.369	7700.12
474.74	7851.76
475.112	7996.39
475.484	8104.63
475.855	8217.4
476.227	8388.47
476.598	8599.76
476.97	8607.22
477.341	8800.43
477.713	8975.57
478.084	9081.78
478.455	9303.02
478.827	9407.42
479.198	9708.66
479.569	9709.56
479.94	10002.21
480.311	10093.96
480.682	10267.74
481.053	10574.85
481.424	10662.98
481.795	10839.93
482.166	11033.37
482.537	11161.5
482.908	11385.22
483.279	11445.33
483.65	11706.12
484.021	11989.5
484.391	12170.97
484.762	12246.44
485.133	12385.65
485.503	12539.77
485.874	12825.86
486.244	12985.18
486.615	13235.57
486.985	13435.11
487.356	13664.03
487.726	13765.5
488.097	14076.23
488.467	14128.43
488.837	14420.17
489.207	14544.01
489.578	14774.51
489.948	14878.46
490.318	15146.71
490.688	15280.71
491.058	15535.85
491.428	15711.66
491.798	15872.34
492.168	16243.4
492.538	16249.95
492.908	16459.21
493.278	16673.45
493.648	16731.98
494.017	16951.18
494.387	17172.42
494.757	17251.96
495.126	17469.13
495.496	17551.84
495.866	17740.08
496.235	17917.71
496.605	18080.41
496.974	18190.24
497.344	18350.46
497.713	18556.79
498.082	18605.82
498.452	18942.31
498.821	18943.89
499.19	19075.19
499.559	19164.91
499.928	19431.57
500.298	19584.56
500.667	19748.39
501.036	19805.57
501.405	19937.54
501.774	20001.72
502.143	20201.49
502.512	20305.67
502.88	20607.81
503.249	20581.37
503.618	20776.39
503.987	20946.55
504.356	21035.82
504.724	21276.71
505.093	21372.76
505.462	21544.73
505.83	21616.37
506.199	21805.06
506.567	22096.13
506.936	22061.78
507.304	22380.41
507.672	22537.7
508.041	22662.21
508.409	22823.57
508.777	23068.98
509.145	23264.91
509.514	23330.67
509.882	23524.34
510.25	23511.91
510.618	23767.95
510.986	23796.2
511.354	24247.94
511.722	24315.73
512.09	24603.18
512.458	24590.98
512.826	24732.67
513.193	24904.87
513.561	24978.54
513.929	25228.7
514.297	25572.65
514.664	25646.09
515.032	25867.33
515.4	26099.86
515.767	26197.94
516.135	26295.34
516.502	26238.39
516.869	26755.44
517.237	26922.22
517.604	26875.44
517.972	27187.52
518.339	27441.07
518.706	27476.33
519.073	27684.23
519.44	27891.68
519.808	28265.23
520.175	28270.43
520.542	28577.54
520.909	28684.88
521.276	28734.15
521.643	29150.41
522.009	29285.09
522.376	29587
522.743	29792.87
523.11	29996.26
523.477	30202.58
523.843	30408.9
524.21	30779.97
524.577	30961.43
524.943	31232.16
525.31	31328.65
525.676	31678.25
526.043	31803.22
526.409	31924.8
526.776	32274.84
527.142	32593.71
527.508	32556.64
527.874	32888.61
528.241	32961.15
528.607	33221.26
528.973	33512.78
529.339	33645.88
529.705	33813.33
530.071	34238.86
530.437	34332.42
530.803	34549.13
531.169	34582.58
531.535	34787.09
531.901	34783.48
532.267	35004.94
532.632	35225.05
532.998	35483.35
533.364	35691.48
533.73	35639.5
534.095	35910.91
534.461	36089.21
534.826	36233.38
535.192	36402.87
535.557	36832.24
535.923	36706.14
536.288	36834.95
536.653	37052.12
537.019	37122.85
537.384	37296.41
537.749	37505.21
538.114	37635.15
538.479	37628.6
538.845	37922.83
539.21	37733.68
539.575	38146.55
539.94	38164.86
540.305	38430.16
540.67	38372.08
541.034	38601.91
541.399	38851.17
541.764	38885.97
542.129	38956.02
542.494	39210.48
542.858	39405.73
543.223	39414.99
543.587	39742.9
543.952	39498.83
544.316	39812.05
544.681	39861.08
545.045	40046.62
545.41	40288.42
545.774	40510.11
546.138	40459.04
546.503	40714.62
546.867	40643.66
547.231	41043.2
547.595	41110.54
547.959	41439.35
548.324	41357.77
548.688	41418.33
549.052	41694.03
549.416	41798.21
549.779	41868.94
550.143	42035.49
550.507	42305.99
550.871	42624.63
551.235	42502.82
551.599	42849.71
551.962	42904.85
552.326	43031.17
552.689	43327.21
553.053	43259.19
553.417	43422.8
553.78	44055.1
554.143	43873.63
554.507	44140.52
554.87	44393.39
555.234	44778.47
555.597	44611.47
555.96	44834.97
556.323	45033.6
556.686	44948.63
557.05	45298.23
557.413	45568.51
557.776	45562.86
558.139	45927.37
558.502	46041.26
558.865	46094.37
559.228	46424.75
559.59	46598.31
559.953	46669.72
560.316	47149.25
560.679	47108.35
561.041	47326.88
561.404	47543.59
561.767	47807.99
562.129	47648
562.492	48143.13
562.854	48130.7
563.217	48101.55
563.579	48359.17
563.941	48605.49
564.304	48752.15
564.666	49014.06
565.028	49122.99
565.39	49167.05
565.753	49519.81
566.115	49499.02
566.477	49671.22
566.839	49704.22
567.201	49957.54
567.563	49982.85
567.925	50338.78
568.287	50328.38
568.648	50316.4
569.01	50631.65
569.372	50786
569.734	50661.93
570.095	51012.88
570.457	51096.5
570.819	51154.12
571.18	51157.51
571.542	51379.2
571.903	51495.13
572.265	51548.91
572.626	51654.9
572.987	51741.68
573.349	51893.99
573.71	51969.01
574.071	51986.19
574.432	52150.93
574.794	52314.77
575.155	52237.26
575.516	52239.97
575.877	52431.83
576.238	52517.02
576.599	52649.67
576.96	52605.83
577.32	52601.99
577.681	52733.06
578.042	52831.14
578.403	52834.53
578.763	52875.66
579.124	52940.74
579.485	53012.83
579.845	53122.2
580.206	53012.6
580.566	53026.61
580.927	53050.34
581.287	53235.65
581.648	53076.78
582.008	53262.99
582.368	53151.58
582.728	53267.51
583.089	53248.76
583.449	53194.29
583.809	53357.45
584.169	53420.73
584.529	53314.74
584.889	53488.07
585.249	53312.71
585.609	53267.29
585.969	53483.78
586.329	53359.49
586.688	53491.46
587.048	53353.16
587.408	53339.15
587.768	53462.99
588.127	53427.51
588.487	53357.23
588.846	53544.11
589.206	53404.23
589.565	53352.48
589.925	53529.88
590.284	53415.76
590.643	53450.56
591.003	53492.82
591.362	53635.64
591.721	53577.56
592.08	53471.12
592.44	53692.13
592.799	53599.25
593.158	53578.46
593.517	53640.38
593.876	53590.89
594.235	53455.76
594.593	53637.22
594.952	53679.25
595.311	53562.19
595.67	53695.98
596.029	53863.43
596.387	53837.44
596.746	53853.03
597.104	53741.85
597.463	53711.57
597.822	53758.12
598.18	53678.12
598.538	53691
598.897	53890.77
599.255	53648.29
599.613	54024.1
599.972	53824.79
600.33	53924.22
600.688	53747.5
601.046	53979.13
601.404	54104.33
601.762	54007.61
602.12	54195.62
602.478	54079.24
602.836	54121.5
603.194	54020.26
603.552	54129.86
603.91	54007.15
604.268	54138
604.625	54062.29
604.983	54203.08
605.341	54033.82
605.698	54160.14
606.056	54319.24
606.413	54289.63
606.771	54390.87
607.128	54418.22
607.485	54202.63
607.843	54288.05
608.2	54525.56
608.557	54615.72
608.914	54474.94
609.272	54596.06
609.629	54671.99
609.986	54702.95
610.343	54615.05
610.7	54883.29
611.057	54725.1
611.414	54700.69
611.771	54785.66
612.127	54766.46
612.484	54803.52
612.841	54830.18
613.198	54776.85
613.554	54888.49
613.911	54986.79
614.267	54977.75
614.624	54940.01
614.98	55026.11
615.337	55155.15
615.693	55090.51
616.05	55043.96
616.406	55283.73
616.762	55057.97
617.118	55168.48
617.475	55110.85
617.831	55245.99
618.187	55214.58
618.543	55298.42
618.899	55429.26
619.255	55357.17
619.611	55344.75
619.967	55407.34
620.323	55476.04
620.678	55313.33
621.034	55377.29
621.39	55375.48
621.746	55359.89
622.101	55700.22
622.457	55421.13
622.812	55513.78
623.168	55548.81
623.523	55593.33
623.879	55604.85
624.234	55362.15
624.589	55517.85
624.945	55518.98
625.3	55516.72
625.655	55488.47
626.01	55538.64
626.365	55471.75
626.72	55448.47
627.075	55472.88
627.43	55504.52
627.785	55421.81
628.14	55425.2
628.495	55507.23
628.85	55449.83
629.205	55325.99
629.559	55500.67
629.914	55401.47
630.269	55293.22
630.623	55361.24
630.978	55307.23
631.332	55445.99
631.687	55396.04
632.041	55359.21
632.396	55275.14
632.75	55235.37
633.104	55289.15
633.459	55149.04
633.813	55139.78
634.167	55124.41
634.521	55077.86
634.875	55076.5
635.229	55105.88
635.583	54928.94
635.937	54975.72
636.291	55009.39
636.645	54995.83
636.999	54884.42
637.352	54956.73
637.706	54807.81
638.06	54924.64
638.413	54864.08
638.767	54830.63
639.121	54764.42
639.474	54714.25
639.828	54715.16
640.181	54730.07
640.534	54743.41
640.888	54637.42
641.241	54425
641.594	54548.61
641.947	54581.15
642.301	54460.93
642.654	54436.29
643.007	54464.32
643.36	54389.97
643.713	54344.55
644.066	54587.48
644.419	54202.63
644.771	54083.31
645.124	53887.38
645.477	53742.53
645.83	53538.69
646.182	53414.4
646.535	53319.26
646.888	53409.65
647.24	53132.15
647.593	53465.7
647.945	53338.02
648.298	53087.4
648.65	53092.6
649.002	53072.71
649.355	53140.06
649.707	53119.49
650.059	53297.12
650.411	53617.56
650.763	53634.73
651.115	53876.76
651.467	53810.77
651.819	53801.51
652.171	53661.85
652.523	53662.08
652.875	53703.66
653.227	53437
653.578	53692.81
653.93	53517.67
654.282	53438.58
654.633	53401.97
654.985	53543.44
655.337	53520.16
655.688	53579.59
656.039	53526.04
656.391	53344.57
656.742	53310.9
657.094	53387.06
657.445	53371.24
657.796	53390.67
658.147	53262.77
658.498	53271.58
658.849	53246.95
659.2	53249.21
659.551	53120.62
659.902	53352.71
660.253	53144.13
660.604	53214.86
660.955	53085.6
661.306	53118.36
661.656	53010.12
662.007	53053.96
662.358	52859.16
662.708	52883.34
663.059	52903.45
663.409	52845.38
663.76	53051.25
664.11	52979.84
664.461	52918.82
664.811	52947.29
665.161	52979.16
665.511	52816.68
665.862	52896
666.212	52924.24
666.562	52959.27
666.912	52851.7
667.262	52820.07
667.612	52864.81
667.962	52776
668.312	52839.27
668.662	52908.65
669.011	52824.13
669.361	52676.79
669.711	52704.81
670.06	52637.25
670.41	52578.49
670.76	52536.68
671.109	52694.19
671.459	52564.03
671.808	52537.59
672.157	52603.8
672.507	52367.65
672.856	52447.42
673.205	52619.85
673.554	52547.3
673.904	52347.54
674.253	52525.61
674.602	52429.57
674.951	51931.28
675.3	51698.74
675.649	52272.06
675.998	52232.28
676.346	52194.55
676.695	52353.41
677.044	52187.09
677.393	52190.93
677.741	52192.96
678.09	52089.92
678.438	52105.96
678.787	52016.02
679.135	51995.68
679.484	51861.9
679.832	51982.12
680.181	51830.94
680.529	51857.15
680.877	51887.89
681.225	51797.49
681.573	52091.05
681.922	51633.88
682.27	51504.17
682.618	51661.68
682.966	51455.36
683.314	51518.63
683.661	51469.14
684.009	51218.3
684.357	51133.33
684.705	51153.22
685.053	51110.28
685.4	51003.16
685.748	50931.3
686.095	50872.09
686.443	50930.17
686.79	50755.71
687.138	50661.48
687.485	50703.06
687.832	50586.68
688.18	50523.4
688.527	50371.09
688.874	50424.65
689.221	50284.77
689.568	50119.12
689.915	50103.3
690.262	50066.24
690.609	49958.22
690.956	49872.8
691.303	49773.37
691.65	49623.09
691.997	49705.8
692.344	49348.97
692.69	49409.53
693.037	49338.12
693.383	48995.53
693.73	49200.27
694.077	48798.7
694.423	48867.85
694.769	48846.84
695.116	48786.95
695.462	48699.5
695.808	48477.36
696.155	48672.6
696.501	48319.62
696.847	48372.73
697.193	48069.23
697.539	48341.09
697.885	47969.8
698.231	47746.3
698.577	47754.44
698.923	47656.36
699.269	47488.45
699.614	47367.78
699.96	47407.78
700.306	47300.89
700.651	47064.96
700.997	46927.79
701.342	47022.7
701.688	46801.92
702.033	46791.52
702.379	46667.46
702.724	46585.65
703.069	46682.15
703.415	46145.67
703.76	46260.24
704.105	46238.32
704.45	46019.11
704.795	45836.29
705.14	45788.16
705.485	45883.53
705.83	45647.15
706.175	45660.03
706.52	45597.43
706.865	45329.87
707.209	45349.3
707.554	45195.86
707.899	45220.27
708.243	45075.64
708.588	45012.36
708.932	44820.95
709.277	44844.68
709.621	44749.09
709.966	44631.35
710.31	44622.09
710.654	44197.47
710.998	44476.1
711.342	44357.46
711.687	44205.6
712.031	44041.99
712.375	43881.54
712.719	44089
713.063	43928.1
713.407	44014.65
713.75	43608.78
714.094	43691.27
714.438	43488.79
714.782	43579.4
715.125	43305.51
715.469	43392.74
715.812	43140.55
716.156	42957.73
716.499	43018.52
716.843	42961.34
717.186	42701.69
717.53	42907.33
717.873	42737.39
718.216	42786.66
718.559	42569.71
718.902	42431.41
719.246	42416.27
719.589	42235.26
719.932	42156.39
720.275	42168.59
720.617	42008.15
720.96	41923.86
721.303	41857.42
721.646	41908.71
721.989	41582.17
722.331	41910.97
722.674	41753.01
723.016	41750.3
723.359	41445.9
723.701	41682.51
724.044	41250.65
724.386	41227.38
724.729	41398.22
725.071	41296.75
725.413	41155.06
725.755	41143.99
726.097	40929.76
726.439	40843.43
726.782	40856.31
727.124	40955.07
727.465	40681.4
727.807	40699.71
728.149	40494.29
728.491	40597.34
728.833	40650.22
729.175	40460.16
729.516	40430.79
729.858	40308.08
730.199	40236.67
730.541	40197.12
730.882	40229.21
731.224	40258.14
731.565	39946.05
731.906	39905.38
732.248	39888.88
732.589	39664.25
732.93	39623.12
733.271	39724.59
733.612	39526.86
733.953	39686.17
734.294	39471.49
734.635	39343.36
734.976	39438.95
735.317	39254.09
735.658	39368.44
735.999	39271.5
736.339	39291.61
736.68	39264.49
737.021	39042.12
737.361	38844.39
737.702	39166.41
738.042	38969.58
738.383	38933.65
738.723	38971.16
739.063	38793.09
739.404	38789.47
739.744	38724.17
740.084	38420.67
740.424	38568.92
740.764	38433.78
741.104	38591.29
741.444	38302.26
741.784	38279.43
742.124	38424.51
742.464	38211.64
742.804	38175.48
743.143	38069.04
743.483	38245.76
743.823	37867.69
744.162	37945.43
744.502	37801.93
744.841	37788.82
745.181	37851.87
745.52	37726
745.86	37839.44
746.199	37587.02
746.538	37528.04
746.877	37689.62
747.216	37502.28
747.556	37455.5
747.895	37477.19
748.234	37164.21
748.573	37170.53
748.911	37033.81
749.25	37072.01
749.589	36899.58
749.928	36897.09
750.267	37031.55
750.605	36821.16
750.944	36735.29
751.283	36689.87
751.621	36827.04
751.96	36556.99
752.298	36421.63
752.636	36530.32
752.975	36285.36
753.313	36229.77
753.651	36254.17
753.989	36064.35
754.327	36077.23
754.666	35820.06
755.004	35900.96
755.342	35873.17
755.679	35853.28
756.017	35484.25
756.355	35602.44
756.693	35375.55
757.031	35427.75
757.368	35226.18
757.706	35221.66
758.044	35198.61
758.381	35071.38
758.719	34971.95
759.056	35003.13
759.394	34839.3
759.731	34646.76
760.068	34653.54
760.405	34541.22
760.743	34363.83
761.08	34429.59
761.417	34209.93
761.754	34168.13
762.091	34063.72
762.428	33988.7
762.765	33723.39
763.102	33906.44
763.438	33719.55
763.775	33493.12
764.112	33550.97
764.449	33578.09
764.785	33320.69
765.122	33044.54
765.458	32935.84
765.795	33048.61
766.131	32978.55
766.467	32810.87
766.804	32715.06
767.14	32555.97
767.476	32382.86
767.812	32314.62
768.148	32189.65
768.485	32186.71
768.821	31961.41
769.157	32130.44
769.492	31927.28
769.828	31717.12
770.164	31601.64
770.5	31530.68
770.836	31554.86
771.171	31185.61
771.507	31086.17
771.842	30852.73
772.178	30903.58
772.513	30900.87
772.849	30914.2
773.184	30605.96
773.519	30701.33
773.855	30468.79
774.19	30264.73
774.525	30266.08
774.86	30223.15
775.195	30169.36
775.53	30034.9
775.865	29842.14
776.2	29694.57
776.535	29345.88
776.87	29408.7
777.205	29319.89
777.539	29180.46
777.874	29186.11
778.209	28950.41
778.543	28930.3
778.878	28760.36
779.212	28765.78
779.547	28456.86
779.881	28628.16
780.215	28432.91
780.55	28331.9
780.884	28246.47
781.218	28114.95
781.552	28287.83
781.886	27985.01
782.22	27985.69
782.554	27818.24
782.888	27563.1
783.222	27439.49
783.556	27350.68
783.889	27257.12
784.223	27177.8
784.557	27002.89
784.89	27120.4
785.224	26905.49
785.557	26713.41
785.891	26640.64
786.224	26666.63
786.558	26653.75
786.891	26279.52
787.224	26251.05
787.557	26190.48
787.891	26213.08
788.224	26272.29
788.557	25993.88
788.89	26024.61
789.223	25862.81
789.556	25760.89
789.888	25703.49
790.221	25669.37
790.554	25339.88
790.887	25324.97
791.219	25184.18
791.552	25209.94
791.884	24982.83
792.217	24972.44
792.549	25006.79
792.882	24743.74
793.214	24762.72
793.546	24747.36
793.879	24474.6
794.211	24415.84
794.543	24463.07
794.875	24376.07
795.207	24425.33
795.539	24273.02
795.871	24185.34
796.203	24105.34
796.535	23910.54
796.867	23968.17
797.198	23870.54
797.53	23737.44
797.862	23764.78
798.193	23707.84
798.525	23470.56
798.856	23555.07
799.188	23326.6
799.519	23266.72
799.85	23088.19
800.182	23050.91
800.513	23054.52
800.844	23001.64
801.175	22933.17
801.506	22869.44
801.837	22741.31
802.168	22718.71
802.499	22589.45
802.83	22502.45
803.161	22457.93
803.491	22400.07
803.822	22428.1
804.153	22401.2
804.483	22116.92
804.814	22126.18
805.145	22127.99
805.475	21974.78
805.805	22028.79
806.136	21939.07
806.466	21913.99
806.796	21795.8
807.126	21567.55
807.457	21593.77
807.787	21556.48
808.117	21548.8
808.447	21430.38
808.777	21562.36
809.107	21382.7
809.436	21179.99
809.766	21250.95
810.096	21208.02
810.426	21062.71
810.755	21168.47
811.085	21053.9
811.414	20971.64
811.744	20749.27
812.073	20705.66
812.403	20741.14
812.732	20679.67
813.061	20655.26
813.39	20478.32
813.719	20574.81
814.049	20620.46
814.378	20440.8
814.707	20355.16
815.036	20366.46
815.365	20296.85
815.693	20055.96
816.022	20182.73
816.351	20062.28
816.68	19952.68
817.008	20027.26
817.337	19895.96
817.665	19710.2
817.994	19818.67
818.322	19821.61
818.651	19657.32
818.979	19612.58
819.307	19708.85
819.636	19651.67
819.964	19512.47
820.292	19703.42
820.62	19589.98
820.948	19524.67
821.276	19679.24
821.604	19336.2
821.932	19508.85
822.259	19562.18
822.587	19456.65
822.915	19425.69
823.243	19474.28
823.57	19320.83
823.898	19520.38
824.225	19310.89
824.553	19371.91
824.88	19362.64
825.207	19405.13
825.535	19333.71
825.862	19326.26
826.189	19280.16
826.516	19349.08
826.843	19394.73
827.17	19439.47
827.497	19343.88
827.824	19332.81
828.151	19450.1
828.478	19353.6
828.805	19381.62
829.131	19375.07
829.458	19263.43
829.785	19083.33
830.111	19216.88
830.438	19303.89
830.764	19179.14
831.09	19304.79
831.417	19200.38
831.743	19244.45
832.069	19229.99
832.395	19227.05
832.722	19222.08
833.048	19179.59
833.374	19204.45
833.7	19112.93
834.026	19100.95
834.351	19104.12
834.677	19157.9
835.003	19167.62
835.329	19040.39
835.654	19069.31
835.98	19017.11
836.306	18939.83
836.631	18921.97
836.956	18934.4
837.282	18895.08
837.607	18831.58
837.932	18734.63
838.258	18755.2
838.583	18789.77
838.908	18628.65
839.233	18671.59
839.558	18624.35
839.883	18593.85
840.208	18510.23
840.533	18431.82
840.858	18503
841.182	18464.36
841.507	18478.37
841.832	18337.13
842.156	18256.68
842.481	18383.01
842.805	18216.68
843.13	18338.26
843.454	18203.35
843.778	18194.08
844.103	18149.34
844.427	17983.92
844.751	18055.78
845.075	17894.43
845.399	17999.06
845.723	17880.19
846.047	17873.87
846.371	17645.85
846.695	17771.95
847.019	17511.62
847.343	17465.97
847.666	17385.97
847.99	17296.93
848.313	17296.71
848.637	17175.81
848.96	17103.04
849.284	17073.44
849.607	17011.29
849.931	16968.58
850.254	16765.19
850.577	16849.71
850.9	16645.65
851.223	16584.63
851.546	16528.82
851.869	16392.55
852.192	16520.91
852.515	16395.94
852.838	16349.84
853.161	16371.08
853.483	16244.53
853.806	16173.57
854.129	16109.84
854.451	16217.64
854.774	15960.02
855.096	15956.85
855.419	15943.07
855.741	15903.52
856.063	15722.74
856.385	15742.62
856.708	15726.8
857.03	15712.12
857.352	15665.79
857.674	15606.81
857.996	15572.91
858.318	15467.6
858.64	15507.15
858.961	15480.48
859.283	15355.74
859.605	15293.37
859.926	15214.05
860.248	15264.67
860.57	15116.2
860.891	15159.14
861.212	15094.05
861.534	15049.08
861.855	15020.61
862.176	15109.19
862.498	14949.2
862.819	14984.68
863.14	14955.3
863.461	14891.35
863.782	14907.39
864.103	14846.6
864.424	14807.51
864.745	14748.52
865.065	14687.28
865.386	14603.9
865.707	14614.74
866.027	14602.99
866.348	14669.88
866.668	14614.97
866.989	14558.7
867.309	14497.23
867.63	14462.2
867.95	14440.74
868.27	14440.28
868.59	14392.83
868.91	14395.09
869.23	14345.37
869.55	14252.04
869.87	14306.05
870.19	14346.73
870.51	14310.8
870.83	14267.86
871.15	14225.6
871.469	14243.68
871.789	14201.19
872.109	14195.32
872.428	14155.09
872.748	14145.83
873.067	14155.55
873.386	14080.75
873.706	14027.64
874.025	13981.77
874.344	13963.23
874.663	13980.41
874.982	13932.05
875.301	13977.7
875.62	13936.34
875.939	13816.8
876.258	13900.86
876.577	13812.5
876.896	13798.27
877.214	13723.24
877.533	13727.31
877.852	13825.61
878.17	13806.85
878.489	13746.97
878.807	13694.99
879.125	13687.08
879.444	13706.07
879.762	13582.91
880.08	13614.77
880.398	13502
880.716	13505.62
881.034	13459.07
881.352	13451.61
881.67	13433.76
881.988	13414.55
882.306	13406.41
882.624	13411.61
882.941	13285.74
883.259	13232.41
883.577	13182.24
883.894	13247.32
884.212	13135.69
884.529	13104.27
884.846	13102.01
885.164	13163.26
885.481	13090.26
885.798	13028.57
886.115	12976.59
886.432	12876.48
886.75	12958.06
887.067	12956.26
887.383	12770.27
887.7	12817.95
888.017	12783.38
888.334	12807.78
888.651	12738.41
888.967	12728.69
889.284	12745.19
889.6	12619.54
889.917	12574.8
890.233	12550.84
890.55	12486.44
890.866	12525.98
891.182	12412.99
891.498	12394.69
891.815	12378.42
892.131	12361.02
892.447	12351.07
892.763	12249.16
893.079	12263.84
893.395	12184.75
893.71	12144.53
894.026	12171.19
894.342	12094.36
894.657	12012.1
894.973	11961.71
895.289	11943.4
895.604	11945.21
895.92	11882.84
896.235	11846
896.55	11792.9
896.865	11738.43
897.181	11734.14
897.496	11781.82
897.811	11618.44
898.126	11585.9
898.441	11551.55
898.756	11544.09
899.071	11529.85
899.386	11466.8
899.7	11374.38
900.015	11345
900.33	11257.77
900.644	11263.87
900.959	11309.74
901.273	11291.67
901.588	11169.18
901.902	11109.75
902.216	11099.58
902.531	11050.77
902.845	10984.1
903.159	10947.95
903.473	10960.38
903.787	10860.72
904.101	10777.56
904.415	10738.69
904.729	10748.18
905.042	10638.12
905.356	10691.68
905.67	10644.68
905.984	10572.14
906.297	10594.51
906.611	10506.83
906.924	10498.01
907.237	10463.44
907.551	10379.83
907.864	10304.57
908.177	10377.34
908.491	10246.95
908.804	10198.14
909.117	10168.53
909.43	10081.3
909.743	10121.98
910.056	10033.17
910.368	10000.4
910.681	9933.06
910.994	9989.55
911.307	9934.64
911.619	9862.55
911.932	9874.53
912.244	9753.63
912.557	9759.05
912.869	9650.58
913.181	9621.65
913.494	9668.21
913.806	9528.1
914.118	9538.94
914.43	9522.67
914.742	9429.12
915.054	9410.81
915.366	9359.06
915.678	9329.46
915.99	9305.73
916.302	9161.78
916.613	9216.47
916.925	9154.1
917.236	9147.99
917.548	9016.92
917.859	9024.83
918.171	8933.99
918.482	8969.47
918.794	9018.05
919.105	8955.23
919.416	8808.12
919.727	8801.56
920.038	8851.05
920.349	8679.76
920.66	8660.32
920.971	8671.62
921.282	8661.23
921.593	8543.26
921.903	8545.75
922.214	8484.96
922.525	8511.4
922.835	8440.44
923.146	8392.53
923.456	8416.26
923.767	8330.16
924.077	8355.47
924.387	8263.27
924.697	8294.68
925.008	8222.59
925.318	8160.45
925.628	8093.11
925.938	8147.79
926.248	8087.23
926.558	7981.02
926.867	7962.26
927.177	7949.83
927.487	7979.89
927.796	7837.29
928.106	7858.99
928.416	7792.55
928.725	7782.38
929.034	7748.26
929.344	7784.19
929.653	7716.17
929.962	7634.59
930.271	7583.97
930.581	7586.45
930.89	7535.83
931.199	7567.24
931.508	7527.92
931.817	7457.64
932.125	7473.69
932.434	7366.8
932.743	7343.97
933.051	7269.63
933.36	7321.15
933.669	7247.25
933.977	7184.66
934.286	7148.27
934.594	7138.78
934.902	7079.8
935.21	7033.93
935.519	7085.9
935.827	7022.85
936.135	6996.86
936.443	6923.19
936.751	6917.77
937.059	6896.3
937.367	6847.04
937.674	6833.25
937.982	6824.44
938.29	6744.67
938.597	6762.52
938.905	6707.38
939.213	6692.69
939.52	6596.42
939.827	6625.35
940.135	6560.94
940.442	6567.27
940.749	6575.86
941.056	6517.78
941.363	6411.34
941.67	6440.72
941.977	6447.5
942.284	6368.86
942.591	6348.07
942.898	6345.81
943.205	6348.97
943.511	6308.07
943.818	6251.57
944.125	6222.2
944.431	6213.83
944.738	6183.1
945.044	6158.47
945.35	6115.53
945.657	6111.24
945.963	6092.71
946.269	6041.86
946.575	6019.26
946.881	5950.11
947.187	5966.38
947.493	5939.26
947.799	5937.91
948.105	5851.36
948.41	5847.74
948.716	5830.79
949.022	5768.2
949.327	5812.04
949.633	5737.91
949.938	5719.38
950.244	5732.72
950.549	5642.32
950.854	5631.93
951.16	5586.73
951.465	5578.6
951.77	5548.99
952.075	5550.57
952.38	5512.84
952.685	5487.3
952.99	5483.01
953.294	5486.4
953.599	5483.23
953.904	5406.17
954.209	5369.11
954.513	5465.83
954.818	5356.23
955.122	5267.64
955.426	5333.86
955.731	5291.82
956.035	5188.78
956.339	5153.75
956.643	5166.18
956.948	5198.04
957.252	5124.37
957.556	5120.76
957.86	5116.91
958.163	5095.67
958.467	5057.93
958.771	5048.67
959.075	5039.85
959.378	4977.03
959.682	5002.79
959.985	4908.78
960.289	4925.28
960.592	4888.22
960.896	4875.79
961.199	4854.55
961.502	4831.05
961.805	4793.98
962.108	4812.74
962.411	4843.25
962.714	4724.38
963.017	4735.23
963.32	4702.46
963.623	4709.92
963.926	4665.4
964.228	4643.03
964.531	4607.77
964.833	4610.49
965.136	4621.56
965.438	4533.43
965.741	4530.04
966.043	4495.01
966.345	4506.08
966.648	4471.51
966.95	4479.87
967.252	4470.38
967.554	4408.68
967.856	4392.64
968.158	4388.12
968.46	4384.28
968.761	4360.1
969.063	4325.97
969.365	4288.46
969.666	4273.32
969.968	4262.47
970.269	4245.52
970.571	4285.52
970.872	4242.13
971.174	4176.37
971.475	4204.62
971.776	4168.92
972.077	4122.36
972.378	4145.64
972.679	4116.26
972.98	4134.57
973.281	4053.21
973.582	4030.61
973.883	4043.95
974.183	4037.17
974.484	3974.8
974.785	3958.07
975.085	3994.23
975.386	3979.32
975.686	3907.23
975.986	3890.73
976.287	3874.01
976.587	3856.16
976.887	3821.58
977.187	3855.03
977.487	3828.36
977.787	3814.8
978.087	3757.4
978.387	3776.38
978.687	3766.21
978.987	3707.46
979.286	3733.67
979.586	3731.19
979.885	3649.61
980.185	3656.84
980.484	3635.14
980.784	3604.41
981.083	3611.19
981.382	3601.47
981.682	3549.05
981.981	3542.72
982.28	3550.63
982.579	3523.28
982.878	3519.67
983.177	3536.84
983.475	3516.05
983.774	3461.36
984.073	3466.56
984.372	3411.65
984.67	3427.47
984.969	3413.91
985.267	3409.16
985.566	3372.1
985.864	3356.73
986.162	3328.26
986.461	3338.43
986.759	3280.58
987.057	3316.96
987.355	3246.23
987.653	3243.52
987.951	3233.8
988.249	3247.81
988.547	3220.69
988.844	3180.47
989.142	3161.26
989.44	3132.33
989.737	3146.57
990.035	3141.37
990.332	3142.28
990.63	3076.52
990.927	3093.01
991.224	3081.71
991.521	3082.39
991.819	3098.21
992.116	3040.81
992.413	3012.79
992.71	3006.69
993.006	2985.22
993.303	2984.77
993.6	2987.25
993.897	3004.88
994.193	2952
994.49	2939.8
994.787	2902.06
995.083	2912.45
995.379	2866.13
995.676	2903.86
995.972	2851.89
996.268	2815.51
996.565	2835.39
996.861	2801.49
997.157	2752.68
997.453	2775.28
997.749	2758.11
998.044	2731.89
998.34	2738.44
998.636	2710.42
998.932	2729.63
999.227	2704.1
999.523	2687.6
999.818	2642.85
1000.114	2658.67
1000.409	2644.89
1000.704	2642.18
1001	2584.1
1001.295	2598.79
1001.59	2587.94
1001.885	2554.27
1002.18	2522.18
1002.475	2511.78
1002.77	2516.76
1003.065	2463.65
1003.359	2492.58
1003.654	2474.72
1003.949	2455.29
1004.243	2448.96
1004.538	2406.02
1004.832	2452.35
1005.127	2403.09
1005.421	2369.87
1005.715	2367.61
1006.009	2371
1006.304	2340.94
1006.598	2339.81
1006.892	2327.61
1007.186	2304.11
1007.48	2313.37
1007.773	2306.14
1008.067	2275.86
1008.361	2237.44
1008.655	2229.98
1008.948	2233.6
1009.242	2203.54
1009.535	2191.57
1009.829	2193.83
1010.122	2188.63
1010.415	2156.77
1010.708	2134.62
1011.001	2132.13
1011.295	2108.86
1011.588	2136.43
1011.881	2097.33
1012.173	2109.31
1012.466	2055.75
1012.759	2067.05
1013.052	2051.01
1013.344	2039.03
1013.637	2036.09
1013.93	2008.97
1014.222	1971.91
1014.514	1986.37
1014.807	2006.94
1015.099	1997.22
1015.391	1937.11
1015.683	1909.77
1015.976	1878.58
1016.268	1930.56
1016.56	1902.08
1016.851	1886.26
1017.143	1882.2
1017.435	1872.25
1017.727	1849.65
1018.018	1838.81
1018.31	1843.78
1018.602	1812.14
1018.893	1791.13
1019.185	1804.46
1019.476	1781.41
1019.767	1763.78
1020.058	1763.56
1020.35	1755.19
1020.641	1739.15
1020.932	1722.65
1021.223	1712.03
1021.514	1701.86
1021.804	1686.5
1022.095	1693.27
1022.386	1659.15
1022.677	1626.61
1022.967	1623.67
1023.258	1632.26
1023.548	1613.28
1023.839	1611.47
1024.129	1591.58
1024.419	1578.02
1024.709	1587.51
1025	1543.22
1025.29	1529.89
1025.58	1534.18
1025.87	1551.36
1026.16	1532.6
1026.449	1520.4
1026.739	1521.08
1027.029	1492.38
1027.319	1480.17
1027.608	1455.31
1027.898	1444.92
1028.187	1478.59
1028.477	1422.32
1028.766	1427.29
1029.055	1413.73
1029.344	1423.9
1029.634	1403.79
1029.923	1396.56
1030.212	1366.5
1030.501	1379.16
1030.79	1362.44
1031.078	1365.6
1031.367	1320.4
1031.656	1317.01
1031.945	1303.68
1032.233	1319.5
1032.522	1303.68
1032.81	1335.09
1033.099	1282.44
1033.387	1260.29
1033.675	1271.14
1033.963	1241.54
1034.251	1240.86
1034.54	1250.12
1034.828	1263.46
1035.116	1230.01
1035.403	1248.31
1035.691	1226.62
1035.979	1183.91
1036.267	1203.34
1036.554	1213.29
1036.842	1192.72
1037.129	1187.75
1037.417	1143.68
1037.704	1154.08
1037.992	1129.9
1038.279	1131.93
1038.566	1127.41
1038.853	1127.41
1039.14	1127.41
