Data from whiteboard_FLMS001491_00045.txt Node
Date: Wed Feb 08 11:26:39 GMT 2017
User: dcchb
Spectrometer: FLMS00149
Trigger mode: 0
Integration Time (sec): 2.000000E-2
Scans to average: 10
Electric dark correction enabled: true
Nonlinearity correction enabled: false
Boxcar width: 0
XAxis mode: Wavelengths
Number of Pixels in Spectrum: 2048
>>>>>Begin Spectral Data<<<<<
341.393	-30.93
341.776	-30.93
342.16	-30.93
342.543	-53.3
342.927	-45.17
343.31	-63.25
343.693	-86.52
344.077	-74.77
344.46	-51.95
344.843	-47.88
345.226	-42
345.61	-26.86
345.993	-12.63
346.376	8.39
346.759	-21.89
347.142	-11.5
347.525	52.23
347.908	56.3
348.291	71.66
348.674	115.96
349.057	134.71
349.44	142.85
349.823	135.39
350.206	165.67
350.588	196.63
350.971	250.64
351.354	251.32
351.737	279.57
352.119	281.83
352.502	288.16
352.884	299.23
353.267	320.7
353.65	329.29
354.032	333.8
354.414	344.43
354.797	334.71
355.179	360.7
355.562	374.48
355.944	377.42
356.326	373.35
356.709	379.68
357.091	392.79
357.473	386.68
357.855	366.8
358.238	374.26
358.62	375.39
359.002	388.27
359.384	396.85
359.766	375.39
360.148	379.91
360.53	391.88
360.912	357.76
361.294	373.58
361.676	370.19
362.057	371.09
362.439	393.01
362.821	377.65
363.203	366.12
363.584	364.09
363.966	373.58
364.348	367.25
364.729	357.08
365.111	378.55
365.493	374.26
365.874	369.96
366.256	380.36
366.637	364.31
367.019	356.18
367.4	366.8
367.781	373.35
368.163	377.42
368.544	371.32
368.925	380.13
369.306	372.9
369.688	394.59
370.069	383.75
370.45	387.59
370.831	366.12
371.212	380.81
371.593	397.76
371.974	400.02
372.355	370.19
372.736	380.36
373.117	349.62
373.498	371.09
373.879	387.14
374.26	392.11
374.641	378.32
375.021	398.66
375.402	377.19
375.783	402.28
376.163	402.28
376.544	419.9
376.925	419.45
377.305	423.97
377.686	399.57
378.066	412.45
378.447	414.93
378.827	427.36
379.208	424.42
379.588	413.35
379.968	435.05
380.349	434.37
380.729	415.16
381.109	425.1
381.489	425.55
381.87	431.66
382.25	445.21
382.63	441.6
383.01	441.6
383.39	459
383.77	447.93
384.15	476.4
384.53	472.78
384.91	474.82
385.29	474.59
385.67	474.59
386.049	472.33
386.429	487.47
386.809	507.13
387.189	494.25
387.568	498.77
387.948	511.43
388.328	513.01
388.707	521.6
389.087	507.13
389.466	523.86
389.846	549.84
390.225	535.83
390.605	549.39
390.984	562.5
391.363	579.9
391.743	567.02
392.122	588.49
392.501	603.4
392.881	602.72
393.26	598.2
393.639	615.61
394.018	628.26
394.397	651.99
394.776	650.18
395.155	636.4
395.534	657.41
395.913	662.16
396.292	680.91
396.671	665.1
397.05	684.53
397.429	695.83
397.808	694.25
398.186	717.52
398.565	721.14
398.944	721.14
399.323	744.42
399.701	752.32
400.08	759.78
400.458	779.44
400.837	818.09
401.215	820.8
401.594	818.31
401.972	812.21
402.351	832.77
402.729	861.93
403.107	847.24
403.486	882.26
403.864	907.12
404.242	896.5
404.62	940.34
404.999	920.68
405.377	935.37
405.755	945.54
406.133	973.34
406.511	996.16
406.889	1036.84
407.267	1035.26
407.645	1054.69
408.023	1097.4
408.401	1126.55
408.779	1122.03
409.156	1168.13
409.534	1186.44
409.912	1170.17
410.29	1222.59
410.667	1250.84
411.045	1286.1
411.422	1293.78
411.8	1301.01
412.178	1341.46
412.555	1355.92
412.933	1348.02
413.31	1405.64
413.687	1391.63
414.065	1473.21
414.442	1494.45
414.819	1492.19
415.197	1517.73
415.574	1554.79
415.951	1566.31
416.328	1603.15
416.705	1619.87
417.082	1608.57
417.46	1642.7
417.837	1705.97
418.214	1703.26
418.591	1704.62
418.967	1720.89
419.344	1731.28
419.721	1775.57
420.098	1763.15
420.475	1793.65
420.852	1857.38
421.228	1843.6
421.605	1879.75
421.982	1922.69
422.358	1899.64
422.735	1945.06
423.111	1996.59
423.488	2016.47
423.864	2068
424.241	2066.41
424.617	2098.05
424.994	2099.86
425.37	2150.25
425.746	2158.84
426.123	2185.51
426.499	2198.61
426.875	2231.38
427.251	2303.24
427.627	2331.72
428.003	2376.01
428.379	2413.3
428.756	2422.56
429.132	2431.6
429.507	2479.06
429.883	2505.05
430.259	2556.57
430.635	2565.38
431.011	2618.94
431.387	2672.27
431.763	2712.95
432.138	2761.09
432.514	2754.98
432.89	2796.56
433.265	2880.63
433.641	2905.94
434.016	2934.41
434.392	2996.79
434.767	3039.95
435.143	3041.98
435.518	3103.9
435.894	3143.67
436.269	3181.87
436.644	3215.54
437.02	3258.7
437.395	3270.9
437.77	3324.91
438.145	3392.71
438.52	3426.15
438.895	3477
439.271	3495.08
439.646	3568.75
440.021	3609.65
440.395	3593.38
440.77	3604.45
441.145	3647.39
441.52	3746.6
441.895	3736.88
442.27	3778.91
442.645	3810.55
443.019	3855.52
443.394	3852.58
443.769	3919.93
444.143	3848.29
444.518	3945.01
444.892	3944.33
445.267	3997.44
445.641	4024.33
446.016	4014.39
446.39	4081.5
446.764	4108.17
447.139	4103.65
447.513	4175.51
447.887	4170.09
448.262	4194.04
448.636	4207.15
449.01	4309.52
449.384	4318.78
449.758	4390.87
450.132	4437.88
450.506	4443.75
450.88	4486.46
451.254	4571.43
451.628	4573.47
452.002	4663.86
452.376	4706.35
452.75	4724.2
453.123	4821.14
453.497	4914.7
453.871	4923.06
454.244	5056.62
454.618	5081.48
454.992	5186.56
455.365	5197.41
455.739	5300.68
456.112	5376.16
456.486	5448.47
456.859	5445.76
457.232	5629.03
457.606	5586.77
457.979	5718.97
458.352	5754.91
458.725	5868.57
459.099	5864.51
459.472	6051.17
459.845	6116.03
460.218	6126.19
460.591	6175.46
460.964	6225.63
461.337	6365.96
461.71	6447.77
462.083	6554.43
462.456	6564.83
462.829	6580.65
463.201	6750.13
463.574	6788.78
463.947	6894.76
464.32	7069.45
464.692	7062.67
465.065	7074.64
465.438	7208.65
465.81	7310.57
466.183	7402.09
466.555	7636.21
466.928	7713.95
467.3	7682.99
467.672	7779.03
468.045	8034.39
468.417	8028.29
468.789	8119.14
469.161	8306.48
469.534	8418.56
469.906	8564.55
470.278	8643.64
470.65	8791.21
471.022	9003.63
471.394	9129.73
471.766	9202.72
472.138	9369.27
472.51	9540.34
472.882	9686.1
473.253	9867.79
473.625	9994.34
473.997	10195.69
474.369	10311.4
474.74	10353.2
475.112	10625.06
475.484	10832.51
475.855	10955.67
476.227	11048.78
476.598	11328.54
476.97	11422.78
477.341	11764.24
477.713	11867.51
478.084	11989.54
478.455	12199.93
478.827	12362.42
479.198	12682.41
479.569	12725.34
479.94	13107.25
480.311	13157.65
480.682	13475.15
481.053	13846.22
481.424	13907.46
481.795	14130.05
482.166	14328.01
482.537	14568.01
482.908	14839.86
483.279	15066.75
483.65	15266.07
484.021	15585.16
484.391	15845.26
484.762	16021.53
485.133	16113.28
485.503	16344.01
485.874	16886.59
486.244	16870.09
486.615	17252.91
486.985	17542.17
487.356	17866.23
487.726	18068.93
488.097	18409.94
488.467	18461.69
488.837	18972.64
489.207	19137.15
489.578	19493.75
489.948	19632.05
490.318	19868.88
490.688	20112.27
491.058	20473.39
491.428	20732.82
491.798	20920.83
492.168	21306.13
492.538	21446.92
492.908	21689.63
493.278	21964.87
493.648	21995.16
494.017	22315.83
494.387	22438.99
494.757	22685.08
495.126	22924.85
495.496	22983.83
495.866	23168.91
496.235	23304.27
496.605	23506.08
496.974	23711.72
497.344	23878.27
497.713	24011.37
498.082	24226.74
498.452	24414.3
498.821	24562.32
499.19	24612.49
499.559	24789.21
499.928	25005.02
500.298	25124.57
500.667	25491.34
501.036	25278.46
501.405	25657.43
501.774	25739.01
502.143	25888.84
502.512	26102.84
502.88	26247.7
503.249	26428.03
503.618	26450.63
503.987	26695.6
504.356	26992.99
504.724	27080.67
505.093	27259.42
505.462	27415.35
505.83	27770.15
506.199	27978.28
506.567	28279.96
506.936	28402.9
507.304	28880.4
507.672	28919.72
508.041	29089.21
508.409	29350.22
508.777	29702.07
509.145	29849.64
509.514	29988.39
509.882	30279.91
510.25	30347.48
510.618	30588.38
510.986	30820.69
511.354	31026.56
511.722	31377.06
512.09	31580.67
512.458	31624.06
512.826	31851.39
513.193	32046.42
513.561	32294.09
513.929	32430.59
514.297	32818.37
514.664	32910.35
515.032	33001.65
515.4	33317.57
515.767	33557.34
516.135	33598.01
516.502	33459.71
516.869	34058.34
517.237	34114.61
517.604	34108.51
517.972	34518.22
518.339	34723.41
518.706	34801.15
519.073	35027.58
519.44	35263.51
519.808	35510.51
520.175	35489.04
520.542	36004.51
520.909	36174.67
521.276	36049.02
521.643	36546.19
522.009	36726.97
522.376	37060.3
522.743	37348.42
523.11	37818.47
523.477	38157.44
523.843	38317.89
524.21	38757.65
524.577	39117.87
524.943	39103.86
525.31	39450.29
525.676	39742.94
526.043	40067.9
526.409	40330.27
526.776	40732.29
527.142	40887.09
527.508	41069.23
527.874	41393.97
528.241	41722.77
528.607	41769.55
528.973	42312.81
529.339	42346.49
529.705	42861.5
530.071	43268.5
530.437	43332.9
530.803	43565.44
531.169	43884.98
531.535	43693.57
531.901	44040
532.267	44337.39
532.632	44488.8
532.998	44770.83
533.364	45092.85
533.73	45093.53
534.095	45368.78
534.461	45671.6
534.826	45761.54
535.192	46035.2
535.557	46064.81
535.923	46303.9
536.288	46518.58
536.653	46671.57
537.019	46596.32
537.384	46684
537.749	46853.03
538.114	46868.63
538.479	46945.01
538.845	47034.95
539.21	47032.01
539.575	47280.59
539.94	47289.63
540.305	47656.18
540.67	47579.12
541.034	47701.37
541.399	47760.35
541.764	47899.79
542.129	48023.62
542.494	48081.7
542.858	48184.52
543.223	48249.83
543.587	48523.05
543.952	48447.12
544.316	48628.13
544.681	48753.77
545.045	48786.99
545.41	49100.21
545.774	49097.27
546.138	49135.69
546.503	49331.84
546.867	49316.92
547.231	49713.3
547.595	49713.75
547.959	49887.3
548.324	50007.3
548.688	50113.29
549.052	50265.37
549.416	50359.16
549.779	50426.05
550.143	50550.56
550.507	50927.05
550.871	50908.52
551.235	51022.64
551.599	51284.78
551.962	51449.07
552.326	51613.13
552.689	51772
553.053	51630.31
553.417	51720.48
553.78	52214.7
554.143	52101.48
554.507	52347.8
554.87	52435.71
555.234	52715.93
555.597	52605.65
555.96	52778.75
556.323	52966.55
556.686	52987.11
557.05	53148.24
557.413	53282.47
557.776	53304.84
558.139	53551.61
558.502	53574.89
558.865	53711.84
559.228	53844.71
559.59	53894.88
559.953	53914.54
560.316	54251.03
560.679	54202.44
561.041	54300.97
561.404	54481.53
561.767	54514.08
562.129	54504.13
562.492	54760.62
562.854	54736.67
563.217	54824.12
563.579	54891.92
563.941	55067.96
564.304	55172.59
564.666	55245.58
565.028	55301.85
565.39	55321.06
565.753	55490.55
566.115	55465.01
566.477	55685.8
566.839	55719.02
567.201	55843.76
567.563	55789.3
567.925	56048.5
568.287	56041.49
568.648	56070.19
569.01	56283.75
569.372	56467.24
569.734	56322.39
570.095	56559.22
570.457	56582.72
570.819	56697.97
571.18	56626.79
571.542	56868.82
571.903	56933.22
572.265	57026.33
572.626	57161.69
572.987	57182.48
573.349	57308.58
573.71	57304.28
574.071	57428.12
574.432	57514.9
574.794	57663.37
575.155	57680.32
575.516	57587.67
575.877	57815.01
576.238	57866.76
576.599	57950.37
576.96	57968
577.32	58057.71
577.681	58179.29
578.042	58275.78
578.403	58244.6
578.763	58288.21
579.124	58335.9
579.485	58484.37
579.845	58540.64
580.206	58527.75
580.566	58559.39
580.927	58621.54
581.287	58744.92
581.648	58586.28
582.008	58734.53
582.368	58667.19
582.728	58749.44
583.089	58732.5
583.449	58772.27
583.809	58791.02
584.169	58808.2
584.529	58763.91
584.889	58894.98
585.249	58818.59
585.609	58713.74
585.969	58865.83
586.329	58790.12
586.688	58784.92
587.048	58752.38
587.408	58721.87
587.768	58710.12
588.127	58664.93
588.487	58602.33
588.846	58790.8
589.206	58547.42
589.565	58622.89
589.925	58691.37
590.284	58604.59
590.643	58645.27
591.003	58680.29
591.362	58685.26
591.721	58587.41
592.08	58588.54
592.44	58622.89
592.799	58634.42
593.158	58591.03
593.517	58562.56
593.876	58643.23
594.235	58558.04
594.593	58515.78
594.952	58591.03
595.311	58516.46
595.67	58590.35
596.029	58714.64
596.387	58690.24
596.746	58680.75
597.104	58619.96
597.463	58598.94
597.822	58774.53
598.18	58638.26
598.538	58598.94
598.897	58796.9
599.255	58551.48
599.613	58948.53
599.972	58760.97
600.33	58885.71
600.688	58824.7
601.046	58938.82
601.404	58998.02
601.762	58935.2
602.12	59107.63
602.478	59067.63
602.836	59167.96
603.194	59098.14
603.552	59102.2
603.91	59078.47
604.268	59208.19
604.625	59108.08
604.983	59301.29
605.341	59182.2
605.698	59305.81
606.056	59387.62
606.413	59344.91
606.771	59448.18
607.128	59473.27
607.485	59414.29
607.843	59496.54
608.2	59624.9
608.557	59671.68
608.914	59632.13
609.272	59678.23
609.629	59703.54
609.986	59862.64
610.343	59724.56
610.7	59886.82
611.057	59828.96
611.414	59835.52
611.771	59922.07
612.127	59911.9
612.484	59913.93
612.841	59996.19
613.198	59925.46
613.554	59972.46
613.911	60083.42
614.267	60038.22
614.624	60023.31
614.98	59981.95
615.337	60173.59
615.693	60032.35
616.05	59988.73
616.406	60157.77
616.762	60049.07
617.118	59996.19
617.475	60014.04
617.831	60045
618.187	60026.7
618.543	60050.65
618.899	60144.66
619.255	60126.58
619.611	60064.89
619.967	60099.92
620.323	60140.14
620.678	60025.12
621.034	59972.24
621.39	59903.76
621.746	59906.25
622.101	60115.28
622.457	59882.52
622.812	59902.41
623.168	59947.15
623.523	59871
623.879	59984.89
624.234	59826.25
624.589	59931.56
624.945	59854.05
625.3	59896.76
625.655	59839.81
626.01	59854.95
626.365	59939.7
626.72	59814.27
627.075	59819.47
627.43	59783.54
627.785	59729.98
628.14	59819.92
628.495	59761.62
628.85	59712.13
629.205	59628.29
629.559	59815.4
629.914	59690.89
630.269	59708.29
630.623	59756.88
630.978	59612.47
631.332	59764.56
631.687	59779.47
632.041	59658.35
632.396	59770.21
632.75	59601.4
633.104	59645.47
633.459	59626.03
633.813	59599.37
634.167	59613.83
634.521	59635.3
634.875	59742.41
635.229	59709.87
635.583	59553.04
635.937	59609.76
636.291	59604.11
636.645	59603.66
636.999	59588.97
637.352	59665.8
637.706	59534.73
638.06	59572.25
638.413	59539.93
638.767	59537.67
639.121	59516.88
639.474	59383.78
639.828	59417
640.181	59432.36
640.534	59459.71
640.888	59436.43
641.241	59340.84
641.594	59377.22
641.947	59447.5
642.301	59285.48
642.654	59336.1
643.007	59275.53
643.36	59228.3
643.713	59246.61
644.066	59214.74
644.419	59120.73
644.771	59005.48
645.124	58771.14
645.477	58768.88
645.83	58509.68
646.182	58358.49
646.535	58287.54
646.888	58308.78
647.24	58058.39
647.593	58245.28
647.945	58125.05
648.298	57971.84
648.65	57992.63
649.002	57754.22
649.355	57865.4
649.707	57863.59
650.059	58009.12
650.411	58214.09
650.763	58223.81
651.115	58468.77
651.467	58285.95
651.819	58325.95
652.171	58192.85
652.523	58156.01
652.875	58145.62
653.227	57925.06
653.578	58177.48
653.93	57984.49
654.282	57881.9
654.633	57813.88
654.985	57911.27
655.337	57906.53
655.688	57850.03
656.039	57956.24
656.391	57690.26
656.742	57680.55
657.094	57633.99
657.445	57794.44
657.796	57662.24
658.147	57541.79
658.498	57601.23
658.849	57677.61
659.2	57530.27
659.551	57468.35
659.902	57607.78
660.253	57573.43
660.604	57627.89
660.955	57414.79
661.306	57544.5
661.656	57459.53
662.007	57481.23
662.358	57473.09
662.708	57551.96
663.059	57468.57
663.409	57319.65
663.76	57532.75
664.11	57490.72
664.461	57436.71
664.811	57503.15
665.161	57431.96
665.511	57401.23
665.862	57488.69
666.212	57531.4
666.562	57495.92
666.912	57401.68
667.262	57431.74
667.612	57316.71
667.962	57381.34
668.312	57372.53
668.662	57493.21
669.011	57492.75
669.361	57375.47
669.711	57402.81
670.06	57351.29
670.41	57295.92
670.76	57396.94
671.109	57365.53
671.459	57300.89
671.808	57293.44
672.157	57345.87
672.507	57168.02
672.856	57178.64
673.205	57230.39
673.554	57298.86
673.904	57246.43
674.253	57373.21
674.602	57237.62
674.951	56832.66
675.3	56761.7
675.649	57153.78
675.998	57099.09
676.346	57124.18
676.695	57299.54
677.044	57061.8
677.393	57122.14
677.741	57137.51
678.09	57114.46
678.438	57058.87
678.787	57046.89
679.135	56985.2
679.484	56802.6
679.832	56926.67
680.181	56732.55
680.529	56848.7
680.877	56807.35
681.225	56702.04
681.573	56868.59
681.922	56550.86
682.27	56574.13
682.618	56490.07
682.966	56474.93
683.314	56508.6
683.661	56382.95
684.009	56209.17
684.357	56196.74
684.705	56070.19
685.053	56111.32
685.4	56126.69
685.748	55884.43
686.095	55895.51
686.443	55742.07
686.79	55679.47
687.138	55763.99
687.485	55733.25
687.832	55621.62
688.18	55537.1
688.527	55371.23
688.874	55425.69
689.221	55333.71
689.568	55219.59
689.915	55072.03
690.262	55168.52
690.609	54984.8
690.956	54871.35
691.303	54821.64
691.65	54598.37
691.997	54670.68
692.344	54444.25
692.69	54411.48
693.037	54435.21
693.383	54123.35
693.73	54186.85
694.077	53998.61
694.423	53920.19
694.769	53901.44
695.116	53857.37
695.462	53814.66
695.808	53706.19
696.155	53629.35
696.501	53394.1
696.847	53417.83
697.193	53225.97
697.539	53335.8
697.885	53082.7
698.231	52937.17
698.577	52916.6
698.923	52912.76
699.269	52748.47
699.614	52593.9
699.96	52621.47
700.306	52580.57
700.651	52373.79
700.997	52292.44
701.342	52284.3
701.688	52231.88
702.033	52027.36
702.379	52166.11
702.724	52071.65
703.069	52034.14
703.415	51652.46
703.76	51780.14
704.105	51748.05
704.45	51728.39
704.795	51501.72
705.14	51452.23
705.485	51392.35
705.83	51369.07
706.175	51395.96
706.52	51313.93
706.865	51188.06
707.209	51206.37
707.554	51012.25
707.899	51074.62
708.243	50887.28
708.588	51002.98
708.932	50807.51
709.277	50805.02
709.621	50752.82
709.966	50575.2
710.31	50735.19
710.654	50264.92
710.998	50410.68
711.342	50378.36
711.687	50292.04
712.031	50252.72
712.375	50157.81
712.719	50043.68
713.063	49992.61
713.407	50271.47
713.75	49845.72
714.094	49909
714.438	49776.57
714.782	49744.93
715.125	49595.79
715.469	49574.77
715.812	49370.03
716.156	49309.24
716.499	49385.4
716.843	49298.17
717.186	49017.72
717.53	49320.31
717.873	49240.09
718.216	49206.19
718.559	48884.17
718.902	48717.17
719.246	48728.69
719.589	48607.79
719.932	48475.14
720.275	48428.36
720.617	48389.94
720.96	48325.31
721.303	48323.28
721.646	48285.31
721.989	48122.15
722.331	48058.88
722.674	47872.67
723.016	47852.1
723.359	47683.97
723.701	47724.88
724.044	47560.81
724.386	47327.15
724.729	47386.8
725.071	47253.48
725.413	47163.76
725.755	47170.77
726.097	46920.38
726.439	46811.9
726.782	46677.9
727.124	46846.48
727.465	46498.01
727.807	46505.7
728.149	46283.11
728.491	46237.23
728.833	46307.29
729.175	46011.7
729.516	45997.24
729.858	45831.14
730.199	45941.42
730.541	45716.11
730.882	45714.31
731.224	45850.57
731.565	45449
731.906	45365.39
732.248	45392.73
732.589	45156.81
732.93	45140.31
733.271	45023.48
733.612	45105.73
733.953	45003.82
734.294	44736.71
734.635	44725.86
734.976	44837.49
735.317	44494.23
735.658	44548.69
735.999	44338.3
736.339	44211.75
736.68	44378.75
737.021	44092.43
737.361	44050.17
737.702	44217.4
738.042	43981.24
738.383	43863.06
738.723	44086.1
739.063	43802.27
739.404	43848.82
739.744	43677.07
740.084	43566.11
740.424	43629.62
740.764	43378.77
741.104	43630.07
741.444	43408.6
741.784	43133.58
742.124	43342.39
742.464	43240.47
742.804	43327.48
743.143	43084.09
743.483	43054.49
743.823	42840.94
744.162	42822.41
744.502	42902.85
744.841	42650.43
745.181	42816.08
745.52	42772.69
745.86	42781.28
746.199	42633.71
746.538	42602.75
746.877	42585.8
747.216	42537.67
747.556	42325.92
747.895	42413.83
748.234	42339.25
748.573	42311.91
748.911	42452.7
749.25	42212.48
749.589	41997.79
749.928	42174.29
750.267	42217.68
750.605	42026.27
750.944	41925.48
751.283	41774.07
751.621	41884.12
751.96	41616.34
752.298	41671.93
752.636	41570.01
752.975	41373.86
753.313	41272.39
753.651	41468.54
753.989	41204.82
754.327	41106.97
754.666	40996.24
755.004	41080.76
755.342	41078.04
755.679	40902.91
756.017	40708.11
756.355	40980.19
756.693	40698.85
757.031	40831.5
757.368	40638.51
757.706	40415.46
758.044	40289.14
758.381	40433.09
758.719	40189.03
759.056	40123.94
759.394	40006.21
759.731	39827.23
760.068	39868.36
760.405	39701.81
760.743	39595.82
761.08	39591.98
761.417	39242.84
761.754	39217.98
762.091	39105.89
762.428	39017.99
762.765	38837.43
763.102	38778.44
763.438	38687.15
763.775	38409.64
764.112	38575.06
764.449	38461.84
764.785	38178.01
765.122	37952.48
765.458	37781.63
765.795	37597.91
766.131	37624.8
766.467	37401.3
766.804	37337.13
767.14	37149.11
767.476	37134.19
767.812	36827.31
768.148	36748.89
768.485	36533.98
768.821	36599.07
769.157	36393.65
769.492	36204.05
769.828	35973.09
770.164	35679.54
770.5	35706.43
770.836	35615.36
771.171	35500.34
771.507	35323.85
771.842	35187.13
772.178	34929.05
772.513	34858.09
772.849	34685.67
773.184	34397.99
773.519	34392.8
773.855	34369.97
774.19	34188.06
774.525	34073.93
774.86	33969.3
775.195	33842.3
775.53	33757.56
775.865	33503.33
776.2	33293.16
776.535	33031.02
776.87	32909.45
777.205	32818.15
777.539	32767.98
777.874	32886.4
778.209	32437.82
778.543	32374.09
778.878	32039.64
779.212	32149.01
779.547	31947.66
779.881	31860.21
780.215	31816.37
780.55	31801.23
780.884	31660.44
781.218	31511.74
781.552	31433.55
781.886	31162.82
782.22	31053
782.554	30970.51
782.888	30728.26
783.222	30652.33
783.556	30495.95
783.889	30373.24
784.223	30309.74
784.557	30192.23
784.89	30345.45
785.224	29887.6
785.557	29904.1
785.891	29724.22
786.224	29683.09
786.558	29665.69
786.891	29378.92
787.224	29265.25
787.557	29260.73
787.891	29258.92
788.224	29114.74
788.557	29218.24
788.89	29031.81
789.223	28899.16
789.556	28686.73
789.888	28639.95
790.221	28374.2
790.554	28234.09
790.887	28388.89
791.219	28152.28
791.552	28235.22
791.884	28117.71
792.217	28070.48
792.549	27942.34
792.882	27688.57
793.214	27585.97
793.546	27719.75
793.879	27506.88
794.211	27454.67
794.543	27480.21
794.875	27414.45
795.207	27471.62
795.539	27224.17
795.871	27335.35
796.203	27016.94
796.535	26901.47
796.867	27010.84
797.198	26754.13
797.53	26894.01
797.862	26568.6
798.193	26869.6
798.525	26619.89
798.856	26480.91
799.188	26233.46
799.519	26210.41
799.85	26051.32
800.182	26160.02
800.513	26055.84
800.844	25878.9
801.175	25976.75
801.506	25889.29
801.837	25769.75
802.168	25805.68
802.499	25704.44
802.83	25438.68
803.161	25453.37
803.491	25400.04
803.822	25541.05
804.153	25301.51
804.483	25252.92
804.814	25213.6
805.145	25095.64
805.475	25143.55
805.805	25037.34
806.136	25025.81
806.466	25053.61
806.796	24835.53
807.126	24772.94
807.457	24670.34
807.787	24621.3
808.117	24510.34
808.447	24458.37
808.777	24408.65
809.107	24202.1
809.436	24244.59
809.766	24297.69
810.096	24115.78
810.426	23986.06
810.755	24063.8
811.085	23880.3
811.414	23847.08
811.744	23656.58
812.073	23509.24
812.403	23612.74
812.732	23398.74
813.061	23341.34
813.39	23212.3
813.719	23165.97
814.049	23335.23
814.378	23158.52
814.707	22970.72
815.036	23011.4
815.365	22964.4
815.693	22840.56
816.022	22688.92
816.351	22693.22
816.68	22532.77
817.008	22666.32
817.337	22357.41
817.665	22392.66
817.994	22334.13
818.322	22294.58
818.651	22274.02
818.979	22220.01
819.307	22199.22
819.636	22027.7
819.964	21797.65
820.292	21949.06
820.62	21970.07
820.948	21810.08
821.276	21883.97
821.604	21851.66
821.932	21862.5
822.259	21860.92
822.587	21683.75
822.915	21751.32
823.243	21685.11
823.57	21625.67
823.898	21593.58
824.225	21476.98
824.553	21604.88
824.88	21612.57
825.207	21590.42
825.535	21484.21
825.862	21573.47
826.189	21459.13
826.516	21640.59
826.843	21680.81
827.17	21624.09
827.497	21579.35
827.824	21569.86
828.151	21537.32
828.478	21389.3
828.805	21509.07
829.131	21393.82
829.458	21265.91
829.785	21264.78
830.111	21309.75
830.438	21501.84
830.764	21364.66
831.09	21308.85
831.417	21145.01
831.743	21199.02
832.069	21232.46
832.395	21125.35
832.722	21155.63
833.048	21121.05
833.374	21105.24
833.7	21094.16
834.026	21159.92
834.351	21135.74
834.677	21170.77
835.003	21229.98
835.329	21074.73
835.654	20900.04
835.98	20929.42
836.306	20972.81
836.631	20813.49
836.956	20966.93
837.282	20906.15
837.607	20739.82
837.932	20733.95
838.258	20685.13
838.583	20709.31
838.908	20574.18
839.233	20638.58
839.558	20503.22
839.883	20515.65
840.208	20384.35
840.533	20447.63
840.858	20507.06
841.182	20400.85
841.507	20364.46
841.832	20315.65
842.156	20222.32
842.481	20159.5
842.805	20198.82
843.13	20172.61
843.454	20020.52
843.778	20054.87
844.103	20065.94
844.427	20091.03
844.751	19997.69
845.075	19972.16
845.399	19920.41
845.723	19796.34
846.047	19912.05
846.371	19647.87
846.695	19698.04
847.019	19492.17
847.343	19414.88
847.666	19258.73
847.99	19184.16
848.313	19180.31
848.637	19108.23
848.96	19072.75
849.284	19188.22
849.607	18972.41
849.931	18907.78
850.254	18806.77
850.577	18675.47
850.9	18561.57
851.223	18581.69
851.546	18471.41
851.869	18434.57
852.192	18423.72
852.515	18348.7
852.838	18237.51
853.161	18211.98
853.483	18114.81
853.806	17980.35
854.129	18070.97
854.451	18042.27
854.774	17884.76
855.096	17787.81
855.419	17913.68
855.741	17915.04
856.063	17706.91
856.385	17750.3
856.708	17616.06
857.03	17652.45
857.352	17653.35
857.674	17548.95
857.996	17486.12
858.318	17367.26
858.64	17391.89
858.961	17334.71
859.283	17295.62
859.605	17093.59
859.926	17239.35
860.248	17188.95
860.57	17062.86
860.891	17143.53
861.212	16934.72
861.534	17004.1
861.855	16910.54
862.176	17004.1
862.498	16958.45
862.819	17008.85
863.14	16845.69
863.461	16791.23
863.782	16769.08
864.103	16785.8
864.424	16752.36
864.745	16710.78
865.065	16710.1
865.386	16643.66
865.707	16638.91
866.027	16575.86
866.348	16612.7
866.668	16557.78
866.989	16447.51
867.309	16404.12
867.63	16237.79
867.95	16354.4
868.27	16229.88
868.59	16215.65
868.91	16186.95
869.23	16318.02
869.55	16085.48
869.87	16272.82
870.19	16139.49
870.51	16098.14
870.83	16096.55
871.15	15985.82
871.469	15928.65
871.789	16006.39
872.109	15956.9
872.428	15828.99
872.748	15945.37
873.067	15900.63
873.386	15762.55
873.706	15806.39
874.025	15666.06
874.344	15603.01
874.663	15729.33
874.982	15671.93
875.301	15613.85
875.62	15508.32
875.939	15461.54
876.258	15464.93
876.577	15432.84
876.896	15389.45
877.214	15300.87
877.533	15316.69
877.852	15342
878.17	15268.33
878.489	15234.43
878.807	15309.23
879.125	15163.02
879.444	15159.18
879.762	15051.38
880.08	15057.49
880.398	15007.09
880.716	15050.71
881.034	14846.64
881.352	14928.9
881.67	14783.59
881.988	14734.56
882.306	14760.32
882.624	14565.07
882.941	14578.85
883.259	14483.94
883.577	14514.9
883.894	14517.84
884.212	14423.6
884.529	14424.96
884.846	14418.63
885.164	14346.32
885.481	14347.22
885.798	14333.44
886.115	14156.49
886.432	14146.77
886.75	14053.67
887.067	14106.55
887.383	14070.39
887.7	14055.93
888.017	13990.85
888.334	13946.33
888.651	13886.67
888.967	13808.48
889.284	13741.59
889.6	13720.12
889.917	13655.04
890.233	13694.36
890.55	13579.33
890.866	13592.44
891.182	13465.21
891.498	13424.31
891.815	13381.15
892.131	13443.29
892.447	13339.34
892.763	13252.79
893.079	13212.34
893.395	13168.27
893.71	13140.93
894.026	13167.82
894.342	13052.34
894.657	13045.11
894.973	13058.67
895.289	13015.96
895.604	12990.65
895.92	12829.75
896.235	12819.13
896.55	12831.1
896.865	12781.39
897.181	12742.07
897.496	12645.8
897.811	12570.77
898.126	12569.19
898.441	12519.47
898.756	12550.43
899.071	12477.67
899.386	12392.47
899.7	12249.2
900.015	12248.75
900.33	12180.72
900.644	12107.51
900.959	12212.36
901.273	12159.03
901.588	12068.41
901.902	11995.87
902.216	12034.29
902.531	11946.61
902.845	11900.51
903.159	11846.72
903.473	11813.05
903.787	11748.42
904.101	11699.38
904.415	11722.66
904.729	11703.68
905.042	11668.65
905.356	11602.66
905.67	11535.09
905.984	11543.91
906.297	11470.91
906.611	11459.39
906.924	11397.92
907.237	11365.38
907.551	11266.85
907.864	11320.18
908.177	11269.79
908.491	11279.51
908.804	11216.46
909.117	11185.72
909.43	11177.36
909.743	11144.14
910.056	11040.19
910.368	11026.86
910.681	10947.31
910.994	10913.64
911.307	10849.91
911.619	10865.73
911.932	10866.64
912.244	10809.01
912.557	10799.74
912.869	10652.4
913.181	10639.97
913.494	10639.52
913.806	10620.31
914.118	10535.12
914.43	10527.21
914.742	10577.83
915.054	10470.04
915.366	10426.42
915.678	10354.78
915.99	10328.8
916.302	10341
916.613	10246.99
916.925	10235.24
917.236	10212.64
917.548	10183.04
917.859	10200.89
918.171	10120.67
918.482	10080.44
918.794	10144.39
919.105	10046.09
919.416	9961.35
919.727	9939.2
920.038	9857.85
920.349	9834.57
920.66	9841.58
920.971	9847.45
921.282	9871.63
921.593	9795.02
921.903	9700.56
922.214	9660.34
922.525	9652.43
922.835	9570.62
923.146	9525.65
923.456	9530.4
923.767	9456.95
924.077	9448.82
924.387	9376.73
924.697	9283.4
925.008	9302.16
925.318	9249.05
925.628	9289.28
925.938	9267.58
926.248	9059.45
926.558	9035.72
926.867	9009.73
927.177	9056.29
927.487	8976.06
927.796	8891.09
928.106	8853.58
928.416	8838.67
928.725	8862.62
929.034	8776.97
929.344	8741.27
929.653	8705.56
929.962	8654.26
930.271	8620.37
930.581	8534.27
930.89	8490.2
931.199	8448.17
931.508	8451.33
931.817	8431.67
932.125	8371.56
932.434	8389.86
932.743	8254.5
933.051	8243.65
933.36	8172.47
933.669	8149.64
933.977	8116.43
934.286	8113.26
934.594	8071
934.902	7953.04
935.21	7994.39
935.519	7953.27
935.827	7960.27
936.135	7882.53
936.443	7801.18
936.751	7823.78
937.059	7711.69
937.367	7725.47
937.674	7743.1
937.982	7696.55
938.29	7657.91
938.597	7624.01
938.905	7540.85
939.213	7423.11
939.52	7439.38
939.827	7404.13
940.135	7433.05
940.442	7349.44
940.749	7305.82
941.056	7334.52
941.363	7200.74
941.67	7206.84
941.977	7171.37
942.284	7130.91
942.591	7141.08
942.898	7101.08
943.205	7040.07
943.511	6996.91
943.818	7085.94
944.125	6990.35
944.431	6904.48
944.738	6835.33
945.044	6832.16
945.35	6798.27
945.657	6709.68
945.963	6742.68
946.269	6700.64
946.575	6677.59
946.881	6577.48
947.187	6641.21
947.493	6546.07
947.799	6546.3
948.105	6499.74
948.41	6429.69
948.716	6431.05
949.022	6368.9
949.327	6311.95
949.633	6264.95
949.938	6299.52
950.244	6307.21
950.549	6163.26
950.854	6188.79
951.16	6134.78
951.465	6098.62
951.77	6135.01
952.075	6072.18
952.38	6005.29
952.685	6004.84
952.99	5942.92
953.294	5906.31
953.599	5887.56
953.904	5849.14
954.209	5874.22
954.513	5797.84
954.818	5772.98
955.122	5707.67
955.426	5706.09
955.731	5657.96
956.035	5686.88
956.339	5625.87
956.643	5578.86
956.948	5530.05
957.252	5570.05
957.556	5493.67
957.86	5467.68
958.163	5461.58
958.467	5392.88
958.771	5386.33
959.075	5365.99
959.378	5345.88
959.682	5303.84
959.985	5264.07
960.289	5283.28
960.592	5191.53
960.896	5215.71
961.199	5195.15
961.502	5146.79
961.805	5126.9
962.108	5076.05
962.411	5062.72
962.714	5040.35
963.017	5003.96
963.32	5018.65
963.623	5028.6
963.926	5025.21
964.228	4978.2
964.531	4947.69
964.833	4952.21
965.136	4907.92
965.438	4858.21
965.741	4845.78
966.043	4846.45
966.345	4829.51
966.648	4840.8
966.95	4726.91
967.252	4671.77
967.554	4661.6
967.856	4682.39
968.158	4640.36
968.46	4654.6
968.761	4592.22
969.063	4572.56
969.365	4547.03
969.666	4582.28
969.968	4523.98
970.269	4502.06
970.571	4514.71
970.872	4495.5
971.174	4450.53
971.475	4428.61
971.776	4455.28
972.077	4417.54
972.378	4418.22
972.679	4385.45
972.98	4307.94
973.281	4335.73
973.582	4307.03
973.883	4354.26
974.183	4281.72
974.484	4268.62
974.785	4258.67
975.085	4228.84
975.386	4227.04
975.686	4219.13
975.986	4185.23
976.287	4167.15
976.587	4110.43
976.887	4169.18
977.187	4095.51
977.487	4135.06
977.787	4078.57
978.087	4097.77
978.387	4058.68
978.687	4051.9
978.987	4029.75
979.286	3998.34
979.586	3987.04
979.885	3994.27
980.185	3953.6
980.484	3942.75
980.784	3907.5
981.083	3916.76
981.382	3915.63
981.682	3874.73
981.981	3918.12
982.28	3852.81
982.579	3801.28
982.878	3838.35
983.177	3804.45
983.475	3845.12
983.774	3820.72
984.073	3804.9
984.372	3794.05
984.67	3763.55
984.969	3732.36
985.267	3780.27
985.566	3718.12
985.864	3685.58
986.162	3647.16
986.461	3616.88
986.759	3646.49
987.057	3653.72
987.355	3586.37
987.653	3616.43
987.951	3601.29
988.249	3554.06
988.547	3583.21
988.844	3534.4
989.142	3527.85
989.44	3519.26
989.737	3481.52
990.035	3541.18
990.332	3462.99
990.63	3485.13
990.927	3478.35
991.224	3498.92
991.521	3447.4
991.819	3381.41
992.116	3373.72
992.413	3392.26
992.71	3375.53
993.006	3372.14
993.303	3350.22
993.6	3349.77
993.897	3316.78
994.193	3277
994.49	3286.27
994.787	3262.99
995.083	3257.12
995.379	3220.28
995.676	3236.55
995.972	3192.49
996.268	3180.06
996.565	3172.15
996.861	3154.07
997.157	3094.18
997.453	3113.17
997.749	3130.57
998.044	3084.92
998.34	3078.14
998.636	3058.48
998.932	3025.03
999.227	3035.43
999.523	3017.58
999.818	2993.85
1000.114	2968.54
1000.409	2940.29
1000.704	2912.95
1001	2925.83
1001.295	2912.49
1001.59	2896.22
1001.885	2880.4
1002.18	2852.61
1002.475	2858.71
1002.77	2851.48
1003.065	2794.31
1003.359	2768.32
1003.654	2767.87
1003.949	2759.05
1004.243	2777.36
1004.538	2745.49
1004.832	2711.6
1005.127	2706.62
1005.421	2687.19
1005.715	2673.63
1006.009	2694.87
1006.304	2662.11
1006.598	2642.67
1006.892	2621.43
1007.186	2612.39
1007.48	2606.29
1007.773	2587.3
1008.067	2552.28
1008.361	2519.51
1008.655	2535.78
1008.948	2533.29
1009.242	2481.32
1009.535	2480.42
1009.829	2452.85
1010.122	2455.1
1010.415	2418.04
1010.708	2430.7
1011.001	2434.54
1011.295	2390.47
1011.588	2400.64
1011.881	2366.97
1012.173	2386.41
1012.466	2347.99
1012.759	2364.94
1013.052	2306.63
1013.344	2307.99
1013.637	2274.77
1013.93	2247.43
1014.222	2266.86
1014.514	2264.83
1014.807	2235.9
1015.099	2216.02
1015.391	2191.16
1015.683	2185.51
1015.976	2195
1016.268	2186.19
1016.56	2135.11
1016.851	2115.23
1017.143	2104.83
1017.435	2061.67
1017.727	2061.89
1018.018	2035.45
1018.31	2049.92
1018.602	2015.34
1018.893	2048.56
1019.185	2003.37
1019.476	2003.82
1019.767	1955.91
1020.058	1943.71
1020.35	1948.9
1020.641	1924.95
1020.932	1911.39
1021.223	1896.25
1021.514	1900.77
1021.804	1888.34
1022.095	1839.3
1022.386	1837.95
1022.677	1833.2
1022.967	1823.03
1023.258	1792.3
1023.548	1780.32
1023.839	1782.81
1024.129	1743.26
1024.419	1748.46
1024.709	1745.52
1025	1715.24
1025.29	1694.9
1025.58	1695.8
1025.87	1662.58
1026.16	1629.36
1026.449	1657.84
1026.739	1623.71
1027.029	1636.82
1027.319	1591.17
1027.608	1587.56
1027.898	1569.93
1028.187	1584.62
1028.477	1552.98
1028.766	1560.67
1029.055	1539.42
1029.344	1521.8
1029.634	1532.64
1029.923	1477.05
1030.212	1481.57
1030.501	1464.17
1030.79	1484.96
1031.078	1429.82
1031.367	1421.01
1031.656	1421.23
1031.945	1399.77
1032.233	1418.07
1032.522	1401.57
1032.81	1387.11
1033.099	1370.39
1033.387	1356.6
1033.675	1352.99
1033.963	1361.8
1034.251	1341.46
1034.54	1310.95
1034.828	1325.87
1035.116	1298.3
1035.403	1278.19
1035.691	1291.75
1035.979	1287.23
1036.267	1273.22
1036.554	1259.2
1036.842	1242.26
1037.129	1224.18
1037.417	1230.05
1037.704	1208.81
1037.992	1232.54
1038.279	1229.15
1038.566	1195.25
1038.853	1195.25
1039.14	1195.25
