Data from white_steel_sheet_FLMS001491_023.txt Node
Date: Tue Feb 07 10:57:36 GMT 2017
User: dcchb
Spectrometer: FLMS00149
Trigger mode: 0
Integration Time (sec): 2.000000E-2
Scans to average: 10
Electric dark correction enabled: true
Nonlinearity correction enabled: false
Boxcar width: 0
XAxis mode: Wavelengths
Number of Pixels in Spectrum: 2048
>>>>>Begin Spectral Data<<<<<
341.393	-0.2
341.776	-0.2
342.16	-0.2
342.543	-56.02
342.927	-43.59
343.31	-74.77
343.693	-67.77
344.077	-73.19
344.46	-75.22
344.843	-50.37
345.226	-47.65
345.61	-9.91
345.993	-5.85
346.376	-11.95
346.759	11.1
347.142	23.53
347.525	40.48
347.908	55.85
348.291	75.28
348.674	100.59
349.057	109.86
349.44	128.61
349.823	135.39
350.206	162.74
350.588	211.32
350.971	214.03
351.354	225.56
351.737	243.41
352.119	277.08
352.502	280.92
352.884	280.25
353.267	287.25
353.65	300.36
354.032	304.88
354.414	316.63
354.797	310.98
355.179	345.1
355.562	325.44
355.944	338.1
356.326	343.52
356.709	355.95
357.091	347.14
357.473	347.36
357.855	359.34
358.238	352.11
358.62	334.93
359.002	322.28
359.384	357.08
359.766	348.04
360.148	353.47
360.53	331.54
360.912	334.71
361.294	355.95
361.676	337.87
362.057	353.47
362.439	353.24
362.821	339
363.203	353.69
363.584	336.29
363.966	343.3
364.348	333.58
364.729	347.82
365.111	326.57
365.493	320.02
365.874	345.56
366.256	325.67
366.637	329.06
367.019	327.03
367.4	326.35
367.781	320.02
368.163	311.43
368.544	323.64
368.925	326.12
369.306	336.52
369.688	330.19
370.069	329.06
370.45	337.42
370.831	324.54
371.212	333.35
371.593	336.06
371.974	320.25
372.355	328.83
372.736	320.25
373.117	333.35
373.498	337.65
373.879	347.14
374.26	346.69
374.641	332.22
375.021	332.22
375.402	344.88
375.783	324.31
376.163	339.91
376.544	333.35
376.925	359.34
377.305	348.72
377.686	356.86
378.066	338.32
378.447	378.1
378.827	363.41
379.208	352.79
379.588	348.72
379.968	368.83
380.349	376.29
380.729	364.76
381.109	376.52
381.489	355.73
381.87	386.68
382.25	379.45
382.63	375.84
383.01	374.71
383.39	376.06
383.77	363.41
384.15	389.85
384.53	381.49
384.91	382.62
385.29	381.71
385.67	386.68
386.049	364.31
386.429	379
386.809	408.15
387.189	383.52
387.568	394.14
387.948	413.58
388.328	410.41
388.707	408.61
389.087	407.93
389.466	414.93
389.846	421.94
390.225	430.98
390.605	414.25
390.984	432.33
391.363	413.35
391.743	418.77
392.122	416.06
392.501	451.32
392.881	454.25
393.26	459.45
393.639	448.83
394.018	451.77
394.397	466.23
394.776	465.1
395.155	497.42
395.534	485.21
395.913	469.39
396.292	480.02
396.671	514.14
397.05	491.77
397.429	508.26
397.808	498.55
398.186	512.33
398.565	510.75
398.944	514.14
399.323	533.8
399.701	541.03
400.08	521.6
400.458	560.47
400.837	569.5
401.215	560.69
401.594	554.14
401.972	583.29
402.351	566.12
402.729	596.17
403.107	621.03
403.486	617.41
403.864	638.2
404.242	613.57
404.62	621.25
404.999	659.45
405.377	647.92
405.755	675.04
406.133	671.87
406.511	696.73
406.889	692.21
407.267	715.72
407.645	695.38
408.023	734.47
408.401	728.37
408.779	734.92
409.156	752.1
409.534	793.45
409.912	772.89
410.29	807.01
410.667	806.79
411.045	796.39
411.422	833.68
411.8	825.09
412.178	847.46
412.555	883.39
412.933	854.92
413.31	870.51
413.687	908.93
414.065	882.72
414.442	929.04
414.819	909.38
415.197	931.53
415.574	969.49
415.951	960
416.328	964.75
416.705	991.19
417.082	989.15
417.46	1008.36
417.837	1022.37
418.214	1022.37
418.591	1048.36
418.967	1051.98
419.344	1063.5
419.721	1083.39
420.098	1059.66
420.475	1089.72
420.852	1110.96
421.228	1107.8
421.605	1103.73
421.982	1148.7
422.358	1127.91
422.735	1178.08
423.111	1166.1
423.488	1183.73
423.864	1197.51
424.241	1216.72
424.617	1218.3
424.994	1202.71
425.37	1215.59
425.746	1245.42
426.123	1275.47
426.499	1257.17
426.875	1291.07
427.251	1325.42
427.627	1322.48
428.003	1333.55
428.379	1343.72
428.756	1351.41
429.132	1380.78
429.507	1404.96
429.883	1437.28
430.259	1456.94
430.635	1461.01
431.011	1499.42
431.387	1513.43
431.763	1518.41
432.138	1545.75
432.514	1566.99
432.89	1561.8
433.265	1616.93
433.641	1619.65
434.016	1642.47
434.392	1666.88
434.767	1703.94
435.143	1692.19
435.518	1734.9
435.894	1734.9
436.269	1756.82
436.644	1786.42
437.02	1783.48
437.395	1829.81
437.77	1835.23
438.145	1859.87
438.52	1898.96
438.895	1908.23
439.271	1911.62
439.646	1956.14
440.021	1971.5
440.395	1965.85
440.77	1986.19
441.145	1992.29
441.52	2012.86
441.895	2024.61
442.27	2063.02
442.645	2050.37
443.019	2102.35
443.394	2100.76
443.769	2120.42
444.143	2098.28
444.518	2112.97
444.892	2132.4
445.267	2161.1
445.641	2197.26
446.016	2206.52
446.39	2206.98
446.764	2255.34
447.139	2224.83
447.513	2286.3
447.887	2279.97
448.262	2264.83
448.636	2295.56
449.01	2363.58
449.384	2336.69
449.758	2382.34
450.132	2411.26
450.506	2412.85
450.88	2441.55
451.254	2438.38
451.628	2487.87
452.002	2486.29
452.376	2569.9
452.75	2528.32
453.123	2572.84
453.497	2610.58
453.871	2649.68
454.244	2647.19
454.618	2690.35
454.992	2731.93
455.365	2774.87
455.739	2826.85
456.112	2834.53
456.486	2884.25
456.859	2888.31
457.232	2919.27
457.606	2936.45
457.979	2973.06
458.352	3019.84
458.725	3013.96
459.099	3066.16
459.472	3154.75
459.845	3190
460.218	3213.05
460.591	3193.16
460.964	3276.55
461.337	3339.38
461.71	3362.65
462.083	3403.55
462.456	3416.21
462.829	3495.3
463.201	3519.03
463.574	3519.26
463.947	3561.52
464.32	3634.28
464.692	3630.22
465.065	3669.08
465.438	3754.28
465.81	3798.12
466.183	3857.78
466.555	3927.38
466.928	3941.85
467.3	3946.59
467.672	3980.71
468.045	4086.47
468.417	4103.88
468.789	4136.87
469.161	4257.32
469.534	4250.54
469.906	4380.03
470.278	4427.93
470.65	4475.39
471.022	4545.67
471.394	4552.9
471.766	4624.54
472.138	4709.28
472.51	4804.87
472.882	4876.96
473.253	4947.69
473.625	5009.39
473.997	5104.3
474.369	5158.54
474.74	5133.45
475.112	5274.01
475.484	5365.54
475.855	5462.94
476.227	5514.46
476.598	5715.58
476.97	5648.02
477.341	5829.03
477.713	5969.81
478.084	5997.16
478.455	6078.74
478.827	6114.9
479.198	6358.05
479.569	6345.4
479.94	6513.76
480.311	6619.52
480.682	6817.7
481.053	6858.83
481.424	6976.79
481.795	7029.22
482.166	7211.59
482.537	7273.28
482.908	7489.32
483.279	7501.07
483.65	7588.98
484.021	7756.21
484.391	7871.46
484.762	7876.21
485.133	7986.03
485.503	8161.17
485.874	8337.66
486.244	8447.49
486.615	8524.78
486.985	8625.34
487.356	8826.69
487.726	8853.58
488.097	9053.58
488.467	9102.39
488.837	9306
489.207	9416.05
489.578	9548.93
489.948	9655.37
490.318	9782.6
490.688	9797.74
491.058	10012.42
491.428	10072.31
491.798	10216.48
492.168	10413.99
492.538	10474.56
492.908	10537.83
493.278	10661.67
493.648	10723.36
494.017	10920.42
494.387	10921.77
494.757	11088.32
495.126	11223.46
495.496	11206.97
495.866	11270.92
496.235	11485.6
496.605	11608.31
496.974	11676.11
497.344	11807.18
497.713	11858.7
498.082	11934.63
498.452	12119.94
498.821	12114.74
499.19	12194.51
499.559	12354.96
499.928	12382.75
500.298	12547.27
500.667	12596.31
501.036	12568.29
501.405	12817.32
501.774	12780.48
502.143	12956.75
502.512	12988.39
502.88	13139.8
503.249	13211.66
503.618	13291.88
503.987	13380.47
504.356	13418.88
504.724	13524.64
505.093	13555.6
505.462	13588.6
505.83	13733.9
506.199	13844.64
506.567	14099.54
506.936	14050.05
507.304	14189.94
507.672	14358.97
508.041	14422.7
508.409	14482.59
508.777	14620.21
509.145	14768.23
509.514	14813.88
509.882	14912.4
510.25	14964.38
510.618	15028.11
510.986	15163.92
511.354	15332.05
511.722	15455.22
512.09	15658.6
512.458	15762.1
512.826	15666.51
513.193	15850.23
513.561	15959.61
513.929	16059.27
514.297	16156.67
514.664	16328.41
515.032	16519.59
515.4	16579.48
515.767	16704.67
516.135	16819.7
516.502	16708.52
516.869	17014.72
517.237	17018.11
517.604	17079.35
517.972	17327.71
518.339	17434.15
518.706	17532.67
519.073	17599.34
519.44	17763.85
519.808	17936.73
520.175	17993.91
520.542	18245.65
520.909	18324.74
521.276	18393.22
521.643	18586.21
522.009	18660.33
522.376	18917.95
522.743	19016.93
523.11	19149.13
523.477	19484.04
523.843	19467.76
524.21	19703.92
524.577	19972.61
524.943	19912.73
525.31	20036.56
525.676	20239.72
526.043	20345.93
526.409	20426.84
526.776	20782.31
527.142	20790.89
527.508	21038.8
527.874	21167.83
528.241	21281.28
528.607	21326.47
528.973	21522.4
529.339	21627.26
529.705	21819.79
530.071	21935.95
530.437	22113.8
530.803	22235.38
531.169	22398.76
531.535	22325.99
531.901	22460.23
532.267	22516.72
532.632	22784.97
532.998	22890.5
533.364	22863.61
533.73	23120.32
534.095	23212.75
534.461	23338.4
534.826	23424.72
535.192	23528.68
535.557	23827.65
535.923	23745.39
536.288	23843.02
536.653	23986.97
537.019	24021.77
537.384	24173.63
537.749	24256.34
538.114	24268.77
538.479	24372.04
538.845	24557.8
539.21	24452.27
539.575	24654.07
539.94	24719.6
540.305	24795.76
540.67	24932.93
541.034	25065.58
541.399	25125.02
541.764	25144.23
542.129	25395.97
542.494	25296.31
542.858	25424.22
543.223	25484.1
543.587	25641.61
543.952	25722.52
544.316	25775.4
544.681	25926.8
545.045	25927.26
545.41	26028.5
545.774	26172.9
546.138	26185.78
546.503	26262.39
546.867	26327.92
547.231	26515.49
547.595	26514.59
547.959	26592.32
548.324	26725.2
548.688	26917.74
549.052	26943.27
549.416	26888.59
549.779	27080.67
550.143	27146.43
550.507	27282.02
550.871	27450.83
551.235	27436.59
551.599	27576.7
551.962	27751.61
552.326	27666.87
552.689	27968.56
553.053	27808.11
553.417	27884.94
553.78	28373.75
554.143	28213.98
554.507	28439.28
554.87	28439.96
555.234	28800.4
555.597	28580.97
555.96	28714.75
556.323	28849.44
556.686	28982.32
557.05	29102.31
557.413	29215.76
557.776	29299.82
558.139	29505.47
558.502	29552.47
558.865	29606.93
559.228	29854.61
559.59	30012.35
559.953	30035.62
560.316	30326.24
560.679	30415.05
561.041	30515.38
561.404	30678.32
561.767	30874.47
562.129	30806
562.492	30965.77
562.854	31077.86
563.217	31108.14
563.579	31279.88
563.941	31431.07
564.304	31627.45
564.666	31901.11
565.028	31697.05
565.39	31954.22
565.753	32018.4
566.115	32245.06
566.477	32250.48
566.839	32498.38
567.201	32704.93
567.563	32649.34
567.925	32928.2
568.287	32780.41
568.648	33014.75
569.01	33152.38
569.372	33374.97
569.734	33352.15
570.095	33548.07
570.457	33690.44
570.819	33762.76
571.18	33782.42
571.542	33991.9
571.903	34186.02
572.265	34116.65
572.626	34204.55
572.987	34243.42
573.349	34392.8
573.71	34555.73
574.071	34534.04
574.432	34715.27
574.794	34892.22
575.155	34841.37
575.516	34736.06
575.877	35010.18
576.238	35080.69
576.599	35116.17
576.96	35147.58
577.32	35174.92
577.681	35324.07
578.042	35309.16
578.403	35264.19
578.763	35397.74
579.124	35394.13
579.485	35494.24
579.845	35692.88
580.206	35523.84
580.566	35662.14
580.927	35651.07
581.287	35899.65
581.648	35677.73
582.008	35909.14
582.368	35738.07
582.728	35920.67
583.089	35846.32
583.449	35740.11
583.809	35827.79
584.169	35949.14
584.529	35924.51
584.889	35967.44
585.249	35750.27
585.609	35759.99
585.969	35985.3
586.329	35883.6
586.688	35856.26
587.048	35882.93
587.408	35830.05
587.768	35891.51
588.127	35759.09
588.487	35815.36
588.846	35916.6
589.206	35918.41
589.565	35854.23
589.925	35992.75
590.284	35857.39
590.643	35988.46
591.003	35966.99
591.362	36015.58
591.721	35941.46
592.08	36011.06
592.44	35999.99
592.799	36021.68
593.158	35972.42
593.517	36006.77
593.876	36020.1
594.235	35916.37
594.593	35965.64
594.952	36093.77
595.311	35945.52
595.67	35990.04
596.029	36235.46
596.387	36126.31
596.746	36043.6
597.104	36106.88
597.463	36047.89
597.822	36269.58
598.18	36051.06
598.538	36071.85
598.897	36254.44
599.255	35893.32
599.613	36567.65
599.972	36220.32
600.33	36313.42
600.688	36299.86
601.046	36246.08
601.404	36416.7
601.762	36320.66
602.12	36468.67
602.478	36551.38
602.836	36257.15
603.194	36268.23
603.552	36316.36
603.91	36174.22
604.268	36438.84
604.625	36339.64
604.983	36430.93
605.341	36132.64
605.698	36554.55
606.056	36531.27
606.413	36507.54
606.771	36743.24
607.128	36532.85
607.485	36447.43
607.843	36566.07
608.2	36635.68
608.557	36781.21
608.914	36574.43
609.272	36846.74
609.629	36977.14
609.986	37058.71
610.343	36790.02
610.7	37047.42
611.057	37011.71
611.414	36947.76
611.771	37042.9
612.127	37118.37
612.484	37239.05
612.841	37286.28
613.198	37038.38
613.554	37145.04
613.911	37316.56
614.267	37227.3
614.624	37376.9
614.98	37364.7
615.337	37535.31
615.693	37586.84
616.05	37358.37
616.406	37631.81
616.762	37662.99
617.118	37547.97
617.475	37516.1
617.831	37645.37
618.187	37698.7
618.543	37747.96
618.899	38007.16
619.255	37874.74
619.611	37864.34
619.967	38005.36
620.323	38012.36
620.678	37865.02
621.034	37798.81
621.39	37869.77
621.746	37773.05
622.101	38155.41
622.457	37848.52
622.812	37980.27
623.168	38113.6
623.523	38011.46
623.879	38152.25
624.234	37838.81
624.589	38105.92
624.945	38133.94
625.3	38224.11
625.655	38089.42
626.01	38104.56
626.365	38108.4
626.72	37998.8
627.075	38181.4
627.43	38003.77
627.785	37851.69
628.14	37986.15
628.495	37987.5
628.85	37861.18
629.205	37850.56
629.559	37994.74
629.914	37982.31
630.269	37814.18
630.623	37790.45
630.978	37697.79
631.332	37941.4
631.687	37877.68
632.041	37716.1
632.396	37717
632.75	37495.77
633.104	37618.7
633.459	37461.42
633.813	37450.79
634.167	37498.25
634.521	37437.91
634.875	37426.39
635.229	37468.2
635.583	37310.91
635.937	37275.43
636.291	37297.58
636.645	37208.09
636.999	37084.25
637.352	37197.24
637.706	37023.24
638.06	37136
638.413	36988.89
638.767	36888.78
639.121	36934.88
639.474	36691.49
639.828	36755.45
640.181	36803.35
640.534	36727.2
640.888	36624.38
641.241	36437.71
641.594	36445.4
641.947	36652.4
642.301	36427.55
642.654	36474.1
643.007	36389.81
643.36	36362.91
643.713	36335.8
644.066	36359.98
644.419	36044.05
644.771	36035.24
645.124	35713.89
645.477	35537.62
645.83	35208.82
646.182	35278.2
646.535	35172.21
646.888	35096.05
647.24	34996.17
647.593	35280.91
647.945	35076.17
648.298	34908.49
648.65	34918.88
649.002	34742.62
649.355	34891.54
649.707	34725.44
650.059	34890.18
650.411	35427.12
650.763	35309.38
651.115	35722.03
651.467	35553.9
651.819	35528.59
652.171	35601.58
652.523	35544.4
652.875	35379.21
653.227	35215.15
653.578	35495.37
653.93	35378.99
654.282	35226.9
654.633	35170.4
654.985	35212.66
655.337	35213.79
655.688	35303.51
656.039	35308.03
656.391	34944.65
656.742	34993.01
657.094	35015.83
657.445	35156.17
657.796	35058.32
658.147	35040.46
658.498	35003.4
658.849	34959.34
659.2	34864.87
659.551	34800.02
659.902	34834.14
660.253	34666.69
660.604	34859.45
660.955	34606.58
661.306	34869.85
661.656	34612.68
662.007	34582.62
662.358	34619.23
662.708	34490.42
663.059	34519.35
663.409	34162.07
663.76	34621.94
664.11	34258.34
664.461	34494.94
664.811	34306.7
665.161	34254.95
665.511	34026.48
665.862	34136.31
666.212	34078.23
666.562	34000.04
666.912	33980.83
667.262	33840.04
667.612	33806.6
667.962	33843.88
668.312	33640.5
668.662	33693.83
669.011	33713.27
669.361	33529.09
669.711	33549.88
670.06	33214.75
670.41	33260.85
670.76	33130
671.109	33147.86
671.459	33143.56
671.808	33106.28
672.157	33032.15
672.507	32756.46
672.856	32756.91
673.205	32744.25
673.554	32625.61
673.904	32574.99
674.253	32718.04
674.602	32472.39
674.951	32146.08
675.3	31949.92
675.649	32467.88
675.998	32270.14
676.346	32448.21
676.695	32591.26
677.044	32176.58
677.393	32216.81
677.741	32362.57
678.09	32140.43
678.438	32180.88
678.787	32198.5
679.135	32160.76
679.484	32002.58
679.832	32210.25
680.181	31941.11
680.529	32038.51
680.877	31893.88
681.225	31956.93
681.573	32093.87
681.922	32036.7
682.27	31945.85
682.618	31991.5
682.966	31929.36
683.314	32041.22
683.661	31873.77
684.009	31836.71
684.357	31892.52
684.705	31808.01
685.053	31795.35
685.4	31907.89
685.748	31654.79
686.095	31685.75
686.443	31594.68
686.79	31792.64
687.138	31707.9
687.485	31793.99
687.832	31767.78
688.18	31831.73
688.527	31730.27
688.874	31714.45
689.221	31573.21
689.568	31579.31
689.915	31665.86
690.262	31714.22
690.609	31506.32
690.956	31525.08
691.303	31501.8
691.65	31375.02
691.997	31515.13
692.344	31250.51
692.69	31398.75
693.037	31294.12
693.383	31051.87
693.73	31292.54
694.077	31078.53
694.423	31141.81
694.769	30965.54
695.116	30897.75
695.462	31017.07
695.808	30837.64
696.155	30931.64
696.501	30738.2
696.847	30874.24
697.193	30460.7
697.539	30722.61
697.885	30436.74
698.231	30242.62
698.577	30385.9
698.923	30295.73
699.269	30218.22
699.614	30097.32
699.96	30144.77
700.306	30125.56
700.651	30028.62
700.997	29895.06
701.342	29835.18
701.688	29800.37
702.033	29718.12
702.379	29598.57
702.724	29598.35
703.069	29643.54
703.415	29339.37
703.76	29380.5
704.105	29305.92
704.45	29317.22
704.795	29048.76
705.14	28964.92
705.485	29047.85
705.83	28904.8
706.175	29107.96
706.52	28928.99
706.865	28836.33
707.209	28679.73
707.554	28574.64
707.899	28666.39
708.243	28460.3
708.588	28460.52
708.932	28321.32
709.277	28276.8
709.621	28314.54
709.966	28157.25
710.31	28265.5
710.654	27954.1
710.998	28033.87
711.342	28006.52
711.687	27933.76
712.031	27825.29
712.375	27557.72
712.719	27776.25
713.063	27647.21
713.407	27698.06
713.75	27544.39
714.094	27590.72
714.438	27343.72
714.782	27448.57
715.125	27259.42
715.469	27355.69
715.812	27139.88
716.156	27048.58
716.499	27096.04
716.843	27068.24
717.186	26902.37
717.53	26980.56
717.873	27028.92
718.216	26941.01
718.559	26745.54
718.902	26725.2
719.246	26810.62
719.589	26610.18
719.932	26561.14
720.275	26517.52
720.617	26560.23
720.96	26448.82
721.303	26520.46
721.646	26401.14
721.989	26274.59
722.331	26447.24
722.674	26298.09
723.016	26247.25
723.359	26187.81
723.701	26224.2
724.044	26098.1
724.386	25988.27
724.729	26042.51
725.071	26008.16
725.413	25946.01
725.755	25953.47
726.097	25791.44
726.439	25598
726.782	25636.64
727.124	25814.72
727.465	25569.98
727.807	25537.66
728.149	25638
728.491	25560.26
728.833	25481.17
729.175	25354.84
729.516	25354.16
729.858	25187.61
730.199	25424.9
730.541	25260.16
730.882	25259.93
731.224	25318.46
731.565	25150.55
731.906	25158.91
732.248	25132.47
732.589	25023.1
732.93	24912.14
733.271	25043.44
733.612	24883.22
733.953	25056.09
734.294	24714.86
734.635	24857.91
734.976	24848.19
735.317	24704.46
735.658	24666.5
735.999	24731.36
736.339	24560.29
736.68	24667.63
737.021	24648.87
737.361	24405.49
737.702	24368.2
738.042	24478.48
738.383	24366.39
738.723	24393.74
739.063	24273.97
739.404	24383.34
739.744	24348.99
740.084	24142.67
740.424	24227.64
740.764	24148.09
741.104	24211.6
741.444	24217.92
741.784	24070.36
742.124	24026.06
742.464	24073.52
742.804	23932.05
743.143	23792.17
743.483	23759.18
743.823	23764.38
744.162	23779.97
744.502	23836.92
744.841	23607.32
745.181	23695
745.52	23575.45
745.86	23689.57
746.199	23605.96
746.538	23633.98
746.877	23515.12
747.216	23492.29
747.556	23474.44
747.895	23609.58
748.234	23300.43
748.573	23332.07
748.911	23281
749.25	23264.5
749.589	23064.96
749.928	23162.58
750.267	23192.64
750.605	23140.44
750.944	23045.98
751.283	22889.82
751.621	23043.49
751.96	22821.58
752.298	22803.72
752.636	22838.75
752.975	22716.49
753.313	22641.69
753.651	22677.4
753.989	22539.32
754.327	22486.22
754.666	22338.65
755.004	22391.3
755.342	22419.33
755.679	22428.59
756.017	22127.81
756.355	22290.97
756.693	22064.31
757.031	22085.32
757.368	22050.97
757.706	22015.27
758.044	21967.36
758.381	21911.77
758.719	21754.94
759.056	21726.69
759.394	21698.21
759.731	21600.59
760.068	21513.13
760.405	21487.15
760.743	21388.62
761.08	21488.28
761.417	21295.29
761.754	21321.95
762.091	21278.34
762.428	21115.18
762.765	21059.36
763.102	21038.12
763.438	20911.57
763.775	20863.21
764.112	20841.51
764.449	20801.74
764.785	20622.31
765.122	20520.84
765.458	20536.89
765.795	20407.18
766.131	20462.77
766.467	20396.55
766.804	20294.86
767.14	20201.3
767.476	20069.78
767.812	20049.67
768.148	20059.61
768.485	19990.92
768.821	19864.59
769.157	19817.13
769.492	19830.24
769.828	19754.76
770.164	19607.2
770.5	19550.02
770.836	19550.93
771.171	19351.84
771.507	19394.32
771.842	19275
772.178	19294.44
772.513	19244.49
772.849	19094.67
773.184	19076.14
773.519	18976.48
773.855	18843.6
774.19	18825.52
774.525	18818.29
774.86	18734.45
775.195	18691.29
775.53	18623.04
775.865	18587.79
776.2	18412.88
776.535	18205.88
776.87	18242.94
777.205	18223.73
777.539	18261.92
777.874	18148.25
778.209	18000.91
778.543	17985.54
778.878	17866.45
779.212	17864.64
779.547	17758.21
779.881	17753.01
780.215	17691.31
780.55	17610.41
780.884	17478.89
781.218	17475.95
781.552	17372.45
781.886	17404.32
782.22	17240.03
782.554	17209.97
782.888	17114.61
783.222	17014.95
783.556	16945.57
783.889	16914.39
784.223	16791.9
784.557	16756.88
784.89	16855.18
785.224	16649.76
785.557	16680.27
785.891	16602.3
786.224	16534.96
786.558	16540.38
786.891	16338.13
787.224	16289.77
787.557	16131.81
787.891	16281.18
788.224	16161.64
788.557	16149.89
788.89	16093.84
789.223	16065.14
789.556	15872.15
789.888	15828.99
790.221	15884.36
790.554	15697.24
790.887	15658.83
791.219	15596
791.552	15614.76
791.884	15433.97
792.217	15431.49
792.549	15438.49
792.882	15282.56
793.214	15269.46
793.546	15289.57
793.879	15169.57
794.211	15042.12
794.543	15189.01
794.875	15049.12
795.207	15181.1
795.539	14945.4
795.871	15059.07
796.203	14813.42
796.535	14729.81
796.867	14873.08
797.198	14793.76
797.53	14803.25
797.862	14599.87
798.193	14599.64
798.525	14506.77
798.856	14533.21
799.188	14257.05
799.519	14307.45
799.85	14273.1
800.182	14265.42
800.513	14336.6
800.844	14110.62
801.175	14235.13
801.506	14103.16
801.837	14078.08
802.168	14153.1
802.499	13991.3
802.83	13976.16
803.161	13912.88
803.491	13944.29
803.822	13860.91
804.153	13798.31
804.483	13611.65
804.814	13568.26
805.145	13606.68
805.475	13748.59
805.805	13559.9
806.136	13525.32
806.466	13605.55
806.796	13527.36
807.126	13379.34
807.457	13382.5
807.787	13400.13
808.117	13299.79
808.447	13237.65
808.777	13173.69
809.107	13079.01
809.436	13072
809.766	13128.95
810.096	13012.34
810.426	13039.01
810.755	12980.03
811.085	12981.38
811.414	12920.59
811.744	12865.68
812.073	12786.36
812.403	12866.13
812.732	12801.5
813.061	12837.43
813.39	12679.47
813.719	12714.5
814.049	12716.53
814.378	12661.39
814.707	12609.64
815.036	12653.03
815.365	12500.49
815.693	12342.98
816.022	12486.93
816.351	12352.02
816.68	12353.38
817.008	12376.2
817.337	12219.14
817.665	12196.32
817.994	12313.6
818.322	12238.58
818.651	12193.15
818.979	12145.25
819.307	12184.79
819.636	12152.25
819.964	12066.6
820.292	12107.73
820.62	12065.7
820.948	11997.68
821.276	12005.81
821.604	11939.6
821.932	12037.23
822.259	12047.4
822.587	11989.32
822.915	11982.54
823.243	11970.56
823.57	11907.29
823.898	11906.16
824.225	11992.48
824.553	11917
824.88	11957.45
825.207	11957.91
825.535	11979.83
825.862	12002.88
826.189	11915.42
826.516	11969.43
826.843	11987.28
827.17	12005.14
827.497	11974.63
827.824	11995.87
828.151	12051.01
828.478	11971.01
828.805	11968.98
829.131	11913.61
829.458	11924.69
829.785	11855.54
830.111	11936.89
830.438	11929.21
830.764	11951.13
831.09	11806.72
831.417	11825.93
831.743	11865.7
832.069	11902.31
832.395	11756.78
832.722	11838.36
833.048	11823.67
833.374	11838.36
833.7	11804.92
834.026	11882.43
834.351	11798.81
834.677	11772.6
835.003	11747.52
835.329	11758.59
835.654	11725.82
835.98	11665.94
836.306	11686.05
836.631	11692.15
836.956	11650.34
837.282	11674.98
837.607	11634.07
837.932	11601.76
838.258	11588.88
838.583	11561.53
838.908	11472.72
839.233	11490.12
839.558	11474.08
839.883	11467.98
840.208	11437.92
840.533	11480.63
840.858	11421.65
841.182	11394.08
841.507	11435.43
841.832	11302.1
842.156	11348.2
842.481	11283.35
842.805	11296.23
843.13	11294.87
843.454	11191.82
843.778	11183.24
844.103	11123.58
844.427	11152.5
844.751	11060.3
845.075	11029.12
845.399	11053.97
845.723	10974.88
846.047	10956.35
846.371	10858.73
846.695	10954.54
847.019	10768.78
847.343	10745.73
847.666	10763.36
847.99	10739.41
848.313	10663.25
848.637	10609.47
848.96	10556.36
849.284	10539.19
849.607	10484.05
849.931	10445.86
850.254	10338.29
850.577	10359.3
850.9	10233.43
851.223	10281.34
851.546	10301.23
851.869	10194.56
852.192	10187.33
852.515	10102.81
852.838	10046.32
853.161	10038.63
853.483	10045.41
853.806	9965.42
854.129	9941.46
854.451	9881.35
854.774	9897.62
855.096	9841.13
855.419	9815.59
855.741	9766.33
856.063	9769.71
856.385	9738.3
856.708	9701.24
857.03	9685.88
857.352	9656.5
857.674	9689.72
857.996	9587.12
858.318	9620.57
858.64	9485.65
858.961	9512.09
859.283	9502.6
859.605	9444.75
859.926	9456.95
860.248	9387.35
860.57	9361.59
860.891	9393.68
861.212	9353.91
861.534	9295.15
861.855	9292.44
862.176	9294.25
862.498	9280.46
862.819	9273.68
863.14	9215.61
863.461	9170.86
863.782	9220.12
864.103	9141.71
864.424	9146
864.745	9140.35
865.065	9118.66
865.386	9058.55
865.707	9062.61
866.027	9064.65
866.348	9020.81
866.668	9013.35
866.989	9009.96
867.309	8943.52
867.63	8998.66
867.95	8957.98
868.27	8929.51
868.59	8923.18
868.91	8904.2
869.23	8885.22
869.55	8818.55
869.87	8902.17
870.19	8885.22
870.51	8812.68
870.83	8864.65
871.15	8795.05
871.469	8829.17
871.789	8872.79
872.109	8794.83
872.428	8722.28
872.748	8762.74
873.067	8742.62
873.386	8737.2
873.706	8717.09
874.025	8705.34
874.344	8648.39
874.663	8700.59
874.982	8612.23
875.301	8584.66
875.62	8633.02
875.939	8609.07
876.258	8568.39
876.577	8520.26
876.896	8489.52
877.214	8505.12
877.533	8510.54
877.852	8468.96
878.17	8523.87
878.489	8486.81
878.807	8464.89
879.125	8489.07
879.444	8439.81
879.762	8400.03
880.08	8461.5
880.398	8338.34
880.716	8412.01
881.034	8356.64
881.352	8353.48
881.67	8253.14
881.988	8314.39
882.306	8233.94
882.624	8245.91
882.941	8245.69
883.259	8151.68
883.577	8197.55
883.894	8137.44
884.212	8116.88
884.529	8158.23
884.846	8055.64
885.164	8167.27
885.481	8104
885.798	8087.05
886.115	8079.36
886.432	7982.64
886.75	8055.64
887.067	8039.14
887.383	7931.8
887.7	7961.17
888.017	7941.06
888.334	7911.91
888.651	7899.26
888.967	7878.01
889.284	7837.34
889.6	7894.51
889.917	7801.41
890.233	7770.67
890.55	7748.98
890.866	7699.03
891.182	7666.72
891.498	7715.53
891.815	7677.57
892.131	7591.92
892.447	7548.3
892.763	7539.94
893.079	7545.37
893.395	7571.58
893.71	7527.29
894.026	7490.45
894.342	7462.2
894.657	7411.81
894.973	7413.62
895.289	7391.92
895.604	7381.53
895.92	7353.28
896.235	7300.18
896.55	7294.98
896.865	7247.97
897.181	7245.26
897.496	7268.99
897.811	7276.9
898.126	7197.13
898.441	7168.65
898.756	7110.12
899.071	7100.63
899.386	7103.12
899.7	7054.53
900.015	7045.72
900.33	6964.14
900.644	6989.22
900.959	7013.86
901.273	6948.55
901.588	6939.28
901.902	6866.74
902.216	6903.58
902.531	6850.92
902.845	6848.89
903.159	6799.4
903.473	6686.18
903.787	6725.28
904.101	6673.07
904.415	6656.8
904.729	6674.66
905.042	6584.49
905.356	6614.54
905.67	6525.51
905.984	6543.81
906.297	6495.68
906.611	6459.07
906.924	6437.6
907.237	6469.69
907.551	6410.03
907.864	6456.58
908.177	6383.36
908.491	6365.28
908.804	6312.4
909.117	6354.89
909.43	6254.55
909.743	6248.23
910.056	6255.91
910.368	6226.08
910.681	6149.25
910.994	6193.09
911.307	6109.25
911.619	6121.45
911.932	6100.21
912.244	6050.26
912.557	6086.2
912.869	6049.13
913.181	6047.78
913.494	6032.86
913.806	5936.14
914.118	5946.31
914.43	5875.81
914.742	5910.38
915.054	5855.69
915.366	5846.2
915.678	5801.46
915.99	5874.68
916.302	5749.48
916.613	5768.92
916.925	5717.39
917.236	5688.47
917.548	5646.89
917.859	5675.36
918.171	5631.29
918.482	5571.18
918.794	5585.64
919.105	5574.34
919.416	5497.74
919.727	5506.32
920.038	5526.89
920.349	5470.17
920.66	5426.33
920.971	5399.89
921.282	5389.49
921.593	5362.15
921.903	5328.48
922.214	5313.11
922.525	5268.59
922.835	5271.3
923.146	5220.68
923.456	5243.73
923.767	5186.33
924.077	5203.51
924.387	5171.87
924.697	5138.88
925.008	5138.2
925.318	5083.06
925.628	5115.15
925.938	5071.99
926.248	5016.17
926.558	5030.18
926.867	5031.76
927.177	5018.2
927.487	4950.41
927.796	4930.07
928.106	4922.61
928.416	4876.28
928.725	4881.26
929.034	4868.6
929.344	4846.91
929.653	4813.24
929.962	4802.84
930.271	4732.11
930.581	4712.67
930.89	4752.45
931.199	4701.37
931.508	4731.66
931.817	4673.13
932.125	4706.12
932.434	4644.65
932.743	4592.68
933.051	4598.78
933.36	4551.77
933.669	4532.34
933.977	4509.51
934.286	4552.45
934.594	4496.63
934.902	4460.25
935.21	4433.81
935.519	4466.8
935.827	4427.71
936.135	4379.12
936.443	4357.2
936.751	4356.75
937.059	4352.46
937.367	4307.03
937.674	4346.35
937.982	4300.48
938.29	4272.91
938.597	4260.48
938.905	4263.64
939.213	4225.23
939.52	4191.1
939.827	4222.52
940.135	4188.62
940.442	4136.19
940.749	4133.03
941.056	4183.2
941.363	4099.81
941.67	4098.9
941.977	4050.32
942.284	4055.51
942.591	4009.87
942.898	4028.85
943.205	3994.73
943.511	3950.21
943.818	3972.35
944.125	3936.65
944.431	3935.74
944.738	3935.74
945.044	3902.52
945.35	3863.43
945.657	3871.79
945.963	3853.26
946.269	3832.47
946.575	3828.18
946.881	3806.03
947.187	3761.96
947.493	3782.53
947.799	3720.16
948.105	3722.64
948.41	3695.07
948.716	3703.89
949.022	3634.28
949.327	3637.45
949.633	3636.32
949.938	3638.12
950.244	3619.82
950.549	3581.4
950.854	3589.31
951.16	3569.65
951.465	3559.26
951.77	3501.63
952.075	3535.3
952.38	3512.93
952.685	3534.4
952.99	3484.91
953.294	3483.1
953.599	3475.42
953.904	3414.18
954.209	3392.93
954.513	3381.63
954.818	3379.37
955.122	3335.76
955.426	3323.78
955.731	3358.36
956.035	3351.58
956.339	3315.42
956.643	3289.21
956.948	3293.5
957.252	3251.24
957.556	3256.89
957.86	3234.29
958.163	3217.57
958.467	3208.53
958.771	3222.99
959.075	3211.92
959.378	3157.69
959.682	3164.92
959.985	3120.4
960.289	3150.45
960.592	3117.91
960.896	3102.55
961.199	3089.44
961.502	3065.26
961.805	3029.78
962.108	3067.52
962.411	3040.63
962.714	3051.25
963.017	3023
963.32	2988.88
963.623	2998.59
963.926	3010.12
964.228	2963.79
964.531	2944.58
964.833	2938.48
965.136	2944.13
965.438	2931.02
965.741	2898.71
966.043	2878.37
966.345	2883.79
966.648	2879.27
966.95	2849.67
967.252	2821.2
967.554	2861.2
967.856	2809.45
968.158	2808.32
968.46	2791.37
968.761	2754.98
969.063	2741.43
969.365	2781.65
969.666	2752.72
969.968	2735.55
970.269	2738.26
970.571	2707.98
970.872	2709.34
971.174	2697.13
971.475	2655.1
971.776	2688.09
972.077	2633.18
972.378	2612.39
972.679	2620.75
972.98	2616.23
973.281	2636.34
973.582	2604.93
973.883	2593.18
974.183	2601.54
974.484	2565.84
974.785	2556.12
975.085	2549.79
975.386	2524.48
975.686	2513.86
975.986	2494.2
976.287	2486.74
976.587	2465.05
976.887	2479.51
977.187	2471.83
977.487	2451.94
977.787	2463.24
978.087	2460.53
978.387	2433.41
978.687	2396.12
978.987	2395.67
979.286	2376.46
979.586	2388.89
979.885	2356.12
980.185	2338.5
980.484	2355.22
980.784	2346.18
981.083	2321.1
981.382	2323.13
981.682	2341.89
981.981	2308.89
982.28	2301.21
982.579	2253.98
982.878	2256.92
983.177	2231.83
983.475	2266.86
983.774	2218.73
984.073	2230.93
984.372	2160.42
984.67	2201.1
984.969	2187.09
985.267	2192.29
985.566	2158.84
985.864	2145.51
986.162	2202.46
986.461	2141.21
986.759	2132.85
987.057	2109.13
987.355	2112.06
987.653	2100.99
987.951	2092.63
988.249	2066.64
988.547	2061.44
988.844	2089.24
989.142	2082.01
989.44	2024.38
989.737	2047.21
990.035	2044.95
990.332	2039.07
990.63	2040.2
990.927	2018.73
991.224	1998.17
991.521	1968.34
991.819	1984.38
992.116	1956.36
992.413	1977.38
992.71	1968.11
993.006	1962.91
993.303	1937.6
993.6	1952.75
993.897	1898.96
994.193	1922.01
994.49	1891.28
994.787	1892.18
995.083	1879.98
995.379	1900.77
995.676	1876.59
995.972	1868.45
996.268	1861.22
996.565	1842.24
996.861	1828
997.157	1849.7
997.453	1826.87
997.749	1827.1
998.044	1801.56
998.34	1788
998.636	1785.97
998.932	1777.61
999.227	1786.2
999.523	1736.25
999.818	1756.37
1000.114	1745.97
1000.409	1742.58
1000.704	1735.35
1001	1722.47
1001.295	1702.13
1001.59	1691.28
1001.885	1715.69
1002.18	1684.28
1002.475	1664.39
1002.77	1644.96
1003.065	1643.37
1003.359	1638.63
1003.654	1641.34
1003.949	1604.51
1004.243	1633.88
1004.538	1613.77
1004.832	1624.84
1005.127	1585.98
1005.421	1542.59
1005.715	1595.01
1006.009	1589.14
1006.304	1540.33
1006.598	1554.79
1006.892	1522.7
1007.186	1528.8
1007.48	1511.85
1007.773	1497.62
1008.067	1487.67
1008.361	1536.71
1008.655	1496.71
1008.948	1472.31
1009.242	1488.58
1009.535	1473.66
1009.829	1448.13
1010.122	1453.55
1010.415	1465.3
1010.708	1447.9
1011.001	1447.22
1011.295	1441.8
1011.588	1398.41
1011.881	1399.09
1012.173	1405.64
1012.466	1359.99
1012.759	1381.69
1013.052	1384.4
1013.344	1375.81
1013.637	1348.47
1013.93	1344.17
1014.222	1362.03
1014.514	1336.94
1014.807	1339.2
1015.099	1332.87
1015.391	1327
1015.683	1309.15
1015.976	1289.03
1016.268	1286.1
1016.56	1286.1
1016.851	1281.12
1017.143	1280.22
1017.435	1268.7
1017.727	1234.8
1018.018	1242.26
1018.31	1235.93
1018.602	1265.53
1018.893	1224.4
1019.185	1218.75
1019.476	1221.24
1019.767	1214.91
1020.058	1211.07
1020.35	1196.38
1020.641	1158.64
1020.932	1175.36
1021.223	1168.81
1021.514	1159.55
1021.804	1165.2
1022.095	1138.76
1022.386	1129.94
1022.677	1138.3
1022.967	1118.64
1023.258	1104.41
1023.548	1070.28
1023.839	1113.9
1024.129	1106.67
1024.419	1072.54
1024.709	1098.08
1025	1072.09
1025.29	1088.59
1025.58	1046.78
1025.87	1052.66
1026.16	1054.01
1026.449	1041.81
1026.739	1036.84
1027.029	1019.89
1027.319	1025.99
1027.608	999.78
1027.898	1025.99
1028.187	1002.71
1028.477	1020.34
1028.766	1015.82
1029.055	1032.09
1029.344	966.56
1029.634	983.73
1029.923	972.88
1030.212	966.1
1030.501	947.8
1030.79	956.39
1031.078	964.07
1031.367	938.08
1031.656	955.71
1031.945	948.48
1032.233	928.37
1032.522	926.33
1032.81	919.78
1033.099	900.34
1033.387	916.39
1033.675	911.64
1033.963	911.19
1034.251	886.56
1034.54	870.29
1034.828	890.17
1035.116	874.36
1035.403	864.19
1035.691	827.13
1035.979	860.57
1036.267	842.94
1036.554	851.98
1036.842	850.4
1037.129	836.84
1037.417	816.05
1037.704	839.1
1037.992	814.24
1038.279	820.12
1038.566	782.15
1038.853	782.15
1039.14	782.15
