Data from white_wall_FLMS001491_016.txt Node
Date: Tue Feb 07 11:03:42 GMT 2017
User: dcchb
Spectrometer: FLMS00149
Trigger mode: 0
Integration Time (sec): 2.000000E-2
Scans to average: 10
Electric dark correction enabled: true
Nonlinearity correction enabled: false
Boxcar width: 0
XAxis mode: Wavelengths
Number of Pixels in Spectrum: 2048
>>>>>Begin Spectral Data<<<<<
341.393	-11.13
341.776	-11.13
342.16	-11.13
342.543	-50.9
342.927	-73.27
343.31	-67.63
343.693	-45.71
344.077	-74.4
344.46	-47.51
344.843	-42.54
345.226	-46.38
345.61	-50.45
345.993	-16.55
346.376	-17.01
346.759	1.07
347.142	30.68
347.525	39.72
347.908	56.67
348.291	72.94
348.674	114.06
349.057	93.05
349.44	122.88
349.823	143.22
350.206	169.88
350.588	209.43
350.971	234.97
351.354	255.08
351.737	271.35
352.119	256.43
352.502	280.39
352.884	310.22
353.267	305.92
353.65	324.45
354.032	321.97
354.414	331.91
354.797	320.39
355.179	338.01
355.562	335.53
355.944	354.51
356.326	349.76
356.709	359.93
357.091	355.87
357.473	372.59
357.855	374.85
358.238	357.22
358.62	381.4
359.002	370.78
359.384	367.39
359.766	337.79
360.148	348.86
360.53	365.81
360.912	351.12
361.294	376.88
361.676	350.44
362.057	367.17
362.439	359.71
362.821	358.58
363.203	359.71
363.584	345.47
363.966	362.42
364.348	353.15
364.729	357
365.111	352.02
365.493	351.12
365.874	347.73
366.256	342.53
366.637	357
367.019	354.06
367.4	348.41
367.781	351.35
368.163	330.1
368.544	347.73
368.925	338.24
369.306	341.4
369.688	342.99
370.069	344.34
370.45	350.89
370.831	345.25
371.212	344.79
371.593	345.02
371.974	352.25
372.355	337.79
372.736	365.36
373.117	348.63
373.498	353.38
373.879	365.81
374.26	350.44
374.641	356.09
375.021	353.83
375.402	371.46
375.783	357
376.163	362.19
376.544	361.52
376.925	378.01
377.305	370.1
377.686	383.66
378.066	392.48
378.447	379.37
378.827	366.94
379.208	402.19
379.588	380.5
379.968	395.41
380.349	374.85
380.729	385.7
381.109	402.64
381.489	405.36
381.87	379.82
382.25	381.85
382.63	394.51
383.01	409.88
383.39	406.49
383.77	406.03
384.15	415.75
384.53	423.21
384.91	419.37
385.29	411.01
385.67	420.05
386.049	435.64
386.429	435.19
386.809	428.18
387.189	430.67
387.568	446.26
387.948	450.78
388.328	436.09
388.707	448.97
389.087	447.16
389.466	445.13
389.846	449.42
390.225	464.56
390.605	494.39
390.984	478.57
391.363	484.68
391.743	488.29
392.122	502.76
392.501	518.35
392.881	526.48
393.26	519.93
393.639	535.75
394.018	514.28
394.397	525.13
394.776	561.51
395.155	552.25
395.534	573.04
395.913	561.06
396.292	580.27
396.671	595.18
397.05	583.43
397.429	596.99
397.808	596.09
398.186	610.1
398.565	643.77
398.944	620.04
399.323	641.96
399.701	666.37
400.08	663.65
400.458	663.2
400.837	682.19
401.215	702.98
401.594	705.91
401.972	733.71
402.351	728.06
402.729	737.78
403.107	763.77
403.486	762.86
403.864	794.05
404.242	799.92
404.62	813.48
404.999	821.16
405.377	832.69
405.755	847.38
406.133	872.69
406.511	853.71
406.889	890.99
407.267	924.21
407.645	946.13
408.023	943.2
408.401	952.01
408.779	1006.92
409.156	1018.67
409.534	1001.05
409.912	1041.95
410.29	1042.18
410.667	1093.93
411.045	1107.49
411.422	1117.43
411.8	1123.08
412.178	1136.41
412.555	1151.1
412.933	1158.33
413.31	1183.19
413.687	1210.08
414.065	1229.74
414.442	1253.7
414.819	1273.81
415.197	1293.24
415.574	1292.11
415.951	1332.11
416.328	1356.97
416.705	1352
417.082	1340.25
417.46	1406.91
417.837	1375.05
418.214	1420.25
418.591	1435.84
418.967	1423.86
419.344	1478.77
419.721	1479.45
420.098	1485.78
420.475	1489.62
420.852	1534.59
421.228	1533.91
421.605	1550.86
421.982	1554.93
422.358	1603.97
422.735	1595.83
423.111	1620.69
423.488	1630.86
423.864	1657.3
424.241	1676.74
424.617	1697.07
424.994	1701.37
425.37	1697.53
425.746	1761.93
426.123	1792.44
426.499	1787.02
426.875	1792.44
427.251	1803.29
427.627	1860.46
428.003	1864.98
428.379	1919.89
428.756	1948.37
429.132	1960.12
429.507	1961.25
429.883	2015.48
430.259	2084.41
430.635	2062.26
431.011	2101.81
431.387	2194.01
431.763	2184.97
432.138	2199.21
432.514	2233.56
432.89	2198.53
433.265	2314.23
433.641	2342.03
434.016	2336.83
434.392	2364.85
434.767	2441.46
435.143	2443.95
435.518	2455.47
435.894	2474.23
436.269	2532.08
436.644	2569.82
437.02	2587.22
437.395	2580.44
437.77	2628.35
438.145	2633.77
438.52	2734.33
438.895	2724.17
439.271	2746.09
439.646	2793.77
440.021	2787.89
440.395	2807.78
440.77	2827.67
441.145	2861.79
441.52	2889.13
441.895	2958.06
442.27	2958.51
442.645	2969.36
443.019	2978.4
443.394	3001.45
443.769	3035.12
444.143	3000.32
444.518	3072.86
444.892	3110.82
445.267	3132.52
445.641	3206.64
446.016	3168
446.39	3220.65
446.764	3213.19
447.139	3264.49
447.513	3281.44
447.887	3268.33
448.262	3331.83
448.636	3362.79
449.01	3403.24
449.384	3405.28
449.758	3407.76
450.132	3498.83
450.506	3499.06
450.88	3549.91
451.254	3538.38
451.628	3573.63
452.002	3620.41
452.376	3652.05
452.75	3722.33
453.123	3764.14
453.497	3818.83
453.871	3788.77
454.244	3953.51
454.618	3935.21
454.992	3994.19
455.365	3991.93
455.739	4091.36
456.112	4164.35
456.486	4168.87
456.859	4213.62
457.232	4341.3
457.606	4333.16
457.979	4380.17
458.352	4458.81
458.725	4491.8
459.099	4558.69
459.472	4656.77
459.845	4743.32
460.218	4779.48
460.591	4769.31
460.964	4822.42
461.337	4927.72
461.71	5023.09
462.083	5084.56
462.456	5049.75
462.829	5097.44
463.201	5208.17
463.574	5235.51
463.947	5330.2
464.32	5482.51
464.692	5510.08
465.065	5557.54
465.438	5650.19
465.81	5698.1
466.183	5745.1
466.555	5911.2
466.928	5975.38
467.3	5986.68
467.672	6053.57
468.045	6207.46
468.417	6261.25
468.789	6267.8
469.161	6384.41
469.534	6483.39
469.906	6618.3
470.278	6661.01
470.65	6761.8
471.022	6969.03
471.394	7058.06
471.766	7069.14
472.138	7159.53
472.51	7359.75
472.882	7481.55
473.253	7480.88
473.625	7724.03
473.997	7856.91
474.369	7914.76
474.74	8004.93
475.112	8163.57
475.484	8323.11
475.855	8417.8
476.227	8579.38
476.598	8734.4
476.97	8821.41
477.341	9016.88
477.713	9149.31
478.084	9283.09
478.455	9547.26
478.827	9610.09
479.198	9853.7
479.569	9937.08
479.94	10192.22
480.311	10301.82
480.682	10521.02
481.053	10831.52
481.424	10964.17
481.795	11060.44
482.166	11175.47
482.537	11409.36
482.908	11694.78
483.279	11716.92
483.65	11973.64
484.021	12153.97
484.391	12374.31
484.762	12534.3
485.133	12655.43
485.503	12861.07
485.874	13126.83
486.244	13226.94
486.615	13490.89
486.985	13648.62
487.356	13950.54
487.726	14053.13
488.097	14386.01
488.467	14373.12
488.837	14711.87
489.207	14923.17
489.578	15139.21
489.948	15255.36
490.318	15452.64
490.688	15593.66
491.058	15832.52
491.428	16075.45
491.798	16229.35
492.168	16471.37
492.538	16555.67
492.908	16868.88
493.278	17113.39
493.648	17081.08
494.017	17390.22
494.387	17480.84
494.757	17653.04
495.126	17819.36
495.496	17961.51
495.866	18126.92
496.235	18280.37
496.605	18396.75
496.974	18595.39
497.344	18889.62
497.713	18976.17
498.082	19137.75
498.452	19316.72
498.821	19320.34
499.19	19526.21
499.559	19711.06
499.928	19789.03
500.298	20081.9
500.667	20317.83
501.036	20194.21
501.405	20388.33
501.774	20405.96
502.143	20683.92
502.512	20752.39
502.88	21039.62
503.249	21001.65
503.618	21224.02
503.987	21319.38
504.356	21553.28
504.724	21721.86
505.093	21807.51
505.462	21959.59
505.83	22147.61
506.199	22262.41
506.567	22670.53
506.936	22645.45
507.304	22907.14
507.672	22959.11
508.041	23309.61
508.409	23389.84
508.777	23559.32
509.145	23682.26
509.514	23836.15
509.882	23969.93
510.25	24076.37
510.618	24329.93
510.986	24420.54
511.354	24610.82
511.722	24929.23
512.09	25104.82
512.458	25145.72
512.826	25300.3
513.193	25492.61
513.561	25709.55
513.929	25841.52
514.297	26068.18
514.664	26263.66
515.032	26420.72
515.4	26712.24
515.767	26774.15
516.135	26992
516.502	26917.65
516.869	27437.41
517.237	27564.19
517.604	27525.77
517.972	27711.98
518.339	28053.44
518.706	28172.54
519.073	28341.35
519.44	28478.97
519.808	28854.33
520.175	28847.09
520.542	29314.65
520.909	29373.63
521.276	29577.02
521.643	29840.29
522.009	29951.02
522.376	30290.9
522.743	30457
523.11	30695.41
523.477	31087.04
523.843	31204.77
524.21	31506.01
524.577	31734.02
524.943	31848.82
525.31	32070.51
525.676	32248.36
526.043	32606.77
526.409	32704.39
526.776	33013.76
527.142	33142.8
527.508	33395.45
527.874	33655.78
528.241	33794.76
528.607	33960.63
528.973	34246.73
529.339	34232.72
529.705	34649.88
530.071	34996.31
530.437	34939.36
530.803	35173.03
531.169	35391.1
531.535	35512.46
531.901	35520.59
532.267	35950.86
532.632	36129.39
532.998	36156.28
533.364	36399.44
533.73	36568.02
534.095	36820.22
534.461	36965.98
534.826	37061.34
535.192	37235.12
535.557	37474.21
535.923	37521.89
536.288	37603.7
536.653	37808.44
537.019	37868.1
537.384	37940.64
537.749	38304.93
538.114	38516.67
538.479	38447.52
538.845	38746.72
539.21	38632.37
539.575	38965.7
539.94	39043.89
540.305	39397.55
540.67	39166.82
541.034	39568.39
541.399	39609.07
541.764	39707.15
542.129	40009.74
542.494	40126.12
542.858	40135.16
543.223	40238.43
543.587	40508.03
543.952	40630.29
544.316	40815.37
544.681	40714.58
545.045	41014.91
545.41	41219.42
545.774	41174.68
546.138	41381
546.503	41604.5
546.867	41538.51
547.231	41991.16
547.595	42009.46
547.959	42127.88
548.324	42247.87
548.688	42394.31
549.052	42601.08
549.416	42608.09
549.779	42774.64
550.143	42997.46
550.507	43173.5
550.871	43403.55
551.235	43405.36
551.599	43731.22
551.962	43879.69
552.326	44126.92
552.689	44255.95
553.053	44160.59
553.417	44159.23
553.78	44881.48
554.143	44713.34
554.507	44918.08
554.87	45200.11
555.234	45425.19
555.597	45264.74
555.96	45568.01
556.323	46027.66
556.686	45917.15
557.05	46318.73
557.413	46427.65
557.776	46498.83
558.139	46758.49
558.502	46903.57
558.865	46948.99
559.228	47325.48
559.59	47442.76
559.953	47533.83
560.316	47918.01
560.679	47924.56
561.041	48164.33
561.404	48325.23
561.767	48594.82
562.129	48521.15
562.492	48968.15
562.854	48902.61
563.217	49077.07
563.579	49275.94
563.941	49461.24
564.304	49563.39
564.666	49832.08
565.028	49885.19
565.39	49893.32
565.753	50124.73
566.115	50178.96
566.477	50537.82
566.839	50695.56
567.201	50921.32
567.563	50862.33
567.925	51023.69
568.287	51001.99
568.648	51184.59
569.01	51365.82
569.372	51650.11
569.734	51472.49
570.095	51805.36
570.457	51882.2
570.819	51895.98
571.18	51897.79
571.542	52153.15
571.903	52198.8
572.265	52218.68
572.626	52350.88
572.987	52436.98
573.349	52558.56
573.71	52667.71
574.071	52703.64
574.432	52853.7
574.794	53092.33
575.155	53025.22
575.516	52959
575.877	53172.78
576.238	53176.17
576.599	53335.49
576.96	53280.35
577.32	53338.2
577.681	53482.83
578.042	53516.95
578.403	53585.65
578.763	53505.88
579.124	53615.48
579.485	53723.95
579.845	53851.63
580.206	53747.23
580.566	53659.32
580.927	53873.78
581.287	53966.89
581.648	53848.92
582.008	53914.01
582.368	53844.4
582.728	53932.76
583.089	53927.34
583.449	53932.54
583.809	53943.38
584.169	53992.2
584.529	53958.3
584.889	54193.77
585.249	53947.68
585.609	53982.7
585.969	54102.25
586.329	53935.47
586.688	54053.66
587.048	54054.57
587.408	53991.74
587.768	54048.69
588.127	54050.73
588.487	53954.68
588.846	54131.85
589.206	53949.71
589.565	54074.23
589.925	54219.99
590.284	54116.49
590.643	54157.84
591.003	54249.14
591.362	54285.97
591.721	54353.99
592.08	54237.84
592.44	54249.36
592.799	54292.75
593.158	54254.56
593.517	54258.86
593.876	54259.08
594.235	54169.37
594.593	54262.92
594.952	54329.59
595.311	54209.37
595.67	54255.24
596.029	54506.76
596.387	54404.39
596.746	54492.52
597.104	54304.28
597.463	54381.56
597.822	54441.45
598.18	54399.87
598.538	54294.56
598.897	54502.69
599.255	54281.45
599.613	54671.95
599.972	54506.08
600.33	54605.06
600.688	54517.61
601.046	54615
601.404	54770.03
601.762	54623.82
602.12	54777.49
602.478	54781.78
602.836	54742.46
603.194	54658.17
603.552	54750.14
603.91	54643.48
604.268	54846.64
604.625	54664.72
604.983	54849.12
605.341	54722.35
605.698	54930.02
606.056	54952.85
606.413	54850.25
606.771	54965.96
607.128	54991.49
607.485	54880.76
607.843	54997.59
608.2	55052.96
608.557	55096.12
608.914	55078.27
609.272	55198.04
609.629	55232.84
609.986	55277.36
610.343	55234.65
610.7	55381.31
611.057	55335.89
611.414	55390.58
611.771	55408.2
612.127	55479.61
612.484	55461.54
612.841	55502.21
613.198	55494.08
613.554	55549.67
613.911	55594.19
614.267	55523.91
614.624	55657.92
614.98	55625.37
615.337	55758.7
615.693	55701.53
616.05	55734.52
616.406	55854.07
616.762	55691.81
617.118	55778.82
617.475	55685.94
617.831	55802.54
618.187	55824.46
618.543	55863.11
618.899	55984.69
619.255	56005.7
619.611	55862.2
619.967	56062.2
620.323	56054.97
620.678	55937.91
621.034	55899.04
621.39	55976.32
621.746	55930.9
622.101	56241.63
622.457	55960.73
622.812	56083.44
623.168	56085.47
623.523	56115.3
623.879	56104.01
624.234	55936.55
624.589	56169.54
624.945	56132.7
625.3	56181.07
625.655	56158.47
626.01	56182.87
626.365	56132.7
626.72	56143.55
627.075	56104.23
627.43	56074.4
627.785	56057.9
628.14	56093.38
628.495	56206.6
628.85	56115.53
629.205	55970.9
629.559	56186.71
629.914	56049.54
630.269	56064.68
630.623	56004.12
630.978	55979.71
631.332	55969.09
631.687	56033.05
632.041	55951.24
632.396	55973.61
632.75	55888.87
633.104	55912.6
633.459	55739.27
633.813	55786.95
634.167	55805.93
634.521	55753.96
634.875	55779.27
635.229	55770.23
635.583	55664.24
635.937	55663.56
636.291	55628.54
636.645	55618.59
636.999	55587.18
637.352	55650.46
637.706	55458.82
638.06	55593.28
638.413	55525.72
638.767	55483
639.121	55503.34
639.474	55363.46
639.828	55359.39
640.181	55343.57
640.534	55347.19
640.888	55277.36
641.241	55141.32
641.594	55199.62
641.947	55285.27
642.301	55071.72
642.654	55125.27
643.007	55178.61
643.36	55109.68
643.713	54944.94
644.066	55145.84
644.419	55010.93
644.771	54805.73
645.124	54524.39
645.477	54472.86
645.83	54309.7
646.182	54182.02
646.535	54148.35
646.888	54214.11
647.24	54018.41
647.593	54225.64
647.945	53968.02
648.298	53881.92
648.65	53874.46
649.002	53809.38
649.355	53894.35
649.707	53869.94
650.059	54007.11
650.411	54377.5
650.763	54308.57
651.115	54579.3
651.467	54433.77
651.819	54467.89
652.171	54346.76
652.523	54350.15
652.875	54337.05
653.227	54274
653.578	54427.21
653.93	54343.15
654.282	54219.53
654.633	54164.17
654.985	54248.01
655.337	54182.02
655.688	54188.12
656.039	54241.68
656.391	53930.73
656.742	54055.02
657.094	54046.66
657.445	54188.35
657.796	54026.32
658.147	53969.15
658.498	53957.17
658.849	54019.31
659.2	53972.99
659.551	53901.13
659.902	53970.28
660.253	54020.67
660.604	53983.38
660.955	53755.37
661.306	53944.51
661.656	53787.68
662.007	53855.02
662.358	53815.93
662.708	53799.88
663.059	53745.42
663.409	53538.42
663.76	53726.44
664.11	53731.41
664.461	53736.61
664.811	53752.88
665.161	53702.03
665.511	53609.61
665.862	53657.97
666.212	53710.4
666.562	53709.94
666.912	53528.71
667.262	53589.95
667.612	53561.25
667.962	53581.13
668.312	53521.25
668.662	53622.26
669.011	53589.27
669.361	53435.83
669.711	53455.04
670.06	53432.89
670.41	53438.09
670.76	53399.9
671.109	53418.65
671.459	53307.24
671.808	53347.24
672.157	53301.82
672.507	53127.81
672.856	53175.04
673.205	53166
673.554	53239.22
673.904	53113.35
674.253	53271.76
674.602	53177.3
674.951	52825
675.3	52539.58
675.649	53071.99
675.998	53005.1
676.346	52964.43
676.695	53042.16
677.044	52751.1
677.393	52949.51
677.741	52945.9
678.09	52851.89
678.438	52743.87
678.787	52793.81
679.135	52774.38
679.484	52594.94
679.832	52683.08
680.181	52519.69
680.529	52562.18
680.877	52489.18
681.225	52479.24
681.573	52570.54
681.922	52382.75
682.27	52377.32
682.618	52396.31
682.966	52301.39
683.314	52323.99
683.661	52199.47
684.009	52037.9
684.357	51954.28
684.705	51897.34
685.053	51964.23
685.4	51905.92
685.748	51651.47
686.095	51693.05
686.443	51593.39
686.79	51506.16
687.138	51619.6
687.485	51585.03
687.832	51428.87
688.18	51454.18
688.527	51269.56
688.874	51130.58
689.221	51097.58
689.568	51025.72
689.915	50853.97
690.262	50961.09
690.609	50809.45
690.956	50756.12
691.303	50637.03
691.65	50525.17
691.997	50554.55
692.344	50279.98
692.69	50309.13
693.037	50374.21
693.383	49974.22
693.73	50009.02
694.077	49872.3
694.423	49807.67
694.769	49616.49
695.116	49678.86
695.462	49506.44
695.808	49295.37
696.155	49525.42
696.501	49178.76
696.847	49274.58
697.193	48983.29
697.539	49248.37
697.885	48805.44
698.231	48799.79
698.577	48794.37
698.923	48672.56
699.269	48565.45
699.614	48292.91
699.96	48315.96
700.306	48234.61
700.651	48067.83
700.997	47936.99
701.342	47889.31
701.688	47918.91
702.033	47668.52
702.379	47781.96
702.724	47572.48
703.069	47801.85
703.415	47227.85
703.76	47312.37
704.105	47129.55
704.45	46942.89
704.795	46789.9
705.14	46745.38
705.485	46843.91
705.83	46561.43
706.175	46564.37
706.52	46631.49
706.865	46322.57
707.209	46447.76
707.554	46170.48
707.899	46211.16
708.243	46029.47
708.588	45979.07
708.932	45774.56
709.277	45772.98
709.621	45881.67
709.966	45554.68
710.31	45486.88
710.654	45107.91
710.998	45230.84
711.342	45215.7
711.687	45142.49
712.031	44980.23
712.375	44934.36
712.719	44914.47
713.063	44820.91
713.407	45023.62
713.75	44683.29
714.094	44682.16
714.438	44390.87
714.782	44394.26
715.125	44304.77
715.469	44387.7
715.812	44207.37
716.156	44093.47
716.499	44156.07
716.843	44119.69
717.186	43698.91
717.53	43961.05
717.873	43887.6
718.216	43771.9
718.559	43628.4
718.902	43285.59
719.246	43502.3
719.589	43282.2
719.932	43161.52
720.275	43170.11
720.617	43179.15
720.96	43072.48
721.303	42962.2
721.646	42994.52
721.989	42764.92
722.331	42898.48
722.674	42683.57
723.016	42745.49
723.359	42553.17
723.701	42537.36
724.044	42228.21
724.386	42109.12
724.729	42251.49
725.071	42027.09
725.413	42151.83
725.755	42213.3
726.097	41892.63
726.439	41674.33
726.782	41845.4
727.124	41930.14
727.465	41810.6
727.807	41710.94
728.149	41630.49
728.491	41594.33
728.833	41609.24
729.175	41544.39
729.516	41471.62
729.858	41320.89
730.199	41411.28
730.541	41324.51
730.882	41225.07
731.224	41269.14
731.565	41144.4
731.906	41161.57
732.248	40931.07
732.589	40804.75
732.93	40751.64
733.271	40770.17
733.612	40795.03
733.953	40786.89
734.294	40686.78
734.635	40665.54
734.976	40577.18
735.317	40369.73
735.658	40280.92
735.999	40286.12
736.339	40314.36
736.68	40416.28
737.021	40133.35
737.361	40064.43
737.702	40161.37
738.042	40084.99
738.383	40002.06
738.723	39936.75
739.063	39800.7
739.404	39968.38
739.744	39586.7
740.084	39547.6
740.424	39600.71
740.764	39519.36
741.104	39501.5
741.444	39405.91
741.784	39256.54
742.124	39412.92
742.464	39277.1
742.804	39169.31
743.143	39102.19
743.483	39066.94
743.823	38833.95
744.162	38955.98
744.502	38962.99
744.841	38721.64
745.181	38968.41
745.52	38596.44
745.86	38762.77
746.199	38567.52
746.538	38551.7
746.877	38631.02
747.216	38541.53
747.556	38327.07
747.895	38469.67
748.234	38078.94
748.573	38101.99
748.911	38185.15
749.25	38014.54
749.589	38086.17
749.928	38011.6
750.267	37951.49
750.605	37664.72
750.944	37796.46
751.283	37591.72
751.621	37614.55
751.96	37451.16
752.298	37383.14
752.636	37389.02
752.975	37206.2
753.313	37119.87
753.651	37185.41
753.989	37075.13
754.327	36990.84
754.666	36754.46
755.004	36780.9
755.342	36898.41
755.679	36671.3
756.017	36629.94
756.355	36676.27
756.693	36396.95
757.031	36354.24
757.368	36227.69
757.706	36101.37
758.044	35963.97
758.381	36058.2
758.719	35848.04
759.056	35920.81
759.394	35685.78
759.731	35575.73
760.068	35608.05
760.405	35456.19
760.743	35375.51
761.08	35404.89
761.417	35191.33
761.754	35182.97
762.091	35036.54
762.428	34868.18
762.765	34736.88
763.102	34758.8
763.438	34674.74
763.775	34447.63
764.112	34492.14
764.449	34404.01
764.785	34180.51
765.122	34149.1
765.458	33994.76
765.795	33923.12
766.131	33792.73
766.467	33815.33
766.804	33524.03
767.14	33296.47
767.476	33512.28
767.812	33255.57
768.148	33313.87
768.485	33016.25
768.821	32819.42
769.157	32625.98
769.492	32686.99
769.828	32743.94
770.164	32521.12
770.5	32335.59
770.836	32283.39
771.171	32214.69
771.507	32098.08
771.842	31788.03
772.178	31766.79
772.513	31772.22
772.849	31590.75
773.184	31418.1
773.519	31518.44
773.855	31393.92
774.19	31142.18
774.525	31103.76
774.86	31098.56
775.195	30845.69
775.53	30671.45
775.865	30574.28
776.2	30308.3
776.535	30287.06
776.87	30136.78
777.205	30010.91
777.539	30054.75
777.874	30069.89
778.209	29885.71
778.543	29724.81
778.878	29641.88
779.212	29501.09
779.547	29350.13
779.881	29367.76
780.215	29251.38
780.55	29164.15
780.884	29134.77
781.218	29008.22
781.552	28991.5
781.886	28826.53
782.22	28549.93
782.554	28632.41
782.888	28363.72
783.222	28228.35
783.556	28082.37
783.889	28005.76
784.223	27807.12
784.557	27765.09
784.89	27847.8
785.224	27710.4
785.557	27496.62
785.891	27463.18
786.224	27383.18
786.558	27339.79
786.891	27095.28
787.224	26996.07
787.557	26801.27
787.891	26940.03
788.224	26815.74
788.557	26839.01
788.89	26554.27
789.223	26610.77
789.556	26424.56
789.888	26402.64
790.221	26174.62
790.554	26057.34
790.887	26130.78
791.219	25941.41
791.552	25933.72
791.884	25863.22
792.217	25668.2
792.549	25606.95
792.882	25459.16
793.214	25305.49
793.546	25412.16
793.879	25286.51
794.211	25045.61
794.543	25198.6
794.875	25053.97
795.207	25036.35
795.539	24904.15
795.871	24858.72
796.203	24773.76
796.535	24580.31
796.867	24563.37
797.198	24523.82
797.53	24459.41
797.862	24289.25
798.193	24362.01
798.525	24336.03
798.856	24280.66
799.188	23908.02
799.519	23945.3
799.85	23617.4
800.182	23722.71
800.513	23760.9
800.844	23514.81
801.175	23558.65
801.506	23580.79
801.837	23454.02
802.168	23334.25
802.499	23259.67
802.83	23101.48
803.161	23077.75
803.491	23011.32
803.822	22998.43
804.153	22922.05
804.483	22758.67
804.814	22652.23
805.145	22757.09
805.475	22657.43
805.805	22468.05
806.136	22590.99
806.466	22508.05
806.796	22389.64
807.126	22333.14
807.457	22208.17
807.787	22196.42
808.117	22039.59
808.447	21988.97
808.777	22096.76
809.107	21936.77
809.436	21906.49
809.766	21761.86
810.096	21678.47
810.426	21624.91
810.755	21713.5
811.085	21602.54
811.414	21571.58
811.744	21421.3
812.073	21304.24
812.403	21395.99
812.732	21236
813.061	21264.24
813.39	21037.81
813.719	21060.41
814.049	21197.8
814.378	21058.15
814.707	20995.32
815.036	20887.76
815.365	20741.32
815.693	20683.24
816.022	20655.9
816.351	20605.73
816.68	20487.77
817.008	20549.01
817.337	20379.75
817.665	20340.2
817.994	20320.77
818.322	20329.8
818.651	20296.81
818.979	20184.5
819.307	20299.52
819.636	20187.21
819.964	20089.81
820.292	20134.78
820.62	20063.82
820.948	20047.1
821.276	20092.52
821.604	20051.85
821.932	20120.54
822.259	20143.59
822.587	20058.63
822.915	19945.86
823.243	20017.95
823.57	19953.32
823.898	20026.31
824.225	19864.96
824.553	19885.97
824.88	19938.18
825.207	19981.79
825.535	19941.79
825.862	20012.52
826.189	19857.27
826.516	19910.83
826.843	19972.98
827.17	19953.54
827.497	19998.29
827.824	19972.3
828.151	20001
828.478	19928.23
828.805	19970.72
829.131	19871.29
829.458	19870.16
829.785	19768.92
830.111	19832.42
830.438	19951.96
830.764	19863.38
831.09	19932.07
831.417	19722.14
831.743	19869.25
832.069	19821.8
832.395	19670.16
832.722	19669.71
833.048	19624.06
833.374	19713.55
833.7	19579.32
834.026	19643.04
834.351	19665.42
834.677	19572.08
835.003	19694.57
835.329	19539.77
835.654	19537.06
835.98	19372.77
836.306	19421.81
836.631	19427.91
836.956	19502.03
837.282	19371.64
837.607	19323.73
837.932	19363.5
838.258	19266.56
838.583	19317.18
838.908	19254.58
839.233	19301.58
839.558	19219.33
839.883	19151.3
840.208	19066.33
840.533	19035.38
840.858	19053.45
841.182	19096.84
841.507	19055.49
841.832	18816.17
842.156	18876.74
842.481	18847.81
842.805	18764.87
843.13	18830.63
843.454	18806.68
843.778	18647.36
844.103	18593.8
844.427	18550.87
844.751	18544.31
845.075	18566.91
845.399	18500.02
845.723	18356.3
846.047	18360.14
846.371	18255.51
846.695	18197.66
847.019	18103.2
847.343	17958.12
847.666	17885.57
847.99	17825.69
848.313	17728.52
848.637	17679.25
848.96	17644.68
849.284	17642.87
849.607	17500.27
849.931	17392.71
850.254	17336.89
850.577	17293.05
850.9	17187.74
851.223	17104.58
851.546	17110.45
851.869	16997.91
852.192	16966.96
852.515	16713.85
852.838	16748.88
853.161	16789.78
853.483	16695.55
853.806	16548.21
854.129	16524.93
854.451	16593.41
854.774	16378.04
855.096	16486.29
855.419	16325.84
855.741	16277.71
856.063	16167.43
856.385	16168.78
856.708	16042.01
857.03	15961.78
857.352	16048.79
857.674	15965.4
857.996	15893.08
858.318	15858.51
858.64	15919.98
858.961	15736.93
859.283	15705.52
859.605	15656.71
859.926	15721.11
860.248	15596.82
860.57	15494
860.891	15519.08
861.212	15459.88
861.534	15430.5
861.855	15379.65
862.176	15349.37
862.498	15393.44
862.819	15345.53
863.14	15250.39
863.461	15293.78
863.782	15212.88
864.103	15132.65
864.424	15186.66
864.745	15230.5
865.065	15090.62
865.386	14996.16
865.707	14942.15
866.027	14998.19
866.348	15025.76
866.668	15023.05
866.989	14985.31
867.309	14900.57
867.63	14859.67
867.95	14932.43
868.27	14758.88
868.59	14722.49
868.91	14809.27
869.23	14745.54
869.55	14681.59
869.87	14681.37
870.19	14694.25
870.51	14782.61
870.83	14661.93
871.15	14606.34
871.469	14651.31
871.789	14659.45
872.109	14554.59
872.428	14481.14
872.748	14516.62
873.067	14551.2
873.386	14481.14
873.706	14401.37
874.025	14286.8
874.344	14416.74
874.663	14308.04
874.982	14324.09
875.301	14362.73
875.62	14266.91
875.939	14247.48
876.258	14237.08
876.577	14156.18
876.896	14169.97
877.214	14133.58
877.533	14148.05
877.852	14174.03
878.17	14167.48
878.489	14065.79
878.807	14174.26
879.125	14089.29
879.444	14000.25
879.762	13906.92
880.08	13870.54
880.398	13826.92
880.716	13836.87
881.034	13814.27
881.352	13894.49
881.67	13738.57
881.988	13752.12
882.306	13750.32
882.624	13701.28
882.941	13662.64
883.259	13552.13
883.577	13622.18
883.894	13651.34
884.212	13560.26
884.529	13509.64
884.846	13361.85
885.164	13374.06
885.481	13341.97
885.798	13428.52
886.115	13285.02
886.432	13354.17
886.75	13354.39
887.067	13302.19
887.383	13134.29
887.7	13219.03
888.017	13202.08
888.334	13121.63
888.651	13163.67
888.967	13071.46
889.284	13045.48
889.6	13016.78
889.917	12869.66
890.233	12900.17
890.55	12867.4
890.866	12790.12
891.182	12757.57
891.498	12735.88
891.815	12678.25
892.131	12560.07
892.447	12649.1
892.763	12584.7
893.079	12546.96
893.395	12476.9
893.71	12490.91
894.026	12405.49
894.342	12509.22
894.657	12337.02
894.973	12375.89
895.289	12356.23
895.604	12236.68
895.92	12217.02
896.235	12210.47
896.55	12135.22
896.865	12165.27
897.181	12082.56
897.496	12037.37
897.811	12009.57
898.126	11932.06
898.441	11895.68
898.756	11911.27
899.071	11765.06
899.386	11834.21
899.7	11718.51
900.015	11588.34
900.33	11568
900.644	11544.72
900.959	11674.66
901.273	11489.58
901.588	11515.8
901.902	11402.81
902.216	11382.92
902.531	11292.3
902.845	11222.47
903.159	11208.01
903.473	11099.09
903.787	11167.33
904.101	11124.62
904.415	11094.12
904.729	11026.32
905.042	10981.35
905.356	10923.27
905.67	10902.48
905.984	10912.42
906.297	10833.56
906.611	10705.88
906.924	10742.26
907.237	10766.21
907.551	10671.08
907.864	10684.41
908.177	10636.27
908.491	10573.22
908.804	10482.61
909.117	10507.69
909.43	10338.88
909.743	10366.22
910.056	10302.95
910.368	10277.41
910.681	10237.87
910.994	10196.96
911.307	10206.68
911.619	10110.41
911.932	10124.88
912.244	10033.58
912.557	10004.2
912.869	10047.81
913.181	9987.25
913.494	9939.12
913.806	9853.47
914.118	9839.23
914.43	9726.69
914.742	9780.93
915.054	9669.52
915.366	9669.52
915.678	9584.1
915.99	9523.53
916.302	9490.99
916.613	9410.09
916.925	9396.76
917.236	9375.52
917.548	9405.8
917.859	9349.53
918.171	9243.32
918.482	9216.88
918.794	9254.62
919.105	9212.36
919.416	9092.13
919.727	9074.73
920.038	9025.92
920.349	8945.7
920.66	8983.21
920.971	8948.63
921.282	8903.66
921.593	8826.6
921.903	8772.82
922.214	8796.77
922.525	8744.8
922.835	8718.36
923.146	8641.98
923.456	8643.78
923.767	8604.69
924.077	8567.18
924.387	8544.13
924.697	8437.01
925.008	8447.41
925.318	8449.44
925.628	8385.71
925.938	8390.91
926.248	8271.82
926.558	8303.45
926.867	8256.68
927.177	8204.47
927.487	8195.21
927.796	8083.35
928.106	8023.24
928.416	8024.37
928.725	8011.48
929.034	7944.82
929.344	7938.72
929.653	7910.02
929.962	7881.54
930.271	7821.88
930.581	7849.45
930.89	7763.13
931.199	7713.41
931.508	7750.7
931.817	7709.12
932.125	7610.36
932.434	7623.02
932.743	7514.77
933.051	7529.69
933.36	7531.95
933.669	7363.37
933.977	7396.36
934.286	7388.9
934.594	7372.18
934.902	7342.12
935.21	7254.44
935.519	7276.59
935.827	7273.2
936.135	7213.99
936.443	7194.56
936.751	7100.77
937.059	7161.11
937.367	7041.57
937.674	7071.85
937.982	6986.88
938.29	6971.29
938.597	6965.86
938.905	6880.67
939.213	6857.39
939.52	6891.97
939.827	6798.18
940.135	6750.73
940.442	6732.42
940.749	6707.11
941.056	6693.33
941.363	6587.57
941.67	6641.58
941.977	6592.99
942.284	6581.69
942.591	6563.61
942.898	6475.93
943.205	6520.68
943.511	6467.8
943.818	6448.59
944.125	6396.39
944.431	6391.64
944.738	6338.08
945.044	6339.44
945.35	6301.02
945.657	6214.02
945.963	6233.45
946.269	6212.89
946.575	6137.41
946.881	6125.88
947.187	6135.83
947.493	6073.23
947.799	6075.26
948.105	6018.54
948.41	5979.45
948.716	5986.68
949.022	5949.62
949.327	5948.04
949.633	5841.15
949.938	5832.11
950.244	5810.86
950.549	5834.59
950.854	5755.72
951.16	5756.85
951.465	5734.71
951.77	5739
952.075	5643.86
952.38	5668.27
952.685	5661.49
952.99	5622.85
953.294	5614.94
953.599	5537.88
953.904	5571.55
954.209	5500.82
954.513	5524.77
954.818	5534.04
955.122	5493.36
955.426	5404.1
955.731	5398.45
956.035	5366.81
956.339	5380.14
956.643	5356.19
956.948	5341.05
957.252	5302.63
957.556	5290.2
957.86	5228.51
958.163	5181.28
958.467	5199.81
958.771	5184.89
959.075	5134.27
959.378	5131.33
959.682	5107.83
959.985	5089.08
960.289	5068.96
960.592	5049.53
960.896	5000.26
961.199	4968.85
961.502	4959.36
961.805	4956.88
962.108	4931.79
962.411	4910.1
962.714	4872.58
963.017	4864
963.32	4815.86
963.623	4787.61
963.926	4810.89
964.228	4735.64
964.531	4793.49
964.833	4771.57
965.136	4707.16
965.438	4663.55
965.741	4662.42
966.043	4600.27
966.345	4649.99
966.648	4610.44
966.95	4600.05
967.252	4628.97
967.554	4556.43
967.856	4562.31
968.158	4493.61
968.46	4480.73
968.761	4472.14
969.063	4436.89
969.365	4382.88
969.666	4397.12
969.968	4372.48
970.269	4312.6
970.571	4346.27
970.872	4322.77
971.174	4318.93
971.475	4270.11
971.776	4315.31
972.077	4245.93
972.378	4191.25
972.679	4236.44
972.98	4191.47
973.281	4151.25
973.582	4174.52
973.883	4141.08
974.183	4095.43
974.484	4105.37
974.785	4109.89
975.085	4094.53
975.386	4094.07
975.686	4058.82
975.986	4005.04
976.287	3977.24
976.587	3974.75
976.887	3945.38
977.187	3899.28
977.487	3893.63
977.787	3883.68
978.087	3874.42
978.387	3875.32
978.687	3862.67
978.987	3845.04
979.286	3812.95
979.586	3751.48
979.885	3766.4
980.185	3767.08
980.484	3755.1
980.784	3712.61
981.083	3722.78
981.382	3723.69
981.682	3686.63
981.981	3654.99
982.28	3623.8
982.579	3565.5
982.878	3610.02
983.177	3566.86
983.475	3587.65
983.774	3593.3
984.073	3557.14
984.372	3526.4
984.67	3508.1
984.969	3516.01
985.267	3495.22
985.566	3469.68
985.864	3433.07
986.162	3418.61
986.461	3397.82
986.759	3382.23
987.057	3410.48
987.355	3347.2
987.653	3344.49
987.951	3344.26
988.249	3351.04
988.547	3329.57
988.844	3321.44
989.142	3314.66
989.44	3243.93
989.737	3258.61
990.035	3239.18
990.332	3221.55
990.63	3168.9
990.927	3163.02
991.224	3156.7
991.521	3141.1
991.819	3124.83
992.116	3138.84
992.413	3110.6
992.71	3114.21
993.006	3113.08
993.303	3033.31
993.6	3066.98
993.897	3016.81
994.193	3034.21
994.49	3019.3
994.787	2979.53
995.083	2928.23
995.379	2933.88
995.676	2946.98
995.972	2907.66
996.268	2890.26
996.565	2882.58
996.861	2851.17
997.157	2836.25
997.453	2831.28
997.749	2806.88
998.044	2796.03
998.34	2827.21
998.636	2806.88
998.932	2763.94
999.227	2724.17
999.523	2769.14
999.818	2731.17
1000.114	2714.22
1000.409	2686.88
1000.704	2670.16
1001	2665.86
1001.295	2652.3
1001.59	2631.51
1001.885	2650.72
1002.18	2620.44
1002.475	2585.41
1002.77	2569.14
1003.065	2601.23
1003.359	2571.18
1003.654	2537.05
1003.949	2539.76
1004.243	2559.42
1004.538	2496.15
1004.832	2466.77
1005.127	2424.29
1005.421	2469.94
1005.715	2443.72
1006.009	2461.12
1006.304	2412.76
1006.598	2397.62
1006.892	2394
1007.186	2352.42
1007.48	2357.85
1007.773	2318.3
1008.067	2335.93
1008.361	2278.53
1008.655	2297.96
1008.948	2291.41
1009.242	2260
1009.535	2274.46
1009.829	2263.61
1010.122	2239.43
1010.415	2201.92
1010.708	2203.28
1011.001	2198.98
1011.295	2175.93
1011.588	2177.51
1011.881	2175.71
1012.173	2132.32
1012.466	2134.8
1012.759	2104.97
1013.052	2100.23
1013.344	2104.07
1013.637	2099.55
1013.93	2071.75
1014.222	2062.49
1014.514	2055.26
1014.807	2036.27
1015.099	2026.1
1015.391	2032.66
1015.683	2014.81
1015.976	1973.68
1016.268	1990.63
1016.56	1942.72
1016.851	1935.49
1017.143	1955.37
1017.435	1928.25
1017.727	1900.68
1018.018	1897.29
1018.31	1896.62
1018.602	1907.01
1018.893	1850.97
1019.185	1851.87
1019.476	1833.12
1019.767	1833.57
1020.058	1827.24
1020.35	1778.88
1020.641	1762.16
1020.932	1778.43
1021.223	1767.81
1021.514	1733.91
1021.804	1722.38
1022.095	1728.03
1022.386	1689.39
1022.677	1683.06
1022.967	1684.19
1023.258	1665.21
1023.548	1668.15
1023.839	1644.19
1024.129	1636.96
1024.419	1621.82
1024.709	1601.26
1025	1578.66
1025.29	1586.57
1025.58	1569.17
1025.87	1567.59
1026.16	1570.3
1026.449	1542.73
1026.739	1533.46
1027.029	1506.8
1027.319	1528.04
1027.608	1476.29
1027.898	1483.07
1028.187	1492.33
1028.477	1474.71
1028.766	1481.26
1029.055	1437.19
1029.344	1440.81
1029.634	1422.96
1029.923	1430.41
1030.212	1386.8
1030.501	1427.02
1030.79	1392.22
1031.078	1365.78
1031.367	1351.32
1031.656	1384.77
1031.945	1357.65
1032.233	1361.94
1032.522	1334.6
1032.81	1342.06
1033.099	1314.49
1033.387	1305.9
1033.675	1304.54
1033.963	1278.33
1034.251	1270.19
1034.54	1263.64
1034.828	1256.18
1035.116	1247.82
1035.403	1255.96
1035.691	1234.26
1035.979	1258.22
1036.267	1257.76
1036.554	1213.24
1036.842	1199.91
1037.129	1201.95
1037.417	1170.76
1037.704	1172.57
1037.992	1178.44
1038.279	1150.65
1038.566	1152.68
1038.853	1152.68
1039.14	1152.68
