Data from white_steel_sheet_FLMS001491_010.txt Node
Date: Tue Feb 07 10:57:19 GMT 2017
User: dcchb
Spectrometer: FLMS00149
Trigger mode: 0
Integration Time (sec): 2.000000E-2
Scans to average: 10
Electric dark correction enabled: true
Nonlinearity correction enabled: false
Boxcar width: 0
XAxis mode: Wavelengths
Number of Pixels in Spectrum: 2048
>>>>>Begin Spectral Data<<<<<
341.393	-8.38
341.776	-8.38
342.16	-8.38
342.543	-42.72
342.927	-72.1
343.31	-55.15
343.693	-49.28
344.077	-72.78
344.46	-70.97
344.843	-70.07
345.226	-39.56
345.61	-23.06
345.993	-4.53
346.376	4.05
346.759	8.8
347.142	19.42
347.525	20.78
347.908	20.55
348.291	88.12
348.674	98.97
349.057	124.73
349.44	135.12
349.823	126.99
350.206	173.77
350.588	190.04
350.971	197.72
351.354	208.57
351.737	238.17
352.119	242.24
352.502	263.03
352.884	275.46
353.267	272.75
353.65	277.94
354.032	303.93
354.414	335.57
354.797	296.48
355.179	331.28
355.562	339.64
355.944	324.72
356.326	333.31
356.709	349.58
357.091	348.68
357.473	368.34
357.855	363.14
358.238	346.42
358.62	350.26
359.002	366.08
359.384	345.74
359.766	356.81
360.148	339.86
360.53	346.64
360.912	329.02
361.294	365.17
361.676	325.4
362.057	332.86
362.439	348.68
362.821	343.25
363.203	348.23
363.584	346.64
363.966	344.16
364.348	330.82
364.729	329.02
365.111	331.05
365.493	354.55
365.874	343.03
366.256	352.74
366.637	345.97
367.019	345.51
367.4	320.88
367.781	332.63
368.163	318.62
368.544	322.46
368.925	338.28
369.306	329.02
369.688	330.6
370.069	328.79
370.45	320.88
370.831	345.74
371.212	317.27
371.593	328.79
371.974	341.22
372.355	331.95
372.736	335.8
373.117	351.39
373.498	356.81
373.879	332.63
374.26	330.15
374.641	340.09
375.021	332.86
375.402	325.4
375.783	352.52
376.163	346.19
376.544	341.22
376.925	356.13
377.305	321.33
377.686	352.29
378.066	341.45
378.447	360.43
378.827	351.84
379.208	367.89
379.588	346.64
379.968	374.21
380.349	364.95
380.729	366.98
381.109	362.01
381.489	366.98
381.87	368.56
382.25	362.24
382.63	374.44
383.01	370.37
383.39	367.43
383.77	354.33
384.15	403.59
384.53	387.77
384.91	360.88
385.29	391.61
385.67	391.61
386.049	385.06
386.429	391.84
386.809	399.52
387.189	402.91
387.568	386.87
387.948	411.27
388.328	381.44
388.707	392.74
389.087	391.61
389.466	418.28
389.846	426.19
390.225	431.16
390.605	420.31
390.984	417.6
391.363	435
391.743	455.12
392.122	449.69
392.501	443.36
392.881	432.29
393.26	479.07
393.639	447.88
394.018	444.27
394.397	457.83
394.776	461.89
395.155	473.65
395.534	476.81
395.913	494.66
396.292	490.59
396.671	490.82
397.05	494.21
397.429	521.55
397.808	533.76
398.186	518.62
398.565	518.39
398.944	533.76
399.323	540.76
399.701	536.47
400.08	537.15
400.458	557.03
400.837	582.57
401.215	569.01
401.594	580.54
401.972	603.59
402.351	586.19
402.729	611.72
403.107	601.33
403.486	595
403.864	627.54
404.242	637.71
404.62	648.56
404.999	657.37
405.377	664.6
405.755	645.39
406.133	679.52
406.511	714.77
406.889	696.24
407.267	704.83
407.645	711.15
408.023	708.44
408.401	758.38
408.779	752.28
409.156	776.69
409.534	771.04
409.912	783.02
410.29	817.14
410.667	812.39
411.045	821.89
411.422	820.53
411.8	823.92
412.178	852.62
412.555	863.69
412.933	886.29
413.31	908.66
413.687	920.19
414.065	943.92
414.442	941.66
414.819	946.63
415.197	916.57
415.574	982.78
415.951	986.85
416.328	982.78
416.705	1011.48
417.082	982.33
417.46	1016.23
417.837	1052.84
418.214	1051.48
418.591	1040.41
418.967	1057.13
419.344	1054.2
419.721	1085.16
420.098	1099.17
420.475	1094.87
420.852	1098.71
421.228	1111.14
421.605	1131.03
421.982	1150.01
422.358	1160.18
422.735	1184.81
423.111	1160.18
423.488	1188.66
423.864	1218.26
424.241	1223.68
424.617	1203.12
424.994	1237.02
425.37	1251.25
425.746	1265.26
426.123	1274.53
426.499	1299.16
426.875	1313.85
427.251	1315.66
427.627	1375.54
428.003	1330.8
428.379	1362.89
428.756	1381.87
429.132	1366.5
429.507	1442.21
429.883	1465.03
430.259	1490.57
430.635	1512.26
431.011	1510.23
431.387	1538.48
431.763	1567.18
432.138	1567.63
432.514	1614.41
432.89	1598.81
433.265	1647.85
433.641	1644.91
434.016	1662.77
434.392	1711.81
434.767	1710
435.143	1766.27
435.518	1766.04
435.894	1779.6
436.269	1802.42
436.644	1818.7
437.02	1864.57
437.395	1853.27
437.77	1874.74
438.145	1905.7
438.52	1920.39
438.895	1944.57
439.271	1928.3
439.646	2006.94
440.021	2018.01
440.395	1997.9
440.77	2026.37
441.145	2032.25
441.52	2045.58
441.895	2101.17
442.27	2087.61
442.645	2118.35
443.019	2085.58
443.394	2144.79
443.769	2142.53
444.143	2139.82
444.518	2220.72
444.892	2185.24
445.267	2211.23
445.641	2223.66
446.016	2257.78
446.39	2264.11
446.764	2295.07
447.139	2262.07
447.513	2307.5
447.887	2365.57
448.262	2378.68
448.636	2349.08
449.01	2370.77
449.384	2402.63
449.758	2457.32
450.132	2483.54
450.506	2483.99
450.88	2482.86
451.254	2477.66
451.628	2521.5
452.002	2584.78
452.376	2616.64
452.75	2610.31
453.123	2634.94
453.497	2688.95
453.871	2713.13
454.244	2760.59
454.618	2784.77
454.992	2785.68
455.365	2791.32
455.739	2868.39
456.112	2882.85
456.486	2942.06
456.859	2987.25
457.232	3036.74
457.606	3022.05
457.979	3061.6
458.352	3144.76
458.725	3125.55
459.099	3205.33
459.472	3226.34
459.845	3288.71
460.218	3312.89
460.591	3317.41
460.964	3330.52
461.337	3417.52
461.71	3450.06
462.083	3499.1
462.456	3513.34
462.829	3490.29
463.201	3591.3
463.574	3641.25
463.947	3662.49
464.32	3744.29
464.692	3777.06
465.065	3797.63
465.438	3878.3
465.81	3929.15
466.183	3955.59
466.555	4093.66
466.928	4031.29
467.3	4070.16
467.672	4124.62
468.045	4204.4
468.417	4203.94
468.789	4300.89
469.161	4322.58
469.534	4401.68
469.906	4507.89
470.278	4499.08
470.65	4557.38
471.022	4669.47
471.394	4748.11
471.766	4827.66
472.138	4870.59
472.51	5005.5
472.882	5004.6
473.253	5027.42
473.625	5127.53
473.997	5238.72
474.369	5260.86
474.74	5329.56
475.112	5445.49
475.484	5572.27
475.855	5656.79
476.227	5647.52
476.598	5812.04
476.97	5860.85
477.341	5939.26
477.713	6108.75
478.084	6129.32
478.455	6287.73
478.827	6360.5
479.198	6522.3
479.569	6551.45
479.94	6714.61
480.311	6736.76
480.682	6935.4
481.053	7099.46
481.424	7169.74
481.795	7257.42
482.166	7383.97
482.537	7489.51
482.908	7612.67
483.279	7747.58
483.65	7845.43
484.021	8030.74
484.391	8117.96
484.762	8183.73
485.133	8211.75
485.503	8368.58
485.874	8573.77
486.244	8631.4
486.615	8850.15
486.985	9007.88
487.356	9076.81
487.726	9185.73
488.097	9321.77
488.467	9341.21
488.837	9596.12
489.207	9649.45
489.578	9843.12
489.948	9940.52
490.318	10109.1
490.688	10085.6
491.058	10328.98
491.428	10435.42
491.798	10537.11
492.168	10693.72
492.538	10782.53
492.908	10903.2
493.278	11050.54
493.648	11044.67
494.017	11232.91
494.387	11306.36
494.757	11443.3
495.126	11600.13
495.496	11611.43
495.866	11667.93
496.235	11830.18
496.605	11972.33
496.974	12062.72
497.344	12137.75
497.713	12164.19
498.082	12361.92
498.452	12414.35
498.821	12556.49
499.19	12624.74
499.559	12759.65
499.928	12804.39
500.298	12959.87
500.667	13003.71
501.036	13034.45
501.405	13169.36
501.774	13231.5
502.143	13319.86
502.512	13325.06
502.88	13561.89
503.249	13464.49
503.618	13703.81
503.987	13786.97
504.356	13820.41
504.724	13989.22
505.093	14043.91
505.462	14107.19
505.83	14257.69
506.199	14412.04
506.567	14516.89
506.936	14533.62
507.304	14696.55
507.672	14812.93
508.041	14842.53
508.409	15030.1
508.777	15075.52
509.145	15240.04
509.514	15278.23
509.882	15399.58
510.25	15408.39
510.618	15704.88
510.986	15637.31
511.354	15843.86
511.722	15966.8
512.09	16097.87
512.458	16166.34
512.826	16242.72
513.193	16398.65
513.561	16442.49
513.929	16670.06
514.297	16790.05
514.664	16886.77
515.032	17025.07
515.4	17177.84
515.767	17258.97
516.135	17363.6
516.502	17235.01
516.869	17712.74
517.237	17685.4
517.604	17799.52
517.972	17968.55
518.339	18110.7
518.706	18170.58
519.073	18246.51
519.44	18462.33
519.808	18548.2
520.175	18691.25
520.542	18934.63
520.909	19029.54
521.276	19072.48
521.643	19207.39
522.009	19343.66
522.376	19528.29
522.743	19580.26
523.11	19806.92
523.477	20089.63
523.843	20286.46
524.21	20410.07
524.577	20621.82
524.943	20605.32
525.31	20773.9
525.676	20920.34
526.043	21191.52
526.409	21201.01
526.776	21541.34
527.142	21558.06
527.508	21704.5
527.874	21852.52
528.241	22080.54
528.607	22096.81
528.973	22254.09
529.339	22316.24
529.705	22566.62
530.071	22645.94
530.437	22829.22
530.803	23050.45
531.169	23134.97
531.535	23013.39
531.901	23315.98
532.267	23458.35
532.632	23503.55
532.998	23587.16
533.364	23830.09
533.73	23842.07
534.095	24103.53
534.461	24192.57
534.826	24118.45
535.192	24333.58
535.557	24588.94
535.923	24526.8
536.288	24687.92
536.653	24806.34
537.019	24819.67
537.384	24884.76
537.749	25084.52
538.114	25101.92
538.479	25151.64
538.845	25418.07
539.21	25324.74
539.575	25435.25
539.94	25447.9
540.305	25678.41
540.67	25675.24
541.034	25775.81
541.399	25858.74
541.764	26033.88
542.129	26172.86
542.494	26152.74
542.858	26209.92
543.223	26427.99
543.587	26578.5
543.952	26557.03
544.316	26621.88
544.681	26744.82
545.045	26770.13
545.41	26962.44
545.774	26972.84
546.138	27038.82
546.503	27125.15
546.867	27210.34
547.231	27368.98
547.595	27481.75
547.959	27604.46
548.324	27632.71
548.688	27787.5
549.052	27820.27
549.416	27842.19
549.779	27846.94
550.143	28041.73
550.507	28199.47
550.871	28293.93
551.235	28344.1
551.599	28586.13
551.962	28482.63
552.326	28657.99
552.689	28868.61
553.053	28851.2
553.417	28904.54
553.78	29226.34
554.143	29154.47
554.507	29274.02
554.87	29395.37
555.234	29744.74
555.597	29457.52
555.96	29551.07
556.323	29857.73
556.686	29879.88
557.05	30016.37
557.413	30226.99
557.776	30254.11
558.139	30492.52
558.502	30545.62
558.865	30541.33
559.228	30812.06
559.59	31008.44
559.953	30988.55
560.316	31333.85
560.679	31163.23
561.041	31464.02
561.404	31600.06
561.767	31838.7
562.129	31699.27
562.492	32112.14
562.854	32153.49
563.217	31988.52
563.579	32210.89
563.941	32381.96
564.304	32672.8
564.666	32791.44
565.028	32828.05
565.39	32974.71
565.753	33175.84
566.115	33284.53
566.477	33489.5
566.839	33434.14
567.201	33750.28
567.563	33831.19
567.925	33966.55
568.287	33825.54
568.648	34031.63
569.01	34159.77
569.372	34332.87
569.734	34323.6
570.095	34554.11
570.457	34769.02
570.819	34819.41
571.18	34874.78
571.542	35021.89
571.903	34972.17
572.265	35199.29
572.626	35293.07
572.987	35320.87
573.349	35555.89
573.71	35605.38
574.071	35750.68
574.432	35741.19
574.794	35986.38
575.155	35859.83
575.516	35902.09
575.877	35946.84
576.238	36057.79
576.599	36166.72
576.96	36060.96
577.32	36163.55
577.681	36399.71
578.042	36495.3
578.403	36462.98
578.763	36515.86
579.124	36568.97
579.485	36746.14
579.845	36670.43
580.206	36630.21
580.566	36599.02
580.927	36602.87
581.287	36903.2
581.648	36819.13
582.008	36873.82
582.368	36884.67
582.728	36975.96
583.089	36849.19
583.449	36906.36
583.809	37032.68
584.169	37033.81
584.529	36930.99
584.889	37142.51
585.249	36842.18
585.609	36727.61
585.969	36969.18
586.329	37025.45
586.688	37077.2
587.048	36994.04
587.408	36907.49
587.768	36917.21
588.127	36973.93
588.487	36902.07
588.846	37175.96
589.206	36918.56
589.565	36909.98
589.925	37142.51
590.284	36976.41
590.643	36979.58
591.003	37128.95
591.362	37197.88
591.721	37175.05
592.08	37109.52
592.44	37183.19
592.799	37172.57
593.158	37119.69
593.517	37119.69
593.876	37324.2
594.235	37184.09
594.593	37068.39
594.952	37168.95
595.311	36986.36
595.67	37180.7
596.029	37225.22
596.387	37296.41
596.746	37371.21
597.104	37242.4
597.463	37285.79
597.822	37369.17
598.18	37057.77
598.538	37301.83
598.897	37506.12
599.255	37102.97
599.613	37815.94
599.972	37401.71
600.33	37422.28
600.688	37429.96
601.046	37533.91
601.404	37592.22
601.762	37462.96
602.12	37547.47
602.478	37552.9
602.836	37543.86
603.194	37460.24
603.552	37540.24
603.91	37438.55
604.268	37664.31
604.625	37462.05
604.983	37613.23
605.341	37436.29
605.698	37726
606.056	37584.08
606.413	37611.65
606.771	37848.71
607.128	37796.28
607.485	37743.17
607.843	37682.38
608.2	37841.7
608.557	38024.97
608.914	37892.77
609.272	38017.29
609.629	38167.8
609.986	38263.16
610.343	37950.4
610.7	38331.41
611.057	38168.7
611.414	38425.42
611.771	38216.16
612.127	38372.76
612.484	38329.6
612.841	38628.57
613.198	38347.9
613.554	38326.89
613.911	38519.2
614.267	38525.75
614.624	38474
614.98	38533.21
615.337	38822.24
615.693	38735.92
616.05	38594.23
616.406	38835.12
616.762	38775.92
617.118	38652.53
617.475	38646.43
617.831	38847.78
618.187	38737.27
618.543	38977.27
618.899	39181.55
619.255	38999.86
619.611	38878.74
619.967	39147.88
620.323	39093.42
620.678	39109.92
621.034	38961.9
621.39	39033.31
621.746	39073.08
622.101	39355.79
622.457	39175
622.812	39111.95
623.168	39370.02
623.523	39239.18
623.879	39424.26
624.234	39145.17
624.589	39213.42
624.945	39348.33
625.3	39247.32
625.655	39259.29
626.01	39281.21
626.365	39236.69
626.72	39243.7
627.075	39178.84
627.43	39083.48
627.785	39081.44
628.14	39196.02
628.495	39128.9
628.85	39145.17
629.205	38977.72
629.559	39156.02
629.914	39047.55
630.269	39152.85
630.623	39065.4
630.978	38987.44
631.332	39064.5
631.687	39098.39
632.041	38933.2
632.396	39051.84
632.75	38877.83
633.104	38834.9
633.459	38684.17
633.813	38720.78
634.167	38756.48
634.521	38748.35
634.875	38659.31
635.229	38618.86
635.583	38487.34
635.937	38553.32
636.291	38280.56
636.645	38410.95
636.999	38340.9
637.352	38457.05
637.706	38070.17
638.06	38255.7
638.413	38138.64
638.767	38083.28
639.121	38197.4
639.474	37953.11
639.828	37856.84
640.181	37899.33
640.534	37918.31
640.888	37811.87
641.241	37712.44
641.594	37575.04
641.947	37801.48
642.301	37592.9
642.654	37674.7
643.007	37477.87
643.36	37436.29
643.713	37478.32
644.066	37633.35
644.419	37379.12
644.771	37286.01
645.124	36871.33
645.477	36599.48
645.83	36367.84
646.182	36349.31
646.535	36288.98
646.888	36266.38
647.24	36214.17
647.593	36363.1
647.945	36295.98
648.298	36017.34
648.65	36010.79
649.002	35928.53
649.355	35986.84
649.707	35931.02
650.059	36037
650.411	36419.82
650.763	36553.83
651.115	36908.39
651.467	36738.91
651.819	36749.08
652.171	36695.07
652.523	36606.93
652.875	36619.36
653.227	36254.63
653.578	36778.23
653.93	36557.44
654.282	36362.19
654.633	36242.2
654.985	36335.98
655.337	36284.91
655.688	36301.4
656.039	36316.77
656.391	35956.55
656.742	36084.69
657.094	36080.39
657.445	36291.46
657.796	36138.92
658.147	36077
658.498	36150.22
658.849	36126.27
659.2	35981.64
659.551	35940.06
659.902	36105.48
660.253	35824.35
660.604	35927.85
660.955	35742.77
661.306	35846.95
661.656	35676.56
662.007	35822.09
662.358	35676.11
662.708	35738.03
663.059	35555.44
663.409	35414.42
663.76	35604.93
664.11	35735.54
664.461	35404.25
664.811	35414.42
665.161	35282.45
665.511	35259.4
665.862	35303.01
666.212	35276.8
666.562	35102.57
666.912	35080.87
667.262	34965.17
667.612	34910.03
667.962	34769.47
668.312	34905.96
668.662	34994.32
669.011	34613.54
669.361	34543.94
669.711	34428.01
670.06	34524.5
670.41	34189.6
670.76	34350.5
671.109	34240.22
671.459	34209.26
671.808	34173.55
672.157	34194.34
672.507	33895.14
672.856	33983.27
673.205	33803.84
673.554	33804.29
673.904	33802.94
674.253	33870.06
674.602	33684.07
674.951	33261.94
675.3	33048.83
675.649	33613.34
675.998	33431.65
676.346	33513.23
676.695	33529.27
677.044	33351.2
677.393	33427.58
677.741	33341.71
678.09	33254.03
678.438	33211.77
678.787	33300.13
679.135	33230.75
679.484	33105.56
679.832	33244.76
680.181	33043.41
680.529	33128.38
680.877	33029.4
681.225	33094.48
681.573	33201.6
681.922	33054.94
682.27	32978.78
682.618	33072.34
682.966	32957.99
683.314	33116.4
683.661	32997.99
684.009	32849.74
684.357	32863.98
684.705	32826.47
685.053	32847.03
685.4	32913.7
685.748	32718.9
686.095	32845.68
686.443	32704.89
686.79	32790.08
687.138	32928.16
687.485	32979.91
687.832	32820.37
688.18	32812.68
688.527	32750.76
688.874	32764.1
689.221	32774.04
689.568	32575.4
689.915	32664.66
690.262	32666.47
690.609	32695.62
690.956	32575.4
691.303	32585.8
691.65	32466.48
691.997	32550.09
692.344	32412.24
692.69	32380.38
693.037	32341.51
693.383	32103.32
693.73	32143.55
694.077	32172.02
694.423	32186.71
694.769	32115.3
695.116	32043.89
695.462	32035.98
695.808	31845.48
696.155	32049.54
696.501	31635.76
696.847	31803.44
697.193	31502.66
697.539	31665.37
697.885	31494.07
698.231	31417.69
698.577	31433.28
698.923	31364.13
699.269	31378.37
699.614	31198.94
699.96	31083.69
700.306	31155.78
700.651	31038.27
700.997	30924.37
701.342	30841.89
701.688	30697.26
702.033	30748.56
702.379	30578.16
702.724	30529.8
703.069	30756.69
703.415	30287.78
703.76	30432.63
704.105	30461.56
704.45	30303.14
704.795	30084.84
705.14	29899.31
705.485	30008.24
705.83	29873.32
706.175	29933.21
706.52	29714.91
706.865	29648.25
707.209	29655.7
707.554	29564.41
707.899	29637.62
708.243	29535.48
708.588	29474.01
708.932	29382.26
709.277	29253.45
709.621	29269.05
709.966	29099.33
710.31	29147.69
710.654	28958.55
710.998	28996.29
711.342	28904.76
711.687	28900.24
712.031	28726.24
712.375	28554.26
712.719	28659.8
713.063	28616.63
713.407	28708.16
713.75	28490.31
714.094	28576.18
714.438	28352.46
714.782	28401.72
715.125	28275.17
715.469	28321.95
715.812	28131.9
716.156	28039.25
716.499	28125.12
716.843	28151.34
717.186	27883.55
717.53	27962.41
717.873	28037.44
718.216	27881.06
718.559	27886.48
718.902	27594.29
719.246	27702.53
719.589	27642.65
719.932	27419.38
720.275	27571.46
720.617	27498.02
720.96	27419.83
721.303	27380.73
721.646	27402.2
721.989	27200.4
722.331	27293.51
722.674	27046.28
723.016	27121.98
723.359	27119.05
723.701	27148.42
724.044	26980.52
724.386	26830.24
724.729	26907.75
725.071	26897.58
725.413	26864.14
725.755	26837.25
726.097	26649
726.439	26457.14
726.782	26575.78
727.124	26689
727.465	26576.24
727.807	26464.15
728.149	26466.86
728.491	26334.89
728.833	26495.79
729.175	26336.24
729.516	26275
729.858	26237.26
730.199	26223.93
730.541	26251.5
730.882	26065.06
731.224	26205.62
731.565	26016.7
731.906	25967.44
732.248	25954.56
732.589	25845.63
732.93	25785.3
733.271	25732.42
733.612	25791.62
733.953	25821.23
734.294	25701.46
734.635	25570.39
734.976	25689.71
735.317	25517.73
735.658	25590.27
735.999	25576.49
736.339	25500.11
736.68	25528.58
737.021	25479.09
737.361	25302.15
737.702	25434.8
738.042	25335.14
738.383	25299.89
738.723	25365.19
739.063	25100.79
739.404	25214.01
739.744	25236.84
740.084	25144.18
740.424	25151.64
740.764	25028.93
741.104	25015.83
741.444	24897.41
741.784	24824.19
742.124	24900.57
742.464	24907.13
742.804	24814.25
743.143	24734.02
743.483	24793.91
743.823	24680.24
744.162	24645.67
744.502	24666
744.841	24514.37
745.181	24614.93
745.52	24485.67
745.86	24527.02
746.199	24471.88
746.538	24365.45
746.877	24370.64
747.216	24263.98
747.556	24247.71
747.895	24296.07
748.234	24116.64
748.573	24136.07
748.911	24159.8
749.25	24140.14
749.589	24009.98
749.928	23935.18
750.267	23926.81
750.605	23990.77
750.944	23818.57
751.283	23722.75
751.621	23843.43
751.96	23702.19
752.298	23630.32
752.636	23639.82
752.975	23586.03
753.313	23374.51
753.651	23471.01
753.989	23329.32
754.327	23388.07
754.666	23228.08
755.004	23221.52
755.342	23230.34
755.679	23154.86
756.017	22908.99
756.355	23108.08
756.693	22941.53
757.031	22994.86
757.368	22807.75
757.706	22859.27
758.044	22542.67
758.381	22662.67
758.719	22630.35
759.056	22622.89
759.394	22624.02
759.731	22440.98
760.068	22280.53
760.405	22233.75
760.743	22301.55
761.08	22315.33
761.417	22158.73
761.754	22100.42
762.091	22012.06
762.428	21938.84
762.765	21746.08
763.102	21968
763.438	21650.49
763.775	21606.2
764.112	21648
764.449	21638.51
764.785	21591.28
765.122	21424.73
765.458	21267.68
765.795	21149.94
766.131	21121.24
766.467	21223.83
766.804	21128.47
767.14	20914.46
767.476	20903.84
767.812	20833.34
768.148	20876.27
768.485	20668.59
768.821	20543.4
769.157	20504.98
769.492	20527.13
769.828	20521.48
770.164	20256.85
770.5	20296.85
770.836	20319.23
771.171	20183.41
771.507	20130.3
771.842	20001.72
772.178	19906.13
772.513	19886.69
772.849	19730.54
773.184	19783.42
773.519	19735.51
773.855	19622.29
774.19	19565.12
774.525	19459.36
774.86	19453.26
775.195	19425.24
775.53	19290.78
775.865	19159.71
776.2	19021.41
776.535	18879.94
776.87	18993.61
777.205	18897.57
777.539	18908.64
777.874	18885.82
778.209	18619.16
778.543	18646.28
778.878	18514.3
779.212	18569.44
779.547	18378.71
779.881	18383.01
780.215	18287.19
780.55	18362.44
780.884	18165.38
781.218	18099.4
781.552	18110.92
781.886	18049.45
782.22	17893.98
782.554	17840.87
782.888	17649.01
783.222	17610.37
783.556	17557.04
783.889	17590.71
784.223	17433.65
784.557	17342.58
784.89	17456.7
785.224	17295.8
785.557	17234.56
785.891	17119.99
786.224	17088.58
786.558	17117.05
786.891	16882.93
787.224	16826.66
787.557	16854.68
787.891	16745.53
788.224	16734.01
788.557	16686.1
788.89	16659.43
789.223	16616.5
789.556	16476.84
789.888	16505.77
790.221	16343.28
790.554	16284.76
790.887	16321.14
791.219	16235.72
791.552	16119.56
791.884	16100.81
792.217	15967.48
792.549	16007.47
792.882	15820.81
793.214	15866.46
793.546	15839.57
793.879	15720.48
794.211	15598.67
794.543	15715.28
794.875	15590.99
795.207	15692
795.539	15532.91
795.871	15508.96
796.203	15424.67
796.535	15327.72
796.867	15317.78
797.198	15224.67
797.53	15185.58
797.862	15113.49
798.193	15097.89
798.525	15020.38
798.856	14979.48
799.188	14847.51
799.519	14861.06
799.85	14786.72
800.182	14810.44
800.513	14761.18
800.844	14664.01
801.175	14661.07
801.506	14691.13
801.837	14616.32
802.168	14607.51
802.499	14513.5
802.83	14410.91
803.161	14356.67
803.491	14414.07
803.822	14398.93
804.153	14279.61
804.483	14207.07
804.814	14065.15
805.145	14070.35
805.475	14078.71
805.805	14087.75
806.136	14097.69
806.466	14025.15
806.796	14014.08
807.126	13814.76
807.457	13894.54
807.787	13888.21
808.117	13716.24
808.447	13693.64
808.777	13730.02
809.107	13675.56
809.436	13590.14
809.766	13577.26
810.096	13571.61
810.426	13520.76
810.755	13434.43
811.085	13523.7
811.414	13467.2
811.744	13370.71
812.073	13326.64
812.403	13364.83
812.732	13279.41
813.061	13250.03
813.39	13156.7
813.719	13147.66
814.049	13179.98
814.378	13151.96
814.707	13032.64
815.036	13044.16
815.365	13006.42
815.693	12879.65
816.022	12836.03
816.351	12808.91
816.68	12708.13
817.008	12812.98
817.337	12682.82
817.665	12675.81
817.994	12703.15
818.322	12634
818.651	12669.03
818.979	12556.72
819.307	12642.59
819.636	12570.05
819.964	12473.1
820.292	12584.97
820.62	12526.66
820.948	12429.94
821.276	12524.18
821.604	12541.13
821.932	12542.93
822.259	12497.28
822.587	12400.34
822.915	12397.4
823.243	12486.89
823.57	12368.25
823.898	12331.87
824.225	12268.36
824.553	12397.63
824.88	12401.02
825.207	12437.85
825.535	12398.53
825.862	12452.77
826.189	12314.92
826.516	12399.89
826.843	12438.75
827.17	12377.74
827.497	12452.09
827.824	12395.37
828.151	12423.61
828.478	12379.32
828.805	12419.32
829.131	12389.49
829.458	12322.83
829.785	12291.19
830.111	12256.16
830.438	12397.17
830.764	12324.86
831.09	12299.55
831.417	12236.95
831.743	12303.62
832.069	12331.64
832.395	12247.57
832.722	12384.97
833.048	12178.65
833.374	12211.42
833.7	12132.32
834.026	12187.91
834.351	12278.31
834.677	12194.47
835.003	12222.26
835.329	12165.54
835.654	12171.19
835.98	12163.06
836.306	12142.04
836.631	12074.92
836.956	12087.35
837.282	12148.59
837.607	12087.35
837.932	11998.31
838.258	12042.83
838.583	12019.1
838.908	12023.4
839.233	11926.68
839.558	11902.95
839.883	11942.5
840.208	11760.13
840.533	11858.88
840.858	11826.34
841.182	11838.77
841.507	11779.34
841.832	11719.9
842.156	11713.35
842.481	11760.58
842.805	11724.42
843.13	11635.16
843.454	11595.39
843.778	11589.06
844.103	11488.95
844.427	11528.72
844.751	11531.89
845.075	11394.26
845.399	11419.12
845.723	11425.9
846.047	11346.58
846.371	11269.97
846.695	11292.57
847.019	11201.73
847.343	11197.43
847.666	11061.39
847.99	11066.14
848.313	11014.16
848.637	10992.92
848.96	10909.53
849.284	10936.65
849.607	10907.72
849.931	10881.28
850.254	10772.81
850.577	10728.29
850.9	10649.2
851.223	10695.75
851.546	10578.69
851.869	10541.63
852.192	10580.95
852.515	10505.92
852.838	10426.83
853.161	10461.63
853.483	10352.03
853.806	10374.18
854.129	10329.66
854.451	10262.77
854.774	10259.15
855.096	10187.51
855.419	10157.91
855.741	10101.42
856.063	10162.43
856.385	10125.82
856.708	9971.7
857.03	10048.54
857.352	10097.35
857.674	9997.69
857.996	9964.92
858.318	9869.56
858.64	9834.98
858.961	9881.08
859.283	9804.7
859.605	9749.56
859.926	9823.23
860.248	9774.87
860.57	9700.52
860.891	9704.59
861.212	9637.02
861.534	9628.21
861.855	9676.57
862.176	9663.91
862.498	9604.93
862.819	9552.05
863.14	9523.35
863.461	9518.61
863.782	9507.76
864.103	9580.52
864.424	9505.95
864.745	9423.47
865.065	9417.82
865.386	9368.55
865.707	9366.29
866.027	9385.95
866.348	9371.94
866.668	9305.73
866.989	9317.93
867.309	9237.94
867.63	9293.75
867.95	9266.18
868.27	9235.22
868.59	9256.47
868.91	9214.88
869.23	9298.72
869.55	9159.07
869.87	9208.78
870.19	9178.73
870.51	9201.78
870.83	9110.48
871.15	9155.45
871.469	9080.65
871.789	9104.83
872.109	9102.8
872.428	9045.4
872.748	9103.93
873.067	9018.51
873.386	9078.62
873.706	9037.26
874.025	8993.65
874.344	8951.16
874.663	8957.49
874.982	8924.5
875.301	8924.72
875.62	8904.16
875.939	8851.73
876.258	8823.26
876.577	8838.62
876.896	8880.2
877.214	8837.72
877.533	8870.26
877.852	8819.64
878.17	8825.06
878.489	8832.07
878.807	8788.91
879.125	8777.16
879.444	8766.99
879.762	8734.9
880.08	8704.39
880.398	8624.39
880.716	8733.77
881.034	8640.44
881.352	8682.47
881.67	8603.6
881.988	8616.48
882.306	8580.55
882.624	8586.2
882.941	8520.67
883.259	8540.78
883.577	8508.91
883.894	8533.32
884.212	8439.31
884.529	8432.53
884.846	8489.48
885.164	8404.06
885.481	8359.09
885.798	8388.69
886.115	8347.11
886.432	8409.93
886.75	8255.59
887.067	8335.81
887.383	8250.62
887.7	8290.84
888.017	8277.28
888.334	8296.26
888.651	8171.75
888.967	8138.75
889.284	8120.9
889.6	8163.84
889.917	8098.98
890.233	8047.01
890.55	7991.87
890.866	8028.48
891.182	8022.37
891.498	7994.58
891.815	7957.06
892.131	7922.26
892.447	7883.62
892.763	7904.18
893.079	7877.52
893.395	7847.01
893.71	7771.08
894.026	7791.65
894.342	7746.67
894.657	7706.22
894.973	7690.18
895.289	7664.19
895.604	7731.31
895.92	7613.8
896.235	7620.35
896.55	7589.39
896.865	7588.71
897.181	7545.55
897.496	7531.99
897.811	7486.12
898.126	7515.27
898.441	7414.25
898.756	7388.94
899.071	7353.92
899.386	7358.44
899.7	7337.42
900.015	7280.02
900.33	7273.24
900.644	7252.68
900.959	7247.48
901.273	7212.68
901.588	7252.22
901.902	7139.23
902.216	7108.95
902.531	7066.01
902.845	7098.33
903.159	7049.52
903.473	7026.02
903.787	7010.42
904.101	6933.14
904.415	6924.32
904.729	6908.96
905.042	6896.3
905.356	6855.4
905.67	6856.53
905.984	6838.45
906.297	6820.15
906.611	6790.54
906.924	6752.35
907.237	6656.53
907.551	6712.13
907.864	6609.3
908.177	6649.53
908.491	6616.08
908.804	6578.34
909.117	6564.79
909.43	6533.83
909.743	6496.54
910.056	6555.29
910.368	6448.18
910.681	6421.51
910.994	6383.09
911.307	6406.37
911.619	6353.27
911.932	6342.87
912.244	6271.91
912.557	6282.53
912.869	6232.82
913.181	6254.06
913.494	6192.14
913.806	6223.1
914.118	6130.22
914.43	6120.5
914.742	6120.05
915.054	6055.42
915.366	6090.22
915.678	6041.41
915.99	6043.67
916.302	5995.08
916.613	5904.24
916.925	5951.24
917.236	5896.78
917.548	5826.05
917.859	5923.22
918.171	5813.62
918.482	5807.52
918.794	5802.55
919.105	5750.8
919.416	5704.69
919.727	5690.23
920.038	5703.34
920.349	5639.39
920.66	5639.16
920.971	5643.45
921.282	5621.53
921.593	5577.01
921.903	5569.56
922.214	5506.96
922.525	5493.85
922.835	5459.5
923.146	5438.49
923.456	5434.42
923.767	5394.19
924.077	5422.67
924.387	5370.47
924.697	5368.21
925.008	5339.28
925.318	5335.21
925.628	5313.97
925.938	5247.08
926.248	5203.01
926.558	5186.29
926.867	5187.87
927.177	5194.43
927.487	5140.42
927.796	5095.45
928.106	5129.34
928.416	5094.99
928.725	5071.04
929.034	5026.75
929.344	5034.66
929.653	4996.46
929.962	4956.24
930.271	4965.28
930.581	4947.65
930.89	4878.73
931.199	4885.28
931.508	4900.2
931.817	4849.58
932.125	4823.14
932.434	4839.41
932.743	4776.58
933.051	4729.81
933.36	4707.21
933.669	4664.5
933.977	4691.61
934.286	4696.36
934.594	4687.32
934.902	4636.02
935.21	4576.14
935.519	4591.73
935.827	4577.27
936.135	4589.7
936.443	4566.87
936.751	4522.13
937.059	4482.13
937.367	4447.1
937.674	4457.72
937.982	4452.98
938.29	4449.81
938.597	4453.2
938.905	4377.72
939.213	4393.09
939.52	4324.39
939.827	4365.97
940.135	4295.47
940.442	4290.27
940.749	4299.53
941.056	4321.45
941.363	4223.15
941.67	4235.58
941.977	4240.1
942.284	4188.35
942.591	4171.4
942.898	4143.38
943.205	4113.55
943.511	4136.15
943.818	4137.05
944.125	4061.57
944.431	4045.98
944.738	4029.71
945.044	4038.07
945.35	4036.72
945.657	4050.95
945.963	4028.81
946.269	3978.86
946.575	3949.49
946.881	3971.18
947.187	3970.5
947.493	3916.49
947.799	3902.26
948.105	3851.64
948.41	3810.06
948.716	3816.16
949.022	3786.33
949.327	3817.96
949.633	3771.41
949.938	3764.41
950.244	3775.48
950.549	3741.13
950.854	3732.54
951.16	3732.32
951.465	3697.52
951.77	3677.4
952.075	3671.75
952.38	3683.28
952.685	3666.78
952.99	3628.14
953.294	3589.04
953.599	3604.86
953.904	3594.47
954.209	3571.64
954.513	3521.7
954.818	3521.48
955.122	3540.68
955.426	3489.61
955.731	3455.26
956.035	3462.49
956.339	3436.51
956.643	3424.08
956.948	3391.31
957.252	3357.41
957.556	3420.91
957.86	3366.68
958.163	3349.05
958.467	3303.63
958.771	3350.63
959.075	3325.1
959.378	3304.76
959.682	3335.04
959.985	3260.01
960.289	3261.6
960.592	3213.46
960.896	3196.29
961.199	3214.59
961.502	3184.99
961.805	3181.37
962.108	3167.13
962.411	3132.56
962.714	3139.56
963.017	3132.56
963.32	3115.16
963.623	3114.03
963.926	3092.56
964.228	3097.08
964.531	3076.52
964.833	3058.44
965.136	3059.79
965.438	3053.46
965.741	2997.2
966.043	3046.23
966.345	2992.45
966.648	2964.65
966.95	2944.09
967.252	2952.45
967.554	2948.83
967.856	2938.89
968.158	2904.54
968.46	2929.85
968.761	2895.95
969.063	2861.61
969.365	2842.85
969.666	2882.62
969.968	2815.28
970.269	2822.96
970.571	2819.8
970.872	2789.74
971.174	2773.02
971.475	2765.11
971.776	2739.8
972.077	2719.24
972.378	2761.5
972.679	2733.25
972.98	2756.3
973.281	2723.3
973.582	2735.96
973.883	2715.39
974.183	2698.9
974.484	2658
974.785	2662.74
975.085	2669.97
975.386	2634.72
975.686	2660.93
975.986	2617.32
976.287	2587.04
976.587	2577.55
976.887	2566.92
977.187	2556.98
977.487	2550.88
977.787	2530.99
978.087	2538
978.387	2520.6
978.687	2526.7
978.987	2489.64
979.286	2488.96
979.586	2462.52
979.885	2444.67
980.185	2433.59
980.484	2449.19
980.784	2446.25
981.083	2424.33
981.382	2427.49
981.682	2407.83
981.981	2393.6
982.28	2374.39
982.579	2348.85
982.878	2350.21
983.177	2375.97
983.475	2338.46
983.774	2344.78
984.073	2313.37
984.372	2303.2
984.67	2293.48
984.969	2291.68
985.267	2259.36
985.566	2277.21
985.864	2262.3
986.162	2237.44
986.461	2254.84
986.759	2175.3
987.057	2195.18
987.355	2206.93
987.653	2191.57
987.951	2244.67
988.249	2146.14
988.547	2167.84
988.844	2162.19
989.142	2164.45
989.44	2104.11
989.737	2117.44
990.035	2101.85
990.332	2121.29
990.63	2094.39
990.927	2089.65
991.224	2056.43
991.521	2074.28
991.819	2067.5
992.116	2023.21
992.413	2067.05
992.71	2059.14
993.006	2031.12
993.303	2036.54
993.6	2007.62
993.897	1964
994.193	1988.41
994.49	1989.99
994.787	1970.1
995.083	1924.46
995.379	1964.68
995.676	1915.42
995.972	1940.05
996.268	1935.08
996.565	1928.07
996.861	1916.09
997.157	1904.34
997.453	1869.54
997.749	1900.5
998.044	1872.93
998.34	1872.7
998.636	1831.8
998.932	1821.18
999.227	1819.6
999.523	1815.98
999.818	1810.56
1000.114	1774.63
1000.409	1801.97
1000.704	1781.63
1001	1759.26
1001.295	1748.64
1001.59	1773.5
1001.885	1763.33
1002.18	1743.89
1002.475	1718.36
1002.77	1748.64
1003.065	1685.59
1003.359	1696.89
1003.654	1708.19
1003.949	1694.4
1004.243	1702.99
1004.538	1677.68
1004.832	1644.91
1005.127	1644.91
1005.421	1647.4
1005.715	1624.8
1006.009	1630.45
1006.304	1642.43
1006.598	1633.39
1006.892	1609.66
1007.186	1578.93
1007.48	1566.27
1007.773	1566.27
1008.067	1566.72
1008.361	1547.74
1008.655	1552.94
1008.948	1543.67
1009.242	1542.54
1009.535	1528.31
1009.829	1537.57
1010.122	1529.89
1010.415	1487.4
1010.708	1487.86
1011.001	1487.86
1011.295	1443.11
1011.588	1455.31
1011.881	1440.17
1012.173	1458.48
1012.466	1413.96
1012.759	1452.38
1013.052	1437.46
1013.344	1426.16
1013.637	1405.6
1013.93	1406.05
1014.222	1413.51
1014.514	1350.68
1014.807	1397.69
1015.099	1357.69
1015.391	1354.75
1015.683	1370.8
1015.976	1359.95
1016.268	1356.79
1016.56	1326.73
1016.851	1311.59
1017.143	1304.58
1017.435	1287.41
1017.727	1281.08
1018.018	1292.83
1018.31	1286.73
1018.602	1287.41
1018.893	1262.78
1019.185	1252.61
1019.476	1230.69
1019.767	1264.81
1020.058	1233.4
1020.35	1230.24
1020.641	1216.45
1020.932	1209.45
1021.223	1215.77
1021.514	1188.2
1021.804	1200.18
1022.095	1185.04
1022.386	1174.42
1022.677	1182.33
1022.967	1173.29
1023.258	1148.2
1023.548	1163.35
1023.839	1163.12
1024.129	1146.17
1024.419	1138.71
1024.709	1110.47
1025	1123.8
1025.29	1099.62
1025.58	1097.36
1025.87	1083.35
1026.16	1117.24
1026.449	1083.35
1026.739	1069.56
1027.029	1051.94
1027.319	1070.47
1027.608	1080.86
1027.898	1055.78
1028.187	1034.53
1028.477	1032.5
1028.766	1042.67
1029.055	1032.28
1029.344	1030.69
1029.634	1002.22
1029.923	1004.93
1030.212	980.75
1030.501	989.34
1030.79	970.36
1031.078	979.85
1031.367	964.48
1031.656	974.88
1031.945	970.13
1032.233	976.23
1032.522	958.38
1032.81	944.82
1033.099	958.15
1033.387	917.02
1033.675	919.28
1033.963	916.8
1034.251	901.66
1034.54	899.85
1034.828	906.4
1035.116	920.41
1035.403	879.74
1035.691	851.71
1035.979	879.06
1036.267	881.77
1036.554	860.53
1036.842	883.58
1037.129	858.72
1037.417	850.36
1037.704	863.01
1037.992	852.62
1038.279	855.56
1038.566	826.86
1038.853	826.86
1039.14	826.86
