Data from white_poster_card_FLMS001491_00030.txt Node
Date: Wed Feb 08 11:51:18 GMT 2017
User: dcchb
Spectrometer: FLMS00149
Trigger mode: 0
Integration Time (sec): 2.000000E-2
Scans to average: 10
Electric dark correction enabled: true
Nonlinearity correction enabled: false
Boxcar width: 0
XAxis mode: Wavelengths
Number of Pixels in Spectrum: 2048
>>>>>Begin Spectral Data<<<<<
341.393	-16.23
341.776	-16.23
342.16	-16.23
342.543	-59.62
342.927	-61.65
343.31	-68.43
343.693	-74.98
344.077	-71.14
344.46	-62.33
344.843	-67.3
345.226	-35.21
345.61	-37.7
345.993	-24.14
346.376	17.67
346.759	-2.44
347.142	23.09
347.525	58.12
347.908	57.44
348.291	83.43
348.674	81.4
349.057	122.53
349.44	121.4
349.823	134.95
350.206	161.62
350.588	202.07
350.971	216.31
351.354	239.36
351.737	238.45
352.119	245.69
352.502	266.48
352.884	273.48
353.267	289.53
353.65	278
354.032	309.64
354.414	306.47
354.797	315.74
355.179	323.88
355.562	319.58
355.944	330.43
356.326	321.39
356.709	330.43
357.091	347.15
357.473	318.9
357.855	327.94
358.238	365.23
358.62	339.92
359.002	326.81
359.384	344.67
359.766	342.86
360.148	348.06
360.53	334.72
360.912	323.42
361.294	331.79
361.676	346.02
362.057	349.41
362.439	329.75
362.821	349.86
363.203	320.94
363.584	320.03
363.966	332.01
364.348	307.83
364.729	331.79
365.111	312.12
365.493	332.01
365.874	322.29
366.256	325.46
366.637	332.46
367.019	333.14
367.4	318.23
367.781	333.59
368.163	306.47
368.544	326.59
368.925	322.52
369.306	327.49
369.688	302.63
370.069	313.03
370.45	315.06
370.831	302.41
371.212	320.94
371.593	313.48
371.974	322.29
372.355	312.35
372.736	317.1
373.117	306.7
373.498	315.74
373.879	320.03
374.26	312.58
374.641	327.72
375.021	318.45
375.402	311.67
375.783	308.06
376.163	323.65
376.544	338.34
376.925	325.91
377.305	339.92
377.686	341.28
378.066	347.38
378.447	336.53
378.827	331.79
379.208	330.88
379.588	334.95
379.968	321.39
380.349	331.56
380.729	336.98
381.109	316.19
381.489	353.93
381.87	352.12
382.25	333.14
382.63	333.37
383.01	352.58
383.39	353.48
383.77	335.63
384.15	354.38
384.53	349.86
384.91	355.06
385.29	359.81
385.67	364.1
386.049	377.43
386.429	381.05
386.809	353.03
387.189	369.07
387.568	370.2
387.948	366.59
388.328	364.55
388.707	369.3
389.087	385.57
389.466	362.52
389.846	368.39
390.225	369.75
390.605	372.46
390.984	384.67
391.363	394.83
391.743	388.05
392.122	396.19
392.501	383.08
392.881	399.81
393.26	385.34
393.639	404.33
394.018	402.29
394.397	405
394.776	419.24
395.155	414.04
395.534	422.18
395.913	411.56
396.292	413.82
396.671	410.2
397.05	418.34
397.429	420.14
397.808	413.14
398.186	432.35
398.565	427.38
398.944	445.45
399.323	417.43
399.701	436.64
400.08	437.09
400.458	428.96
400.837	449.52
401.215	454.49
401.594	461.27
401.972	439.13
402.351	462.86
402.729	449.3
403.107	464.44
403.486	465.34
403.864	474.38
404.242	473.93
404.62	478.67
404.999	491.33
405.377	496.98
405.755	492.46
406.133	485.45
406.511	484.78
406.889	507.83
407.267	512.12
407.645	530.42
408.023	519.8
408.401	528.84
408.779	528.84
409.156	522.51
409.534	524.77
409.912	556.41
410.29	569.29
410.667	569.07
411.045	575.39
411.422	609.52
411.8	596.64
412.178	623.3
412.555	624.88
412.933	634.6
413.31	652.23
413.687	669.18
414.065	684.32
414.442	700.36
414.819	710.76
415.197	728.84
415.574	746.01
415.951	750.08
416.328	765.67
416.705	774.94
417.082	763.41
417.46	797.08
417.837	821.04
418.214	830.98
418.591	860.13
418.967	844.99
419.344	873.01
419.721	885.67
420.098	878.44
420.475	895.61
420.852	914.59
421.228	929.51
421.605	929.51
421.982	957.08
422.358	979.23
422.735	972.67
423.111	992.78
423.488	1016.06
423.864	1028.94
424.241	1046.12
424.617	1056.29
424.994	1065.55
425.37	1067.58
425.746	1081.6
426.123	1116.17
426.499	1134.02
426.875	1130.86
427.251	1150.07
427.627	1181.25
428.003	1188.71
428.379	1219.67
428.756	1208.37
429.132	1221.93
429.507	1248.6
429.883	1268.48
430.259	1299.67
430.635	1303.74
431.011	1308.48
431.387	1333.11
431.763	1369.95
432.138	1369.05
432.514	1375.6
432.89	1401.81
433.265	1431.19
433.641	1449.5
434.016	1484.07
434.392	1512.09
434.767	1516.16
435.143	1530.62
435.518	1531.53
435.894	1558.87
436.269	1598.87
436.644	1598.87
437.02	1625.99
437.395	1623.95
437.77	1646.33
438.145	1692.88
438.52	1695.59
438.895	1699.66
439.271	1729.71
439.646	1738.53
440.021	1766.32
440.395	1771.07
440.77	1743.95
441.145	1788.02
441.52	1849.49
441.895	1792.09
442.27	1814.46
442.645	1835.7
443.019	1854
443.394	1856.04
443.769	1856.04
444.143	1868.47
444.518	1887.22
444.892	1941.01
445.267	1897.39
445.641	1960.22
446.016	1936.04
446.39	1949.14
446.764	1995.92
447.139	1951.4
447.513	2026.2
447.887	2002.02
448.262	1991.85
448.636	2019.88
449.01	2030.95
449.384	2072.53
449.758	2093.09
450.132	2085.86
450.506	2119.76
450.88	2074.11
451.254	2123.15
451.628	2158.86
452.002	2181.91
452.376	2183.71
452.75	2217.61
453.123	2228.01
453.497	2240.66
453.871	2280.66
454.244	2335.57
454.618	2358.4
454.992	2336.93
455.365	2380.77
455.739	2423.93
456.112	2418.51
456.486	2472.75
456.859	2467.1
457.232	2508.68
457.606	2500.32
457.979	2514.1
458.352	2615.57
458.725	2640.88
459.099	2624.83
459.472	2665.28
459.845	2740.76
460.218	2733.08
460.591	2768.11
460.964	2763.59
461.337	2821.89
461.71	2902.79
462.083	2911.6
462.456	2905.95
462.829	2933.3
463.201	2994.31
463.574	2978.27
463.947	2992.73
464.32	3109.57
464.692	3114.54
465.065	3132.16
465.438	3192.27
465.81	3234.08
466.183	3234.53
466.555	3315.21
466.928	3336.23
467.3	3357.47
467.672	3369.67
468.045	3484.02
468.417	3496.45
468.789	3491.02
469.161	3560.17
469.534	3581.87
469.906	3664.8
470.278	3672.71
470.65	3727.18
471.022	3795.65
471.394	3885.36
471.766	3923.78
472.138	3987.73
472.51	4022.76
472.882	4082.65
473.253	4102.99
473.625	4132.14
473.997	4281.06
474.369	4260.72
474.74	4321.51
475.112	4409.64
475.484	4466.59
475.855	4529.64
476.227	4569.64
476.598	4695.51
476.97	4709.52
477.341	4808.05
477.713	4881.04
478.084	4925.56
478.455	5073.58
478.827	5072.45
479.198	5264.99
479.569	5253.69
479.94	5373.23
480.311	5436.51
480.682	5558.54
481.053	5633.34
481.424	5778.65
481.795	5773.22
482.166	5824.3
482.537	5977.51
482.908	6107.68
483.279	6112.42
483.65	6217.28
484.021	6393.55
484.391	6432.64
484.762	6498.4
485.133	6576.37
485.503	6619.08
485.874	6806.64
486.244	6911.73
486.615	6994.21
486.985	7068.78
487.356	7197.82
487.726	7266.74
488.097	7382.9
488.467	7403.69
488.837	7567.75
489.207	7695.66
489.578	7803
489.948	7811.14
490.318	7959.61
490.688	7973.84
491.058	8094.97
491.428	8273.27
491.798	8309.43
492.168	8434.17
492.538	8478.92
492.908	8616.54
493.278	8699.02
493.648	8713.49
494.017	8880.49
494.387	8968.17
494.757	8927.94
495.126	9124.55
495.496	9133.14
495.866	9200.93
496.235	9284.54
496.605	9392.34
496.974	9499.23
497.344	9577.87
497.713	9630.52
498.082	9682.05
498.452	9819.67
498.821	9855.38
499.19	9908.26
499.559	9980.57
499.928	10108.7
500.298	10112.32
500.667	10232.77
501.036	10214.46
501.405	10397.28
501.774	10332.65
502.143	10504.4
502.512	10563.83
502.88	10599.54
503.249	10625.98
503.618	10706.88
503.987	10790.95
504.356	10881.79
504.724	10936.25
505.093	10985.29
505.462	11063.48
505.83	11113.2
506.199	11258.96
506.567	11346.86
506.936	11362.91
507.304	11531.04
507.672	11552.96
508.041	11545.05
508.409	11689.23
508.777	11821.43
509.145	11896
509.514	12001.53
509.882	12056
510.25	12052.61
510.618	12138.93
510.986	12218.48
511.354	12405.82
511.722	12514.06
512.09	12560.16
512.458	12604.68
512.826	12713.38
513.193	12764.23
513.561	12927.84
513.929	13061.85
514.297	13052.81
514.664	13180.94
515.032	13305
515.4	13388.84
515.767	13453.93
516.135	13528.05
516.502	13470.2
516.869	13716.07
517.237	13802.62
517.604	13721.04
517.972	14035.61
518.339	14103.17
518.706	14122.38
519.073	14196.73
519.44	14349.5
519.808	14491.64
520.175	14488.47
520.542	14620.45
520.909	14718.07
521.276	14800.56
521.643	14982.02
522.009	15049.82
522.376	15122.36
522.743	15249.58
523.11	15429.47
523.477	15559.86
523.843	15680.76
524.21	15894.31
524.577	15940.64
524.943	16007.08
525.31	16212.5
525.676	16336.11
526.043	16466.28
526.409	16485.26
526.776	16608.19
527.142	16689.32
527.508	16909.2
527.874	16944.91
528.241	17116.88
528.607	17170.66
528.973	17325.46
529.339	17353.71
529.705	17549.19
530.071	17685.68
530.437	17805.45
530.803	17885
531.169	17945.56
531.535	18005.22
531.901	18059
532.267	18147.81
532.632	18410.86
532.998	18388.03
533.364	18474.81
533.73	18517.3
534.095	18716.61
534.461	18827.57
534.826	18836.84
535.192	18970.84
535.557	19052.42
535.923	19086.32
536.288	19159.99
536.653	19282.25
537.019	19194.79
537.384	19399.98
537.749	19462.58
538.114	19611.96
538.479	19604.95
538.845	19638.62
539.21	19724.5
539.575	19743.48
539.94	19869.58
540.305	20006.75
540.67	20056.01
541.034	20154.31
541.399	20266.63
541.764	20216.91
542.129	20407.42
542.494	20376.91
542.858	20546.17
543.223	20642.66
543.587	20749.78
543.952	20618.48
544.316	20735.32
544.681	20758.82
545.045	20935.76
545.41	20998.59
545.774	21066.38
546.138	21113.39
546.503	21214.85
546.867	21296.66
547.231	21460.95
547.595	21523.09
547.959	21532.36
548.324	21577.78
548.688	21590.89
549.052	21802.63
549.416	21800.37
549.779	21782.29
550.143	21863.65
550.507	22039.01
550.871	22175.28
551.235	22147.26
551.599	22310.64
551.962	22441.26
552.326	22403.3
552.689	22635.61
553.053	22476.06
553.417	22578.43
553.78	22902.94
554.143	22840.8
554.507	22968.93
554.87	22988.36
555.234	23263.84
555.597	23154.46
555.96	23241.47
556.323	23375.7
556.686	23455.92
557.05	23592.42
557.413	23680.78
557.776	23816.37
558.139	23940.43
558.502	23927.32
558.865	24037.83
559.228	24269.69
559.59	24306.07
559.953	24439.17
560.316	24577.02
560.679	24573.63
561.041	24725.04
561.404	24741.09
561.767	24993.74
562.129	24933.85
562.492	25241.64
562.854	25192.83
563.217	25317.12
563.579	25411.8
563.941	25489.32
564.304	25727.73
564.666	25852.7
565.028	25931.56
565.39	26046.59
565.753	26057.21
566.115	26239.58
566.477	26353.25
566.839	26422.17
567.201	26519.12
567.563	26642.73
567.925	26875.04
568.287	26833.46
568.648	26909.39
569.01	27124.3
569.372	27298.53
569.734	27228.25
570.095	27465.76
570.457	27554.57
570.819	27605.64
571.18	27661.01
571.542	27725.87
571.903	27846.32
572.265	27920.21
572.626	27941.91
572.987	27982.58
573.349	28222.13
573.71	28305.29
574.071	28254.21
574.432	28438.16
574.794	28633.41
575.155	28531.72
575.516	28549.35
575.877	28621.89
576.238	28653.75
576.599	28863.24
576.96	28820.53
577.32	28806.74
577.681	29000.86
578.042	29089.45
578.403	28946.17
578.763	29127.64
579.124	29122.21
579.485	29245.6
579.845	29355.65
580.206	29281.53
580.566	29295.32
580.927	29403.11
581.287	29460.28
581.648	29307.52
582.008	29440.4
582.368	29517.23
582.728	29557.91
583.089	29467.97
583.449	29556.55
583.809	29627.29
584.169	29619.83
584.529	29596.55
584.889	29790.9
585.249	29551.36
585.609	29522.88
585.969	29696.66
586.329	29716.32
586.688	29741.63
587.048	29692.82
587.408	29540.96
587.768	29607.4
588.127	29691.47
588.487	29637
588.846	29895.53
589.206	29578.47
589.565	29566.5
589.925	29663.9
590.284	29628.87
590.643	29759.94
591.003	29840.39
591.362	29802.42
591.721	29760.16
592.08	29794.29
592.44	29836.55
592.799	29877
593.158	29776.89
593.517	29817.34
593.876	29967.16
594.235	29805.59
594.593	29910.89
594.952	30024.56
595.311	29810.56
595.67	30056.43
596.029	30121.51
596.387	30087.39
596.746	30126.26
597.104	30045.13
597.463	29901.4
597.822	30152.02
598.18	29890.33
598.538	30101.62
598.897	30162.41
599.255	29939.82
599.613	30330.54
599.972	30114.73
600.33	30278.57
600.688	30142.07
601.046	30227.95
601.404	30427.72
601.762	30328.28
602.12	30443.99
602.478	30448.73
602.836	30535.96
603.194	30394.5
603.552	30389.07
603.91	30269.53
604.268	30505
604.625	30290.32
604.983	30443.76
605.341	30361.28
605.698	30588.39
606.056	30660.03
606.413	30582.52
606.771	30721.72
607.128	30700.7
607.485	30675.85
607.843	30627.94
608.2	30866.58
608.557	30857.31
608.914	30667.71
609.272	30933.69
609.629	31086.91
609.986	31096.4
610.343	30827.71
610.7	31128.26
611.057	31007.14
611.414	31076.06
611.771	31121.48
612.127	31224.08
612.484	31215.04
612.841	31383.62
613.198	31147.92
613.554	31210.07
613.911	31403.06
614.267	31389.95
614.624	31406.45
614.98	31444.87
615.337	31602.83
615.693	31380.01
616.05	31524.41
616.406	31765.08
616.762	31518.99
617.118	31417.97
617.475	31580.45
617.831	31644.86
618.187	31700.9
618.543	31578.87
618.899	31892.09
619.255	31781.35
619.611	31680.79
619.967	31999.88
620.323	31900.22
620.678	31824.97
621.034	31812.54
621.39	31749.94
621.746	31763.05
622.101	32097.28
622.457	31790.84
622.812	31813.9
623.168	31915.36
623.523	31917.85
623.879	31874.68
624.234	31621.13
624.589	31867.68
624.945	31752.88
625.3	31853.67
625.655	31946.32
626.01	31938.86
626.365	31982.03
626.72	31810.51
627.075	31871.97
627.43	31899.32
627.785	31741.13
628.14	31841.24
628.495	31812.31
628.85	31765.99
629.205	31756.95
629.559	31888.24
629.914	31658.64
630.269	31792.65
630.623	31551.3
630.978	31549.04
631.332	31635.14
631.687	31807.12
632.041	31608.93
632.396	31569.16
632.75	31447.35
633.104	31539.55
633.459	31363.96
633.813	31356.51
634.167	31363.96
634.521	31307.69
634.875	31409.61
635.229	31315.6
635.583	31149.05
635.937	31147.92
636.291	31113.8
636.645	31084.2
636.999	31078.55
637.352	31070.64
637.706	30838.55
638.06	31010.98
638.413	30942.05
638.767	30731.89
639.121	30847.14
639.474	30708.16
639.828	30697.99
640.181	30843.75
640.534	30701.83
640.888	30613.93
641.241	30528.73
641.594	30565.79
641.947	30613.47
642.301	30503.65
642.654	30435.4
643.007	30436.08
643.36	30488.51
643.713	30355.63
644.066	30482.4
644.419	30355.85
644.771	30158.8
645.124	29701.41
645.477	29797.22
645.83	29622.77
646.182	29404.01
646.535	29378.93
646.888	29418.03
647.24	29380.51
647.593	29450.34
647.945	29220.07
648.298	29166.96
648.65	29159.28
649.002	29015.1
649.355	29138.03
649.707	29069.33
650.059	29190.69
650.411	29571.24
650.763	29514.29
651.115	29877.67
651.467	29818.92
651.819	29637.68
652.171	29540.51
652.523	29503.9
652.875	29581.41
653.227	29433.62
653.578	29615.31
653.93	29487.85
654.282	29392.26
654.633	29425.03
654.985	29536.21
655.337	29420.96
655.688	29368.54
656.039	29488.53
656.391	29208.09
656.742	29198.82
657.094	29300.74
657.445	29353.62
657.796	29287.86
658.147	29222.32
658.498	29169.9
658.849	29216.22
659.2	29146.17
659.551	29067.53
659.902	29179.16
660.253	29229.78
660.604	29138.71
660.955	28903.69
661.306	29135.1
661.656	29031.37
662.007	29114.76
662.358	28998.83
662.708	28956.8
663.059	28979.17
663.409	28714.09
663.76	28990.92
664.11	28884.03
664.461	29119.73
664.811	28940.75
665.161	28902.56
665.511	28781.88
665.862	28788.44
666.212	28914.08
666.562	28802.45
666.912	28792.05
667.262	28651.49
667.612	28755.67
667.962	28733.52
668.312	28736.46
668.662	28853.97
669.011	28587.77
669.361	28704.82
669.711	28765.16
670.06	28628.89
670.41	28561.33
670.76	28453.76
671.109	28557.71
671.459	28507.32
671.808	28501.89
672.157	28604.94
672.507	28410.37
672.856	28364.27
673.205	28510.93
673.554	28437.94
673.904	28450.82
674.253	28523.13
674.602	28447.88
674.951	27962.47
675.3	27984.39
675.649	28309.35
675.998	28330.82
676.346	28299.41
676.695	28422.35
677.044	28188.45
677.393	28304.38
677.741	28296.02
678.09	28135.35
678.438	28096.7
678.787	28144.39
679.135	28061.23
679.484	27923.83
679.832	28029.59
680.181	27875.92
680.529	27931.96
680.877	27860.78
681.225	27927.67
681.573	27957.27
681.922	27704.4
682.27	27625.76
682.618	27729.03
682.966	27642.48
683.314	27595.25
683.661	27600.45
684.009	27365.88
684.357	27403.39
684.705	27424.18
685.053	27398.87
685.4	27375.14
685.748	27202.94
686.095	27217.41
686.443	27133.79
686.79	26990.75
687.138	27103.51
687.485	26993.46
687.832	26944.19
688.18	26949.16
688.527	26835.95
688.874	26810.18
689.221	26695.61
689.568	26628.72
689.915	26665.33
690.262	26564.09
690.609	26512.11
690.956	26484.32
691.303	26346.47
691.65	26221.05
691.997	26233.02
692.344	26019.47
692.69	26047.95
693.037	25985.8
693.383	25852.47
693.73	25855.63
694.077	25730.67
694.423	25755.75
694.769	25711.23
695.116	25511.24
695.462	25715.3
695.808	25330.9
696.155	25446.6
696.501	25374.29
696.847	25337.91
697.193	25204.35
697.539	25229.21
697.885	24975.88
698.231	24936.56
698.577	24819.28
698.923	24947.63
699.269	24769.79
699.614	24609.34
699.96	24566.63
700.306	24653.18
700.651	24548.78
700.997	24308.1
701.342	24347.88
701.688	24322.11
702.033	24287.09
702.379	24242.12
702.724	24137.26
703.069	24150.37
703.415	23896.82
703.76	23973.88
704.105	24004.83
704.45	23917.61
704.795	23855.01
705.14	23669.7
705.485	23626.77
705.83	23526.2
706.175	23557.62
706.52	23444.4
706.865	23418.86
707.209	23471.06
707.554	23251.63
707.899	23265.19
708.243	23215.48
708.588	23207.34
708.932	23099.55
709.277	22974.81
709.621	23041.24
709.966	22881.02
710.31	22932.09
710.654	22774.58
710.998	22849.84
711.342	22720.8
711.687	22702.5
712.031	22489.17
712.375	22577.75
712.719	22579.34
713.063	22414.37
713.407	22609.62
713.75	22475.61
714.094	22369.62
714.438	22295.95
714.782	22366.91
715.125	22138.67
715.469	22243.3
715.812	22047.82
716.156	22069.29
716.499	22008.5
716.843	22029.29
717.186	21878.79
717.53	21937.09
717.873	21949.3
718.216	21869.98
718.559	21815.29
718.902	21608.51
719.246	21681.73
719.589	21578.91
719.932	21603.09
720.275	21617.55
720.617	21539.36
720.96	21462.98
721.303	21506.37
721.646	21434.73
721.989	21291.01
722.331	21381.63
722.674	21391.8
723.016	21341.4
723.359	21168.07
723.701	21311.57
724.044	21081.07
724.386	20983.22
724.729	21048.08
725.071	21037.46
725.413	20996.33
725.755	20946.84
726.097	20844.24
726.439	20818.7
726.782	20684.24
727.124	20796.56
727.465	20617.13
727.807	20769.89
728.149	20644.47
728.491	20669.56
728.833	20622.1
729.175	20587.98
729.516	20545.04
729.858	20563.8
730.199	20475.21
730.541	20427.08
730.882	20428.88
731.224	20470.01
731.565	20280.87
731.906	20404.7
732.248	20391.6
732.589	20133.3
732.93	20116.35
733.271	20160.19
733.612	20164.94
733.953	20245.61
734.294	20160.19
734.635	20053.75
734.976	20051.72
735.317	19980.08
735.658	19952.96
735.999	19978.95
736.339	19935.11
736.68	20027.76
737.021	19814.66
737.361	19821.67
737.702	19969.23
738.042	19767.88
738.383	19732.86
738.723	19745.96
739.063	19688.11
739.404	19685.4
739.744	19658.28
740.084	19538.96
740.424	19444.28
740.764	19562.24
741.104	19555.91
741.444	19341.23
741.784	19308.69
742.124	19478.17
742.464	19385.52
742.804	19285.86
743.143	19274.79
743.483	19261.23
743.823	19101.46
744.162	19192.76
744.502	19231.18
744.841	19095.36
745.181	19129.93
745.52	19014.23
745.86	19003.38
746.199	19054.68
746.538	19017.85
746.877	19080.44
747.216	18953.89
747.556	18985.08
747.895	18942.37
748.234	18856.5
748.573	18782.37
748.911	18778.53
749.25	18743.73
749.589	18608.14
749.928	18610.4
750.267	18624.64
750.605	18584.64
750.944	18502.83
751.283	18501.48
751.621	18593
751.96	18360.69
752.298	18372.44
752.636	18429.61
752.975	18298.09
753.313	18159.56
753.651	18282.05
753.989	18190.52
754.327	18091.77
754.666	18046.35
755.004	18056.06
755.342	18137.42
755.679	18069.62
756.017	17944.88
756.355	17940.36
756.693	17877.09
757.031	17926.35
757.368	17731.33
757.706	17834.6
758.044	17677.09
758.381	17676.64
758.719	17600.94
759.056	17618.56
759.394	17548.96
759.731	17426.02
760.068	17462.18
760.405	17353.71
760.743	17301.06
761.08	17304.45
761.417	17149.2
761.754	17084.11
762.091	17134.96
762.428	17030.1
762.765	17044.34
763.102	16984
763.438	16903.78
763.775	16878.92
764.112	16920.5
764.449	16812.93
764.785	16774.29
765.122	16616.33
765.458	16550.57
765.795	16463.11
766.131	16495.2
766.467	16452.04
766.804	16353.96
767.14	16322.55
767.476	16297.24
767.812	16210.46
768.148	16234.19
768.485	16144.48
768.821	15999.62
769.157	15993.97
769.492	15983.58
769.828	15981.09
770.164	15874.2
770.5	15800.08
770.836	15793.53
771.171	15648.22
771.507	15658.39
771.842	15525.74
772.178	15494.78
772.513	15428.56
772.849	15421.11
773.184	15379.98
773.519	15364.84
773.855	15266.76
774.19	15099.31
774.525	15135.69
774.86	15150.83
775.195	15154.45
775.53	15036.48
775.865	14908.35
776.2	14812.76
776.535	14796.94
776.87	14735.25
777.205	14696.38
777.539	14649.83
777.874	14653.44
778.209	14489.38
778.543	14429.27
778.878	14431.3
779.212	14387.01
779.547	14293.9
779.881	14396.95
780.215	14239.67
780.55	14226.33
780.884	14191.08
781.218	14072.89
781.552	14060.46
781.886	14071.31
782.22	13903.41
782.554	13917.64
782.888	13716.74
783.222	13736.63
783.556	13695.28
783.889	13736.4
784.223	13613.02
784.557	13592.45
784.89	13615.05
785.224	13494.6
785.557	13441.27
785.891	13348.17
786.224	13317.21
786.558	13392.23
786.891	13213.71
787.224	13217.1
787.557	13139.81
787.891	13148.62
788.224	13136.42
788.557	13070.21
788.89	12924.67
789.223	13038.12
789.556	12927.84
789.888	12873.15
790.221	12859.82
790.554	12663.44
790.887	12717.22
791.219	12609.88
791.552	12621.63
791.884	12623.44
792.217	12578.24
792.549	12487.62
792.882	12364.46
793.214	12395.2
793.546	12392.03
793.879	12268.19
794.211	12218.93
794.543	12195.43
794.875	12231.59
795.207	12229.1
795.539	12173.73
795.871	12152.72
796.203	12058.93
796.535	11963.12
796.867	11987.75
797.198	11944.36
797.53	11919.28
797.862	11809.68
798.193	11777.13
798.525	11745.95
798.856	11779.17
799.188	11648.55
799.519	11606.74
799.85	11509.8
800.182	11524.03
800.513	11490.59
800.844	11474.54
801.175	11471.15
801.506	11469.8
801.837	11373.08
802.168	11374.43
802.499	11319.52
802.83	11336.92
803.161	11223.7
803.491	11240.88
803.822	11240.65
804.153	11058.96
804.483	11045.63
804.814	11077.94
805.145	10990.26
805.475	11029.13
805.805	10901.45
806.136	11020.32
806.466	10975.12
806.796	10988
807.126	10916.14
807.457	10830.04
807.787	10832.98
808.117	10806.76
808.447	10738.52
808.777	10836.14
809.107	10717.05
809.436	10640.44
809.766	10640.21
810.096	10588.01
810.426	10592.76
810.755	10609.71
811.085	10553.66
811.414	10519.99
811.744	10413.1
812.073	10363.39
812.403	10434.8
812.732	10352.76
813.061	10380.79
813.39	10280.9
813.719	10316.61
814.049	10287.23
814.378	10328.36
814.707	10222.37
815.036	10209.72
815.365	10145.09
815.693	10104.18
816.022	10084.07
816.351	10075.26
816.68	9979.67
817.008	9995.71
817.337	9931.53
817.665	9936.05
817.994	9964.07
818.322	9959.78
818.651	9877.97
818.979	9847.24
819.307	9863.06
819.636	9873.23
819.964	9734.48
820.292	9847.02
820.62	9807.24
820.948	9749.16
821.276	9835.94
821.604	9725.66
821.932	9795.49
822.259	9801.37
822.587	9703.74
822.915	9682.05
823.243	9789.84
823.57	9677.53
823.898	9707.36
824.225	9656.74
824.553	9761.82
824.88	9723.18
825.207	9803.4
825.535	9726.34
825.862	9708.26
826.189	9680.69
826.516	9757.75
826.843	9691.54
827.17	9769.28
827.497	9710.07
827.824	9737.87
828.151	9748.94
828.478	9732.22
828.805	9772.89
829.131	9710.07
829.458	9691.99
829.785	9644.99
830.111	9690.86
830.438	9779.22
830.764	9625.78
831.09	9700.35
831.417	9626.91
831.743	9732.22
832.069	9677.3
832.395	9602.5
832.722	9694.25
833.048	9721.59
833.374	9680.69
833.7	9657.64
834.026	9631.65
834.351	9661.94
834.677	9612.9
835.003	9611.54
835.329	9584.65
835.654	9535.84
835.98	9531.54
836.306	9562.5
836.631	9529.51
836.956	9561.15
837.282	9513.46
837.607	9412.9
837.932	9379.68
838.258	9463.52
838.583	9423.3
838.908	9419
839.233	9364.99
839.558	9400.25
839.883	9316.18
840.208	9350.53
840.533	9305.79
840.858	9361.83
841.182	9274.6
841.507	9255.84
841.832	9235.28
842.156	9185.34
842.481	9185.11
842.805	9197.99
843.13	9194.15
843.454	9137.2
843.778	9111.44
844.103	9077.32
844.427	9042.06
844.751	9063.53
845.075	9034.83
845.399	9023.08
845.723	8993.48
846.047	8993.48
846.371	8937.89
846.695	8876.42
847.019	8835.97
847.343	8828.51
847.666	8781.51
847.99	8695.18
848.313	8714.62
848.637	8645.24
848.96	8683.88
849.284	8588.74
849.607	8576.09
849.931	8568.4
850.254	8540.38
850.577	8409.99
850.9	8376.32
851.223	8424.68
851.546	8331.12
851.869	8315.98
852.192	8290.22
852.515	8274.85
852.838	8239.6
853.161	8232.14
853.483	8195.53
853.806	8166.83
854.129	8147.17
854.451	8083.67
854.774	8038.48
855.096	7998.48
855.419	8026.27
855.741	7998.48
856.063	7957.12
856.385	7946.5
856.708	7916.9
857.03	7918.48
857.352	7818.82
857.674	7777.46
857.996	7797.58
858.318	7745.15
858.64	7785.15
858.961	7744.02
859.283	7651.82
859.605	7686.17
859.926	7687.75
860.248	7695.21
860.57	7655.43
860.891	7725.26
861.212	7567.53
861.534	7497.25
861.855	7606.4
862.176	7562.1
862.498	7554.42
862.819	7597.58
863.14	7499.51
863.461	7515.78
863.782	7483.69
864.103	7464.25
864.424	7450.24
864.745	7432.16
865.065	7428.1
865.386	7426.97
865.707	7388.1
866.027	7437.13
866.348	7360.75
866.668	7358.27
866.989	7375.67
867.309	7317.14
867.63	7280.53
867.95	7395.78
868.27	7283.47
868.59	7353.3
868.91	7239.4
869.23	7280.53
869.55	7260.42
869.87	7236.91
870.19	7269.46
870.51	7209.8
870.83	7247.08
871.15	7200.98
871.469	7210.93
871.789	7153.53
872.109	7163.02
872.428	7096.35
872.748	7179.97
873.067	7109.69
873.386	7100.42
873.706	7122.34
874.025	7128.67
874.344	7095.9
874.663	7047.77
874.982	7001.89
875.301	7065.62
875.62	7017.03
875.939	7028.33
876.258	6999.18
876.577	6941.78
876.896	7018.61
877.214	7008.22
877.533	6941.55
877.852	6977.03
878.17	6955.79
878.489	7000.08
878.807	6985.85
879.125	6930.71
879.444	6905.62
879.762	6917.83
880.08	6860.2
880.398	6874.21
880.716	6832.86
881.034	6782.91
881.352	6843.03
881.67	6798.28
881.988	6746.98
882.306	6735.46
882.624	6818.17
882.941	6735.23
883.259	6729.13
883.577	6696.82
883.894	6689.13
884.212	6629.7
884.529	6684.16
884.846	6654.1
885.164	6625.63
885.481	6656.59
885.798	6621.79
886.115	6578.85
886.432	6594.45
886.75	6538.18
887.067	6529.36
887.383	6538.63
887.7	6532.07
888.017	6484.17
888.334	6469.7
888.651	6471.28
888.967	6429.7
889.284	6425.41
889.6	6405.98
889.917	6382.47
890.233	6372.08
890.55	6367.33
890.866	6370.72
891.182	6372.08
891.498	6346.32
891.815	6257.05
892.131	6258.63
892.447	6218.41
892.763	6227.22
893.079	6236.26
893.395	6219.54
893.71	6199.88
894.026	6185.19
894.342	6151.75
894.657	6106.55
894.973	6053.44
895.289	6061.35
895.604	6109.26
895.92	5997.62
896.235	5955.37
896.55	6046.44
896.865	5961.02
897.181	5960.79
897.496	5967.34
897.811	5883.5
898.126	5912.88
898.441	5855.26
898.756	5824.52
899.071	5858.65
899.386	5830.62
899.7	5794.47
900.015	5780.23
900.33	5695.71
900.644	5744.07
900.959	5740.68
901.273	5719.44
901.588	5645.09
901.902	5679.89
902.216	5683.73
902.531	5637.18
902.845	5562.38
903.159	5557.41
903.473	5569.84
903.787	5517.41
904.101	5500.69
904.415	5511.08
904.729	5464.31
905.042	5444.64
905.356	5446.45
905.67	5443.06
905.984	5436.51
906.297	5377.98
906.611	5338.66
906.924	5372.1
907.237	5304.76
907.551	5309.73
907.864	5326
908.177	5305.21
908.491	5270.64
908.804	5216.18
909.117	5188.38
909.43	5164.65
909.743	5159
910.056	5132.56
910.368	5138.66
910.681	5095.05
910.994	5085.56
911.307	5088.04
911.619	5016.86
911.932	5016.18
912.244	5016.18
912.557	5021.15
912.869	4956.97
913.181	4939.57
913.494	4906.35
913.806	4893.92
914.118	4906.35
914.43	4853.02
914.742	4847.15
915.054	4791.1
915.366	4807.15
915.678	4750.43
915.99	4785.91
916.302	4662.97
916.613	4699.58
916.925	4723.99
917.236	4727.6
917.548	4690.09
917.859	4645.12
918.171	4628.85
918.482	4584.1
918.794	4567.61
919.105	4599.92
919.416	4545.01
919.727	4553.37
920.038	4553.14
920.349	4501.39
920.66	4477.66
920.971	4482.18
921.282	4480.6
921.593	4441.96
921.903	4445.8
922.214	4432.02
922.525	4345.46
922.835	4340.27
923.146	4366.26
923.456	4341.17
923.767	4349.08
924.077	4311.57
924.387	4348.18
924.697	4295.52
925.008	4256.65
925.318	4266.14
925.628	4245.35
925.938	4218.46
926.248	4208.75
926.558	4164.45
926.867	4151.8
927.177	4146.83
927.487	4103.89
927.796	4112.25
928.106	4085.13
928.416	4038.13
928.725	4099.37
929.034	4010.33
929.344	4075.42
929.653	3964.68
929.962	4001.75
930.271	3985.93
930.581	3929.88
930.89	3934.18
931.199	3894.63
931.508	3870.22
931.817	3886.49
932.125	3857.12
932.434	3885.36
932.743	3838.13
933.051	3805.82
933.36	3771.47
933.669	3764.46
933.977	3755.2
934.286	3742.09
934.594	3758.59
934.902	3721.53
935.21	3726.95
935.519	3697.12
935.827	3703.45
936.135	3674.97
936.443	3593.85
936.751	3645.82
937.059	3603.79
937.367	3572.15
937.674	3636.1
937.982	3591.59
938.29	3600.63
938.597	3569.21
938.905	3527.86
939.213	3505.03
939.52	3521.08
939.827	3507.29
940.135	3491.25
940.442	3479.95
940.749	3462.78
941.056	3407.64
941.363	3453.74
941.67	3424.59
941.977	3414.19
942.284	3375.55
942.591	3365.15
942.898	3394.08
943.205	3326.96
943.511	3300.75
943.818	3336.9
944.125	3285.15
944.431	3283.12
944.738	3284.7
945.044	3249.45
945.35	3259.39
945.657	3212.84
945.963	3258.71
946.269	3220.3
946.575	3202.67
946.881	3166.96
947.187	3196.57
947.493	3169.22
947.799	3139.17
948.105	3097.59
948.41	3098.27
948.716	3104.59
949.022	3088.1
949.327	3074.76
949.633	3019.62
949.938	2992.96
950.244	3045.84
950.549	2983.47
950.854	3023.24
951.16	2980.08
951.465	2985.27
951.77	2987.76
952.075	2931.49
952.38	2947.99
952.685	2905.73
952.99	2926.52
953.294	2919.74
953.599	2910.02
953.904	2907.99
954.209	2853.07
954.513	2864.15
954.818	2826.41
955.122	2836.8
955.426	2802.68
955.731	2789.35
956.035	2825.05
956.339	2792.06
956.643	2789.12
956.948	2751.83
957.252	2750.03
957.556	2765.85
957.86	2724.49
958.163	2717.03
958.467	2700.99
958.771	2711.38
959.075	2723.13
959.378	2682.91
959.682	2695.79
959.985	2643.14
960.289	2635
960.592	2673.19
960.896	2616.47
961.199	2597.94
961.502	2646.75
961.805	2584.61
962.108	2577.83
962.411	2584.16
962.714	2529.47
963.017	2567.21
963.32	2539.18
963.623	2515
963.926	2524.95
964.228	2493.08
964.531	2486.76
964.833	2477.49
965.136	2463.25
965.438	2468
965.741	2456.02
966.043	2457.6
966.345	2461.9
966.648	2425.06
966.95	2441.79
967.252	2433.2
967.554	2406.98
967.856	2358.62
968.158	2360.66
968.46	2372.86
968.761	2371.05
969.063	2332.18
969.365	2334.22
969.666	2359.75
969.968	2312.3
970.269	2332.86
970.571	2287.44
970.872	2327.44
971.174	2290.15
971.475	2270.49
971.776	2259.64
972.077	2245.41
972.378	2257.61
972.679	2253.54
972.98	2246.31
973.281	2222.36
973.582	2227.55
973.883	2203.83
974.183	2218.97
974.484	2179.65
974.785	2169.48
975.085	2144.17
975.386	2183.49
975.686	2170.61
975.986	2167.67
976.287	2125.86
976.587	2127.22
976.887	2141.23
977.187	2067.11
977.487	2120.21
977.787	2094.9
978.087	2071.4
978.387	2052.64
978.687	2059.88
978.987	2060.55
979.286	2038.41
979.586	2075.69
979.885	2043.6
980.185	2049.25
980.484	1988.92
980.784	1977.39
981.083	2004.74
981.382	1970.39
981.682	1976.94
981.981	1989.59
982.28	1958.86
982.579	1916.6
982.878	1941.69
983.177	1929.26
983.475	1957.51
983.774	1910.27
984.073	1918.64
984.372	1910.05
984.67	1870.73
984.969	1879.77
985.267	1907.34
985.566	1858.75
985.864	1867.11
986.162	1850.16
986.461	1837.73
986.759	1816.72
987.057	1833.44
987.355	1824.63
987.653	1826.89
987.951	1806.32
988.249	1810.39
988.547	1795.7
988.844	1789.37
989.142	1802.48
989.44	1775.14
989.737	1764.06
990.035	1751.86
990.332	1751.41
990.63	1719.32
990.927	1710.05
991.224	1760.45
991.521	1696.95
991.819	1722.71
992.116	1712.54
992.413	1712.77
992.71	1698.08
993.006	1676.38
993.303	1688.59
993.6	1668.93
993.897	1657.63
994.193	1657.85
994.49	1632.77
994.787	1625.76
995.083	1623.73
995.379	1627.57
995.676	1606.78
995.972	1608.14
996.268	1611.98
996.565	1587.57
996.861	1607.68
997.157	1584.86
997.453	1567.01
997.749	1571.3
998.044	1567.91
998.34	1567.23
998.636	1553.22
998.932	1535.14
999.227	1527.23
999.523	1524.75
999.818	1489.27
1000.114	1523.62
1000.409	1513.22
1000.704	1487.69
1001	1466.44
1001.295	1463.96
1001.59	1470.74
1001.885	1463.96
1002.18	1460.12
1002.475	1439.1
1002.77	1438.65
1003.065	1411.98
1003.359	1421.7
1003.654	1459.21
1003.949	1431.42
1004.243	1408.82
1004.538	1412.89
1004.832	1399.33
1005.127	1408.14
1005.421	1391.19
1005.715	1369.95
1006.009	1371.53
1006.304	1355.49
1006.598	1358.42
1006.892	1333.79
1007.186	1355.03
1007.48	1336.5
1007.773	1335.37
1008.067	1358.65
1008.361	1298.09
1008.655	1305.77
1008.948	1287.92
1009.242	1290.63
1009.535	1304.87
1009.829	1298.99
1010.122	1270.52
1010.415	1262.61
1010.708	1256.51
1011.001	1253.34
1011.295	1220.58
1011.588	1238.43
1011.881	1224.19
1012.173	1232.78
1012.466	1230.52
1012.759	1212.44
1013.052	1223.96
1013.344	1247.02
1013.637	1204.76
1013.93	1200.01
1014.222	1195.04
1014.514	1193.91
1014.807	1187.58
1015.099	1163.85
1015.391	1175.6
1015.683	1152.55
1015.976	1179.9
1016.268	1115.49
1016.56	1136.28
1016.851	1111.88
1017.143	1127.02
1017.435	1109.39
1017.727	1138.77
1018.018	1104.87
1018.31	1090.64
1018.602	1099.45
1018.893	1087.92
1019.185	1092.22
1019.476	1063.52
1019.767	1081.6
1020.058	1061.94
1020.35	1047.47
1020.641	1034.37
1020.932	1070.97
1021.223	1042.27
1021.514	1032.56
1021.804	1019.22
1022.095	1029.17
1022.386	1029.17
1022.677	997.76
1022.967	955.72
1023.258	1006.57
1023.548	997.98
1023.839	988.94
1024.129	993.91
1024.419	967.47
1024.709	995.27
1025	952.56
1025.29	955.05
1025.58	936.06
1025.87	928.38
1026.16	948.04
1026.449	943.52
1026.739	898.55
1027.029	892.22
1027.319	923.18
1027.608	911.2
1027.898	889.28
1028.187	910.75
1028.477	908.72
1028.766	903.97
1029.055	885.89
1029.344	908.49
1029.634	881.6
1029.923	882.73
1030.212	861.04
1030.501	852.22
1030.79	875.05
1031.078	842.73
1031.367	846.57
1031.656	866.91
1031.945	841.38
1032.233	815.84
1032.522	823.07
1032.81	827.59
1033.099	819.68
1033.387	808.16
1033.675	820.13
1033.963	809.74
1034.251	813.58
1034.54	793.69
1034.828	802.28
1035.116	805.44
1035.403	810.19
1035.691	805.9
1035.979	783.75
1036.267	795.28
1036.554	752.34
1036.842	776.75
1037.129	763.64
1037.417	741.72
1037.704	771.55
1037.992	751.44
1038.279	717.54
1038.566	729.29
1038.853	729.29
1039.14	729.29
